75.5, 0.7618058688275651
76.00000000000023, 0.7615423621060358
76.5, 0.7614843710989772
77, 0.7618296782011564
77.50000000000023, 0.7626664730431791
77.99999999999977, 0.7636699401648386
78.50000000000023, 0.7644179913959521
79, 0.7646186293488588
79.49999999999977, 0.7644991909124963
80.00000000000023, 0.7644165898399324
80.5, 0.7646321474736935
81, 0.7650029187668499
81.50000000000023, 0.7652791080047479
82, 0.7652872662258254
82.5, 0.7651960130991386
82.99999999999977, 0.7652697304551199
83.5, 0.7657021815134271
84, 0.7663518521284951
84.5, 0.7669778363129942
85.00000000000023, 0.7674130982700238
85.5, 0.7678623512190208
85.99999999999977, 0.7686469682985826
86.5, 0.7699897595818652
87, 0.7715875847928981
87.5, 0.7729626506450016
87.99999999999977, 0.7737232787928867
88.5, 0.7739655746888334
89, 0.7739569743823944
89.49999999999977, 0.7739333300494298
90, 0.7739398130444277
90.5, 0.7739507843942022
91, 0.7739455602079004
91.50000000000023, 0.7739357728114704
92, 0.7739457366610616
92.5, 0.7739907267539148
92.99999999999977, 0.7740246445073002
93.5, 0.7739759503611734
94, 0.7737857780101309
94.5, 0.7734870043604292
95.00000000000023, 0.7731526583263655
95.5, 0.7728472992955593
96, 0.7725693898895842
96.50000000000023, 0.7722868646564898
97, 0.7719741868979764
97.5, 0.7716603378189666
98, 0.7714008603135818
98.5, 0.7712340950219005
99, 0.7710475232817839
99.5, 0.7706511256945576
100, 0.7698881637440329
100.5, 0.7689159328907087
101, 0.7680617709288724
101.5, 0.7676239781242544
102, 0.7675971578076175
102.50000000000023, 0.7678026495586279
103, 0.7680601919591499
103.5, 0.7681939652618779
104, 0.7680308187423186
104.5, 0.7674220981379969
105, 0.7664961083363793
105.5, 0.7655563905459368
106, 0.7648899021496964
106.5, 0.7645485883500298
107, 0.7644278714815533
107.5, 0.7644140423087173
108, 0.7643112958796827
108.5, 0.7638662863671468
108.99999999999977, 0.762848837575564
109.5, 0.7613706990262423
110, 0.7597957703126257
110.5, 0.7584774848483511
111.00000000000023, 0.7575218676049849
111.50000000000023, 0.7568430194515854
112, 0.7563527469101032
112.5, 0.7560074841290665
112.99999999999977, 0.7558000765771618
113.5, 0.7557224700087519
114, 0.7557318231799015
114.5, 0.7557554471422032
115.00000000000023, 0.7557245358078128
115.5, 0.7556636283671949
116, 0.7556814820697584
116.5, 0.7558829220370629
117, 0.756227093399465
117.5, 0.756534942858835
118, 0.7566310349653962
118.5, 0.7565476209707149
118.99999999999977, 0.7565241033779293
119.5, 0.7567926655011545
120.00000000000023, 0.7571793516753798
120.5, 0.7570842857750693
121, 0.7559126705668937
121.50000000000023, 0.7537661332561079
122.00000000000023, 0.7515142210974151
122.49999999999977, 0.7500447073847318
123, 0.7495944152082425
123.50000000000023, 0.7496454142552753
124, 0.7496471720256133
124.5, 0.7493755281115557
125, 0.749004270412639
125.5, 0.7487286571075369
126, 0.7486434505549797
126.5, 0.7487145368783312
127, 0.7488976909997755
127.5, 0.7490781603092747
128, 0.7490460521503755
128.50000000000023, 0.7485877822938658
129, 0.74763492208702
129.5, 0.7463250586694483
130.00000000000023, 0.7448115744244885
130.5, 0.743254355724503
131, 0.7418230030851707
131.5, 0.7406864436416043
132.00000000000023, 0.739922092338785
132.5, 0.7394634939744535
132.99999999999977, 0.7392317543103868
133.5, 0.7391607304212424
134.00000000000023, 0.7392053868345065
134.5, 0.7393223321648099
135.00000000000023, 0.7394396641799699
135.5, 0.7394357739325037
136, 0.7391850422665895
136.5, 0.7386598068197032
137, 0.7380123381293593
137.5, 0.7374132765900079
138, 0.7369216430675558
138.5, 0.7363803628299481
139, 0.7356083763668202
139.5, 0.734533681756401
140, 0.7333068953401991
140.5, 0.7321055624594051
141, 0.7310664482695466
141.5, 0.7302385102482409
142.00000000000023, 0.7296590891426791
142.5, 0.7293163405412857
143, 0.7290866607826427
143.5, 0.728831253084804
144, 0.7284858392272284
144.5, 0.7281649027051846
145, 0.7280089453302154
145.5, 0.7280629095427102
146, 0.7281296107500255
146.5, 0.7279742893230112
147, 0.7274755138795008
147.5, 0.726815290733867
148, 0.7262257810609931
148.5, 0.7258561060432493
149, 0.7256203260186842
149.5, 0.7253912028027905
150, 0.7250472244833392
150.49999999999977, 0.7244840235217302
151, 0.723600462643643
151.49999999999977, 0.7223880482902072
152.00000000000023, 0.7211317860801625
152.49999999999977, 0.7201746433774909
153, 0.7197272531657484
153.5, 0.7195564631455427
154, 0.7193362037078985
154.5, 0.7188399785183435
155.00000000000023, 0.7181948778323965
155.5, 0.7176064411711554
156, 0.717222860193417
156.5, 0.7169766353551816
157, 0.7167495671192317
157.5, 0.7164247230267664
158, 0.7158902189105241
158.5, 0.7150354276903534
159, 0.7138258807280546
159.5, 0.7125485511068419
160, 0.7115752036032625
160.5, 0.7111861664036065
160.99999999999977, 0.7112529030184884
161.5, 0.7115326405367823
162, 0.7118211579699312
162.5, 0.712096917013676
163, 0.7123924289603405
163.50000000000023, 0.7127258923523019
164, 0.7130435951520471
164.5, 0.713269302723484
165, 0.7133465225369471
165.50000000000023, 0.7133238953514236
166, 0.7132849062033904
166.5, 0.7132954016735693
167.00000000000023, 0.71332152617264
167.5, 0.7132944715859009
168, 0.7131531830940576
168.5, 0.7128832692614597
169, 0.7124876343863817
169.5, 0.7119938835497788
170.00000000000023, 0.7115864873336823
170.5, 0.7115113602838485
171, 0.7119514309109767
171.5, 0.7126633124469872
172, 0.7132272296417259
172.5, 0.713286589274857
172.99999999999977, 0.7129423217549979
173.50000000000023, 0.7124952242828781
174, 0.7122041310159544
174.5, 0.71200111834909
175.00000000000023, 0.7116676208812169
175.50000000000023, 0.7110161095211374
176, 0.7101178507912695
176.5, 0.7091699690272777
177, 0.7083560251874792
177.50000000000023, 0.7077348489185022
178, 0.7073013078750212
178.50000000000023, 0.7070386435672009
179, 0.7068275019979693
179.49999999999977, 0.7064930758955688
180.00000000000023, 0.7058790833627782
180.5, 0.7050173695597557
181, 0.704046917342311
181.5, 0.7030997193658728
182.00000000000023, 0.7022209143503919
182.5, 0.7014035426568102
183, 0.700644391641372
183.5, 0.6999905662292676
184.00000000000023, 0.6995209518768761
184.5, 0.6993055350619719
185, 0.6993004472171458
185.5, 0.6993861230968834
186, 0.6994479558849866
186.5, 0.6994536364298289
187, 0.6994284372383992
187.5, 0.699398369735204
188, 0.699383227223149
188.5, 0.6993982254841384
189.00000000000023, 0.699461568611428
189.5, 0.6996381819321045
190, 0.7000291713727378
190.5, 0.7007257297850378
190.99999999999977, 0.7016419426471536
191.5, 0.702547644745015
192.00000000000023, 0.7032176290505985
192.5, 0.703588474664304
193, 0.7037353359120393
193.5, 0.7037385062901431
194, 0.7036909438004151
194.5, 0.7036970129515456
195.00000000000023, 0.7038561722756684
195.5, 0.704156859313485
196, 0.7044823733885455
196.49999999999977, 0.7047144348277676
197, 0.7047931201751247
197.5, 0.7047166116541961
198, 0.7044877951049313
198.5, 0.7041645086624277
199, 0.7038621201527633
199.5, 0.7036951782674428
200, 0.7036810392866366
200.5, 0.7037300737120344
201, 0.7037496154904765
201.5, 0.7037217693119218
202.00000000000023, 0.703715184379194
202.5, 0.7038022755350464
203, 0.7040195472804907
203.5, 0.7043597939889537
204, 0.7048128972839742
204.49999999999977, 0.7053586006906154
205, 0.7059636691255997
205.50000000000023, 0.7065939357016728
206, 0.7072117141833199
206.5, 0.7077745790687433
207, 0.7082402567497899
207.5, 0.7085896294959824
208, 0.7088363867778975
208.5, 0.7089964404735523
209, 0.7090712068401881
209.5, 0.7090404899259646
209.99999999999977, 0.70888288525942
210.5, 0.7086113698364107
211, 0.708292877904068
211.5, 0.707998335948365
212.00000000000023, 0.7077464322139222
212.5, 0.7074695374682682
213.00000000000023, 0.7070931858759173
213.5, 0.706647785666499
214, 0.7063462596155778
214.5, 0.7064181160235499
214.99999999999977, 0.7069239380823349
215.50000000000023, 0.7076145746039468
216, 0.7082088507967699
216.5, 0.7085598719008244
217, 0.7087802391923508
217.5, 0.7090116851362587
218, 0.709323069511701
218.5, 0.709634768922127
219, 0.709849342624485
219.5, 0.7099151652626143
220, 0.7098790796629426
220.49999999999977, 0.709800675415964
221, 0.7097363680158986
221.5, 0.7097353740891643
222, 0.7098458180598874
222.5, 0.7100860051370177
223, 0.7104028411900927
223.5, 0.7107328194229705
224, 0.71103297245217
224.5, 0.7113122773328115
224.99999999999977, 0.7115877881983639
225.5, 0.7118712724537155
225.99999999999977, 0.7121603691194522
226.49999999999977, 0.7124503840262597
227, 0.712738107578111
227.5, 0.7130245245026596
228, 0.7133113544066516
228.50000000000023, 0.7135994575999618
229, 0.7138871266372864
229.5, 0.7141721772828404
230, 0.714454348682523
230.5, 0.7147394614870244
231, 0.715034534264027
231.5, 0.7153400635603753
232, 0.7156347170339563
232.5, 0.7158926020959653
233, 0.7161108048715745
233.50000000000023, 0.716367848817786
234, 0.7167602895224556
234.5, 0.7173371265719846
235, 0.7179688496633483
235.5, 0.7184840713008385
236, 0.7188072103931284
236.49999999999977, 0.7192436428453002
237, 0.7201934200096853
237.50000000000023, 0.7218868344482208
238, 0.7238390956892715
238.5, 0.725377157217292
239, 0.7260165319189629
239.5, 0.7261142172039994
240, 0.7262618576512441
240.5, 0.7269160029848902
241.00000000000023, 0.7278943516148213
241.5, 0.7288259578327161
242, 0.7294068074870879
242.5, 0.7296684412448151
243, 0.7297472918900683
243.5, 0.7297646591394851
244, 0.7297612589740481
244.50000000000023, 0.729751151172209
245, 0.729746317503638
245.5, 0.7297471283029193
246, 0.7297498910993538
246.49999999999977, 0.729751392262693
247, 0.7297513060421787
247.5, 0.7297503750400629
248, 0.7297493410540274
248.5, 0.7297489298405173
248.99999999999977, 0.7297498608845068
249.5, 0.7297524413731677
250, 0.7297542001205528
250.50000000000023, 0.7297515185359491
251, 0.7297423136932275
251.5, 0.7297355277108628
252, 0.7297449100050803
252.5, 0.7297944186558001
253.00000000000023, 0.7299856327090981
253.5, 0.7304558501685992
253.99999999999977, 0.7313033736504684
254.5, 0.7323087140684066
255, 0.7330981155841527
255.5, 0.7333663450398893
256, 0.7334091417692843
256.5, 0.7338298644477805
257, 0.7351469649900884
257.4999999999998, 0.7370733013353026
258, 0.7388870877994551
258.5000000000002, 0.7399310689418408
259.0000000000002, 0.7402248240997102
259.5, 0.7401726991207913
260, 0.7401731917843597
260.5, 0.7405165370539866
261, 0.7414281449229865
261.5, 0.7430830452815267
262.0000000000002, 0.7450983859009681
262.5000000000002, 0.746739578496814
263, 0.7473589770939573
263.5, 0.7474261086372505
264, 0.7481519501708362
264.5, 0.7506430181309591
264.9999999999998, 0.7544770394340563
265.5, 0.7581639532526885
266, 0.7602848133608593
266.5, 0.7607189822335156
267, 0.7602999199536657
267.5, 0.7598518532052811
268, 0.759727775370757
268.5, 0.75991639272822
269, 0.760390963846874
269.5, 0.7610273207870084
270, 0.7616220806930285
270.5, 0.7619781492448847
270.9999999999998, 0.7620497103992183
271.4999999999998, 0.7619202995208818
272, 0.7616814409018646
272.5, 0.7614977940528154
272.9999999999998, 0.7615997755645045
273.5, 0.7622039571326906
274, 0.7631897124327938
274.5, 0.7641176338570204
274.9999999999998, 0.7645586708799623
275.5, 0.7646038225748992
276, 0.7648610145183317
276.5, 0.7659345435687797
277.0000000000002, 0.76778387750269
277.5, 0.7696945720632518
278, 0.7709406487322976
278.4999999999998, 0.7713487088287829
278.9999999999998, 0.771352565817228
279.5, 0.7714133877562972
280, 0.7718787668600933
280.5000000000002, 0.7729650619393487
281, 0.7748667963430471
281.5, 0.7772900364740238
282, 0.7793473254247996
282.5, 0.7801435393797864
283, 0.7798379175935999
283.5, 0.7799371369337267
283.9999999999998, 0.7820023061671124
284.5, 0.7861897401258606
284.9999999999998, 0.7907673023779929
285.5, 0.7938949728126343
286, 0.794915295722491
286.5, 0.7948433456969264
287, 0.794809700262483
287.5, 0.7953451362187289
288, 0.7960877271635329
288.4999999999998, 0.7966068100413533
289.0000000000002, 0.7967119011096266
289.5000000000002, 0.7965887824928155
290, 0.7964546786394633
290.5, 0.7964272054837285
291.0000000000002, 0.796459679521967
291.5, 0.7964904349931778
292, 0.7964891408521009
292.5, 0.7964799012435118
293, 0.7964919763014557
293.5, 0.7965264000416161
294.0000000000002, 0.7965325451310099
294.5, 0.7964544338155217
295, 0.7962557996899988
295.5, 0.7959383996134521
296, 0.7955091767765259
296.5, 0.7950978251920144
297, 0.7950836963995243
297.5, 0.7958743397755366
298, 0.797498494844697
298.4999999999998, 0.7991722440567104
299, 0.8000096916785708
299.5, 0.7998299873185475
300, 0.8000483658287423
300.5, 0.8022961334338368
301, 0.8071668544517963
301.5, 0.8127739571377857
302, 0.8168705617530647
302.5000000000002, 0.8181677966038661
303, 0.8177950415170627
303.5, 0.8172563859505009
304, 0.8175076304379936
304.5, 0.8180420975937635
305, 0.8181122609166231
305.5000000000002, 0.8172694975006167
306, 0.8159080513014538
306.4999999999998, 0.8145695650816733
307.0000000000002, 0.8136549964869901
307.5, 0.8131457185896498
308, 0.8129452392430476
308.4999999999998, 0.81298421928122
309, 0.81327900713027
309.5000000000002, 0.8138628028895518
310, 0.8147174914315038
310.5, 0.8156535440915005
311, 0.8164456869923433
311.5, 0.8169320835423122
312, 0.8171752788113205
312.5, 0.8172874039474147
313, 0.8173881491811064
313.5, 0.8176255230874676
314, 0.8181541643840435
314.5, 0.8190752076477938
315, 0.8202774584667114
315.5, 0.8215970587534462
316, 0.8228856568451024
316.4999999999999, 0.8240600903177124
317.0000000000002, 0.8250543248670512
317.5, 0.8258196783029144
318, 0.8263847515975495
318.5, 0.8267996536295097
319, 0.8271151169419244
319.5, 0.8273848130560673
320, 0.8276632796331651
320.5000000000001, 0.8279873537251936
321, 0.8283053452562812
321.4999999999999, 0.8285379450698347
322, 0.8286248469012316
322.5, 0.8286065438232031
322.9999999999999, 0.8285568077357888
323.5, 0.8285377054700322
324.0000000000002, 0.8285453750530951
324.4999999999999, 0.8285529304875883
324.9999999999999, 0.8285606884595746
325.5000000000001, 0.8287313753065408
326, 0.8292876854609039
326.5, 0.830418634221648
327.0000000000002, 0.8320993832422046
327.5, 0.834221643875541
328, 0.8366354200740533
328.4999999999999, 0.8389115149862196
329, 0.8405056439666545
329.5000000000001, 0.8410070563271497
330, 0.8409619899877756
330.5000000000001, 0.8413331883848032
331, 0.8429347330200412
331.4999999999999, 0.8454375420327196
332.0000000000001, 0.8479874505520288
332.5, 0.8498082759631134
333, 0.8507772621586547
333.4999999999999, 0.851088269010198
334, 0.8509688099955022
334.5, 0.850918657094264
334.9999999999999, 0.8515766905236735
335.5, 0.853471354379471
336, 0.856105102483457
336.4999999999999, 0.8584278299785768
337.0000000000001, 0.8594936443605785
337.5000000000001, 0.8594326234954068
338, 0.8589854192319375
338.4999999999999, 0.8588446885661569
339, 0.8591255706014556
339.5, 0.8595980155932588
339.9999999999999, 0.8600395257501521
340.5, 0.8603646558091333
341, 0.8605742174972606
341.4999999999999, 0.8606809354857747
342.0000000000001, 0.8608249513899833
342.5, 0.8612308229803693
343, 0.8621001925112783
343.5, 0.8633184530213667
344.0000000000001, 0.8645504982814205
344.5000000000001, 0.8654774982374447
344.9999999999999, 0.8660699350739809
345.5000000000001, 0.8665105300046079
346.0000000000001, 0.8669789887157298
346.5, 0.8675363247133938
347.0000000000001, 0.8681519555653257
347.5000000000001, 0.8687921871154596
348.0000000000001, 0.8694112782586625
348.5, 0.8699537097691279
349.0000000000001, 0.8703672926214396
349.5, 0.870663318041794
350, 0.8709072628033789
350.5000000000001, 0.8711639270374547
351.0000000000001, 0.8714520249440367
351.4999999999999, 0.8717489054578595
351.9999999999999, 0.8720317161460478
352.5, 0.8723039159687043
353, 0.8725937954406684
353.4999999999999, 0.8729280244434954
354.0000000000001, 0.8732744989917878
354.5, 0.8735427946487171
354.9999999999999, 0.8736446358455181
355.5000000000001, 0.8736073053259392
356.0000000000001, 0.8735786483185977
356.5, 0.873707204340145
356.9999999999998, 0.8740060216953267
357.5000000000001, 0.8743395180667684
358.0000000000001, 0.8745700158966003
358.4999999999999, 0.874725760894788
359, 0.8750263874890045
359.5000000000001, 0.8756964622559895
359.9999999999999, 0.8767700013725432
360.5, 0.8780498835360289
361, 0.8793279821643705
361.5, 0.8805043383877531
361.9999999999999, 0.8816169882449292
362.5000000000001, 0.882710873311596
363, 0.8837443626581605
363.4999999999999, 0.8845596490576872
364.0000000000001, 0.8849941508221928
364.5, 0.8850447133891792
364.9999999999999, 0.8849332704212833
365.5, 0.8848968172215863
365.9999999999999, 0.8850683706990969
366.5000000000001, 0.8854264646184375
366.9999999999999, 0.8859366826424742
367.5, 0.8865392372381593
368, 0.8871346643023763
368.4999999999999, 0.8876208993993595
369, 0.8879565395037996
369.5, 0.888200062318675
369.9999999999999, 0.8884190656614939
370.5, 0.8886650122700483
370.9999999999999, 0.8889613847425875
371.5, 0.8893289341900787
371.9999999999999, 0.8897942472344242
372.5, 0.8903945718678439
373, 0.8911677173877182
373.5, 0.892084060736497
374, 0.8929841368159601
374.5000000000001, 0.8936942851279903
374.9999999999999, 0.8941218420373329
375.5000000000001, 0.8943385797354131
376.0000000000001, 0.8944360401390683
376.5000000000001, 0.8944779192315391
376.9999999999999, 0.8944682850911041
377.5, 0.8944036551485965
378, 0.8943128260356892
378.5, 0.8942975329079899
379.0000000000002, 0.8944693623015709
379.5000000000001, 0.8948924751895702
380, 0.8955179001324245
380.5000000000001, 0.896280294623998
381, 0.897169435269725
381.5000000000001, 0.898313971105638
381.9999999999998, 0.8998637816347861
382.5, 0.9018016649916234
383, 0.9036656011955
383.4999999999999, 0.9049206397413267
384.0000000000001, 0.9052673532238427
384.5, 0.905069185391987
384.9999999999999, 0.9048051972327706
385.5000000000002, 0.9047521643558789
386, 0.9045847229790958
386.5, 0.903866056796987
387, 0.9023584690537749
387.5000000000001, 0.9004514100415473
388, 0.8986574665941514
388.4999999999999, 0.8973669870501861
389, 0.8965627926955175
389.5, 0.8961428821880892
390.0000000000001, 0.8960047637723452
390.5000000000001, 0.8960442144806686
391, 0.8961566296350594
391.4999999999999, 0.8962477737491557
391.9999999999999, 0.8962621804249595
392.5, 0.8961534422702377
393, 0.8959636189787301
393.4999999999999, 0.8960851541255401
394, 0.896997224701173
394.5000000000001, 0.8989558848087158
394.9999999999999, 0.9012810320909814
395.5000000000001, 0.9030470800272541
396.0000000000001, 0.903581822820452
396.4999999999999, 0.9033393392473663
396.9999999999999, 0.903086535877643
397.5, 0.9034200030960129
398, 0.9041341228820863
398.5, 0.9047873234020511
399.0000000000001, 0.9050288205925119
399.5000000000001, 0.904961144838482
400, 0.9048279780859763
400.5000000000002, 0.9048233767274994
401.0000000000001, 0.9048785759882845
401.5, 0.9048382086959783
402, 0.9046752487645089
402.5, 0.9050831078129096
403, 0.9070063098733889
403.5, 0.9090861923581759
404, 0.911421731949607
404.5, 0.9139981763616418
405, 0.916598740550971
405.5, 0.919006639474284
406, 0.9210050880882705
406.5000000000001, 0.9231539116829315
407, 0.9238504920338253
407.5, 0.9238714627122808
407.9999999999999, 0.924189159478201
408.5, 0.9250092164349166
409.0000000000001, 0.9262041992458505
409.4999999999999, 0.9276092401087952
409.9999999999999, 0.9287858011394332
410.5, 0.9291698724866291
411, 0.9282930232095623
411.4999999999999, 0.9264639176204619
411.9999999999999, 0.9243670716469967
412.5000000000001, 0.9226330034051753
413.0000000000001, 0.9214065589511375
413.5, 0.9205848839640971
414, 0.9200648709109678
414.5, 0.9197592351942767
415, 0.9195891985046973
415.5000000000001, 0.9194834018011058
416, 0.9194423857673011
416.5, 0.9195074186496428
416.9999999999999, 0.9197129360522203
417.5, 0.9200169257851167
418.0000000000001, 0.920331763102092
418.4999999999999, 0.9205800796435619
419.0000000000001, 0.920806381926081
419.5, 0.9211317456622603
420, 0.9216715589865379
420.5, 0.9224585396773497
421.0000000000001, 0.9234707310012804
421.5, 0.9246848731891562
421.9999999999999, 0.9260734480563402
422.5000000000001, 0.9276059735009836
422.9999999999999, 0.9292439151599585
423.5, 0.9308376814570432
424.0000000000001, 0.9321563512002995
424.5, 0.9329829091741573
425, 0.9333365860113789
425.4999999999999, 0.9334186094555759
426, 0.9334273988787838
426.5, 0.9334400410390933
426.9999999999999, 0.9334353112000158
427.5, 0.9333866310249304
428, 0.9332231934913613
428.5, 0.9328365039287381
429, 0.9321320614528019
429.5, 0.931304492208181
430.0000000000001, 0.9308074866540792
430.4999999999999, 0.9310783881472333
431, 0.9320262473246277
431.4999999999999, 0.9330623926935071
431.9999999999999, 0.9336014562061719
432.5000000000001, 0.9335712331761339
432.9999999999999, 0.9334078478478043
433.5, 0.9335551986028825
434.0000000000001, 0.934111506712338
434.5000000000001, 0.9348149673018133
435, 0.9353931339600263
435.4999999999999, 0.9357419963644531
436.0000000000001, 0.9359419965028617
436.5000000000001, 0.9360804487459704
436.9999999999999, 0.9361688154499488
437.5, 0.9361312162273492
437.9999999999999, 0.935888553378659
438.4999999999999, 0.9354156701679646
439.0000000000001, 0.9347527271692089
439.5, 0.9339443586407095
439.9999999999999, 0.9330558719173723
440.5, 0.9321789023147296
441, 0.9314054955759021
441.5, 0.9307736114544742
441.9999999999999, 0.9302487549630838
442.5, 0.9297922371773106
443, 0.929406554453482
443.4999999999999, 0.9291522493851889
444.0000000000001, 0.929092202741616
444.5, 0.9291805910683015
445.0000000000001, 0.9292103696061582
445.4999999999998, 0.9289654044291498
446, 0.9284719787988498
446.4999999999999, 0.9281348104499731
447, 0.9283825299690944
447.5000000000001, 0.9290108626804954
448, 0.9287752841053252
448.5, 0.9263487706720366
449.0000000000002, 0.9215824520545775
449.5000000000001, 0.916366872382042
450, 0.9127838174393821
450.4999999999999, 0.9117730218213667
451.0000000000001, 0.9121914590223377
451.5, 0.9126793109800824
452, 0.9124184919392266
452.5, 0.9116321442822106
453, 0.9106607985590562
453.5, 0.9097407120777505
454.0000000000001, 0.9088968373630988
454.4999999999999, 0.9081276981578164
455.0000000000001, 0.9072775862478586
455.4999999999999, 0.9058611350783266
456.0000000000001, 0.9033524244724567
456.5, 0.8996475173068503
457, 0.8955942302069639
457.5000000000001, 0.8921695257364077
458, 0.8899912075697982
458.4999999999999, 0.8888219145923186
459, 0.8882996709906097
459.5, 0.8880334703811792
459.9999999999999, 0.8875593016259984
460.4999999999999, 0.8864024019964973
461.0000000000001, 0.8843875786670266
461.5, 0.8821356651790524
462, 0.880397851546433
462.5, 0.8796013223682044
463, 0.8792631061467933
463.4999999999999, 0.8787417883717052
464.0000000000001, 0.87764675367544
464.5, 0.8763324960358603
464.9999999999999, 0.8752911712038796
465.5, 0.8748311429706466
466, 0.8746830287342586
466.5, 0.8744642255340196
467, 0.8738493526431532
467.5000000000001, 0.8727034276128296
468, 0.8709310223092548
468.5, 0.8684919945856941
469.0000000000001, 0.865540983990946
469.5000000000001, 0.8622755047365931
469.9999999999999, 0.8589361863333396
470.4999999999999, 0.8559245427468984
471.0000000000001, 0.8536796067018617
471.5, 0.852491804083785
472, 0.8520641502786803
472.5000000000001, 0.8519545416034318
472.9999999999999, 0.8517923159648428
473.4999999999999, 0.8515059657653774
474, 0.8511022743960781
474.5, 0.8505925709998616
474.9999999999999, 0.85000834942745
475.4999999999999, 0.8493866932868863
476, 0.8487642259529087
476.5000000000001, 0.8481754065398224
477, 0.8476540588350563
477.5000000000001, 0.8472317143958987
477.9999999999999, 0.8469284867206623
478.5, 0.8467609409164729
479.0000000000001, 0.8467310938278465
479.5000000000001, 0.8467641443563594
479.9999999999999, 0.8467600280341119
480.4999999999999, 0.84665315599159
481, 0.8465710810977221
481.4999999999999, 0.8467085475703626
481.9999999999999, 0.8471646355092246
482.5000000000001, 0.8474696981957723
483, 0.8469448912462261
483.5000000000001, 0.8450528392141818
484.0000000000002, 0.8421502851608351
484.5000000000001, 0.8389415602028294
485.0000000000001, 0.8360338539404555
485.4999999999999, 0.8333785977124648
486.0000000000001, 0.830657927601381
486.5, 0.8275439825126816
486.9999999999999, 0.8236436097829831
487.5000000000001, 0.8185353456291973
488, 0.8120148744117384
488.4999999999999, 0.8055225104907822
489.0000000000001, 0.8012512078562348
489.5, 0.8009069362289505
490, 0.8022403178043511
490.5, 0.8010924175268137
491.0000000000001, 0.7938829100286307
491.5, 0.7821049374252331
492, 0.769834498917076
492.5000000000001, 0.7607890041231342
493.0000000000001, 0.7552149666306258
493.4999999999999, 0.7514963312735059
494, 0.7480518384446213
494.4999999999999, 0.743814363585664
495, 0.7380074931167009
495.4999999999999, 0.7299842452292582
496, 0.720416018650551
496.5, 0.7107594264386801
497, 0.7023838891592922
497.5, 0.6955663518180919
498, 0.6898986118301811
498.4999999999999, 0.6849400726334296
498.9999999999999, 0.6799882789118139
499.5000000000001, 0.674167897721605
500.0000000000001, 0.6667213025682142
500.4999999999999, 0.6584468166680215
501, 0.6512238332521625
501.5, 0.6467987986198187
502, 0.6447728951744869
502.5, 0.643179016389392
503, 0.6401433173097424
503.5000000000001, 0.6357204813290347
504, 0.6314482987268826
504.5, 0.6287721958435282
504.9999999999999, 0.6270325896441526
505.4999999999999, 0.6238672323780485
506.0000000000001, 0.617007344372807
506.5, 0.6066705983696712
507, 0.5951897397057644
507.5000000000001, 0.5849208492202014
508, 0.5773840712373497
508.4999999999999, 0.5733518221301728
508.9999999999999, 0.5734416399169802
509.5, 0.5756175192305155
510, 0.5753477640528741
510.4999999999999, 0.5682159419430224
511, 0.5545887535166341
511.5, 0.5395628240243984
511.9999999999999, 0.5282935955823007
512.5, 0.5224119560407949
513, 0.519884248325398
513.5, 0.5185261252609688
514, 0.5166973331616727
514.5000000000001, 0.5133524229062654
515.0000000000001, 0.5075281478617812
515.5, 0.4998201623142331
516, 0.49261608314163197
516.5, 0.48834481750883296
517, 0.4875200619239115
517.5, 0.4883403834307516
518, 0.48889622162314317
518.5, 0.4884031675181695
518.9999999999999, 0.4875072549663484
519.5000000000001, 0.48693170384158435
519.9999999999999, 0.4867626145677033
520.5, 0.4862340721199625
521, 0.4845261655424804
521.4999999999999, 0.48107496306071895
522, 0.4756766786379194
522.5000000000001, 0.4681702495233857
523.0000000000001, 0.4592275416599976
523.5, 0.45075358823333755
524, 0.44473398619802973
524.5, 0.4419959642324982
525.0000000000001, 0.44156162227895424
525.5, 0.44229560035064264
526, 0.4429890217275396
526.5000000000001, 0.4423123908815203
526.9999999999999, 0.4389412217057149
527.5, 0.4328801361750845
528, 0.42643037618749324
528.5, 0.42210584251148164
529, 0.4209310193379505
529.5000000000001, 0.4212190132734164
530, 0.42100249816782687
530.5, 0.419147302745851
531, 0.4161177138136585
531.5, 0.4125587015425003
532, 0.4090792074737817
532.5000000000001, 0.4062152957923859
533, 0.4044915811687222
533.5, 0.40396946939963563
533.9999999999999, 0.4037221119584309
534.5, 0.402698106068748
534.9999999999999, 0.4003813935284446
535.4999999999999, 0.3974611147102216
536.0000000000001, 0.3947899264136099
536.5, 0.39286449533576917
537, 0.39133544994719216
537.5000000000001, 0.38973108705126003
538.0000000000001, 0.38782095364850977
538.4999999999999, 0.3859801400999405
539, 0.38467672740659475
539.5, 0.3841061443250673
540, 0.3837406945363633
540.5, 0.3829344536333077
541.0000000000001, 0.38128891877867255
541.5000000000001, 0.379099283480528
541.9999999999999, 0.376781254047049
542.5000000000001, 0.3745586006051196
543, 0.3720859620151604
543.4999999999999, 0.3689130952596722
543.9999999999999, 0.36485685534274626
544.5, 0.3605720834564712
544.9999999999999, 0.35687747251234847
545.4999999999999, 0.35431702249232333
546.0000000000001, 0.3525225217112342
546.5, 0.3509366570123127
547, 0.3491598495989918
547.5, 0.3473471524399696
548, 0.34577545751726024
548.5, 0.3446413020713399
548.9999999999999, 0.34384197189125687
549.5, 0.3432051044866522
550.0000000000001, 0.3425613945987378
550.5, 0.341753597648085
551.0000000000001, 0.34062744274047585
551.5, 0.3390887624993002
551.9999999999999, 0.3372945691964453
552.5000000000001, 0.3354674808431466
553.0000000000001, 0.33377119020209034
553.5000000000001, 0.3321085025789119
553.9999999999999, 0.33031004642855955
554.5, 0.32829479814879736
555.0000000000001, 0.3263961928792287
555.5, 0.3250690931793967
556, 0.3246139558825152
556.5, 0.324563541073007
557, 0.32421249654860707
557.5, 0.3230032338739135
558, 0.32115726799810296
558.5, 0.3191518443554302
558.9999999999999, 0.31740013347855967
559.5000000000001, 0.31595638031264683
559.9999999999999, 0.3147502043088928
560.5, 0.31373887789975985
561, 0.31304435492349847
561.4999999999999, 0.31284904943399683
561.9999999999999, 0.31321021944829996
562.5, 0.3133969539167163
563, 0.3123725202676739
563.5, 0.31083069864935275
564, 0.3090147692471923
564.5000000000001, 0.30693895900694
565, 0.30479212628620145
565.4999999999999, 0.3027631294425812
566.0000000000001, 0.30104082683368416
566.5, 0.29912217079943626
567, 0.2983430283849613
567.5, 0.29817928343914213
568, 0.2978762210832149
568.5, 0.2974398028494396
569, 0.29724255750320605
569.5, 0.29759944491521995
570, 0.2983121033436753
570.5, 0.2989213174739973
571, 0.299018736133964
571.5, 0.2986794707710172
572, 0.2982376038105714
572.5, 0.2979895712751026
573.0000000000001, 0.29784060340879326
573.5, 0.29747512371031615
574, 0.2966138558374758
574.4999999999999, 0.29538202599311836
575, 0.29414535009643594
575.5000000000001, 0.29324252072491386
576, 0.29267505568589325
576.5000000000001, 0.2922333865916038
577, 0.291719817074479
577.5, 0.291117505096826
578, 0.2905287978653319
578.5, 0.2900528932639055
579.0000000000001, 0.28972149655384327
579.5, 0.28951950126775117
580, 0.2894298969283302
580.5000000000001, 0.2894223604445372
580.9999999999999, 0.2894568535199191
581.5, 0.2894941446457582
581.9999999999999, 0.2895103176513609
582.5000000000001, 0.2894932139757773
583.0000000000001, 0.2894342434297901
583.5, 0.28937741326842215
584, 0.28940920131105785
584.5, 0.2896102452735121
585, 0.28993826989361327
585.5, 0.29024662576192006
585.9999999999999, 0.2903929497175266
586.5, 0.29037864050730233
587, 0.29033346746568833
587.5000000000001, 0.29038372950506974
588, 0.290491436017551
588.5, 0.29046434587583736
589, 0.2901145237171938
589.5, 0.28948498138839285
590, 0.28884671614155066
590.5, 0.28847182492329737
591, 0.28842108690210577
591.5, 0.2885359480698184
591.9999999999999, 0.2886507995502574
592.5000000000001, 0.28868482312381016
593.0000000000001, 0.28864973441478337
593.5000000000001, 0.28856322796652223
594.0000000000001, 0.28848164890596406
594.5, 0.2885056947721256
595, 0.2887290770959037
595.5, 0.28893322221829076
595.9999999999999, 0.2885227144576501
596.5, 0.2868964564470895
597, 0.28407351302229156
597.5, 0.28086001655611414
598.0000000000001, 0.27810280505234974
598.5, 0.2762321506689358
599, 0.275122222949022
599.5, 0.27460499043063846
600, 0.2743496169221191
600.5000000000001, 0.2737966103628122
601, 0.27238043016180535
601.5, 0.27012277868138757
602, 0.267913259386924
602.5, 0.26669833092325357
603, 0.26663281319954146
603.5, 0.26664005865358087
604.0000000000001, 0.26554875124406996
604.5, 0.2630117450097669
605, 0.2600317135851773
605.5000000000001, 0.2577279053373305
606, 0.2565321454132792
606.5, 0.25569054941023817
607, 0.25433637615492266
607.5, 0.2520464941766365
607.9999999999999, 0.24920388323212528
608.4999999999999, 0.24627539019186617
609, 0.24356052874945266
609.5, 0.2410383538603611
610, 0.23865215310609367
610.5, 0.2364049459132871
611.0000000000001, 0.23442035507153536
611.5, 0.23283576969772168
612, 0.2316581268222997
612.5, 0.23061655515169122
613, 0.22940562685870436
613.5, 0.22795246948633707
614, 0.22670678412636125
614.5, 0.2261879241011564
615, 0.2264497131965113
615.4999999999999, 0.2264416717974571
616, 0.22495497535427678
616.5000000000001, 0.22147368559391012
616.9999999999999, 0.21721775246564512
617.5, 0.21367355189546755
618, 0.2117741601556027
618.5, 0.2109879826290153
619, 0.2105440795241318
619.5, 0.209871496388927
620, 0.2089589055317802
620.5, 0.2078921490265926
621, 0.20679106778170375
621.5, 0.2058761220485108
622, 0.20538623155153202
622.5000000000001, 0.20540979480538324
623, 0.20556388633239253
623.5, 0.20537360952299855
624, 0.20452667178615558
624.4999999999999, 0.20324970701353662
625.0000000000001, 0.20188084630523084
625.5, 0.20067108213587748
626, 0.19956560898775377
626.5000000000001, 0.1984425783737751
627, 0.19722872636751054
627.5, 0.19603136719282732
628, 0.19499975994451857
628.5, 0.19424141614362256
629, 0.19369948008588844
629.5, 0.19327664975974823
630, 0.19286913007156592
630.4999999999999, 0.1923460442469338
631, 0.1915694560091037
631.5000000000001, 0.19046305198411329
632.0000000000001, 0.18922280862304808
632.5, 0.18811988539156177
633, 0.18735990597643593
633.5, 0.18684165989975599
634, 0.18637421719822234
634.5, 0.18580740277681462
635, 0.18519330285756208
635.4999999999999, 0.18464661567144125
636, 0.1842577953594473
636.5, 0.18398968698343365
637, 0.1837633306672246
637.5, 0.1835104639077092
638, 0.18322262059699135
638.5, 0.18291205714385184
639, 0.1825721966086129
639.5, 0.18208491144353722
639.9999999999999, 0.18129119805916893
640.4999999999999, 0.1800931301485167
641, 0.17877672926945554
641.5000000000001, 0.1777767130798229
642, 0.17744331847797756
642.5000000000001, 0.17756119089107214
643, 0.1776835779750492
643.5, 0.1774229298767902
644, 0.1768162133436202
644.5, 0.17608378681041925
645, 0.17542337891744975
645.5, 0.17485665977844
646, 0.1743250256285922
646.5000000000001, 0.17377519554203547
647, 0.17319987342801024
647.5, 0.17261388261745125
647.9999999999999, 0.17203105153940923
648.5, 0.1714554989014596
649.0000000000001, 0.17088641819210748
649.5, 0.1703222501111865
650, 0.16975492458007224
650.4999999999999, 0.16917289024449822
651, 0.16856817321220596
651.5, 0.16796793659522846
651.9999999999999, 0.16741914028227267
652.5, 0.16696696254931487
653, 0.1666357365842197
653.5, 0.166437424522627
654.0000000000001, 0.1663782964244498
654.5000000000001, 0.16640304356654223
655.0000000000001, 0.16641787430099964
655.4999999999999, 0.16633233698086025
656.0000000000001, 0.16610287291710968
656.5, 0.16571677320340372
657, 0.16516865630480426
657.5, 0.16454013369349463
658, 0.1639730482073638
658.5, 0.1635974739840731
659, 0.16336456574995628
659.5, 0.16309513474977733
660.0000000000001, 0.16262119099776173
660.5, 0.16198507221458325
660.9999999999999, 0.16139030492942297
661.5, 0.16102877207027078
662, 0.1608395521341861
662.5, 0.16055794608986718
663, 0.15993067100336988
663.5, 0.15900362270283974
664, 0.15807631262580646
664.5, 0.15744255226669956
665, 0.15713729221583206
665.5, 0.15696473423201462
666, 0.15672449454631643
666.5, 0.15628790712402507
667, 0.1555935254691101
667.5, 0.15458915723401923
668, 0.15337185025013733
668.5, 0.15218572524761687
669.0000000000001, 0.15127274735095142
669.5, 0.15066916791071394
670, 0.15019808887437636
670.5, 0.1496779348145374
671, 0.14906722121949612
671.5000000000001, 0.14847708463194564
672, 0.14802309336616304
672.5, 0.1477233593752394
673, 0.1474843540060169
673.5, 0.14720892401178842
674, 0.14688250162236516
674.5000000000001, 0.14659000481868745
675, 0.14642037509159422
675.5, 0.14639285228141752
675.9999999999999, 0.14643836884424744
676.5, 0.14648310646958862
677, 0.1464916097016884
677.5, 0.14647954733606916
678, 0.14646595600104595
678.5, 0.14646143119006805
679, 0.14646473367662205
679.5, 0.1464736769419166
680, 0.1464827838680014
680.5, 0.14648172259884884
681, 0.1464601130289256
681.5, 0.14642819175721478
682, 0.14642821010056206
682.5, 0.14650408030566853
683, 0.14662317354540821
683.5000000000001, 0.1466277245964167
684, 0.1463502053418444
684.5000000000001, 0.1457689871481067
685.0000000000001, 0.14511364930589687
685.5, 0.14463674359434409
686, 0.14441313405549483
686.5, 0.14419537628260093
687, 0.14370362318556174
687.5, 0.14284495582840373
688, 0.14188379354173497
688.5, 0.14112375387568488
689, 0.14071952961726764
689.5, 0.14052566984969683
690, 0.14036105097119744
690.5, 0.1401106490981312
691, 0.1397999468496529
691.4999999999999, 0.13947235647924394
692, 0.13916121818496352
692.5, 0.13887728117651932
693, 0.13862814135353485
693.5000000000001, 0.13839936173984402
694, 0.13812433765870447
694.5, 0.13772903270963077
695, 0.13718420716613533
695.5, 0.1365726393577713
696, 0.13599430885538366
696.4999999999999, 0.13553742473613317
697, 0.13525909683014525
697.5000000000001, 0.13521130718772945
697.9999999999999, 0.135406014542776
698.5, 0.1357433930017211
699, 0.13610428118898943
699.5, 0.13640643648970618
700.0000000000001, 0.13667666653205712
700.5, 0.13696180533762314
701, 0.13728438991436187
701.4999999999999, 0.13759102426201597
702.0000000000001, 0.13781352401822744
702.5, 0.13790477360679798
702.9999999999999, 0.13788735027384647
703.5, 0.13779822026898403
704, 0.13765221017311502
704.4999999999999, 0.13738660391044588
705, 0.13692171951612897
705.5, 0.13624277380928618
706, 0.13557572220967273
706.5, 0.13520232844416435
707.0000000000001, 0.1353070831478802
707.5, 0.13569225355577696
708, 0.13606623808520135
708.5, 0.13620475893430273
709, 0.136163780422494
709.5, 0.1360721744882789
710, 0.1360340868560419
710.5, 0.13604462258271433
711, 0.13606883839773642
711.5, 0.13607830625956252
712, 0.1360750446259651
712.5000000000001, 0.1360699571681061
713, 0.13607133171312968
713.5, 0.13607449815757722
714, 0.1360707829612502
714.5, 0.13605558728676348
715, 0.13604570616430367
715.5, 0.13606492972035777
716, 0.13612406537260568
716.4999999999999, 0.1361616372479002
717, 0.13609116773477847
717.5, 0.13585039274858257
718.0000000000001, 0.1355201622849016
718.5, 0.13523366839636353
719, 0.13510334889089837
719.5, 0.13511108592430476
720, 0.13518829535717503
720.5, 0.13526833144172823
721, 0.13529817281918977
721.4999999999999, 0.13523036176659442
721.9999999999999, 0.13502796109548498
722.5000000000001, 0.13472832545044433
722.9999999999999, 0.1344008439952038
723.4999999999999, 0.13410573647181723
724, 0.13383330656566184
724.5000000000001, 0.13354203849307922
725, 0.1332010425461605
725.5, 0.1328657847166963
726, 0.1326331934854581
726.4999999999999, 0.13258206473665357
727.0000000000001, 0.13263430713973356
727.5, 0.13263239330868437
727.9999999999999, 0.13243922830322674
728.5, 0.13210917163775493
729, 0.13179876804418855
729.5, 0.13165002779095003
730.0000000000001, 0.13165452104733477
730.5, 0.13171920911918011
731, 0.13175712121872385
731.5, 0.13175406183501348
731.9999999999999, 0.13173894905436878
732.5000000000001, 0.1317384747178818
733, 0.1317483266909183
733.5, 0.1317448515052
734, 0.13170842665497906
734.5000000000001, 0.13167094013318703
735.0000000000001, 0.131698107940855
735.5, 0.13185103421491284
736.0000000000001, 0.13212428512920216
736.5, 0.13246643851661188
736.9999999999999, 0.1328254136128355
737.5, 0.1331526772004299
738, 0.13340227596327692
738.5, 0.13353169773091578
738.9999999999999, 0.13354857959948951
739.5, 0.13349892487016568
740, 0.13342970857856518
740.5, 0.13338788202864826
740.9999999999999, 0.13342037742813107
741.5, 0.13357135600735637
742.0000000000001, 0.1338369676161486
742.5000000000001, 0.13417273280074316
743.0000000000001, 0.13453270052312094
743.5000000000001, 0.13486733760499892
744, 0.1351239232451733
744.5, 0.13525255115909518
745, 0.13526319008357301
745.5, 0.13522183181472025
746, 0.13519448236242626
746.5, 0.13519934479406626
747, 0.13520759443997754
747.5, 0.13519007574773578
748, 0.13515809589712102
748.5000000000001, 0.13516481524411716
749, 0.13526437574218741
749.5, 0.13548535802547645
750.0000000000001, 0.13582854305820202
750.4999999999999, 0.13629252993539787
751, 0.1368527017152381
751.5, 0.13745789228700467
752, 0.13805646929435866
752.5, 0.1386292484894418
752.9999999999999, 0.13919606640174642
753.5, 0.1397784060479137
754, 0.14037325200278694
754.5, 0.14094660467954823
755, 0.1414640476736091
755.4999999999999, 0.1419556511448774
756, 0.1425372739643085
756.5, 0.1433290453911873
757.0000000000001, 0.14437383498365675
757.5, 0.14560638083374133
758.0000000000001, 0.14695238497841645
758.5, 0.1482865690110864
759, 0.14940857302323618
759.5, 0.15011534036447083
760, 0.15040320949050923
760.5, 0.15057760504044504
761.0000000000001, 0.1509669383075476
761.5, 0.1516500816458657
761.9999999999999, 0.15229866051485663
762.4999999999999, 0.15255073966535448
763, 0.1523652539185263
763.5, 0.15225262400655826
764, 0.15277369157792542
764.5, 0.1541122941851727
764.9999999999999, 0.15576964658725512
765.4999999999999, 0.15717722158739145
766.0000000000001, 0.15801467899480626
766.5, 0.1584352645504059
767, 0.15864529098352564
767.4999999999999, 0.15882533590062797
767.9999999999999, 0.15910420459063124
768.5, 0.15960405997078597
769, 0.160372718588345
769.5, 0.16130025061251185
769.9999999999999, 0.1622567839884459
770.5, 0.16315468899707053
771, 0.1640009076531168
771.5, 0.16481525846733724
772, 0.16562595374203593
772.5, 0.1664810428831518
773, 0.1674313815167663
773.5, 0.1685058190803712
773.9999999999999, 0.16967828004583474
774.5000000000001, 0.1709142297617392
775, 0.1721625823282089
775.5, 0.1733286041080988
776, 0.1743105006682768
776.5, 0.17504530813635233
777, 0.17557830857676704
777.5, 0.1759734926147405
778, 0.17628834853262765
778.5, 0.17656119507301016
779, 0.17682683103280183
779.5, 0.17710967206148576
780, 0.17740174739967784
780.5, 0.17768879117687275
781.0000000000001, 0.17796387074286546
781.5, 0.17824426338857657
782, 0.17855223402579856
782.5, 0.17889159059854176
783, 0.17920162382468519
783.5000000000001, 0.17940753609962412
784, 0.17946381400222622
784.5, 0.17943335792809867
784.9999999999999, 0.17940415114471842
785.5, 0.1794342293685891
786, 0.17946418549987975
786.5, 0.1794058271265846
787.0000000000001, 0.17919727906138982
787.4999999999999, 0.17888599759541668
788, 0.17854782642555334
788.5, 0.17824316927912554
789, 0.1779644759027197
789.5, 0.17768550687034868
789.9999999999999, 0.17738790598973253
790.5, 0.17709008053108777
791, 0.17682114541512428
791.5, 0.17659423222483994
792, 0.17634348069841144
792.5, 0.17597867311939241
793, 0.17543890554806785
793.5, 0.17481686716610811
794, 0.17425536984103474
794.5000000000001, 0.1738682133551892
795, 0.17360788859859388
795.5, 0.1733711992889302
796, 0.17307528619697132
796.5, 0.172757439329855
796.9999999999999, 0.17249880789751604
797.5, 0.1723688320257093
798, 0.17236331859632825
798.5000000000001, 0.1724496653657659
799, 0.17258489340976224
799.5, 0.17265750653980394
800, 0.17252808140722387
800.5, 0.17208883068051906
801.0000000000001, 0.17145582859053832
801.4999999999999, 0.17084149867618503
802, 0.17042866565298187
802.5, 0.17017517902202073
803, 0.16993668866675415
803.5, 0.16959345264973136
804, 0.1692264004313806
804.5, 0.16901263484548368
805, 0.16908979403614266
805.5, 0.16925452411717767
806.0000000000001, 0.16913113144437997
806.5000000000001, 0.16838095737276726
807, 0.16701351270473275
807.5, 0.1652238023721062
808, 0.16321777238380486
808.5, 0.1612906206948348
809, 0.15978765155213726
809.5, 0.15900960010714327
809.9999999999999, 0.15878989639415586
810.5, 0.15868562121897112
811.0000000000001, 0.1582897034006856
811.5, 0.15763230112815618
812, 0.15701584915637978
812.5, 0.15672193494124986
813, 0.1567355299517308
813.5000000000001, 0.15684715416344597
814, 0.156852344100451
814.5, 0.15665377948099568
815, 0.15622806353424368
815.5, 0.15555862943358623
816, 0.15470249596776142
816.5, 0.1537701027855798
817.0000000000001, 0.1528673013791999
817.5, 0.1520143602517101
817.9999999999999, 0.15116618708821594
818.5, 0.1502800864740319
819, 0.1493780028930436
819.5, 0.14853380487213608
820, 0.1478185990190175
820.5, 0.14723040905230933
821.0000000000001, 0.14670551951831268
821.5, 0.14618000526078623
822, 0.14562238554669715
822.5, 0.1450300010834038
823, 0.1444029898295618
823.5000000000001, 0.14377811429920495
824, 0.14322634642166587
824.5, 0.14281215850120432
824.9999999999999, 0.1424260853479753
825.5, 0.14178783921702376
826, 0.14062172551848073
826.5, 0.13893931415015182
827, 0.1370487999318386
827.5, 0.13526880750529013
828, 0.133831573296888
828.5, 0.1328755423797836
829, 0.13252233700571958
829.5, 0.13253536008202982
830, 0.13226907151933265
830.5, 0.1310755668084167
831, 0.12896073705971078
831.5, 0.12671534373803173
832, 0.12515994927641527
832.5, 0.12450780440284825
833, 0.12420539826400123
833.5, 0.12365868552826953
834, 0.12262265838549302
834.5, 0.12131583915581334
835, 0.11998642458607378
835.5, 0.11877470368436782
836, 0.11767020283445317
836.5, 0.11665157657832381
837, 0.11571545104702086
837.5, 0.11488487368879552
838, 0.11418201274641104
838.5, 0.11345031590596122
839, 0.11225668037787573
839.5, 0.11055708136908216
840, 0.10918934700277605
840.5, 0.10765457669609946
841, 0.10605995507869359
841.5, 0.10451266678020188
842, 0.1031198964302642
842.5, 0.10172996468389739
843, 0.1002871500121727
843.5, 0.09881835337025846
844, 0.09667226956559993
844.5, 0.09488407148158862
845, 0.09283699653801891
845.5, 0.09070588614969877
846, 0.08866558173143568
846.5, 0.0868909246980385
847, 0.08533690577368835
847.5, 0.08434751366071946
848, 0.08454368776227339
848.5, 0.08500555055529624
849, 0.08513216231934262
849.5, 0.08503529842413471
850, 0.08492304157363506
850.5, 0.08491988328210454
851, 0.08495313164308849
851.5, 0.08492175196615515
852, 0.08475263547341294
852.5, 0.08444224230932784
853, 0.08399771622131036
853.5, 0.08344233759439046
854, 0.08284186050826436
854.5, 0.08226888880126992
855, 0.08175346492116864
855.5, 0.08120721190035818
856, 0.08052137360885903
856.5, 0.07965021401410599
857, 0.07873342854000764
857.5, 0.07794460954528226
858, 0.07737649087651999
858.5, 0.07687008750092517
859, 0.07621759411741946
859.5, 0.07530926243985236
860, 0.07435843775027573
860.5, 0.0736449047807235
861, 0.07332950983270692
861.5, 0.07315816097487193
862, 0.072786337086582
862.5, 0.07199335478869573
863, 0.07101608956609873
863.5, 0.07019706923425773
864, 0.06980670711036474
864.5, 0.06983317015106705
865, 0.07019558333351839
865.5, 0.07079264012947206
866, 0.07143832185326593
866.5, 0.07192465816982452
867, 0.07209899078208526
867.5, 0.07205161639751667
868, 0.07193951919949759
868.5, 0.07189127397903317
869, 0.0719032320657722
869.5, 0.07193330921033958
870, 0.07194659215475507
870.5, 0.07194355522852058
871, 0.0719355633844656
871.5, 0.0719321247561675
872, 0.07193302451716521
872.5, 0.07193488105269719
873, 0.07193496726296589
873.5, 0.07193419392084488
874, 0.07193472525404676
874.5000000000001, 0.07193790199895744
875, 0.07194021536609974
875.5, 0.07193638967377414
876, 0.07192365715893567
876.5, 0.07191491881530565
877, 0.0719291095131398
877.5, 0.07197651850529407
878, 0.07201004822850265
878.5, 0.07195925451330698
879, 0.0717666816820608
879.5, 0.07146683081134242
880, 0.07113370728089796
880.5, 0.07083211519736476
881, 0.07055680173575407
881.5, 0.07027074795800248
882, 0.0699454999983975
882.5, 0.06962213659943295
883.0000000000001, 0.06937499960118965
883.5, 0.06926801950879113
884, 0.06927495696497843
884.5, 0.06932408285883662
885, 0.06934981592055856
885.5, 0.06934540158724989
886, 0.06933536990777966
886.5, 0.06934131822772249
887, 0.06935369397740665
887.5, 0.06934548823157316
888, 0.0692958495107856
888.5, 0.06924953307321235
889, 0.0692900229129556
889.5, 0.0694905992760253
890, 0.06980616092749292
890.5, 0.07011801702847187
891, 0.07031297959179561
891.5, 0.07035620964647693
892, 0.07026414092260147
892.5, 0.07005555940570929
893, 0.06976788784226962
893.5, 0.06945138493018366
894, 0.06915330263831887
894.5, 0.06887627285627218
895, 0.06859059111007815
895.5, 0.06826955575157623
896, 0.06794141707291645
896.5, 0.06767632003328528
897, 0.06754091782895522
897.5, 0.06752946962615347
898, 0.06757818240292135
898.5, 0.06762364564013179
899, 0.06763720051975408
899.5, 0.06761949520051092
900, 0.06757365813324334
900.5, 0.06753204050364214
901, 0.06755290828845828
901.5, 0.06769278321501027
902, 0.0679544281035569
902.5, 0.0682904782970204
903, 0.06865161687689714
903.5, 0.06898770026053436
904, 0.06924777440141572
904.5, 0.06938308913227642
905, 0.06939928948283125
905.5, 0.06935809153934436
906, 0.06932238163493887
906.5, 0.06931757648998937
907, 0.06932848222009813
907.5, 0.06933820414662817
908, 0.06933961776865294
908.5, 0.06933673299351772
909, 0.06933408767112859
909.5, 0.06933367472316654
910, 0.06933443720429633
910.5, 0.06933515641913157
911, 0.06933527607268974
911.5, 0.0693350747359629
912, 0.06933488002170884
912.5, 0.0693348465432746
913, 0.0693348995657126
913.5, 0.06933494959852027
914, 0.06933495509442045
914.5, 0.06933494137292806
915, 0.06933493826608927
915.5, 0.06933495222892772
916, 0.06933495540842127
916.5, 0.0693349179805649
917, 0.0693348556597666
917.5, 0.06933485450211618
918, 0.06933500433866024
918.5, 0.0693352409496093
919, 0.06933524959384885
919.5, 0.06933469946069248
920, 0.06933381155695706
920.5, 0.06933375193438085
921, 0.06933575832065353
921.5, 0.06933908566019698
922, 0.06933941162941482
922.5, 0.06933210211363638
923, 0.06931964067683394
923.5, 0.06931804371232486
924, 0.06934465496759001
924.5, 0.06939130014950878
925, 0.06939865593639638
925.5, 0.06930150641886534
926, 0.06907024425413688
926.5, 0.06875053876914938
927, 0.06839759903993148
927.5, 0.06806046488757156
928, 0.06777441546787877
928.5, 0.0675728356827836
929, 0.0674800796601085
929.5, 0.0674992385094817
930, 0.06763032167190408
930.5, 0.06786465892416915
931, 0.06817199792804862
931.5, 0.06851877827494635
932, 0.0688662057751479
932.5, 0.06916173636215239
933, 0.06935063201448921
933.5, 0.06940599047835239
934, 0.06937820953694462
934.5, 0.06933098260578285
935, 0.06931127968935202
935.5, 0.06931695830309259
936, 0.06933690542855953
936.5, 0.06935827813244666
937, 0.06936285857079527
937.5, 0.06933139310823488
938, 0.06926626613613118
938.5, 0.0692410191262578
939, 0.06934379513795053
939.5, 0.069618354176463
940, 0.06995392208778073
940.5, 0.07020611334997628
941, 0.07027675591925098
941.5, 0.07023809169891004
942, 0.07020163400689361
942.5, 0.07024062864559566
943, 0.07027884362313763
943.5, 0.07020355458788341
944, 0.06994442781204446
944.5, 0.06960654001274058
945, 0.06934033257645478
945.5000000000001, 0.06925651867844529
946, 0.06929165300188034
946.5, 0.06933458057917985
947, 0.06930509305042731
947.5, 0.0692667246813019
948, 0.069324711792071
948.5, 0.06955388140312069
949, 0.06987936193163335
949.5, 0.0701803015288629
950, 0.07035114932151076
950.5, 0.07036625041371813
951, 0.0702259217782335
951.5, 0.06994462430285786
952, 0.06961499125038717
952.5, 0.06935653893870386
953, 0.0692643631563108
953.5, 0.06929009850939538
954, 0.06933321018360372
954.5, 0.06931329788398122
955, 0.06927583403751436
955.5, 0.0693146716673878
956, 0.06950628081228283
956.5, 0.06981149150806987
957, 0.07014417635730474
957.5, 0.07043149988946329
958, 0.07069499567707194
958.5, 0.07099666250212122
959, 0.07137974521167845
959.5, 0.07174616838111003
960, 0.07193389553751617
960.5, 0.07180967072291056
961, 0.07147166839059427
961.5, 0.07112857238262205
962, 0.07096668544757234
962.5, 0.07097687856916535
963, 0.07105160846574732
963.5, 0.07109220600365562
964, 0.07108695040662827
964.5, 0.07107027753369444
965, 0.07107294777937012
965.5, 0.07108617543002982
966, 0.07107905287223204
966.5, 0.07102735357344558
967, 0.07097821995452236
967.5, 0.07102084978155698
968, 0.07123293838119782
968.5, 0.0715593074038452
969, 0.07186232610849164
969.5, 0.07201409057794761
970, 0.07201630758645727
970.5, 0.07195535385038099
971, 0.0719141357787434
971.5, 0.07191298593733864
972, 0.07192921495338345
972.5, 0.0719404931545542
973, 0.07194095250687482
973.5, 0.07193663401447559
974, 0.07193354986009881
974.5, 0.07193338562825113
975, 0.07193453408430361
975.5, 0.07193537698094188
976, 0.07193543216643938
976.5, 0.07193512693869675
977, 0.07193489675292053
977.5, 0.07193487897590334
978, 0.071934960022908
978.5, 0.07193502268130203
979, 0.07193502806775598
979.5, 0.07193500664188868
980, 0.0719349902101678
980.5, 0.07193498931459619
981, 0.07193499470324438
981.5, 0.07193499674624704
982, 0.07193499413089777
982.5, 0.07193499368463874
983, 0.0719350020717413
983.5, 0.07193501375587674
984, 0.07193501064586005
984.5, 0.0719349755651888
985, 0.07193493097827952
985.5, 0.07193494223952923
986, 0.07193507198248827
986.5, 0.0719352400989548
987, 0.07193520408796594
987.5, 0.07193472854490812
988, 0.07193409561894626
988.5, 0.07193420662988803
989, 0.07193594755313892
989.5, 0.07193832876174522
990, 0.071938000778204
990.5, 0.07193163134681635
991, 0.07192267815659781
991.5, 0.07192358481079442
992, 0.07194687473162142
992.5, 0.07198051827889307
993, 0.07197830116175519
993.5, 0.07189319141836403
994, 0.07176684160820468
994.5, 0.07177082951413771
995, 0.072084038818919
995.5, 0.07270585198898605
996, 0.07335886982226647
996.5, 0.07374503851459835
997, 0.0737699627190076
997.5, 0.073669855519924
998, 0.0737091649142192
998.5, 0.07399159005248368
999, 0.0743460210641147
999.5, 0.07457566712370634
1000, 0.07459898699215639
1000.5, 0.07454199607521916
1001, 0.07455196392842733
1001.5, 0.07472396775282375
1002, 0.07505403060526783
1002.5, 0.07552694547839112
1003, 0.07610516418957447
1003.5, 0.07670643873916161
1004, 0.0772433308153917
1004.5, 0.07765057052909352
1005, 0.07790966626186879
1005.5, 0.07800826268053251
1006, 0.07797657962258508
1006.5, 0.07793962639540286
1007, 0.07803490907036537
1007.5, 0.07831904272790702
1008, 0.07865853883931972
1008.5, 0.07889283097673427
1009, 0.07893594923300684
1009.5, 0.07888706063387874
1010, 0.0788735154665341
1010.5, 0.07899837617837502
1011, 0.07930101853352145
1011.5, 0.07981041992708215
1012, 0.08049137859291422
1012.5, 0.08113080742244438
1013, 0.08148517177838244
1013.5, 0.08145028970438384
1014, 0.08133043533238693
1014.5, 0.08150425796078142
1015, 0.08220037997641993
1015.5, 0.08318218877519135
1016, 0.08412318462562718
1016.5, 0.08479740455183205
1017, 0.08530885700696311
1017.5, 0.08582913834827144
1018, 0.08646434141985981
1018.5, 0.08709293503529514
1019, 0.08754397760059218
1019.5, 0.08770175490599508
1020, 0.08765380415786028
1020.5, 0.08753440855858718
1021, 0.0874568898073691
1021.5, 0.0874528531483354
1022, 0.08753399364715975
1022.5, 0.08771139047112486
1023, 0.08799357926844387
1023.5, 0.08838843918217831
1024, 0.08889607445752512
1024.5, 0.08948257369465518
1025, 0.09010472548541504
1025.5, 0.0907220750094595
1026, 0.09130694652417981
1026.5, 0.09183536442743812
1027, 0.09227986831847401
1027.5, 0.09259587769477795
1028, 0.09273356383622122
1028.5, 0.09267768180610103
1029, 0.09259307019604535
1029.5, 0.0927029940902857
1030, 0.09317137356485228
1030.5, 0.0938343053245645
1031, 0.09441536623100344
1031.5, 0.09468294371550234
1032, 0.09466846392580486
1032.5, 0.09449882409876675
1033, 0.09430306012656109
1033.5, 0.09422266601555584
1034, 0.09440391512803226
1034.5, 0.09494635859274059
1035, 0.09564109150361988
1035.5, 0.09615419055907326
1036, 0.09622114684201533
1036.5, 0.0960667918714595
1037, 0.09612539473325121
1037.5, 0.09675633879224987
1038, 0.09775459257385055
1038.5, 0.09866014382016308
1039, 0.09906961345886645
1039.5, 0.09903901219322053
1040, 0.09884331055203521
1040.5, 0.09873309046047485
1041, 0.09874136416134238
1041.5, 0.09879178054967541
1042, 0.09881454735602935
1042.5, 0.09880645667741605
1043, 0.09879958327469263
1043.5, 0.09882104214747578
1044, 0.09884711560286652
1044.5, 0.09882570129645041
1045, 0.09871757779353496
1045.5, 0.09861917761047456
1046, 0.09870672743165487
1046.5, 0.09913338456609866
1047, 0.09978714619762563
1047.5, 0.10039176003966643
1048, 0.10069085816346002
1048.5, 0.10069149140519773
1049, 0.10057248988757683
1049.5, 0.1005044287392094
1050, 0.10051604254026003
1050.5, 0.10053871564963845
1051, 0.1005088511859249
1051.5, 0.10045714960890262
1052, 0.10048241116626411
1052.5, 0.10067601218589939
1053, 0.10099824754167841
1053.5, 0.1013098238659289
1054, 0.10147668971262958
1054.5, 0.10148721059178722
1055, 0.10142757776948175
1055.5, 0.10138326303367862
1056, 0.10138056710665877
1056.5, 0.10139606237926291
1057, 0.10140575774858185
1057.5, 0.10140392623185246
1058, 0.10140098175395673
1058.5, 0.10140716042895459
1059, 0.10141786472490155
1059.5, 0.1014147130383698
1060, 0.10138063601048275
1060.5, 0.10133906409821325
1061, 0.10135299745123083
1061.5, 0.10148482709633955
1062, 0.10174239494150061
1062.5, 0.1020775064034507
1063, 0.10243941368326182
1063.5, 0.10277744304961978
1064, 0.10304100077169132
1064.5, 0.1031812545530375
1065, 0.10320080180597335
1065.5, 0.10316064907416189
1066, 0.1031238706177251
1066.5, 0.10311811802034088
1067, 0.10312873843945525
1067.5, 0.10313884857116751
1068, 0.1031406664179979
1068.5, 0.1031378412686692
1069, 0.10313470005443781
1069.5, 0.10313362423792594
1070, 0.10313442509021753
1070.5, 0.10313671541494962
1071, 0.10313909362076856
1071.5, 0.1031387482597621
1072, 0.10313287535960614
1072.5, 0.10312442261582122
1073, 0.10312474932093885
1073.5, 0.10314552096857454
1074, 0.10317711097765336
1074.5, 0.10317711924408135
1075, 0.1031004854063271
1075.5, 0.10291112942141778
1076, 0.10258752363214008
1076.5, 0.10211011078672749
1077, 0.1015099887405504
1077.5, 0.10090469891312503
1078, 0.10041939650894838
1078.5, 0.10010185298888397
1079, 0.09986072665347878
1079.5, 0.09959077080681178
1080, 0.09925557861615264
1080.5, 0.09894915642921553
1081, 0.09877947574651724
1081.5, 0.09877804200396323
1082, 0.0988236468173671
1082.5, 0.0987773109898975
1083, 0.09856230975250524
1083.5, 0.09823304267198507
1084, 0.09786046953334893
1084.5, 0.0975079837334265
1085, 0.09722216395348138
1085.5, 0.09704721960751073
1086, 0.09699924307659202
1086.5, 0.09702837136529308
1087, 0.09707520482055809
1087.5, 0.09704776496397916
1088, 0.09677336959506455
1088.5, 0.0960673557723899
1089, 0.09489504189247322
1089.5, 0.093614277112958
1090, 0.0926460841630048
1090.5, 0.09222578746925114
1091, 0.09207499447660528
1091.5, 0.09182734621635147
1092, 0.09126348189797673
1092.5, 0.09059407709987655
1093, 0.09010797697731343
1093.5, 0.0899850889663778
1094, 0.09006815869846285
1094.5, 0.0901349246114691
1095, 0.09005302980804641
1095.5, 0.08998461710916272
1096, 0.09015202745012507
1096.5, 0.09067959040555218
1097, 0.09135171588753144
1097.5, 0.09187917398308043
1098, 0.0920575839673643
1098.5, 0.09199421683125308
1099, 0.09186787873116797
1099.5, 0.0918184993495883
1100, 0.09183475164918198
1100.5, 0.09186852783566124
1101, 0.09188170386662886
1101.5, 0.09187730476935485
1102, 0.09186895552454155
1102.5, 0.09186722873120834
1103, 0.0918693690332213
1103.5, 0.09186898434418822
1104, 0.09186231572140313
1104.5, 0.0918577861817762
1105, 0.09186733906531197
1105.5, 0.09189571451944989
1106, 0.0919123375486337
1106.5, 0.09187582832477093
1107, 0.09174556905587217
1107.5, 0.09148491618373988
1108, 0.09105851305542068
1108.5, 0.0904569774975017
1109, 0.08981404459373454
1109.5, 0.08931247750682392
1110, 0.08910029840202682
1110.5, 0.08912221880828541
1111, 0.08924929857429076
1111.5, 0.08936131505928513
1112, 0.08939275485581177
1112.5, 0.08929905315286257
1113, 0.08905154793401593
1113.5, 0.08872604670933892
1114, 0.08844061941570036
1114.5, 0.08829813359901495
1115, 0.08829422340756965
1115.5, 0.08837871254044893
1116, 0.08849656431608688
1116.5, 0.08855785026480101
1117, 0.08845690825019803
1117.5, 0.08810382526498328
1118, 0.08753402443338798
1118.5, 0.08684255870624025
1119, 0.08612532214726487
1119.5, 0.08548223587403925
1120, 0.08501524156142537
1120.5, 0.08481093238424098
1121, 0.08481770918976039
1121.5, 0.08491087757323168
1122, 0.08497425705741657
1122.5, 0.08497978990969335
1123, 0.08494853745980757
1123.5, 0.08490309483415936
1124, 0.08487633524526794
1124.5, 0.08490716691043021
1125, 0.08502310114702238
1125.5, 0.08512566176765635
1126, 0.08503846952035277
1126.5, 0.08460689046401981
1127, 0.0839457716263543
1127.5, 0.08334538350557263
1128, 0.08307525373403735
1128.5, 0.08310506471015877
1129, 0.08319906452832715
1129.5, 0.0831312693342201
1130, 0.08286276850374152
1130.5, 0.08248951680966998
1131, 0.08210800596000256
1131.5, 0.08177898199072864
1132, 0.08153608055206485
1132.5, 0.0814033977064943
1133, 0.08126498290923223
1133.5, 0.0808931653349032
1134, 0.0800740188547393
1134.5, 0.07888169832914249
1135, 0.07763204867504836
1135.5, 0.07663630055596604
1136, 0.07598133803466567
1136.5, 0.07555612056212357
1137, 0.07524471227621188
1137.5, 0.07496938095569927
1138, 0.07468783378404753
1138.5, 0.07436206581439953
1139, 0.07401890797383137
1139.5, 0.07374842910188795
1140, 0.073638735636393
1140.5, 0.07366742126172632
1141, 0.07369874882131278
1141.5, 0.07359590359659718
1142, 0.07332986894837212
1142.5, 0.07298786065994456
1143, 0.07266078281534227
1143.5, 0.07237894612513296
1144, 0.07210396349198023
1144.5, 0.07179532748237394
1145, 0.0714637689882629
1145.5, 0.07118110592832494
1146, 0.07102101209283562
1146.5, 0.07099535440012739
1147, 0.07103850438503612
1147.5, 0.07108082853944708
1148, 0.07108899134342295
1148.5, 0.07107752790536193
1149, 0.0710640832242011
1149.5, 0.07105893574289368
1150, 0.07106214334228422
1150.5, 0.07107290355544249
1151, 0.07108489043099242
1151.5, 0.07108371426984395
1152, 0.07105482882503411
1152.5, 0.07101194066550542
1153, 0.07101216760565787
1153.5, 0.0711147776171197
1154, 0.07127506957434626
1154.5, 0.07128016099112156
1155, 0.07090411635828353
1155.5, 0.0700991170763694
1156, 0.06912076234361209
1156.5, 0.06825263218463373
1157, 0.06763061957263794
1157.5, 0.067125595255352
1158, 0.06658172253083494
1158.5, 0.0659426958780025
1159, 0.06534042578723831
1159.5, 0.06492722159510489
1160, 0.06478447695715595
1160.5, 0.06485221399914742
1161, 0.06505342640225509
1161.5, 0.06526753298474652
1162, 0.06528234043361092
1162.5, 0.06487494958386586
1163, 0.0640010190185567
1163.5, 0.06301228196758002
1164, 0.062313026637877744
1164.5, 0.06212616436138685
1165, 0.06224993472104412
1165.5, 0.062422132591134716
1166, 0.06246896848353689
1166.5, 0.062435263458872736
1167, 0.062398972367495364
1167.5, 0.0624064205799062
1168, 0.06242130960468817
1168.5, 0.06239407313299994
1169, 0.062315307626703564
1169.5, 0.06228650398175839
1170, 0.062428058877127324
1170.5, 0.06277863460230959
1171, 0.06313824343024033
1171.5, 0.0632636321054374
1172, 0.06302453774957284
1172.5, 0.06263972418096397
1173, 0.062395106360893404
1173.5, 0.06245108844980418
1174, 0.0625577428530697
1174.5, 0.062381432935415315
1175, 0.06170877983409051
1175.5, 0.06074265974481019
1176, 0.05977594755166438
1176.5, 0.05903341168176324
1177, 0.058490158275565474
1177.5, 0.05806410055263456
1178, 0.057693332017769716
1178.5, 0.05739430643479526
1179, 0.057202494575135265
1179.5, 0.05713792929796124
1180, 0.057157140331397294
1180.5, 0.0572003314020324
1181, 0.0572191002083704
1181.5, 0.05721469660217826
1182, 0.05720189204793469
1182.5, 0.05719343457191561
1183, 0.057192728522115654
1183.5, 0.05720048342650408
1184, 0.05721492881201229
1184.5, 0.057222161548585504
1185, 0.057204573709446205
1185.5, 0.057155663477557184
1186, 0.057126531440983896
1186.5, 0.057186894381926034
1187, 0.05736698057343714
1187.5, 0.05747982156961662
1188, 0.05726418642303299
1188.5, 0.056533673713892174
1189, 0.05553874056106389
1189.5, 0.054687799132772774
1190, 0.05430192004484802
1190.5, 0.05416016179287508
1191, 0.05383443508499974
1191.5, 0.05297334301924694
1192, 0.05173233569401514
1192.5, 0.05047151973696806
1193, 0.04951237160072841
1193.5, 0.048902580467963475
1194, 0.048573090462936896
1194.5, 0.04845328916379099
1195, 0.04846422952533347
1195.5, 0.048523213130110765
1196, 0.048555819928957966
1196.5, 0.0485531956872145
1197, 0.04853762258836003
1197.5, 0.04852940248648707
1198, 0.04853058074699179
1198.5, 0.048534059264356166
1199, 0.048533577152483964
1199.5, 0.04853099977185238
1200, 0.04853248301527513
1200.5, 0.048542730507086684
1201, 0.048552162674130095
1201.5, 0.04854325283892669
1202, 0.04850311720830014
1202.5, 0.04846727833582287
1203, 0.04849963105058652
1203.5, 0.048648291499090224
1204, 0.04878458619880899
1204.5, 0.048670718991742135
1205, 0.04809489456346583
1205.5, 0.047169446907261214
1206, 0.046217336645164586
1206.5, 0.045545064800613044
1207, 0.045206635195217615
1207.5, 0.045083359921904265
1208, 0.04505706315304625
1208.5, 0.045061918552479874
1209, 0.045069773965778825
1209.5, 0.045055895927691214
1210, 0.04503334865724273
1210.5, 0.04504381328442619
1211, 0.0451234529208584
1211.5, 0.04521032427292404
1212, 0.0451643564433839
1212.5, 0.044852191654075835
1213, 0.044291827650157156
1213.5, 0.043628025053941144
1214, 0.04300331145318825
1214.5, 0.042446599827662634
1215, 0.04188674199265918
1215.5, 0.04125471378870227
1216, 0.04059298074832984
1216.5, 0.040047253257736504
1217, 0.03976059143049815
1217.5, 0.03973255095666328
1218, 0.03982296064581847
1218.5, 0.03988985322336491
1219, 0.039887058013461374
1219.5, 0.039866474826272924
1220, 0.03988207336730021
1220.5, 0.03992518556185409
1221, 0.03991972086200146
1221.5, 0.039788599656573
1222, 0.03952292003029623
1222.5, 0.03919094343548757
1223, 0.038863812031909806
1223.5, 0.03857176450362276
1224, 0.03829635803458009
1224.5, 0.038016711117181856
1225, 0.03772636050941269
1225.5, 0.03743688975521975
1226, 0.037160587610968854
1226.5, 0.036892331098403286
1227, 0.03660407410394173
1227.5, 0.036267403505967355
1228, 0.03590784246132994
1228.5, 0.035625616402098714
1229, 0.03552409792220468
1229.5, 0.03558705728067135
1230, 0.035623962599200976
1230.5, 0.035432743785208665
1231, 0.03494149130895119
1231.5, 0.03427793925309741
1232, 0.033585994888480464
1232.5, 0.0329587320537299
1233, 0.03240714138195022
1233.5, 0.0319348717912189
1234, 0.03155482174990176
1234.5, 0.03129561807613346
1235, 0.031186855163586547
1235.5, 0.031206489244372637
1236, 0.03123997857551375
1236.5, 0.03116379221861676
1237, 0.030922888796511838
1237.5, 0.0305915088864408
1238, 0.030257934884417192
1238.5, 0.02997028999617557
1239, 0.029696784891663164
1239.5, 0.02939638979319925
1240, 0.029062989948065443
1240.5, 0.02876374182521957
1241, 0.028574825333373077
1241.5, 0.028529255010213195
1242, 0.02856447321511979
1242.5, 0.028605218892299167
1243, 0.02860659114018338
1243.5, 0.02859464134496914
1244, 0.028605462080447452
1244.5, 0.028647711801127684
1245, 0.028662344517096816
1245.5, 0.02858011581866382
1246, 0.02836191783909392
1246.5, 0.028047217655121415
1247, 0.027688126166134808
1247.5, 0.027336208021119024
1248, 0.027041522481991098
1248.5, 0.026853849031355015
1249, 0.026797718856900854
1249.5, 0.02682408440793349
1250, 0.026870576143950498
1250.5, 0.026890467627536996
1251, 0.02688526021575166
1251.5, 0.02686572032851542
1252, 0.026844349078384955
1252.5, 0.026839307730214035
1253, 0.026869907996253328
1253.5, 0.02693482065623476
1254, 0.026961411104281297
1254.5, 0.02686165912920968
1255, 0.026589737332564756
1255.5, 0.026254182329068065
1256, 0.02599882255721564
1256.5, 0.02592392999568638
1257, 0.025960980709655246
1257.5, 0.026000567218186443
1258, 0.025968073048068252
1258.5, 0.025931709914358336
1259, 0.025996336609192205
1259.5, 0.02623221736036907
1260, 0.026559160264587156
1260.5, 0.02685608097779557
1261, 0.027019586150513586
1261.5, 0.027027804527325117
1262, 0.026882330556804668
1262.5, 0.026600104111415668
1263, 0.026272985631822454
1263.5, 0.026015668440933393
1264, 0.025917716935377477
1264.5, 0.025938606309303225
1265, 0.025995850503692797
1265.5, 0.02601996472147894
1266, 0.026012926322659613
1266.5, 0.026001099514183945
1267, 0.026005332098048672
1267.5, 0.026014238496669506
1268, 0.026004800756799007
1268.5, 0.025963292754959344
1269, 0.02593348713353416
1269.5, 0.02598108996653492
1270, 0.026141910024757298
1270.5, 0.0262553555521019
1271, 0.026081680393692963
1271.5, 0.025432737532947947
1272, 0.024481530249364614
1272.5, 0.023554772405319557
1273, 0.02294131898381435
1273.5, 0.022645267495835952
1274, 0.022542784228486212
1274.5, 0.02251780692122951
1275, 0.02252036866064966
1275.5, 0.022531832922579653
1276, 0.022535786927997403
1276.5, 0.022532914445497543
1277, 0.02253244621317041
1277.5, 0.022541772222593792
1278, 0.022551231485500978
1278.5, 0.022542176602643238
1279, 0.022501176612830687
1279.5, 0.02246542941770935
1280, 0.022500252113933694
1280.5, 0.022664288018250378
1281, 0.02294494132975
1281.5, 0.02328793538274354
1282, 0.023639504737573258
1282.5, 0.023957213710056102
1283, 0.024205607489350633
1283.5, 0.024351419227151005
1284, 0.02438580640538035
1284.5, 0.024315770069752496
