19.6939	1073.99
20.3726	1057.99
21.049	1071.99
21.7253	1088.99
22.4015	1122.99
23.0778	1149.99
23.7539	1202.99
24.4301	1211.99
25.1061	1255.99
25.7822	1276.99
26.4581	1281.99
27.1341	1309.99
27.81	1322.99
28.4858	1370.99
29.1639	1404.99
29.8396	1475.99
30.5153	1523.99
31.191	1497.99
31.8643	1570.99
32.5398	1646.99
33.2154	1678.99
33.8908	1763.99
34.5662	1804.99
35.2416	1875.99
35.9169	1918.99
36.5922	1932.99
37.2674	2011.99
37.9426	2038.99
38.6178	2073.99
39.2928	2170.99
39.9679	2252.99
40.6406	2266.99
41.3155	2406.99
41.9904	2444.99
42.6653	2451.99
43.3401	2493.99
44.0148	2549.99
44.6895	2633.99
45.3619	2762.99
46.0365	2767.99
46.7111	2878.99
47.3856	2862.99
48.0601	2906.99
48.7322	2958.99
49.4066	3051.99
50.081	3060.99
50.7553	3195.99
51.4272	3174.99
52.1014	3190.99
52.7756	3228.99
53.4474	3252.99
54.1214	3299.99
54.7954	3376.99
55.4671	3438.99
56.141	3537.99
56.8149	3521.99
57.4864	3750.99
58.1602	3658.99
58.8339	3705.99
59.5053	3640.99
60.1789	3710.99
60.8525	3765.99
61.5238	3861.99
62.1973	3778.99
62.8684	3879.99
63.5418	4032.99
64.2152	3978.99
64.8862	4041.99
65.5594	4018.99
66.2304	3979.99
66.9035	4029.99
67.5744	4097.99
68.2474	4139.99
68.9182	4226.99
69.5912	4322.99
70.2618	4212.99
70.9347	4289.99
71.6052	4238.99
72.278	4305.99
72.9485	4400.99
73.6212	4507.99
74.2916	4454.99
74.9619	4501.99
75.6344	4345.99
76.3047	4326.99
76.9771	4290.99
77.6473	4417.99
78.3173	4472.99
78.9897	4462.99
79.6597	4493.99
80.3319	4512.99
81.0018	4599.99
81.6717	4473.99
82.3438	4511.99
83.0135	4448.99
83.6832	4514.99
84.3552	4461.99
85.0248	4430.99
85.6944	4462.99
86.3639	4512.99
87.0357	4465.99
87.7051	4503.99
88.3745	4601.99
89.0438	4620.99
89.7154	4575.99
90.3847	4585.99
91.0539	4573.99
91.723	4447.99
92.3944	4587.99
93.0635	4566.99
93.7325	4601.99
94.4015	4405.99
95.0704	4403.99
95.7393	4524.99
96.4104	4381.99
97.0792	4498.99
97.7479	4528.99
98.4166	4402.99
99.0853	4467.99
99.7539	4467.99
100.422	4417.99
101.091	4520.99
101.759	4502.99
102.428	4421.99
103.098	4444.99
103.767	4481.99
104.435	4451.99
105.103	4459.99
105.772	4531.99
106.44	4447.99
107.108	4320.99
107.776	4558.99
108.444	4383.99
109.112	4496.99
109.78	4401.99
110.448	4439.99
111.115	4393.99
111.783	4244.99
112.449	4487.99
113.116	4406.99
113.784	4572.99
114.451	4362.99
115.119	4362.99
115.787	4310.99
116.454	4367.99
117.121	4360.99
117.789	4310.99
118.456	4213.99
119.121	4370.99
119.788	4477.99
120.455	4363.99
121.123	4391.99
121.79	4269.99
122.454	4201.99
123.121	4266.99
123.788	4258.99
124.455	4221.99
125.122	4174.99
125.787	4202.99
126.453	4235.99
127.12	4261.99
127.787	4173.99
128.451	4170.99
129.118	4118.99
129.784	4177.99
130.448	4168.99
131.115	4106.99
131.781	4164.99
132.448	4167.99
133.112	4007.99
133.778	4145.99
134.442	4018.99
135.108	4048.99
135.774	4081.99
136.438	4046.99
137.104	4086.99
137.77	4036.99
138.433	4066.99
139.099	4005.99
139.763	4032.99
140.429	3958.99
141.092	4029.99
141.758	4041.99
142.424	3972.99
143.087	4006.99
143.752	3932.99
144.416	4060.99
145.081	3982.99
145.744	3910.99
146.41	3919.99
147.073	3941.99
147.738	3918.99
148.401	3871.99
149.064	3860.99
149.729	3915.99
150.392	3848.99
151.057	3871.99
151.72	3737.99
152.385	3838.99
153.047	3807.99
153.71	3854.99
154.375	3729.99
155.037	3853.99
155.702	3815.99
156.364	3746.99
157.027	3751.99
157.691	3716.99
158.354	3644.99
159.016	3721.99
159.678	3701.99
160.343	3745.99
161.005	3751.99
161.667	3727.99
162.331	3641.99
162.993	3746.99
163.655	3616.99
164.317	3636.99
164.981	3596.99
165.643	3617.99
166.304	3773.99
166.966	3570.99
167.63	3591.99
168.292	3532.99
168.953	3579.99
169.615	3557.99
170.276	3547.99
170.938	3555.99
171.601	3495.99
172.263	3573.99
172.924	3464.99
173.585	3533.99
174.246	3476.99
174.907	3434.99
175.569	3457.99
176.23	3490.99
176.891	3454.99
177.552	3421.99
178.215	3466.99
178.876	3500.99
179.537	3477.99
180.197	3421.99
180.858	3451.99
181.519	3455.99
182.179	3338.99
182.84	3451.99
183.501	3419.99
184.161	3425.99
184.822	3398.99
185.482	3442.99
186.142	3361.99
186.8	3411.99
187.461	3325.99
188.121	3362.99
188.781	3467.99
189.441	3359.99
190.101	3319.99
190.762	3297.99
191.422	3343.99
192.081	3237.99
192.741	3367.99
193.399	3253.99
194.059	3290.99
194.719	3273.99
195.378	3266.99
196.038	3217.99
196.698	3286.99
197.355	3291.99
198.015	3325.99
198.674	3291.99
199.334	3280.99
199.991	3198.99
200.65	3231.99
201.31	3200.99
201.969	3157.99
202.626	3257.99
203.285	3228.99
203.944	3186.99
204.603	3215.99
205.26	3197.99
205.919	3211.99
206.578	3232.99
207.235	3196.99
207.894	3109.99
208.553	3118.99
209.209	3171.99
209.868	3123.99
210.524	3171.99
211.183	3084.99
211.842	3165.99
212.498	3116.99
213.156	3196.99
213.813	3067.99
214.471	3051.99
215.13	3106.99
215.786	3037.99
216.444	3116.99
217.1	3053.99
217.758	3147.99
218.414	3069.99
219.072	3116.99
219.728	3035.99
220.386	3035.99
221.042	3119.99
221.7	3022.99
222.355	3055.99
223.013	3034.99
223.669	3093.99
224.324	3038.99
224.982	3020.99
225.637	3103.99
226.295	3011.99
226.95	3001.99
227.606	2959.99
228.263	3052.99
228.918	3006.99
229.573	2925.99
230.231	3011.99
230.886	2980.99
231.543	3100.99
232.198	3048.99
232.853	3036.99
233.508	2956.99
234.165	3046.99
234.82	3026.99
235.475	3098.99
236.132	3039.99
236.786	3032.99
237.441	2979.99
238.095	2995.99
238.752	2891.99
239.407	3037.99
240.061	3040.99
240.715	3026.99
241.37	2974.99
242.026	3037.99
242.681	2944.99
243.335	3035.99
243.989	2965.99
244.643	2982.99
245.297	2956.99
245.951	2972.99
246.607	3033.99
247.261	3021.99
247.915	2959.99
248.569	3022.99
249.223	3030.99
249.877	2922.99
250.53	2969.99
251.184	2977.99
251.838	2976.99
252.491	2930.99
253.145	2911.99
253.798	2930.99
254.452	2987.99
255.105	3013.99
255.759	2955.99
256.412	2884.99
257.065	2958.99
257.719	3039.99
258.372	2861.99
259.025	2953.99
259.678	2944.99
260.331	2929.99
260.984	2961.99
261.637	2901.99
262.29	2953.99
262.943	3020.99
263.596	2904.99
264.246	2943.99
264.899	3006.99
265.552	2959.99
266.204	2965.99
266.857	2914.99
267.509	2979.99
268.16	2918.99
268.812	2878.99
269.465	3008.99
270.117	2966.99
270.769	2981.99
271.419	2975.99
272.072	2906.99
272.724	2906.99
273.376	2935.99
274.026	2894.99
274.678	2905.99
275.33	2938.99
275.982	2870.99
276.632	2913.99
277.284	2864.99
277.935	2886.99
278.585	2922.99
279.237	2895.99
279.889	2939.99
280.538	2901.99
281.19	2862.99
281.841	2899.99
282.491	2882.99
283.142	2829.99
283.791	2878.99
284.443	2851.99
285.094	2853.99
285.743	2921.99
286.394	2719.99
287.043	2865.99
287.695	2797.99
288.343	2872.99
288.995	2907.99
289.643	2826.99
290.294	2802.99
290.943	2777.99
291.594	2864.99
292.243	2847.99
292.894	2845.99
293.542	2794.99
294.193	2885.99
294.841	2809.99
295.492	2827.99
296.14	2821.99
296.789	2855.99
297.439	2826.99
298.088	2848.99
298.738	2830.99
299.386	2825.99
300.034	2836.99
300.685	2835.99
301.333	2825.99
301.981	2841.99
302.631	2826.99
303.279	2829.99
303.927	2805.99
304.577	2830.99
305.224	2833.99
305.872	2830.99
306.522	2883.99
307.17	2796.99
307.817	2778.99
308.465	2825.99
309.114	2888.99
309.762	2830.99
310.409	2790.99
311.057	2795.99
311.704	2867.99
312.354	2787.99
313.001	2794.99
313.648	2810.99
314.295	2820.99
314.942	2802.99
315.592	2744.99
316.239	2807.99
316.886	2711.99
317.532	2755.99
318.179	2844.99
318.826	2756.99
319.473	2790.99
320.12	2842.99
320.766	2782.99
321.413	2785.99
322.06	2866.99
322.709	2767.99
323.355	2847.99
324.002	2789.99
324.648	2844.99
325.294	2780.99
325.941	2820.99
326.587	2814.99
327.233	2817.99
327.88	2829.99
328.526	2804.99
329.17	2772.99
329.816	2859.99
330.462	2745.99
331.108	2767.99
331.754	2765.99
332.4	2744.99
333.046	2766.99
333.692	2764.99
334.337	2812.99
334.983	2832.99
335.629	2791.99
336.272	2825.99
336.918	2730.99
337.564	2825.99
338.209	2853.99
338.855	2841.99
339.498	2854.99
340.143	2861.99
340.789	2806.99
341.434	2803.99
342.079	2810.99
342.722	2894.99
343.367	2801.99
344.012	2787.99
344.658	2785.99
345.3	2883.99
345.945	2774.99
346.59	2798.99
347.233	2782.99
347.878	2816.99
348.523	2805.99
349.165	2821.99
349.81	2878.99
350.455	2797.99
351.097	2821.99
351.742	2836.99
352.386	2856.99
353.029	2886.99
353.673	2871.99
354.315	2829.99
354.96	2861.99
355.604	2896.99
356.246	2894.99
356.891	2926.99
357.533	2857.99
358.177	2894.99
358.819	2883.99
359.463	2906.99
360.105	2846.99
360.749	2838.99
361.39	2859.99
362.034	2865.99
362.676	2873.99
363.32	2860.99
363.961	2827.99
364.605	2854.99
365.247	2866.99
365.888	2929.99
366.532	2886.99
367.173	2871.99
367.817	2918.99
368.458	2901.99
369.099	2844.99
369.742	2798.99
370.384	2904.99
371.025	2913.99
371.668	2926.99
372.309	2901.99
372.95	2962.99
373.593	2965.99
374.234	2902.99
374.875	2879.99
375.518	2864.99
376.159	2901.99
376.799	2939.99
377.44	2971.99
378.083	2918.99
378.723	2880.99
379.364	2918.99
380.004	2968.99
380.647	2877.99
381.288	2928.99
381.928	2915.99
382.568	2897.99
383.209	2881.99
383.849	2910.99
384.491	2863.99
385.131	2894.99
385.771	2838.99
386.411	2854.99
387.052	2943.99
387.692	2949.99
388.331	2956.99
388.971	2939.99
389.611	2963.99
390.253	2915.99
390.893	2893.99
391.533	2950.99
392.172	2843.99
392.812	2935.99
393.452	2911.99
394.091	2905.99
394.731	2916.99
395.37	2940.99
396.01	2948.99
396.649	2882.99
397.288	2873.99
397.928	2870.99
398.567	2988.99
399.204	2915.99
399.843	2930.99
400.482	2925.99
401.121	2873.99
401.76	2933.99
402.399	2965.99
403.038	2867.99
403.677	2920.99
404.316	2893.99
404.953	2926.99
405.591	2894.99
406.23	2947.99
406.869	2955.99
407.507	2910.99
408.146	2970.99
408.782	2929.99
409.421	2965.99
410.059	2953.99
410.698	2921.99
411.334	2869.99
411.972	2884.99
412.611	2870.99
413.249	2918.99
413.885	2918.99
414.523	2899.99
415.161	2932.99
415.797	2950.99
416.435	2945.99
417.073	2850.99
417.709	2866.99
418.347	2907.99
418.985	2943.99
419.62	2964.99
420.258	2878.99
420.896	2849.99
421.531	2897.99
422.169	2960.99
422.804	2943.99
423.442	2959.99
424.077	2893.99
424.715	2918.99
425.352	2926.99
425.987	2948.99
426.625	2963.99
427.26	3011.99
427.897	2868.99
428.532	2909.99
429.169	2878.99
429.804	2991.99
430.442	2957.99
431.076	2942.99
431.711	2950.99
432.348	2958.99
432.983	2938.99
433.62	2865.99
434.254	2959.99
434.891	2943.99
435.526	3001.99
436.16	2941.99
436.797	3123.99
437.431	2963.99
438.066	2981.99
438.702	2998.99
439.337	2929.99
439.971	3068.99
440.607	2965.99
441.242	3076.99
441.876	3003.99
442.512	3006.99
443.146	3003.99
443.78	3088.99
444.414	3001.99
445.05	3013.99
445.684	3111.99
446.318	3030.99
446.952	3092.99
447.588	3048.99
448.221	3048.99
448.855	2997.99
449.489	3019.99
450.122	3037.99
450.758	3078.99
451.392	3133.99
452.025	3081.99
452.659	3085.99
453.292	3072.99
453.925	3030.99
454.559	3096.99
455.192	3088.99
455.827	3118.99
456.46	3113.99
457.093	3093.99
457.727	3013.99
458.36	3093.99
458.993	3151.99
459.626	3134.99
460.258	3100.99
460.891	3153.99
461.524	3182.99
462.157	3131.99
462.79	3140.99
463.422	3162.99
464.055	3225.99
464.688	3174.99
465.32	3227.99
465.953	3180.99
466.585	3226.99
467.216	3113.99
467.848	3233.99
468.48	3278.99
469.113	3210.99
469.745	3200.99
470.377	3251.99
471.009	3338.99
471.642	3251.99
472.271	3194.99
472.904	3305.99
473.536	3323.99
474.168	3227.99
474.799	3315.99
475.429	3312.99
476.061	3347.99
476.693	3345.99
477.325	3384.99
477.956	3414.99
478.586	3367.99
479.218	3325.99
479.849	3419.99
480.479	3369.99
481.11	3304.99
481.742	3445.99
482.373	3421.99
483.002	3442.99
483.634	3451.99
484.265	3440.99
484.894	3408.99
485.525	3536.99
486.154	3491.99
486.785	3540.99
487.416	3540.99
488.045	3470.99
488.676	3495.99
489.305	3499.99
489.936	3559.99
490.567	3584.99
491.196	3570.99
491.826	3593.99
492.455	3591.99
493.086	3654.99
493.714	3671.99
494.345	3661.99
494.973	3651.99
495.604	3784.99
496.232	3745.99
496.863	3722.99
497.491	3682.99
498.121	3655.99
498.749	3731.99
499.378	3849.99
500.008	3776.99
500.636	3716.99
501.266	3798.99
501.894	3849.99
502.522	3797.99
503.152	3792.99
503.78	3855.99
504.408	3809.99
505.037	3929.99
505.665	3933.99
506.293	3890.99
506.923	4047.99
507.55	3884.99
508.178	3997.99
508.807	3984.99
509.435	4021.99
510.062	4077.99
510.69	4052.99
511.319	4075.99
511.946	4001.99
512.574	3969.99
513.201	4140.99
513.828	4172.99
514.457	4122.99
515.084	4134.99
515.711	4222.99
516.338	4074.99
516.965	4220.99
517.592	4148.99
518.221	4146.99
518.848	4252.99
519.475	4294.99
520.102	4244.99
520.728	4251.99
521.355	4254.99
521.982	4336.99
522.608	4285.99
523.235	4367.99
523.861	4320.99
524.488	4497.99
525.114	4404.99
525.741	4464.99
526.367	4406.99
526.993	4507.99
527.619	4500.99
528.246	4470.99
528.872	4445.99
529.498	4560.99
530.124	4610.99
530.75	4491.99
531.376	4653.99
532.002	4736.99
532.628	4640.99
533.254	4821.99
533.88	4825.99
534.505	4801.99
535.131	4796.99
535.755	4817.99
536.38	4875.99
537.006	4818.99
537.632	5004.99
538.257	4950.99
538.883	4939.99
539.506	5100.99
540.131	5081.99
540.757	5046.99
541.382	5133.99
542.005	5203.99
542.63	5112.99
543.256	5131.99
543.881	5269.99
544.504	5309.99
545.129	5397.99
545.754	5455.99
546.379	5507.99
547.002	5627.99
547.627	5453.99
548.251	5557.99
548.874	5632.99
549.499	5611.99
550.121	5729.99
550.746	5689.99
551.371	5765.99
551.993	5689.99
552.618	5677.99
553.242	5879.99
553.865	5945.99
554.489	5974.99
555.112	5936.99
555.736	6120.99
556.358	5898.99
556.982	6093.99
557.604	5891.99
558.229	6137.99
558.851	6160.99
559.475	6155.99
560.097	6102.99
560.721	6093.99
561.343	6331.99
561.967	6123.99
562.588	6100.99
563.212	6181.99
563.834	6237.99
564.456	6161.99
565.079	6151.99
565.701	6329.99
566.325	6151.99
566.946	6149.99
567.568	6061.99
568.191	6195.99
568.812	6055.99
569.434	6064.99
570.057	6027.99
570.678	6094.99
571.3	5878.99
571.923	6159.99
572.544	6128.99
573.165	6020.99
573.786	6061.99
574.409	6034.99
575.03	5856.99
575.651	5898.99
576.272	5810.99
576.895	5697.99
577.516	5722.99
578.136	5539.99
578.757	5654.99
579.378	5493.99
580	5667.99
580.621	5471.99
581.242	5407.99
581.862	5386.99
582.483	5258.99
583.103	5326.99
583.723	5088.99
584.344	4819.99
584.964	5046.99
585.586	5069.99
586.207	5002.99
586.827	4932.99
587.447	4874.99
588.067	4733.99
588.687	4612.99
589.307	4730.99
589.927	4581.99
590.547	4512.99
591.167	4447.99
591.787	4338.99
592.406	4322.99
593.026	4320.99
593.646	4236.99
594.265	4035.99
594.885	4109.99
595.503	3975.99
596.122	3947.99
596.742	3938.99
597.361	3771.99
597.98	3810.99
598.6	3777.99
599.219	3662.99
599.839	3585.99
600.456	3509.99
601.075	3467.99
601.694	3505.99
602.313	3404.99
602.932	3387.99
603.551	3385.99
604.168	3240.99
604.787	3261.99
605.406	3231.99
606.025	3079.99
606.642	3104.99
607.261	3106.99
607.879	3021.99
608.496	3029.43
609.115	3029.23
609.733	2981.19
610.352	2992.4
610.968	2895.11
611.587	2877.09
612.205	2887.09
612.822	2814.51
613.44	2778.19
614.056	2753.93
614.675	2760.41
615.293	2698.99
615.909	2671.34
616.527	2697.29
617.143	2609.79
617.761	2645.91
618.379	2637.88
618.995	2625.38
619.613	2564.52
620.229	2556.57
620.847	2581.19
621.463	2514.21
622.081	2504.04
622.696	2511.37
623.314	2473.81
623.93	2471.45
624.545	2475.87
625.163	2451.39
625.778	2444.77
626.396	2449.77
627.011	2431.2
627.629	2381.34
628.244	2395.77
628.859	2392.88
629.476	2384.64
630.092	2382
630.707	2398.53
631.324	2354.68
631.939	2334.83
632.554	2366.76
633.171	2369.07
633.786	2350.4
634.401	2353.19
635.018	2303.94
635.633	2331.53
636.247	2302.2
636.862	2276.31
637.479	2325.29
638.094	2277.24
638.708	2277.75
639.323	2258.56
639.939	2282.95
640.554	2241.37
641.168	2277.31
641.783	2264.22
642.397	2237.98
643.011	2213.16
643.628	2227.2
644.242	2231.09
644.856	2190.72
645.47	2207.38
646.085	2204.24
646.699	2197.87
647.313	2169.08
647.927	2151.33
648.541	2166.56
649.154	2157.03
649.771	2219.36
650.384	2168.12
650.998	2189.85
651.612	2206.95
652.226	2159.72
652.839	2154.21
653.453	2102.44
654.067	2131.51
654.68	2131.01
655.093	2142.01
655.715	2117.01
656.34	2124.01
656.964	2125.01
657.586	2086.01
658.21	2101.01
658.834	2093.01
659.456	2074.01
660.08	2120.01
660.704	2092.01
661.325	2076.01
661.949	2056.01
662.571	2061.01
663.195	2075.01
663.818	2048.01
664.44	2033.01
665.063	2036.01
665.685	2138.01
666.308	2050.01
666.93	2037.01
667.553	2048.01
668.174	2019.01
668.798	1985.01
669.419	2012.01
670.042	1989.01
670.664	1975.01
671.287	1972.01
671.908	1997.01
672.531	2000.01
673.152	1973.01
673.775	1959.01
674.396	1962.01
675.017	1916.01
675.639	1931.01
676.26	1909.01
676.883	1919.01
677.504	1941.01
678.124	1919.01
678.747	1930.01
679.368	1875.01
679.988	1878.01
680.611	1862.01
681.231	1840.01
681.851	1836.01
682.474	1831.01
683.094	1862.01
683.714	1820.01
684.337	1812.01
684.957	1830.01
685.577	1889.01
686.197	1838.01
686.819	1797.01
687.439	1802.01
688.059	1807.01
688.679	1733.01
689.301	1739.01
689.921	1811.01
690.541	1751.01
691.161	1793.01
691.78	1765.01
692.4	1723.01
693.022	1698.01
693.641	1737.01
694.261	1747.01
694.88	1716.01
695.5	1725.01
696.119	1725.01
696.739	1697.01
697.36	1676.01
697.979	1687.01
698.599	1666.01
699.218	1676.01
699.837	1651.01
700.456	1676.01
701.075	1657.01
701.694	1640.01
702.313	1631.01
702.932	1627.01
703.551	1618.01
704.17	1610.01
704.789	1604.01
705.408	1612.01
706.026	1570.01
706.645	1555.01
707.264	1595.01
707.883	1572.01
708.501	1550.01
709.12	1551.01
709.738	1539.01
710.355	1506.01
710.973	1501.01
711.591	1540.01
712.21	1503.01
712.828	1453.01
713.446	1455.01
714.065	1502.01
714.681	1489.01
715.299	1482.01
715.917	1500.01
716.535	1460.01
717.153	1440.01
717.771	1424.01
718.387	1425.01
719.005	1410.01
719.623	1409.01
720.24	1415.01
720.856	1403.01
721.474	1353.01
722.091	1361.01
722.709	1360.01
723.325	1371.01
723.942	1335.01
724.56	1350.01
725.175	1306.01
725.793	1321.01
726.41	1290.01
727.025	1330.01
727.643	1268.01
728.26	1270.01
728.875	1258.01
729.492	1252.01
730.109	1279.01
730.724	1236.01
731.341	1243.01
731.956	1204.01
732.573	1236.01
733.19	1209.01
733.805	1199.01
734.422	1201.01
735.037	1171.01
735.654	1186.01
736.268	1156.01
736.885	1170.01
737.5	1139.01
738.116	1134.01
738.731	1118.01
739.347	1106.01
739.962	1100.01
740.578	1091.01
741.192	1075.01
741.809	1076.01
742.423	1062.01
743.037	1065.01
743.654	1047.01
744.268	1041.01
744.884	1027.01
745.498	1033.01
746.112	1018.01
746.728	1012.01
747.342	986.007
747.956	970.007
748.572	962.007
749.185	994.007
749.799	968.007
750.415	947.007
751.029	918.007
751.642	928.007
752.258	910.007
752.872	904.007
753.485	901.007
754.101	893.007
754.714	880.007
755.328	862.007
755.941	849.007
756.554	843.007
757.17	829.007
757.783	855.007
758.396	837.007
759.009	830.007
759.622	824.007
760.237	802.007
760.85	797.007
761.463	767.007
762.076	769.007
762.689	778.007
763.302	758.007
763.915	748.007
764.53	757.007
765.143	743.007
765.755	735.007
766.368	733.007
766.981	722.007
767.593	715.007
768.206	704.007
768.818	700.007
769.431	677.007
770.043	688.007
770.655	692.007
771.268	680.007
771.88	669.007
772.492	672.007
773.104	663.007
773.717	662.007
774.329	640.007
774.941	652.007
775.553	650.007
776.165	621.007
776.777	635.007
777.389	640.007
777.999	634.007
778.61	636.007
779.222	615.007
779.834	617.007
780.446	616.007
781.057	611.007
781.669	620.007
782.281	613.007
782.89	611.007
783.502	604.007
784.113	592.007
784.725	599.007
785.336	604.007
785.945	595.007
786.557	599.007
787.168	597.007
787.779	604.007
788.388	596.007
789	594.007
789.611	605.007
790.222	616.007
790.831	599.007
791.442	606.007
792.053	611.007
792.661	592.007
793.272	598.007
793.883	612.007
794.492	602.007
795.103	611.007
795.713	613.007
796.322	622.007
796.933	614.007
797.543	616.007
798.152	610.007
798.762	609.007
799.371	603.007
799.981	630.007
800.589	628.007
801.2	639.007
801.808	638.007
802.418	642.007
803.029	650.007
803.637	646.007
804.247	665.007
804.855	661.007
805.465	670.007
806.073	705.007
806.683	688.007
807.291	698.007
807.898	716.007
808.508	720.007
809.116	715.007
809.726	734.007
810.334	730.007
810.943	730.007
811.551	765.007
812.159	765.007
812.768	788.007
813.376	791.007
813.983	786.007
814.592	812.007
815.2	825.007
815.807	836.007
816.417	858.007
817.024	863.007
817.631	881.007
818.24	911.007
818.847	917.007
819.454	919.007
820.061	953.007
820.67	967.007
821.277	961.007
821.884	983.007
822.491	1027.01
823.1	1053.01
823.707	1062.01
824.314	1080.01
824.92	1105.01
825.527	1113.01
826.136	1162.01
826.742	1168.01
827.349	1208.01
827.955	1229.01
828.562	1260.01
829.168	1285.01
829.775	1327.01
830.383	1347.01
830.989	1378.01
831.596	1425.01
832.202	1409.01
832.808	1469.01
833.414	1518.01
834.02	1506.01
834.627	1588.01
835.233	1617.01
835.839	1654.01
836.445	1662.01
837.05	1727.01
837.656	1769.01
838.262	1797.01
838.868	1885.01
839.474	1910.01
840.079	1991.01
840.685	2008.01
841.291	2073.01
841.896	2102.01
842.502	2137.01
843.107	2178.01
843.711	2289.01
844.316	2328.01
844.922	2403.01
845.527	2529.01
846.132	2582.01
846.738	2588.01
847.343	2649.01
847.948	2772.01
848.551	2788.01
849.156	2865.01
849.761	3006.01
850.366	3101.01
850.971	3148.01
851.574	3263.01
852.179	3343.01
852.784	3386.01
853.389	3548.01
853.992	3585.01
854.596	3711.01
855.201	3770.01
855.806	3887.01
856.408	4078.01
857.013	4198.01
857.618	4222.01
858.22	4418.01
858.825	4279.01
859.429	4674.01
860.031	4629.01
860.636	4800.01
861.24	4830.01
861.842	5088.01
862.446	5280.01
863.049	5254.01
863.653	5506.01
864.257	5648.01
864.859	5790.01
865.463	5760.01
866.065	5874.01
866.669	6151.01
867.271	6151.01
867.875	6342.01
868.476	6375.01
869.08	6629.01
869.682	6588.01
870.286	6878.01
870.887	7039.01
871.491	7128.01
872.092	7163.01
872.696	7259.01
873.298	7415.01
873.901	7468.01
874.502	7665.01
875.104	7700.01
875.707	7850.01
876.308	8022.01
876.912	8076.01
877.513	7978.01
878.114	8333.01
878.717	8344.01
879.318	8585.01
879.919	8600.01
880.522	8939.01
881.123	8824.01
881.724	8996.01
882.327	8748.01
882.928	9093.01
883.529	9210.01
884.13	9201.01
884.732	9193.01
885.333	9496.01
885.934	9570.01
886.534	9712.01
887.137	9816.01
887.738	9816.01
888.338	9947.01
888.938	9945.01
889.539	9922.01
890.141	10241
890.742	10091
891.342	10254
891.942	10424
892.542	10479
893.143	10565
893.743	10609
894.345	10678
894.945	10697
895.545	10910
896.145	10807
896.745	10830
897.345	10951
897.945	10891
898.544	10851
899.144	10913
899.744	10982
900.344	11052
900.943	11175
901.543	11160
902.143	11234
902.742	11239
903.342	11335
903.941	11486
904.54	11311
905.14	11464
905.739	11614
906.339	11434
906.938	11508
907.537	11527
908.134	11422
908.733	11434
909.332	11566
909.932	11500
910.531	11462
911.13	11414
911.729	11402
912.325	11431
912.924	11446
913.523	11312
914.122	11320
914.721	11265
915.317	11316
915.916	11357
916.515	11476
917.113	11248
917.71	11225
918.308	11442
918.907	11189
919.505	11120
920.102	11372
920.7	11006
921.298	11000
921.895	10892
922.493	11055
923.091	10798
923.687	10915
924.285	10909
924.883	10909
925.479	10824
926.077	10749
926.673	10516
927.271	10516
927.869	10595
928.465	10576
929.063	10496
929.659	10515
930.256	10476
930.852	10500
931.45	10428
932.045	10104
932.643	10113
933.238	10214
933.836	10074
934.431	9979.01
935.029	10151
935.624	9649.01
936.221	9746.01
936.817	9810.01
937.412	9718.01
938.009	9624.01
938.604	9463.01
939.202	9696.01
939.797	9356.01
940.392	9502.01
940.989	9484.01
941.584	9144.01
942.181	9318.01
942.776	9072.01
943.37	9082.01
943.967	9224.01
944.562	8984.01
945.157	8891.01
945.751	8976.01
946.348	8744.01
946.943	8587.01
947.537	8795.01
948.132	8553.01
948.728	8385.01
949.323	8473.01
949.917	8199.01
950.512	8368.01
951.108	8337.01
951.702	8248.01
952.297	8136.01
952.891	7940.01
953.485	8114.01
954.079	7874.01
954.675	7801.01
955.269	7799.01
955.863	7796.01
956.457	7732.01
957.051	7716.01
957.645	7438.01
958.239	7183.01
958.833	7286.01
959.427	7071.01
960.021	7213.01
960.616	7012.01
961.21	7116.01
961.804	6940.01
962.397	6932.01
962.991	6967.01
963.584	6658.01
964.178	6654.01
964.771	6699.01
965.365	6562.01
965.958	6459.01
966.549	6327.01
967.143	6268.01
967.736	6230.01
968.329	6225.01
968.922	6148.01
969.516	6149.01
970.109	6110.01
970.702	5883.01
971.295	6019.01
971.888	5719.01
972.479	5731.01
973.072	5636.01
973.665	5550.01
974.257	5592.01
974.85	5557.01
975.443	5395.01
976.034	5372.01
976.626	5328.01
977.219	5272.01
977.812	5331.01
978.404	5044.01
978.995	5171.01
979.587	5133.01
980.18	4964.01
980.77	4848.01
981.362	4886.01
981.955	4776.01
982.547	4715.01
983.137	4667.01
983.729	4608.01
984.322	4534.01
984.912	4561.01
985.504	4391.01
986.094	4385.01
986.686	4334.01
987.278	4265.01
987.868	4274.01
988.46	4192.01
989.052	4260.01
989.641	4085.01
990.233	4223.01
990.823	4042.01
991.415	3993.01
992.004	4021.01
992.596	3933.01
993.186	3798.01
993.777	3790.01
994.367	3815.01
994.958	3647.01
995.548	3819.01
996.139	3711.01
996.728	3642.01
997.32	3538.01
997.909	3523.01
998.5	3527.01
999.09	3531.01
999.679	3455.01
1000.27	3399.01
1000.86	3349.01
1001.45	3310.01
1002.04	3266.01
1002.63	3183.01
1003.22	3284.01
1003.81	3215.01
1004.4	3172.01
1004.99	3185.01
1005.58	3038.01
1006.17	3013.01
1006.76	3039.01
1007.34	3035.01
1007.93	2993.01
1008.52	2897.01
1009.11	2931.01
1009.7	2863.01
1010.29	2802.01
1010.88	2821.01
1011.47	2766.01
1012.06	2767.01
1012.64	2727.01
1013.23	2675.01
1013.82	2616.01
1014.41	2638.01
1015	2610.01
1015.59	2594.01
1016.18	2566.01
1016.76	2564.01
1017.35	2554.01
1017.94	2505.01
1018.53	2466.01
1019.12	2414.01
1019.71	2429.01
1020.29	2376.01
1020.88	2370.01
1021.47	2344.01
1022.06	2320.01
1022.64	2282.01
1023.23	2258.01
1023.82	2231.01
1024.41	2274.01
1024.99	2215.01
1025.58	2192.01
1026.17	2204.01
1026.76	2161.01
1027.34	2151.01
1027.93	2087.01
1028.52	2090.01
1029.1	2050.01
1029.69	2079.01
1030.28	2032.01
1030.87	1974.01
1031.45	1964.01
1032.04	1947.01
1032.63	1935.01
1033.21	1919.01
1033.8	1916.01
1034.39	1906.01
1034.97	1876.01
1035.56	1855.01
1036.15	1831.01
1036.73	1841.01
1037.32	1785.01
1037.9	1778.01
1038.49	1781.01
1039.08	1752.01
1039.66	1726.01
1040.25	1728.01
1040.84	1663.01
1041.42	1670.01
1042.01	1666.01
1042.59	1676.01
1043.18	1632.01
1043.76	1630.01
1044.35	1610.01
1044.94	1599.01
1045.52	1602.01
1046.11	1560.01
1046.69	1553.01
1047.28	1507.01
1047.86	1484.01
1048.45	1484.01
1049.03	1493.01
1049.62	1506.01
1050.2	1422.01
1050.79	1446.01
1051.37	1429.01
1051.96	1409.01
1052.54	1369.01
1053.13	1381.01
1053.71	1394.01
1054.3	1374.01
1054.88	1343.01
1055.47	1320.01
1056.05	1298.01
1056.63	1296.01
1057.22	1300.01
1057.8	1282.01
1058.39	1280.01
1058.97	1245.01
1059.56	1239.01
1060.14	1208.01
1060.72	1223.01
1061.31	1207.01
1061.89	1155.01
1062.48	1190.01
1063.06	1159.01
1063.64	1153.01
1064.23	1159.01
1064.81	1138.01
1065.39	1120.01
1065.98	1094.01
1066.56	1090.01
1067.14	1088.01
1067.73	1064.01
1068.31	1067.01
1068.89	1055.01
1069.48	1008.01
1070.06	1028.01
1070.64	976.007
1071.23	985.007
1071.81	971.007
1072.39	969.007
1072.97	962.007
1073.56	936.007
1074.14	944.007
1074.72	913.007
1075.3	909.007
1075.89	892.007
1076.47	900.007
1077.05	878.007
1077.63	855.007
1078.22	857.007
1078.8	839.007
1079.38	847.007
1079.96	801.007
1080.54	808.007
1081.13	789.007
1081.71	793.007
1082.29	781.007
1082.87	775.007
1083.45	743.007
1084.04	741.007
1084.62	742.007
1085.2	733.007
1085.78	725.007
1086.36	723.007
1086.94	720.007
1087.52	702.007
1088.11	672.007
1088.69	668.007
1089.27	671.007
1089.85	650.007
1090.43	643.007
1091.01	647.007
1091.59	626.007
1092.17	628.007
1092.75	624.007
1093.34	603.007
1093.92	588.007
1094.5	584.007
1095.08	572.007
1095.66	589.007
1096.24	573.007
1096.82	560.007
1097.4	546.007
1097.98	552.007
1098.56	544.007
1099.14	544.007
1099.72	544.007
1100.3	524.007
1100.88	514.007
1101.46	504.007
1102.04	501.007
1102.62	495.007
1103.2	496.007
1103.78	476.007
1104.36	476.007
1104.94	468.007
1105.52	456.007
1106.1	450.007
1106.68	466.007
1107.26	452.007
1107.84	447.007
1108.42	441.007
1109	440.007
1109.57	439.007
1110.15	430.007
1110.73	422.007
1111.31	407.007
1111.89	421.007
1112.47	409.007
1113.05	405.007
1113.63	398.007
1114.2	393.007
1114.78	398.007
1115.36	394.007
1115.94	388.007
1116.52	385.007
1117.1	374.007
1117.68	375.007
1118.25	377.007
1118.83	377.287
1119.41	368.499
1119.99	373.419
1120.57	357.214
1121.15	363.722
1121.72	360.597
1122.3	350.888
1122.88	357.186
1123.46	347.7
1124.04	351.437
1124.61	349.632
1125.19	336.872
1125.77	339.192
1126.35	344.209
1126.92	343.038
1127.5	335.364
1128.08	334.552
1128.66	339.541
1129.23	328.055
1129.81	329.981
1130.39	330.89
1130.96	330.747
1131.54	325.776
1132.12	314.776
1132.69	318.439
1133.27	319.782
1133.85	325.154
1134.43	315.451
1135	308.011
1135.58	314.725
1136.15	313.531
1136.73	315.817
1137.31	312.314
1137.88	312.32
1138.46	311.012
1139.04	307.366
1139.61	310.052
1140.19	299.755
1140.77	303.664
1141.34	302.184
1141.92	303.858
1142.49	303.453
1143.07	299.293
1143.64	297.253
1144.22	297.184
1144.8	296.647
1145.37	291.985
1145.95	290.625
1146.52	288.214
1147.1	292.299
1147.67	286.391
1148.25	289.774
1148.83	285.894
1149.4	292.928
1149.97	286.131
1150.55	285.403
1151.13	285.495
1151.7	283.115
1152.28	283.326
1152.85	281.635
1153.42	283.484
1154	284.798
1154.58	275.73
1155.15	277.298
1155.72	279.487
1156.3	275.653
1156.87	276.736
1157.45	274.302
1158.02	276.97
1158.6	273.868
1159.17	271.613
1159.74	268.619
1160.32	274.488
1160.89	269.137
1161.47	273.483
1162.04	273.957
1162.62	271.148
1163.19	269.374
1163.76	270.392
1164.34	272.566
1164.91	269.358
1165.48	269.703
1166.06	266.004
1166.63	264.861
1167.2	264.912
1167.78	264.758
1168.35	264.604
1168.93	264.018
1169.5	261.95
1170.07	258.79
1170.64	261.262
1171.22	265.313
1171.79	263.319
1172.36	262.211
1172.94	262.999
1173.51	259.834
1174.08	259.057
1174.66	255.563
1175.23	263.074
1175.8	259.354
1176.37	253.792
1176.95	259.58
1177.52	256.135
1178.09	258.783
1178.66	258.258
1179.24	254.992
1179.81	254.544
1180.38	250.507
1180.95	256.521
1181.52	255.758
1182.1	258.761
1182.67	253.633
1183.24	254.879
1183.81	252.887
1184.38	257.516
1184.95	254.482
1185.53	252.708
1186.1	250.594
1186.67	250.147
1187.24	249.742
1187.81	242.48
1188.39	245.651
1188.96	252.594
1189.53	252.372
1190.1	246.937
1190.67	247.023
1191.24	244.303
1191.81	248.041
1192.38	239.858
1192.95	243.229
1193.53	245.11
1194.1	242.55
1194.67	240.744
1195.24	252.664
1195.81	244.601
1196.38	241.824
1196.95	243.922
1197.52	245.716
1198.09	240.099
1198.66	242.111
1199.23	244.225
1199.8	236.494
1200.37	243.911
1200.94	242.768
1201.51	238.328
1202.08	238.14
1202.65	245.186
1203.22	237.586
1203.79	240.186
1204.36	239.255
1204.93	241.312
1205.5	238.141
1206.07	239.735
1206.64	234.667
1207.21	236.947
1207.78	235.398
1208.35	227.57
1208.92	229.559
1209.49	233.325
1210.06	226.976
1210.63	224.085
1211.19	220.748
1211.76	224.742
1212.33	222.731
1212.9	222.611
1213.47	231.771
1214.04	224.806
1214.61	225.543
1215.18	225.309
1215.75	230.812
1216.31	230.543
1216.88	233.195
1217.45	229.921
1218.02	233.624
1218.59	234.338
1219.16	228.03
1219.69	230.03
1220.27	235.03
1220.85	237.03
1221.42	227.03
1222	229.03
1222.58	234.03
1223.16	234.03
1223.73	232.03
1224.31	233.03
1224.89	231.03
1225.47	226.03
1226.04	227.03
1226.62	235.03
1227.2	234.03
1227.77	233.03
1228.35	225.03
1228.93	231.03
1229.5	235.03
1230.08	240.03
1230.65	242.03
1231.23	219.03
1231.81	232.03
1232.38	223.03
1232.96	231.03
1233.54	231.03
1234.11	225.03
1234.69	226.03
1235.27	231.03
1235.84	230.03
1236.42	229.03
1236.99	225.03
1237.57	233.03
1238.15	229.03
1238.72	232.03
1239.3	229.03
1239.87	223.03
1240.45	229.03
1241.02	227.03
1241.6	225.03
1242.18	225.03
1242.75	237.03
1243.32	224.03
1243.9	225.03
1244.48	220.03
1245.05	228.03
1245.63	227.03
1246.2	228.03
1246.78	224.03
1247.35	224.03
1247.93	228.03
1248.5	227.03
1249.08	218.03
1249.65	231.03
1250.23	226.03
1250.8	229.03
1251.37	223.03
1251.95	228.03
1252.52	224.03
1253.1	230.03
1253.67	227.03
1254.25	225.03
1254.82	230.03
1255.4	225.03
1255.97	227.03
1256.54	227.03
1257.12	224.03
1257.69	231.03
1258.27	226.03
1258.84	227.03
1259.41	220.03
1259.99	225.03
1260.56	229.03
1261.13	227.03
1261.71	221.03
1262.28	227.03
1262.85	230.03
1263.43	219.03
1264	223.03
1264.57	227.03
1265.15	224.03
1265.72	222.03
1266.29	225.03
1266.87	228.03
1267.44	227.03
1268.01	222.03
1268.59	229.03
1269.16	224.03
1269.73	227.03
1270.3	223.03
1270.88	224.03
1271.45	223.03
1272.02	226.03
1272.59	226.03
1273.17	220.03
1273.74	225.03
1274.31	219.03
1274.88	223.03
1275.46	227.03
1276.03	223.03
1276.6	224.03
1277.17	226.03
1277.75	227.03
1278.32	225.03
1278.89	228.03
1279.46	229.03
1280.03	226.03
1280.6	226.03
1281.18	228.03
1281.75	221.03
1282.32	227.03
1282.89	225.03
1283.46	223.03
1284.03	225.03
1284.6	220.03
1285.18	226.03
1285.75	224.03
1286.32	221.03
1286.89	226.03
1287.46	227.03
1288.03	224.03
1288.6	228.03
1289.17	225.03
1289.74	221.03
1290.32	225.03
1290.89	225.03
1291.46	224.03
1292.03	221.03
1292.6	225.03
1293.17	227.03
1293.74	223.03
1294.31	219.03
1294.88	223.03
1295.45	221.03
1296.02	223.03
1296.59	219.03
1297.16	223.03
1297.73	219.03
1298.3	227.03
1298.87	225.03
1299.44	225.03
1300.01	217.03
1300.58	226.03
1301.15	220.03
1301.72	224.03
1302.29	226.03
1302.86	224.03
1303.43	226.03
1304	231.03
1304.57	225.03
1305.14	224.03
1305.71	224.03
1306.28	224.03
1306.85	225.03
1307.42	227.03
1307.99	214.03
1308.55	227.03
1309.12	222.03
1309.69	225.03
1310.26	226.03
1310.83	229.03
1311.4	227.03
1311.97	222.03
1312.54	228.03
1313.1	227.03
1313.67	224.03
1314.24	221.03
1314.81	225.03
1315.38	223.03
1315.95	220.03
1316.52	221.03
1317.08	223.03
1317.65	224.03
1318.22	227.03
1318.79	220.03
1319.36	226.03
1319.92	220.03
1320.49	229.03
1321.06	225.03
1321.63	226.03
1322.2	227.03
1322.76	221.03
1323.33	223.03
1323.9	222.03
1324.47	225.03
1325.03	226.03
1325.6	217.03
1326.17	229.03
1326.73	223.03
1327.3	226.03
1327.87	227.03
1328.44	222.03
1329	225.03
1329.57	226.03
1330.14	225.03
1330.7	223.03
1331.27	219.03
1331.84	221.03
1332.4	222.03
1332.97	224.03
1333.54	224.03
1334.11	220.03
1334.67	221.03
1335.24	225.03
1335.8	227.03
1336.37	229.03
1336.94	224.03
1337.5	223.03
1338.07	217.03
1338.64	225.03
1339.2	223.03
1339.77	227.03
1340.34	227.03
1340.9	227.03
1341.47	223.03
1342.03	232.03
1342.6	229.03
1343.16	230.03
1343.73	224.03
1344.3	222.03
1344.86	225.03
1345.43	220.03
1345.99	227.03
1346.56	226.03
1347.12	224.03
1347.69	229.03
1348.25	231.03
1348.82	224.03
1349.38	223.03
1349.95	223.03
1350.51	225.03
1351.08	228.03
1351.64	227.03
1352.21	224.03
1352.77	223.03
1353.34	220.03
1353.9	223.03
1354.47	224.03
1355.03	231.03
1355.6	224.03
1356.16	235.03
1356.73	224.03
1357.29	223.03
1357.85	231.03
1358.42	223.03
1358.98	228.03
1359.55	228.03
1360.11	227.03
1360.67	228.03
1361.24	227.03
1361.8	230.03
1362.37	219.03
1362.93	233.03
1363.49	234.03
1364.06	232.03
1364.62	226.03
1365.19	221.03
1365.75	226.03
1366.31	230.03
1366.88	228.03
1367.44	235.03
1368	227.03
1368.57	232.03
1369.13	231.03
1369.69	226.03
1370.26	229.03
1370.82	223.03
1371.38	235.03
1371.95	228.03
1372.51	232.03
1373.07	230.03
1373.63	235.03
1374.2	224.03
1374.76	230.03
1375.32	233.03
1375.88	228.03
1376.45	228.03
1377.01	229.03
1377.57	224.03
1378.13	231.03
1378.7	234.03
1379.26	228.03
1379.82	233.03
1380.38	233.03
1380.95	230.03
1381.51	238.03
1382.07	239.03
1382.63	224.03
1383.19	229.03
1383.76	229.03
1384.32	230.03
1384.88	231.03
1385.44	236.03
1386	228.03
1386.56	229.03
1387.13	235.03
1387.69	233.03
1388.25	237.03
1388.81	235.03
1389.37	230.03
1389.93	228.03
1390.49	232.03
1391.05	232.03
1391.62	232.03
1392.18	229.03
1392.74	237.03
1393.3	231.03
1393.86	234.03
1394.42	232.03
1394.98	233.03
1395.54	232.03
1396.1	224.03
1396.66	239.03
1397.22	227.03
1397.78	231.03
1398.34	236.03
1398.91	231.03
1399.47	232.03
1400.03	231.03
1400.58	235.03
1401.14	234.03
1401.7	235.03
1402.27	231.03
1402.83	235.03
1403.39	240.03
1403.95	231.03
1404.5	236.03
1405.06	230.03
1405.62	228.03
1406.19	231.03
1406.74	236.03
1407.3	233.03
1407.86	243.03
1408.42	237.03
1408.98	230.03
1409.54	241.03
1410.1	233.03
1410.66	237.03
1411.22	239.03
1411.78	234.03
1412.34	230.03
1412.9	226.03
1413.46	239.03
1414.01	233.03
1414.57	236.03
1415.13	235.03
1415.69	233.03
1416.25	232.03
1416.81	235.03
1417.37	240.03
1417.92	240.03
1418.48	235.03
1419.04	236.03
1419.6	238.03
1420.16	237.03
1420.72	235.03
1421.28	235.03
1421.83	237.03
1422.39	238.03
1422.95	226.03
1423.51	237.03
1424.07	235.03
1424.62	235.03
1425.18	235.03
1425.74	237.03
1426.3	232.03
1426.85	235.03
1427.41	235.03
1427.97	244.03
1428.53	240.03
1429.08	230.03
1429.64	227.03
1430.2	236.03
1430.76	233.03
1431.31	231.03
1431.87	239.03
1432.43	232.03
1432.99	236.03
1433.54	236.03
1434.1	231.03
1434.66	236.03
1435.21	233.03
1435.77	242.03
1436.33	233.03
1436.88	235.03
1437.44	238.03
1438	237.03
1438.55	235.03
1439.11	238.03
1439.67	241.03
1440.22	231.03
1440.78	233.03
1441.33	233.03
1441.89	235.03
1442.45	235.03
1443	237.03
1443.56	233.03
1444.11	234.03
1444.67	241.03
1445.23	229.03
1445.78	239.03
1446.34	234.03
1446.89	237.03
1447.45	238.03
1448.01	239.03
1448.56	235.03
1449.12	238.03
1449.67	237.03
1450.23	242.03
1450.78	235.03
1451.34	235.03
1451.9	236.03
1452.45	235.03
1453	238.03
1453.56	237.03
1454.12	238.03
1454.67	231.03
1455.22	239.03
1455.78	239.03
1456.34	238.03
1456.89	238.03
1457.44	239.03
1458	238.03
1458.55	236.03
1459.11	236.03
1459.66	239.03
1460.22	230.03
1460.77	235.03
1461.33	233.03
1461.88	235.03
1462.43	231.03
1462.99	240.03
1463.54	232.03
1464.1	231.03
1464.65	235.03
1465.2	227.03
1465.76	236.03
1466.31	239.03
1466.87	236.03
1467.42	233.03
1467.97	232.03
1468.53	235.03
1469.08	237.03
1469.63	238.03
1470.19	236.03
1470.74	237.03
1471.3	235.03
1471.85	241.03
1472.4	234.03
1472.96	231.03
1473.51	239.03
1474.06	229.03
1474.61	240.03
1475.17	239.03
1475.72	238.03
1476.27	237.03
1476.83	239.03
1477.38	238.03
1477.93	241.03
1478.48	236.03
1479.04	231.03
1479.59	231.03
1480.14	239.03
1480.69	236.03
1481.25	241.03
1481.8	242.03
1482.35	238.03
1482.9	236.03
1483.46	235.03
1484.01	237.03
1484.56	240.03
1485.11	233.03
1485.66	231.03
1486.22	231.03
1486.77	236.03
1487.32	234.03
1487.87	237.03
1488.42	231.03
1488.97	237.03
1489.53	239.03
1490.08	235.03
1490.63	232.03
1491.18	229.03
1491.73	234.03
1492.28	232.03
1492.83	233.03
1493.39	237.03
1493.94	241.03
1494.49	235.03
1495.04	239.03
1495.59	239.03
1496.14	239.03
1496.69	235.03
1497.24	231.03
1497.79	235.03
1498.34	237.03
1498.9	231.03
1499.45	238.03
1500	234.03
