20.6602	835.435
21.3365	838.435
22.0128	841.435
22.6891	847.435
23.3653	850.435
24.0414	863.435
24.7175	854.435
25.3936	894.435
26.0696	894.435
26.7455	957.435
27.4237	961.435
28.0996	973.435
28.7754	1005.44
29.4512	1027.44
30.1269	1037.44
30.8026	1058.44
31.4782	1095.44
32.1538	1127.44
32.8294	1144.44
33.5049	1172.44
34.1803	1191.44
34.8557	1234.44
35.531	1267.44
36.2063	1332.44
36.8793	1364.44
37.5545	1404.44
38.2297	1449.44
38.9048	1491.44
39.5798	1507.44
40.2549	1536.44
40.9298	1577.44
41.6048	1621.44
42.2797	1636.44
42.9545	1630.44
43.627	1668.44
44.3017	1751.44
44.9764	1775.44
45.651	1839.44
46.3256	1865.44
47.0002	1896.44
47.6724	1876.44
48.3469	1906.44
49.0213	1993.44
49.6956	2002.44
50.3677	1983.44
51.0419	2064.44
51.7162	2039.44
52.3903	2087.44
53.0622	2115.44
53.7362	2165.44
54.4103	2155.44
55.0843	2207.44
55.7559	2209.44
56.4298	2244.44
57.1037	2271.44
57.7752	2251.44
58.4489	2294.44
59.1226	2342.44
59.794	2329.44
60.4676	2417.44
61.1412	2478.44
61.8124	2483.44
62.4859	2423.44
63.157	2425.44
63.8304	2443.44
64.5037	2452.44
65.1747	2475.44
65.848	2553.44
66.5189	2496.44
67.192	2555.44
67.8628	2557.44
68.5359	2493.44
69.2066	2594.44
69.8796	2546.44
70.5502	2583.44
71.2231	2590.44
71.8936	2574.44
72.5664	2641.44
73.2368	2643.44
73.9095	2694.44
74.5798	2608.44
75.2524	2649.44
75.9227	2673.44
76.5952	2690.44
77.2653	2763.44
77.9354	2652.44
78.6078	2679.44
79.2778	2726.44
79.9501	2645.44
80.62	2671.44
81.2899	2622.44
81.962	2688.44
82.6318	2678.44
83.3015	2665.44
83.9735	2777.44
84.6431	2775.44
85.3127	2713.44
85.9846	2648.44
86.6541	2645.44
87.3236	2670.44
87.993	2673.44
88.6646	2653.44
89.334	2748.44
90.0032	2675.44
90.6747	2680.44
91.3439	2708.44
92.0131	2728.44
92.6822	2776.44
93.3512	2727.44
94.0225	2730.44
94.6914	2661.44
95.3604	2711.44
96.0292	2723.44
96.698	2680.44
97.3668	2740.44
98.0378	2662.44
98.7065	2738.44
99.3751	2604.44
100.044	2598.44
100.712	2677.44
101.381	2636.44
102.049	2615.44
102.718	2568.44
103.386	2644.44
104.056	2632.44
104.725	2569.44
105.393	2596.44
106.061	2609.44
106.729	2563.44
107.397	2590.44
108.065	2684.44
108.733	2704.44
109.401	2654.44
110.069	2612.44
110.737	2616.44
111.405	2609.44
112.073	2553.44
112.74	2576.44
113.408	2543.44
114.076	2632.44
114.741	2533.44
115.408	2535.44
116.076	2569.44
116.743	2571.44
117.411	2521.44
118.078	2548.44
118.745	2510.44
119.412	2563.44
120.08	2515.44
120.745	2558.44
121.412	2485.44
122.079	2464.44
122.746	2465.44
123.413	2516.44
124.08	2563.44
124.744	2521.44
125.411	2453.44
126.078	2470.44
126.745	2449.44
127.409	2429.44
128.076	2473.44
128.742	2443.44
129.409	2480.44
130.073	2436.44
130.74	2427.44
131.406	2428.44
132.072	2452.44
132.736	2463.44
133.403	2432.44
134.069	2421.44
134.733	2383.44
135.399	2382.44
136.065	2374.44
136.729	2348.44
137.395	2366.44
138.058	2327.44
138.724	2388.44
139.39	2360.44
140.054	2347.44
140.72	2399.44
141.383	2338.44
142.049	2356.44
142.714	2310.44
143.378	2321.44
144.043	2253.44
144.706	2309.44
145.372	2340.44
146.035	2310.44
146.7	2344.44
147.363	2321.44
148.029	2299.44
148.692	2259.44
149.357	2269.44
150.02	2249.44
150.682	2213.44
151.348	2226.44
152.01	2207.44
152.675	2222.44
153.338	2224.44
154.003	2189.44
154.665	2180.44
155.328	2228.44
155.992	2149.44
156.655	2167.44
157.319	2246.44
157.982	2178.44
158.644	2199.44
159.309	2172.44
159.971	2152.44
160.633	2179.44
161.297	2122.44
161.959	2187.44
162.621	2148.44
163.283	2150.44
163.947	2188.44
164.609	2056.44
165.271	2100.44
165.933	2091.44
166.597	2157.44
167.258	2135.44
167.92	2115.44
168.582	2081.44
169.245	2114.44
169.907	2058.44
170.568	2068.44
171.23	2130.44
171.891	2094.44
172.552	2082.44
173.216	2044.44
173.877	2030.44
174.538	2058.44
175.2	2072.44
175.861	1969.44
176.522	2027.44
177.183	2038.44
177.844	1990.44
178.505	2007.44
179.165	1999.44
179.828	1958.44
180.489	1960.44
181.15	2003.44
181.811	1995.44
182.471	1990.44
183.132	1980.44
183.792	1980.44
184.453	1986.44
185.113	1946.44
185.774	2014.44
186.434	1958.44
187.094	1974.44
187.755	1963.44
188.413	1962.44
189.073	1923.44
189.733	1949.44
190.393	1913.44
191.053	1973.44
191.713	1903.44
192.373	1976.44
193.033	1913.44
193.693	1920.44
194.353	1932.44
195.01	1936.44
195.67	1905.44
196.33	1835.44
196.989	1939.44
197.649	1878.44
198.308	1871.44
198.966	1872.44
199.625	1888.44
200.284	1888.44
200.944	1824.44
201.601	1884.44
202.26	1860.44
202.919	1868.44
203.579	1876.44
204.235	1867.44
204.895	1882.44
205.554	1820.44
206.213	1795.44
206.869	1844.44
207.528	1820.44
208.187	1850.44
208.844	1822.44
209.502	1848.44
210.161	1809.44
210.818	1825.44
211.476	1838.44
212.133	1860.44
212.791	1820.44
213.45	1833.44
214.106	1812.44
214.764	1787.44
215.42	1801.44
216.079	1809.44
216.735	1791.44
217.393	1831.44
218.051	1794.44
218.707	1818.44
219.365	1755.44
220.021	1817.44
220.679	1808.44
221.335	1795.44
221.993	1774.44
222.648	1823.44
223.306	1846.44
223.962	1792.44
224.617	1794.44
225.275	1810.44
225.93	1787.44
226.588	1811.44
227.243	1758.44
227.901	1755.44
228.556	1788.44
229.211	1747.44
229.868	1758.44
230.523	1728.44
231.179	1743.44
231.836	1777.44
232.491	1759.44
233.146	1798.44
233.803	1789.44
234.458	1746.44
235.112	1757.44
235.769	1744.44
236.424	1737.44
237.079	1801.44
237.733	1788.44
238.39	1777.44
239.045	1789.44
239.699	1771.44
240.353	1753.44
241.01	1786.44
241.664	1761.44
242.319	1760.44
242.973	1764.44
243.627	1759.44
244.283	1756.44
244.938	1783.44
245.592	1787.44
246.246	1769.44
246.9	1784.44
247.554	1770.44
248.21	1730.44
248.864	1777.44
249.517	1753.44
250.171	1747.44
250.825	1780.44
251.478	1738.44
252.132	1743.44
252.786	1751.44
253.439	1694.44
254.093	1763.44
254.746	1792.44
255.399	1791.44
256.053	1783.44
256.706	1769.44
257.359	1804.44
258.013	1745.44
258.666	1756.44
259.319	1740.44
259.972	1754.44
260.625	1765.44
261.278	1740.44
261.931	1707.44
262.584	1748.44
263.237	1771.44
263.889	1780.44
264.542	1746.44
265.193	1808.44
265.845	1779.44
266.498	1744.44
267.151	1758.44
267.803	1784.44
268.456	1809.44
269.108	1809.44
269.758	1812.44
270.411	1773.44
271.063	1795.44
271.715	1821.44
272.367	1808.44
273.017	1785.44
273.67	1760.44
274.322	1824.44
274.974	1815.44
275.624	1816.44
276.276	1869.44
276.927	1816.44
277.577	1834.44
278.229	1816.44
278.881	1760.44
279.532	1832.44
280.182	1847.44
280.834	1812.44
281.485	1840.44
282.135	1808.44
282.786	1849.44
283.435	1857.44
284.087	1875.44
284.738	1858.44
285.387	1830.44
286.039	1844.44
286.688	1858.44
287.339	1855.44
287.99	1875.44
288.639	1871.44
289.29	1849.44
289.939	1842.44
290.59	1854.44
291.238	1875.44
291.889	1871.44
292.538	1837.44
293.189	1867.44
293.837	1880.44
294.488	1892.44
295.137	1888.44
295.787	1879.44
296.436	1899.44
297.086	1872.44
297.734	1890.44
298.383	1908.44
299.033	1886.44
299.681	1912.44
300.331	1962.44
300.98	1903.44
301.628	1871.44
302.278	1920.44
302.926	1943.44
303.574	1946.44
304.224	1910.44
304.871	1952.44
305.519	1936.44
306.169	2009.44
306.817	1945.44
307.464	1998.44
308.112	2001.44
308.762	1983.44
309.409	1957.44
310.057	1998.44
310.704	1999.44
311.354	2004.44
312.001	2020.44
312.648	2037.44
313.295	2021.44
313.945	2016.44
314.592	2019.44
315.239	2034.44
315.886	2017.44
316.533	2026.44
317.18	2029.44
317.829	1998.44
318.476	2062.44
319.123	2056.44
319.77	2085.44
320.416	2106.44
321.063	2077.44
321.71	2078.44
322.356	2171.44
323.003	2120.44
323.649	2110.44
324.296	2106.44
324.942	2146.44
325.589	2148.44
326.235	2114.44
326.884	2135.44
327.53	2107.44
328.174	2152.44
328.82	2173.44
329.466	2168.44
330.112	2174.44
330.758	2162.44
331.404	2190.44
332.05	2237.44
332.696	2226.44
333.342	2241.44
333.988	2176.44
334.634	2255.44
335.279	2241.44
335.925	2229.44
336.571	2228.44
337.214	2256.44
337.86	2225.44
338.505	2313.44
339.151	2309.44
339.796	2256.44
340.441	2299.44
341.084	2270.44
341.73	2326.44
342.375	2281.44
343.02	2339.44
343.663	2271.44
344.308	2341.44
344.953	2288.44
345.598	2345.44
346.241	2306.44
346.886	2350.44
347.531	2397.44
348.176	2380.44
348.818	2348.44
349.463	2304.44
350.108	2349.44
350.75	2381.44
351.395	2360.44
352.04	2452.44
352.682	2348.44
353.327	2346.44
353.969	2349.44
354.613	2289.44
355.258	2385.44
355.9	2348.44
356.544	2338.44
357.186	2376.44
357.83	2344.44
358.474	2340.44
359.116	2366.44
359.76	2328.44
360.402	2341.44
361.046	2385.44
361.688	2337.44
362.332	2351.44
362.973	2354.44
363.617	2342.44
364.259	2313.44
364.903	2388.44
365.544	2353.44
366.185	2374.44
366.829	2364.44
367.47	2265.44
368.114	2313.44
368.755	2343.44
369.399	2316.44
370.04	2311.44
370.681	2283.44
371.324	2318.44
371.965	2265.44
372.606	2300.44
373.249	2284.44
373.89	2223.44
374.531	2278.44
375.174	2289.44
375.815	2272.44
376.456	2195.44
377.099	2259.44
377.739	2283.44
378.38	2231.44
379.02	2248.44
379.663	2246.44
380.304	2249.44
380.944	2202.44
381.585	2246.44
382.225	2162.44
382.867	2174.44
383.508	2229.44
384.148	2147.44
384.788	2212.44
385.428	2193.44
386.068	2181.44
386.71	2162.44
387.35	2116.44
387.99	2208.44
388.63	2107.44
389.27	2155.44
389.91	2149.44
390.55	2135.44
391.19	2149.44
391.829	2076.44
392.469	2076.44
393.109	2121.44
393.75	2098.44
394.39	2057.44
395.029	2038.44
395.669	2070.44
396.308	2061.44
396.948	2055.44
397.587	2016.44
398.226	2029.44
398.863	2015.44
399.502	1991.44
400.142	2003.44
400.781	1985.44
401.42	1960.44
402.059	1951.44
402.698	1972.44
403.337	1949.44
403.975	1885.44
404.614	1961.44
405.253	1899.44
405.89	1890.44
406.528	1883.44
407.167	1908.44
407.806	1895.44
408.444	1856.44
409.083	1876.44
409.719	1880.44
410.358	1809.44
410.996	1807.44
411.634	1819.44
412.27	1805.44
412.909	1785.44
413.547	1805.44
414.185	1813.44
414.821	1804.44
415.459	1779.44
416.097	1771.44
416.735	1749.44
417.371	1747.44
418.009	1757.44
418.647	1732.44
419.283	1737.44
419.92	1720.44
420.558	1725.44
421.194	1717.44
421.831	1718.44
422.467	1672.44
423.104	1707.44
423.742	1654.44
424.377	1666.44
425.015	1673.44
425.65	1693.44
426.287	1654.44
426.923	1626.44
427.56	1639.44
428.195	1626.44
428.832	1584.44
429.469	1594.44
430.104	1616.44
430.739	1620.44
431.376	1593.44
432.011	1608.44
432.648	1577.44
433.283	1597.44
433.92	1594.44
434.554	1560.44
435.191	1588.44
435.826	1587.44
436.46	1566.44
437.097	1590.44
437.731	1517.44
438.368	1560.44
439.002	1519.44
439.636	1531.44
440.273	1494.44
440.907	1555.44
441.541	1553.44
442.177	1519.44
442.811	1554.44
443.446	1531.44
444.082	1531.44
444.716	1495.44
445.35	1496.44
445.983	1479.44
446.62	1524.44
447.253	1509.44
447.887	1497.44
448.521	1505.44
449.157	1493.44
449.79	1508.44
450.424	1493.44
451.057	1495.44
451.691	1449.44
452.324	1485.44
452.96	1467.44
453.593	1467.44
454.227	1441.44
454.86	1493.44
455.493	1484.44
456.126	1465.44
456.759	1457.44
457.392	1457.44
458.026	1494.44
458.661	1466.44
459.294	1475.44
459.927	1456.44
460.56	1464.44
461.192	1467.44
461.825	1442.44
462.458	1437.44
463.091	1448.44
463.723	1433.44
464.356	1445.44
464.989	1434.44
465.621	1458.44
466.254	1463.44
466.886	1448.44
467.516	1453.44
468.149	1425.44
468.781	1417.44
469.413	1439.44
470.046	1410.44
470.678	1437.44
471.31	1425.44
471.942	1410.44
472.574	1412.44
473.204	1422.44
473.836	1401.44
474.468	1396.44
475.1	1400.44
475.732	1389.44
476.364	1396.44
476.993	1408.44
477.625	1387.44
478.257	1396.44
478.889	1386.44
479.518	1396.44
480.15	1349.44
480.781	1369.44
481.413	1397.44
482.042	1366.44
482.673	1365.44
483.305	1381.44
483.934	1377.44
484.565	1358.44
485.196	1371.44
485.825	1354.44
486.457	1341.44
487.088	1360.44
487.717	1334.44
488.348	1345.44
488.979	1347.44
489.607	1349.44
490.238	1367.44
490.867	1343.44
491.498	1308.44
492.126	1354.44
492.757	1331.44
493.388	1324.44
494.016	1317.44
494.647	1342.44
495.275	1322.44
495.906	1294.44
496.534	1328.44
497.165	1321.44
497.793	1350.44
498.421	1313.44
499.051	1323.44
499.68	1334.44
500.31	1326.44
500.938	1320.44
501.568	1276.44
502.196	1304.44
502.824	1322.44
503.454	1298.44
504.082	1299.44
504.712	1321.44
505.339	1291.44
505.967	1296.44
506.597	1297.44
507.224	1297.44
507.852	1308.44
508.482	1293.44
509.109	1290.44
509.737	1297.44
510.364	1278.44
510.993	1305.44
511.621	1260.44
512.248	1296.44
512.875	1281.44
513.505	1280.44
514.132	1280.44
514.759	1281.44
515.386	1278.44
516.015	1268.44
516.642	1254.44
517.269	1264.44
517.896	1276.44
518.523	1238.44
519.15	1244.44
519.776	1256.44
520.405	1272.44
521.032	1280.44
521.659	1289.44
522.285	1250.44
522.912	1243.44
523.538	1213.44
524.165	1217.44
524.791	1239.44
525.418	1231.44
526.044	1248.44
526.67	1196.44
527.297	1230.44
527.923	1222.44
528.549	1219.44
529.175	1205.44
529.801	1176.44
530.427	1189.44
531.053	1177.44
531.679	1177.44
532.305	1170.44
532.931	1183.44
533.557	1157.44
534.183	1170.44
534.808	1168.44
535.434	1172.44
536.06	1184.44
536.683	1148.44
537.309	1161.44
537.935	1113.44
538.56	1161.44
539.186	1130.44
539.811	1141.44
540.434	1155.44
541.06	1159.44
541.685	1181.44
542.31	1134.44
542.935	1134.44
543.558	1125.44
544.184	1128.44
544.809	1122.44
545.434	1123.44
546.057	1089.44
546.682	1096.44
547.306	1116.44
547.929	1108.44
548.554	1107.44
549.179	1086.44
549.801	1083.44
550.426	1082.44
551.051	1098.44
551.673	1056.44
552.298	1081.44
552.923	1084.44
553.545	1053.44
554.169	1055.44
554.792	1057.44
555.416	1049.44
556.04	1034.44
556.663	1012.44
557.287	1022.44
557.909	1017.44
558.533	1029.44
559.155	1015.44
559.779	1000.44
560.401	971.435
561.025	1006.44
561.647	1005.44
562.271	982.435
562.893	966.435
563.517	974.435
564.138	978.435
564.76	941.435
565.384	925.435
566.005	961.435
566.629	961.435
567.25	955.435
567.874	930.435
568.495	947.435
569.117	932.435
569.74	961.435
570.361	920.435
570.982	932.435
571.606	943.435
572.227	925.435
572.848	934.435
573.471	936.435
574.092	976.435
574.713	930.435
575.334	960.435
575.957	1008.44
576.578	997.435
577.199	1025.44
577.82	1025.44
578.442	1045.44
579.063	1096.44
579.684	1119.44
580.304	1163.44
580.925	1203.44
581.545	1265.44
582.168	1297.44
582.788	1331.44
583.409	1381.44
584.029	1446.44
584.649	1520.44
585.27	1597.44
585.89	1682.44
586.51	1723.44
587.13	1803.44
587.753	1904.44
588.373	1999.44
588.993	2091.44
589.613	2146.44
590.233	2329.44
590.852	2353.44
591.472	2569.44
592.092	2608.44
592.712	2745.44
593.332	2902.44
593.951	3096.44
594.571	3198.44
595.191	3365.44
595.81	3468.44
596.427	3699.44
597.047	3779.44
597.666	3993.44
598.286	4179.44
598.905	4299.44
599.525	4550.44
600.144	4704.44
600.763	4870.44
601.382	5162.44
601.999	5389.44
602.618	5542.44
603.237	5805.44
603.857	5928.44
604.476	6271.44
605.092	6348.44
605.711	6606.44
606.33	6843.44
606.949	6934.44
607.568	7189.44
608.184	7236.44
608.803	7652.44
609.422	7757.62
610.038	7754.48
610.657	8032.95
611.275	8168.85
611.892	8609.39
612.51	8730.56
613.129	8612.36
613.745	8812.58
614.363	9007.06
614.982	9182.23
615.598	9378.75
616.216	9340.06
616.834	9399.33
617.45	9756.78
618.068	9792.71
618.684	9742.78
619.302	9979.78
619.918	10071.8
620.536	10103.4
621.154	10028.2
621.769	10384.5
622.387	10149.3
623.003	10573.9
623.621	10556.1
624.236	10554.6
624.854	10776.5
625.469	10682.6
626.085	10615.5
626.702	10701.4
627.318	10788.3
627.935	10734.8
628.55	10892.6
629.168	10919.7
629.783	10898
630.398	10831.7
631.015	10796.1
631.63	10973.3
632.245	10851.9
632.862	10822.7
633.477	10773.5
634.092	10854.8
634.709	10772
635.324	10751
635.939	10821.8
636.556	10743.7
637.171	10552
637.785	10559.9
638.4	10558.8
639.017	10541.7
639.631	10418
640.246	10295
640.86	10325.7
641.477	10324.4
642.091	10290.1
642.705	10030.9
643.32	9990.29
643.934	10027.3
644.548	10038.2
645.164	9829.81
645.779	9573.26
646.393	9618.78
647.007	9602.36
647.621	9360.22
648.235	9263.14
648.849	9246.67
649.463	9150.17
650.076	8908.52
650.69	8940.97
651.304	9026.92
651.92	8599.38
652.534	8537.05
653.147	8665.31
653.761	8443.02
654.374	8142.48
654.988	8351.33
655.601	8153.56
656.043	7984.56
656.667	7768.56
657.291	7711.56
657.913	7654.56
658.537	7539.56
659.161	7413.56
659.783	7189.56
660.407	7246.56
661.031	7106.56
661.652	6863.56
662.276	6675.56
662.9	6568.56
663.522	6628.56
664.145	6489.56
664.767	6455.56
665.39	6337.56
666.012	6133.56
666.635	5955.56
667.257	6071.56
667.88	5953.56
668.503	5804.56
669.125	5804.56
669.748	5642.56
670.369	5512.56
670.992	5377.56
671.613	5196.56
672.234	5216.56
672.857	5139.56
673.478	5128.56
674.101	5055.56
674.722	4893.56
675.345	4844.56
675.966	4811.56
676.587	4681.56
677.209	4555.56
677.83	4681.56
678.453	4464.56
679.073	4420.56
679.694	4314.56
680.316	4223.56
680.937	4300.56
681.557	4125.56
682.18	4085.56
682.8	3947.56
683.42	3828.56
684.043	3902.56
684.663	3873.56
685.283	3788.56
685.903	3792.56
686.525	3642.56
687.145	3571.56
687.765	3545.56
688.385	3488.56
689.007	3532.56
689.627	3409.56
690.247	3340.56
690.867	3299.56
691.486	3289.56
692.108	3293.56
692.728	3208.56
693.348	3130.56
693.967	3080.56
694.587	3049.56
695.206	2992.56
695.826	2942.56
696.447	2889.56
697.066	2892.56
697.686	2871.56
698.305	2779.56
698.924	2762.56
699.543	2739.56
700.163	2703.56
700.782	2678.56
701.401	2689.56
702.02	2597.56
702.639	2582.56
703.258	2514.56
703.877	2467.56
704.496	2471.56
705.114	2437.56
705.733	2336.56
706.352	2377.56
706.971	2306.56
707.589	2304.56
708.208	2278.56
708.826	2245.56
709.445	2192.56
710.063	2211.56
710.682	2165.56
711.3	2146.56
711.919	2125.56
712.535	2092.56
713.153	2060.56
713.771	2025.56
714.39	1999.56
715.008	1992.56
715.626	1937.56
716.244	1914.56
716.86	1928.56
717.478	1904.56
718.096	1865.56
718.714	1859.56
719.332	1813.56
719.948	1786.56
720.565	1781.56
721.183	1736.56
721.801	1731.56
722.416	1713.56
723.034	1686.56
723.652	1684.56
724.267	1629.56
724.885	1629.56
725.502	1621.56
726.12	1600.56
726.735	1571.56
727.352	1566.56
727.969	1513.56
728.585	1530.56
729.202	1503.56
729.817	1466.56
730.434	1484.56
731.051	1459.56
731.666	1445.56
732.283	1426.56
732.898	1423.56
733.515	1389.56
734.132	1395.56
734.747	1354.56
735.363	1352.56
735.978	1320.56
736.595	1315.56
737.209	1313.56
737.826	1294.56
738.44	1292.56
739.057	1275.56
739.672	1255.56
740.288	1235.56
740.902	1238.56
741.519	1220.56
742.133	1222.56
742.749	1207.56
743.364	1190.56
743.978	1178.56
744.594	1157.56
745.208	1150.56
745.824	1140.56
746.438	1125.56
747.052	1105.56
747.668	1108.56
748.282	1095.56
748.896	1085.56
749.512	1079.56
750.125	1067.56
750.739	1072.56
751.355	1043.56
751.968	1047.56
752.582	1026.56
753.198	1018.56
753.811	1012.56
754.424	995.565
755.038	979.565
755.653	977.565
756.267	985.565
756.88	958.565
757.493	968.565
758.106	940.565
758.722	929.565
759.335	934.565
759.948	926.565
760.561	921.565
761.174	909.565
761.787	917.565
762.402	909.565
763.015	903.565
763.628	876.565
764.24	873.565
764.853	860.565
765.466	854.565
766.079	860.565
766.691	830.565
767.304	839.565
767.919	833.565
768.531	814.565
769.143	813.565
769.756	807.565
770.368	811.565
770.981	791.565
771.593	788.565
772.205	785.565
772.818	768.565
773.43	772.565
774.042	760.565
774.654	762.565
775.266	753.565
775.876	752.565
776.488	737.565
777.1	735.565
777.712	721.565
778.324	725.565
778.936	723.565
779.547	709.565
780.159	709.565
780.771	700.565
781.382	711.565
781.992	682.565
782.604	677.565
783.215	685.565
783.827	677.565
784.438	674.565
785.047	661.565
785.659	657.565
786.27	657.565
786.881	641.565
787.493	639.565
788.102	643.565
788.713	640.565
789.324	637.565
789.935	628.565
790.544	625.565
791.155	627.565
791.766	621.565
792.375	606.565
792.986	614.565
793.597	611.565
794.206	604.565
794.816	601.565
795.427	600.565
796.036	597.565
796.646	604.565
797.257	591.565
797.866	593.565
798.476	581.565
799.084	594.565
799.695	578.565
800.305	594.565
800.914	587.565
801.524	598.565
802.132	586.565
802.742	597.565
803.351	592.565
803.961	593.565
804.569	599.565
805.179	589.565
805.787	596.565
806.397	593.565
807.005	599.565
807.615	594.565
808.223	605.565
808.832	607.565
809.44	627.565
810.048	621.565
810.658	625.565
811.265	639.565
811.875	650.565
812.482	659.565
813.09	654.565
813.699	665.565
814.307	677.565
814.916	686.565
815.524	697.565
816.131	701.565
816.74	719.565
817.347	726.565
817.955	741.565
818.562	755.565
819.171	765.565
819.778	779.565
820.385	794.565
820.994	804.565
821.601	839.565
822.208	847.565
822.815	867.565
823.421	893.565
824.03	908.565
824.637	937.565
825.244	952.565
825.85	962.565
826.457	998.565
827.066	1009.56
827.672	1039.56
828.279	1082.56
828.885	1118.56
829.492	1140.56
830.098	1180.56
830.704	1199.56
831.313	1230.56
831.919	1265.56
832.525	1304.56
833.131	1327.56
833.737	1352.56
834.344	1406.56
834.95	1440.56
835.556	1487.56
836.162	1492.56
836.768	1545.56
837.373	1596.56
837.979	1643.56
838.585	1711.56
839.191	1727.56
839.797	1783.56
840.402	1833.56
841.008	1858.56
841.614	1913.56
842.219	1918.56
842.825	2060.56
843.43	2081.56
844.034	2131.56
844.639	2132.56
845.244	2211.56
845.85	2324.56
846.455	2330.56
847.06	2418.56
847.665	2441.56
848.271	2506.56
848.874	2564.56
849.479	2673.56
850.084	2631.56
850.689	2780.56
851.294	2826.56
851.897	2860.56
852.502	2970.56
853.107	3052.56
853.711	3096.56
854.314	3134.56
854.919	3167.56
855.523	3236.56
856.128	3322.56
856.731	3346.56
857.335	3422.56
857.94	3471.56
858.542	3483.56
859.147	3591.56
859.751	3578.56
860.353	3748.56
860.958	3754.56
861.562	3808.56
862.164	3766.56
862.769	3865.56
863.371	3825.56
863.975	3916.56
864.579	3983.56
865.181	3974.56
865.785	3992.56
866.387	4047.56
866.991	4059.56
867.593	4028.56
868.197	4062.56
868.798	4122.56
869.402	4008.56
870.004	3971.56
870.607	4098.56
871.209	4036.56
871.813	4071.56
872.414	4011.56
873.018	4047.56
873.619	3971.56
874.223	4015.56
874.824	3980.56
875.425	3940.56
876.029	3924.56
876.63	3929.56
877.233	3859.56
877.835	3826.56
878.436	3796.56
879.039	3764.56
879.64	3772.56
880.241	3701.56
880.844	3690.56
881.445	3588.56
882.046	3581.56
882.649	3595.56
883.25	3548.56
883.85	3505.56
884.453	3445.56
885.054	3374.56
885.654	3442.56
886.255	3278.56
886.858	3345.56
887.458	3341.56
888.059	3324.56
888.659	3324.56
889.26	3273.56
889.862	3298.56
890.462	3272.56
891.063	3268.56
891.663	3370.56
892.263	3334.56
892.863	3229.56
893.466	3221.56
894.066	3273.56
894.666	3196.56
895.266	3156.56
895.866	3271.56
896.466	3266.56
897.066	3313.56
897.666	3335.56
898.266	3320.56
898.865	3299.56
899.465	3275.56
900.065	3387.56
900.664	3303.56
901.264	3409.56
901.864	3362.56
902.463	3397.56
903.063	3430.56
903.662	3539.56
904.262	3459.56
904.861	3530.56
905.461	3566.56
906.06	3624.56
906.659	3573.56
907.258	3722.56
907.858	3786.56
908.457	3703.56
909.056	3740.56
909.653	3803.56
910.252	3794.56
910.851	3841.56
911.45	4006.56
912.049	4047.56
912.648	3952.56
913.247	4052.56
913.843	4093.56
914.442	4206.56
915.041	4262.56
915.64	4291.56
916.236	4352.56
916.835	4379.56
917.434	4545.56
918.032	4406.56
918.628	4519.56
919.227	4531.56
919.825	4702.56
920.424	4719.56
921.02	4804.56
921.618	4890.56
922.217	4966.56
922.813	5001.56
923.411	5092.56
924.009	5216.56
924.605	5293.56
925.203	5315.56
925.801	5339.56
926.397	5438.56
926.995	5602.56
927.591	5637.56
928.189	5736.56
928.785	5865.56
929.383	5979.56
929.98	6153.56
930.576	6181.56
931.174	6247.56
931.769	6410.56
932.367	6474.56
932.963	6633.56
933.56	6661.56
934.156	6893.56
934.753	6848.56
935.348	7155.56
935.946	7124.56
936.541	7339.56
937.136	7397.56
937.734	7691.56
938.329	7797.56
938.926	7810.56
939.521	8024.56
940.116	8024.56
940.713	8128.56
941.308	8314.56
941.905	8683.56
942.5	8741.56
943.095	9015.56
943.692	8980.56
944.287	9281.56
944.881	9041.56
945.478	9571.56
946.073	9631.56
946.667	9627.56
947.262	9955.56
947.859	9820.56
948.453	9993.56
949.048	10012.6
949.642	10270.6
950.238	10376.6
950.833	10467.6
951.427	10975.6
952.021	10919.6
952.616	10935.6
953.212	11134.6
953.806	11093.6
954.4	11315.6
954.994	11551.6
955.588	11637.6
956.182	11527.6
956.776	11953.6
957.372	11843.6
957.966	12015.6
958.56	12327.6
959.154	12082.6
959.748	12428.6
960.341	12633.6
960.935	12692.6
961.529	12927.6
962.122	12821.6
962.716	12731.6
963.31	12898.6
963.903	12846.6
964.497	12793.6
965.09	13018.6
965.683	13089.6
966.277	13258.6
966.87	13128.6
967.463	13021.6
968.057	13104.6
968.65	13426.6
969.243	13253.6
969.836	13121.6
970.429	13201.6
971.02	13335.6
971.613	13182.6
972.206	13368.6
972.799	13475.6
973.392	13357.6
973.985	13168.6
974.578	13162.6
975.168	13227.6
975.761	13023.6
976.354	13025.6
976.947	13270.6
977.539	12981.6
978.13	12995.6
978.722	12923.6
979.315	12885.6
979.907	12645.6
980.498	12741.6
981.09	12665.6
981.682	12535.6
982.273	12607.6
982.865	12363.6
983.457	12285.6
984.049	12213.6
984.64	12209.6
985.232	12256.6
985.824	12255.6
986.414	12018.6
987.006	11931.6
987.596	11928.6
988.188	11599.6
988.78	11829.6
989.369	11573.6
989.961	11213.6
990.551	11537.6
991.143	11408.6
991.732	11246.6
992.324	10919.6
992.916	11054.6
993.505	10881.6
994.097	10912.6
994.686	10720.6
995.278	10662.6
995.867	10464.6
996.457	10531.6
997.048	10473.6
997.637	10326.6
998.229	10198.6
998.818	10229.6
999.409	9960.56
999.998	10071.6
1000.59	9921.56
1001.18	9694.56
1001.77	9678.56
1002.36	9413.56
1002.95	9492.56
1003.54	9302.56
1004.13	9431.56
1004.72	9185.56
1005.3	9221.56
1005.9	9121.56
1006.48	9051.56
1007.07	8812.56
1007.66	8941.56
1008.25	8694.56
1008.84	8757.56
1009.43	8649.56
1010.02	8623.56
1010.61	8687.56
1011.2	8403.56
1011.79	8504.56
1012.38	8450.56
1012.96	8265.56
1013.55	8234.56
1014.14	8235.56
1014.73	8219.56
1015.32	8156.56
1015.91	7961.56
1016.49	8071.56
1017.08	8020.56
1017.67	7715.56
1018.26	7833.56
1018.85	7857.56
1019.43	7795.56
1020.02	7507.56
1020.61	7541.56
1021.2	7537.56
1021.79	7800.56
1022.38	7697.56
1022.96	8583.56
1023.55	7956.56
1024.14	7209.56
1024.73	7338.56
1025.31	7171.56
1025.9	7167.56
1026.49	7097.56
1027.08	7168.56
1027.66	6980.56
1028.25	6837.56
1028.84	6810.56
1029.42	6740.56
1030.01	6801.56
1030.6	6615.56
1031.18	6674.56
1031.77	6667.56
1032.36	6740.56
1032.95	6609.56
1033.53	6552.56
1034.12	6567.56
1034.7	6552.56
1035.29	6337.56
1035.88	6371.56
1036.46	6369.56
1037.05	6272.56
1037.64	6203.56
1038.22	6215.56
1038.81	6114.56
1039.4	6201.56
1039.98	5995.56
1040.57	5988.56
1041.15	5956.56
1041.74	5901.56
1042.32	5889.56
1042.91	5860.56
1043.5	5646.56
1044.08	5781.56
1044.67	5689.56
1045.25	5651.56
1045.84	5583.56
1046.42	5511.56
1047.01	5406.56
1047.59	5490.56
1048.18	5513.56
1048.76	5363.56
1049.35	5149.56
1049.94	5248.56
1050.52	5076.56
1051.11	5134.56
1051.69	5109.56
1052.28	4936.56
1052.86	4982.56
1053.44	4834.56
1054.03	4911.56
1054.61	4882.56
1055.2	4724.56
1055.78	4791.56
1056.37	4660.56
1056.95	4521.56
1057.54	4628.56
1058.12	4488.56
1058.7	4417.56
1059.29	4355.56
1059.87	4254.56
1060.46	4380.56
1061.04	4242.56
1061.62	4275.56
1062.21	4267.56
1062.79	4122.56
1063.38	4089.56
1063.96	3995.56
1064.54	3913.56
1065.13	3910.56
1065.71	3845.56
1066.29	3737.56
1066.88	3772.56
1067.46	3724.56
1068.04	3674.56
1068.63	3562.56
1069.21	3548.56
1069.79	3464.56
1070.38	3452.56
1070.96	3343.56
1071.54	3311.56
1072.12	3271.56
1072.71	3317.56
1073.29	3241.56
1073.87	3167.56
1074.46	3110.56
1075.04	3116.56
1075.62	3064.56
1076.2	3048.56
1076.79	2973.56
1077.37	2916.56
1077.95	2884.56
1078.53	2838.56
1079.12	2846.56
1079.7	2772.56
1080.28	2724.56
1080.86	2649.56
1081.44	2636.56
1082.03	2569.56
1082.61	2550.56
1083.19	2493.56
1083.77	2463.56
1084.35	2441.56
1084.93	2396.56
1085.52	2385.56
1086.1	2324.56
1086.68	2335.56
1087.26	2315.56
1087.84	2259.56
1088.42	2185.56
1089	2171.56
1089.59	2168.56
1090.17	2089.56
1090.75	2080.56
1091.33	2031.56
1091.91	1980.56
1092.49	1971.56
1093.07	1935.56
1093.65	1907.56
1094.23	1877.56
1094.81	1859.56
1095.4	1801.56
1095.97	1782.56
1096.55	1773.56
1097.14	1753.56
1097.72	1716.56
1098.3	1700.56
1098.88	1661.56
1099.46	1628.56
1100.04	1609.56
1100.62	1592.56
1101.2	1544.56
1101.78	1540.56
1102.36	1536.56
1102.94	1488.56
1103.52	1464.56
1104.1	1449.56
1104.68	1425.56
1105.26	1419.56
1105.83	1389.56
1106.41	1346.56
1106.99	1330.56
1107.57	1300.56
1108.15	1311.56
1108.73	1283.56
1109.31	1241.56
1109.89	1239.56
1110.47	1226.56
1111.05	1191.56
1111.63	1178.56
1112.21	1147.56
1112.79	1134.56
1113.36	1122.56
1113.94	1099.56
1114.52	1087.56
1115.1	1066.56
1115.68	1061.56
1116.26	1034.56
1116.84	1025.56
1117.41	1009.56
1117.99	991.565
1118.57	968.565
1119.15	945.565
1119.73	933.99
1120.31	936.22
1120.88	915.565
1121.46	900.509
1122.04	890.288
1122.62	885.953
1123.2	865.498
1123.77	850.991
1124.35	829.839
1124.93	823.326
1125.51	803.465
1126.08	799.656
1126.66	784.069
1127.24	766.951
1127.82	757.05
1128.39	759.315
1128.97	737.597
1129.55	730.627
1130.13	714.6
1130.7	703.374
1131.28	689.884
1131.86	693.972
1132.43	683.739
1133.01	678.335
1133.59	677.326
1134.16	650.762
1134.74	643.227
1135.32	643.337
1135.89	619.956
1136.47	623.592
1137.05	610.434
1137.62	603.893
1138.2	595.741
1138.78	589.908
1139.35	579.23
1139.93	578.341
1140.5	569.943
1141.08	564.161
1141.66	558.518
1142.23	543.811
1142.81	549.299
1143.38	540.283
1143.96	529.205
1144.54	533.607
1145.11	526.62
1145.69	514.759
1146.26	509.161
1146.84	509.363
1147.42	495.096
1147.99	502.801
1148.56	496.746
1149.14	494.719
1149.72	487.818
1150.29	480.544
1150.87	474.307
1151.44	474.326
1152.02	474.213
1152.59	474.786
1153.17	461.323
1153.74	464.196
1154.32	456.258
1154.89	459.003
1155.46	449.182
1156.04	444.506
1156.61	446.051
1157.19	441.33
1157.76	441.329
1158.34	435.819
1158.91	436.256
1159.49	430.517
1160.06	429.028
1160.64	434.71
1161.21	424.686
1161.78	426.662
1162.36	424.021
1162.93	419.783
1163.5	422.965
1164.08	413.181
1164.65	410.703
1165.23	416.63
1165.8	409.135
1166.37	409.403
1166.95	406.819
1167.52	406.655
1168.09	403.031
1168.67	400.533
1169.24	399.795
1169.81	390.728
1170.39	399.064
1170.96	395.435
1171.53	390.22
1172.11	392.141
1172.68	395.395
1173.25	393.191
1173.82	399.541
1174.4	393.917
1174.97	384.614
1175.54	384.933
1176.12	386.803
1176.69	382.968
1177.26	385.098
1177.83	385.574
1178.41	382.556
1178.98	378.972
1179.55	379.026
1180.12	384.485
1180.69	377.158
1181.27	373.494
1181.84	377.888
1182.41	381.009
1182.98	379.037
1183.55	373.03
1184.13	373.418
1184.7	372.914
1185.27	377.347
1185.84	375.301
1186.41	372.169
1186.98	371.401
1187.56	376.557
1188.13	376.387
1188.7	366.903
1189.27	371.197
1189.84	372.364
1190.41	370.332
1190.98	367.499
1191.55	368.37
1192.13	363.52
1192.7	369.385
1193.27	368.518
1193.84	368.326
1194.41	369.893
1194.98	363.844
1195.55	362.691
1196.12	366.773
1196.69	368.095
1197.26	367.531
1197.83	358.173
1198.4	363.164
1198.97	366.206
1199.54	362.939
1200.12	363.826
1200.69	357.434
1201.26	360.602
1201.83	362.843
1202.4	364.731
1202.97	359.093
1203.54	349.969
1204.11	365.039
1204.67	359.773
1205.24	362.369
1205.81	363.131
1206.38	364.138
1206.95	353.266
1207.52	354.748
1208.09	354.973
1208.66	360.712
1209.23	351.331
1209.8	354.99
1210.37	350.471
1210.94	358.29
1211.51	348.121
1212.08	349.106
1212.65	343.399
1213.22	346.024
1213.78	344.26
1214.35	345.816
1214.92	348.521
1215.49	351.111
1216.06	353.079
1216.63	350.943
1217.2	348.854
1217.77	350.639
1218.33	353.418
1218.9	356.208
1219.47	352.078
1220.04	354.892
1220.58	356.892
1221.16	357.892
1221.74	354.892
1222.32	349.892
1222.89	351.892
1223.47	351.892
1224.05	355.892
1224.62	350.892
1225.2	353.892
1225.78	355.892
1226.36	353.892
1226.93	356.892
1227.51	346.892
1228.09	345.892
1228.66	352.892
1229.24	348.892
1229.82	349.892
1230.39	357.892
1230.97	354.892
1231.54	352.892
1232.12	351.892
1232.7	355.892
1233.27	353.892
1233.85	354.892
1234.43	355.892
1235	353.892
1235.58	352.892
1236.16	353.892
1236.73	351.892
1237.31	349.892
1237.88	350.892
1238.46	352.892
1239.04	352.892
1239.61	346.892
1240.19	354.892
1240.76	357.892
1241.34	349.892
1241.91	352.892
1242.49	355.892
1243.06	349.892
1243.64	351.892
1244.21	346.892
1244.79	355.892
1245.36	353.892
1245.94	357.892
1246.52	348.892
1247.09	350.892
1247.66	355.892
1248.24	357.892
1248.82	353.892
1249.39	356.892
1249.96	356.892
1250.54	353.892
1251.11	350.892
1251.69	353.892
1252.26	357.892
1252.84	358.892
1253.41	355.892
1253.99	357.892
1254.56	355.892
1255.13	355.892
1255.71	354.892
1256.28	359.892
1256.86	357.892
1257.43	353.892
1258	356.892
1258.58	354.892
1259.15	360.892
1259.73	357.892
1260.3	356.892
1260.87	355.892
1261.45	351.892
1262.02	362.892
1262.59	354.892
1263.17	357.892
1263.74	357.892
1264.31	355.892
1264.89	355.892
1265.46	352.892
1266.03	355.892
1266.61	357.892
1267.18	363.892
1267.75	351.892
1268.32	350.892
1268.9	356.892
1269.47	359.892
1270.05	357.892
1270.62	353.892
1271.19	359.892
1271.76	357.892
1272.33	352.892
1272.91	352.892
1273.48	358.892
1274.05	357.892
1274.62	353.892
1275.2	363.892
1275.77	357.892
1276.34	355.892
1276.91	360.892
1277.49	356.892
1278.06	358.892
1278.63	357.892
1279.2	357.892
1279.77	360.892
1280.34	355.892
1280.92	359.892
1281.49	360.892
1282.06	359.892
1282.63	364.892
1283.2	356.892
1283.77	360.892
1284.35	357.892
1284.92	361.892
1285.49	356.892
1286.06	363.892
1286.63	352.892
1287.2	360.892
1287.77	360.892
1288.34	357.892
1288.92	361.892
1289.49	360.892
1290.06	362.892
1290.63	357.892
1291.2	360.892
1291.77	364.892
1292.34	353.892
1292.91	362.892
1293.48	354.892
1294.05	366.892
1294.62	360.892
1295.19	357.892
1295.76	363.892
1296.33	360.892
1296.9	351.892
1297.47	357.892
1298.04	357.892
1298.61	355.892
1299.18	361.892
1299.75	360.892
1300.32	350.892
1300.89	356.892
1301.46	357.892
1302.03	360.892
1302.6	357.892
1303.17	364.892
1303.74	357.892
1304.31	359.892
1304.88	360.892
1305.45	357.892
1306.02	366.892
1306.59	356.892
1307.16	359.892
1307.73	357.892
1308.3	366.892
1308.87	366.892
1309.43	360.892
1310	368.892
1310.57	360.892
1311.14	362.892
1311.71	359.892
1312.28	363.892
1312.85	360.892
1313.42	365.892
1313.98	366.892
1314.55	364.892
1315.12	366.892
1315.69	362.892
1316.26	362.892
1316.83	364.892
1317.39	369.892
1317.96	361.892
1318.53	361.892
1319.1	365.892
1319.67	360.892
1320.24	364.892
1320.8	361.892
1321.37	360.892
1321.94	363.892
1322.51	357.892
1323.07	368.892
1323.64	360.892
1324.21	360.892
1324.78	360.892
1325.35	363.892
1325.91	362.892
1326.48	365.892
1327.05	369.892
1327.61	366.892
1328.18	369.892
1328.75	369.892
1329.32	364.892
1329.88	366.892
1330.45	371.892
1331.02	365.892
1331.58	366.892
1332.15	366.892
1332.72	368.892
1333.28	369.892
1333.85	366.892
1334.42	364.892
1334.98	370.892
1335.55	368.892
1336.12	367.892
1336.68	365.892
1337.25	371.892
1337.82	372.892
1338.38	372.892
1338.95	371.892
1339.51	367.892
1340.08	376.892
1340.65	365.892
1341.21	373.892
1341.78	372.892
1342.34	374.892
1342.91	374.892
1343.47	372.892
1344.04	364.892
1344.61	366.892
1345.17	368.892
1345.74	367.892
1346.3	371.892
1346.87	372.892
1347.43	367.892
1348	372.892
1348.56	372.892
1349.13	374.892
1349.69	366.892
1350.26	368.892
1350.83	376.892
1351.39	375.892
1351.96	371.892
1352.52	368.892
1353.08	377.892
1353.65	367.892
1354.21	369.892
1354.78	372.892
1355.34	362.892
1355.91	376.892
1356.47	375.892
1357.04	378.892
1357.6	370.892
1358.16	374.892
1358.73	375.892
1359.29	376.892
1359.86	379.892
1360.42	372.892
1360.99	379.892
1361.55	377.892
1362.11	374.892
1362.68	382.892
1363.24	378.892
1363.8	371.892
1364.37	377.892
1364.93	378.892
1365.5	376.892
1366.06	376.892
1366.62	381.892
1367.19	377.892
1367.75	380.892
1368.31	371.892
1368.88	378.892
1369.44	382.892
1370	374.892
1370.57	379.892
1371.13	383.892
1371.69	380.892
1372.26	378.892
1372.82	372.892
1373.38	374.892
1373.94	381.892
1374.51	376.892
1375.07	381.892
1375.63	372.892
1376.19	377.892
1376.76	378.892
1377.32	378.892
1377.88	388.892
1378.45	378.892
1379.01	381.892
1379.57	378.892
1380.13	371.892
1380.69	387.892
1381.25	374.892
1381.82	376.892
1382.38	384.892
1382.94	381.892
1383.5	375.892
1384.07	383.892
1384.63	382.892
1385.19	383.892
1385.75	386.892
1386.31	385.892
1386.87	384.892
1387.44	383.892
1388	381.892
1388.56	383.892
1389.12	380.892
1389.68	388.892
1390.24	382.892
1390.8	385.892
1391.36	384.892
1391.93	388.892
1392.49	380.892
1393.05	382.892
1393.61	378.892
1394.17	381.892
1394.73	386.892
1395.29	383.892
1395.85	381.892
1396.41	385.892
1396.97	388.892
1397.53	383.892
1398.09	380.892
1398.65	387.892
1399.21	381.892
1399.77	384.892
1400.33	385.892
1400.89	389.892
1401.45	390.892
1402.01	386.892
1402.58	390.892
1403.14	386.892
1403.7	378.892
1404.25	389.892
1404.81	382.892
1405.37	394.892
1405.93	389.892
1406.49	393.892
1407.05	390.892
1407.61	395.892
1408.17	394.892
1408.73	386.892
1409.29	395.892
1409.85	395.892
1410.41	393.892
1410.97	390.892
1411.53	389.892
1412.09	393.892
1412.65	392.892
1413.21	387.892
1413.76	386.892
1414.32	395.892
1414.88	393.892
1415.44	395.892
1416	397.892
1416.56	398.892
1417.12	389.892
1417.68	401.892
1418.23	391.892
1418.79	400.892
1419.35	402.892
1419.91	398.892
1420.47	393.892
1421.03	393.892
1421.58	396.892
1422.14	398.892
1422.7	397.892
1423.26	395.892
1423.82	389.892
1424.38	406.892
1424.93	391.892
1425.49	396.892
1426.05	397.892
1426.61	396.892
1427.16	396.892
1427.72	402.892
1428.28	397.892
1428.84	393.892
1429.39	404.892
1429.95	400.892
1430.51	397.892
1431.06	404.892
1431.62	403.892
1432.18	402.892
1432.74	398.892
1433.29	395.892
1433.85	408.892
1434.41	402.892
1434.97	400.892
1435.52	404.892
1436.08	406.892
1436.64	400.892
1437.19	404.892
1437.75	397.892
1438.3	402.892
1438.86	405.892
1439.42	397.892
1439.98	403.892
1440.53	402.892
1441.09	402.892
1441.64	402.892
1442.2	400.892
1442.76	399.892
1443.31	396.892
1443.87	406.892
1444.43	403.892
1444.98	405.892
1445.54	402.892
1446.09	406.892
1446.65	407.892
1447.2	401.892
1447.76	409.892
1448.31	409.892
1448.87	414.892
1449.43	404.892
1449.98	405.892
1450.54	414.892
1451.09	412.892
1451.65	406.892
1452.2	402.892
1452.76	398.892
1453.31	405.892
1453.87	408.892
1454.42	409.892
1454.98	409.892
1455.53	401.892
1456.09	403.892
1456.64	412.892
1457.2	399.892
1457.75	411.892
1458.31	402.892
1458.86	405.892
1459.42	412.892
1459.97	409.892
1460.52	407.892
1461.08	406.892
1461.63	414.892
1462.19	411.892
1462.74	412.892
1463.3	405.892
1463.85	409.892
1464.4	415.892
1464.96	407.892
1465.51	415.892
1466.07	408.892
1466.62	413.892
1467.17	404.892
1467.73	414.892
1468.28	409.892
1468.83	404.892
1469.39	414.892
1469.94	415.892
1470.5	415.892
1471.05	410.892
1471.6	421.892
1472.16	415.892
1472.71	420.892
1473.26	414.892
1473.82	415.892
1474.37	419.892
1474.92	414.892
1475.47	418.892
1476.03	416.892
1476.58	414.892
1477.13	415.892
1477.69	421.892
1478.24	411.892
1478.79	414.892
1479.34	416.892
1479.9	417.892
1480.45	406.892
1481	421.892
1481.55	418.892
1482.11	421.892
1482.66	416.892
1483.21	421.892
1483.76	420.892
1484.31	428.892
1484.87	421.892
1485.42	426.892
1485.97	427.892
1486.52	414.892
1487.08	424.892
1487.63	413.892
1488.18	417.892
1488.73	412.892
1489.28	412.892
1489.83	424.892
1490.39	416.892
1490.94	423.892
1491.49	421.892
1492.04	428.892
1492.59	431.892
1493.14	420.892
1493.69	427.892
1494.25	424.892
1494.8	424.892
1495.35	421.892
1495.9	427.892
1496.45	419.892
1497	418.892
1497.55	429.892
1498.1	427.892
1498.65	421.892
1499.2	420.892
1499.75	426.892
