14.826543	6298.2764
15.501734	6073.2764
16.176924	6024.2764
16.852116	5969.2764
17.527306	5803.2764
18.202496	5727.2764
18.884647	5670.2764
19.559839	5574.2764
20.235029	5506.2764
20.910219	5529.2764
21.585411	5475.2764
22.260601	5408.2764
22.942753	5435.2764
23.617943	5612.2764
24.293135	5652.2764
24.968325	5813.2764
25.643515	5992.2764
26.318707	6056.2764
26.993896	5983.2764
27.669086	5985.2764
28.351238	5907.2764
29.02643	5878.2764
29.70162	5884.2764
30.37681	6000.2764
31.052002	5939.2764
31.727192	6157.2764
32.402382	6168.2764
33.077572	6348.2764
33.752766	6569.2764
34.427956	6662.2764
35.103146	6967.2764
35.778336	7074.2764
36.453526	7182.2764
37.121758	7231.2764
37.796947	7186.2764
38.472137	7172.2764
39.147327	7220.2764
39.822521	7349.2764
40.497711	7417.2764
41.172901	7665.2764
41.848091	7860.2764
42.523281	7940.2764
43.198471	8119.2764
43.873665	8228.2764
44.541893	8066.2764
45.217083	8064.2764
45.892277	8180.2764
46.567467	8517.2764
47.242657	8509.2764
47.910885	8783.2764
48.586079	8728.2764
49.261269	8902.2764
49.936459	8845.2764
50.611649	8816.2764
51.279881	9019.2764
51.95507	8956.2764
52.63026	8849.2764
53.30545	8974.2764
53.973682	8956.2764
54.648872	9000.2764
55.317101	8987.2764
55.99229	9008.2764
56.667484	9371.2764
57.342674	9569.2764
58.010902	9861.2764
58.686092	9932.2764
59.361286	10197.276
60.029514	10042.276
60.704704	9575.2764
61.372936	9526.2764
62.048126	9547.2764
62.716354	9405.2764
63.391548	9663.2764
64.066734	9762.2764
64.73497	9687.2764
65.410156	9823.2764
66.078384	9877.2764
66.753578	9965.2764
67.428772	9851.2764
68.097	10024.276
68.772186	9875.2764
69.440422	9992.2764
70.10865	10038.276
70.783844	10152.276
71.452072	10224.276
72.127258	10118.276
72.795494	10169.276
73.47068	10359.276
74.138908	10332.276
74.814102	10384.276
75.48233	10435.276
76.150566	10277.276
76.825752	10146.276
77.49398	10105.276
78.169174	10024.276
78.837402	9945.2764
79.50563	10052.276
80.173866	10021.276
80.849052	10358.276
81.517281	10463.276
82.185516	10412.276
82.860703	10469.276
83.528938	10531.276
84.197166	10297.276
84.872353	10085.276
85.540588	10013.276
86.208817	10148.276
86.877045	10007.276
87.552238	10107.276
88.220467	10091.276
88.888695	10240.276
89.556923	10461.276
90.225159	10465.276
90.900345	10422.276
91.568573	10425.276
92.236809	10358.276
92.905037	10243.276
93.573265	10220.276
94.241493	10247.276
94.909729	10171.276
95.584915	10194.276
96.253143	10097.276
96.921379	10249.276
97.589607	10185.276
98.257835	10148.276
98.926064	10277.276
99.594299	10161.276
100.26253	9982.2764
100.93076	10046.276
101.59898	9957.2764
102.26722	10040.276
102.93545	9976.2764
103.60368	10076.276
104.2719	10150.276
104.94014	10336.276
105.60837	10246.276
106.2766	10260.276
106.94482	10208.276
107.61305	10204.276
108.28129	9957.2764
108.94952	9795.2764
109.61774	9821.2764
110.28597	9865.2764
110.95421	9890.2764
111.62244	9881.2764
112.28371	9893.2764
112.95193	9838.2764
113.62016	9904.2764
114.28839	9909.2764
114.95663	9974.2764
115.62486	10011.276
116.29308	9805.2764
116.95435	9783.2764
117.62258	9801.2764
118.29082	9709.2764
118.95905	9645.2764
119.62727	9593.2764
120.28854	9734.2764
120.95677	9809.2764
121.625	9759.2764
122.29324	9709.2764
122.9545	9757.2764
123.62273	9691.2764
124.29096	9616.2764
124.95919	9604.2764
125.62046	9493.2764
126.28869	9594.2764
126.95692	9586.2764
127.61819	9507.2764
128.28642	9520.2764
128.95465	9556.2764
129.61592	9466.2764
130.28415	9552.2764
130.94542	9456.2764
131.61365	9389.2764
132.28188	9239.2764
132.94315	9316.2764
133.61137	9360.2764
134.27264	9380.2764
134.94087	9304.2764
135.60214	9288.2764
136.27037	9350.2764
136.93164	9359.2764
137.59987	9353.2764
138.26114	9474.2764
138.92937	9378.2764
139.59064	9352.2764
140.25888	9163.2764
140.92014	9259.2764
141.58838	9204.2764
142.24965	9217.2764
142.91788	9218.2764
143.57915	9173.2764
144.24738	9044.2764
144.90865	9059.2764
145.56992	9145.2764
146.23814	9119.2764
146.89941	9045.2764
147.56764	9089.2764
148.22891	8926.2764
148.89018	8923.2764
149.55841	8986.2764
150.21968	8908.2764
150.88095	8978.2764
151.54918	8968.2764
152.21045	8935.2764
152.87172	8832.2764
153.53995	8874.2764
154.20122	8896.2764
154.86249	8838.2764
155.52376	8797.2764
156.19199	8772.2764
156.85326	8779.2764
157.51453	8828.2764
158.1758	8826.2764
158.84402	8802.2764
159.50529	8777.2764
160.16656	8759.2764
160.82782	8617.2764
161.48909	8669.2764
162.15733	8740.2764
162.81859	8624.2764
163.47986	8636.2764
164.14113	8688.2764
164.8024	8660.2764
165.46367	8627.2764
166.12494	8615.2764
166.78621	8643.2764
167.45444	8510.2764
168.11571	8626.2764
168.77698	8596.2764
169.43825	8565.2764
170.09952	8481.2764
170.76079	8548.2764
171.42206	8534.2764
172.08333	8491.2764
172.7446	8504.2764
173.40587	8513.2764
174.06714	8450.2764
174.72841	8418.2764
175.38966	8417.2764
176.05093	8418.2764
176.7122	8382.2764
177.37347	8368.2764
178.03474	8398.2764
178.68906	8330.2764
179.35033	8300.2764
180.0116	8287.2764
180.67287	8275.2764
181.33414	8214.2764
181.99541	8339.2764
182.65668	8325.2764
183.31795	8275.2764
183.97922	8279.2764
184.64047	8253.2764
185.30174	8275.2764
185.95605	8180.2764
186.61732	8223.2764
187.27859	8186.2764
187.93987	8273.2764
188.60114	8146.2764
189.25545	8196.2764
189.91672	8272.2764
190.57799	8167.2764
191.23926	8091.2764
191.89355	8126.2764
192.55482	8091.2764
193.21609	8085.2764
193.87041	8124.2764
194.53168	8080.2764
195.19295	8181.2764
195.84726	8109.2764
196.50851	8030.2764
197.16978	8105.2764
197.8241	8023.2764
198.48537	8032.2764
199.14664	7976.2764
199.80095	8048.2764
200.46222	8060.2764
201.12349	8010.2764
201.77779	7950.2764
202.43906	7977.2764
203.10033	7945.2764
203.75464	7993.2764
204.41591	7978.2764
205.07022	7906.2764
205.73149	7952.2764
206.3858	7978.2764
207.04706	7961.2764
207.70137	7800.2764
208.36264	7902.2764
209.01695	7892.2764
209.67822	7799.2764
210.33253	7885.2764
210.9938	7886.2764
211.6481	7892.2764
212.30937	7813.2764
212.96368	7805.2764
213.618	7756.2764
214.27927	7820.2764
214.93356	7872.2764
215.59483	7852.2764
216.24915	7849.2764
216.91042	7784.2764
217.56473	7810.2764
218.21904	7681.2764
218.88031	7784.2764
219.53461	7773.2764
220.18892	7742.2764
220.85019	7766.2764
221.5045	7627.2764
222.15881	7687.2764
222.82008	7688.2764
223.47438	7781.2764
224.12869	7704.2764
224.783	7774.2764
225.44427	7740.2764
226.09859	7802.2764
226.75288	7728.2764
227.41415	7633.2764
228.06847	7712.2764
228.72278	7728.2764
229.37708	7682.2764
230.03139	7550.2764
230.69266	7684.2764
231.34697	7640.2764
232.00128	7670.2764
232.65558	7688.2764
233.30989	7768.2764
233.9642	7668.2764
234.61852	7512.2764
235.27979	7676.2764
235.93408	7690.2764
236.58839	7670.2764
237.24271	7641.2764
237.89702	7637.2764
238.55133	7694.2764
239.20563	7568.2764
239.85994	7489.2764
240.51425	7467.2764
241.16856	7600.2764
241.82286	7557.2764
242.47717	7544.2764
243.13148	7501.2764
243.7858	7563.2764
244.44009	7409.2764
245.09441	7416.2764
245.74872	7524.2764
246.40303	7522.2764
247.05733	7568.2764
247.71164	7457.2764
248.36595	7543.2764
249.02026	7516.2764
249.67456	7549.2764
250.32887	7617.2764
250.98318	7488.2764
251.6375	7601.2764
252.29181	7538.2764
252.94611	7544.2764
253.59346	7528.2764
254.24777	7474.2764
254.90207	7439.2764
255.55638	7473.2764
256.21069	7508.2764
256.85803	7500.2764
257.51236	7472.2764
258.16666	7410.2764
258.82095	7549.2764
259.47528	7453.2764
260.12958	7448.2764
260.77692	7332.2764
261.43124	7430.2764
262.08554	7379.2764
262.73288	7481.2764
263.38721	7396.2764
264.0415	7444.2764
264.69583	7425.2764
265.34317	7389.2764
265.99747	7425.2764
266.64484	7404.2764
267.29913	7396.2764
267.95343	7293.2764
268.60776	7406.2764
269.2551	7353.2764
269.90939	7374.2764
270.56372	7387.2764
271.21106	7417.2764
271.86536	7368.2764
272.51273	7411.2764
273.16702	7451.2764
273.81436	7428.2764
274.46869	7326.2764
275.11603	7352.2764
275.77032	7237.2764
276.42465	7392.2764
277.07199	7383.2764
277.72632	7284.2764
278.37366	7229.2764
279.02795	7362.2764
279.67529	7272.2764
280.32962	7312.2764
280.97696	7352.2764
281.63129	7238.2764
282.27863	7340.2764
282.92596	7248.2764
283.58029	7367.2764
284.22763	7365.2764
284.88193	7308.2764
285.52927	7331.2764
286.18359	7350.2764
286.83093	7291.2764
287.47827	7347.2764
288.1326	7287.2764
288.77994	7226.2764
289.42728	7292.2764
290.0816	7349.2764
290.72894	7196.2764
291.37628	7246.2764
292.03061	7217.2764
292.67795	7248.2764
293.32529	7364.2764
293.97266	7273.2764
294.62695	7304.2764
295.27429	7239.2764
295.92166	7299.2764
296.57596	7288.2764
297.2233	7303.2764
297.87067	7230.2764
298.51801	7281.2764
299.1723	7185.2764
299.81967	7300.2764
300.46701	7232.2764
301.11435	7184.2764
301.76169	7225.2764
302.40906	7207.2764
303.06335	7233.2764
303.71069	7323.2764
304.35806	7249.2764
305.0054	7237.2764
305.65274	7258.2764
306.30011	7261.2764
306.94745	7224.2764
307.59479	7180.2764
308.24908	7221.2764
308.89645	7152.2764
309.54379	7240.2764
310.19113	7235.2764
310.8385	7102.2764
311.48584	7265.2764
312.13318	7136.2764
312.78055	7250.2764
313.42789	7199.2764
314.07523	7192.2764
314.72256	7228.2764
315.36993	7242.2764
316.01727	7226.2764
316.66461	7163.2764
317.31198	7229.2764
317.95932	7195.2764
318.5997	7202.2764
319.24704	7205.2764
319.89441	7146.2764
320.54175	7177.2764
321.18909	7106.2764
321.83646	7154.2764
322.4838	7226.2764
323.13113	7128.2764
323.77847	7120.2764
324.42584	7137.2764
325.06622	7263.2764
325.71356	7097.2764
326.3609	7217.2764
327.00827	7156.2764
327.65561	7170.2764
328.29599	7098.2764
328.94336	7196.2764
329.5907	7096.2764
330.23804	7193.2764
330.88538	7249.2764
331.52579	7133.2764
332.17313	7187.2764
332.82047	7153.2764
333.46085	7137.2764
334.10822	7100.2764
334.75555	7125.2764
335.39594	7184.2764
336.04327	7060.2764
336.69064	7145.2764
337.33102	7129.2764
337.97836	7156.2764
338.62573	7174.2764
339.27307	7207.2764
339.91345	7174.2764
340.56079	7252.2764
341.2012	7110.2764
341.84854	7190.2764
342.49588	7211.2764
343.13626	7126.2764
343.78363	7180.2764
344.42401	7181.2764
345.07135	7109.2764
345.71173	7163.2764
346.3591	7220.2764
346.99948	7203.2764
347.64682	7070.2764
348.29416	7226.2764
348.93457	7137.2764
349.58191	7096.2764
350.22229	7166.2764
350.86267	7223.2764
351.51004	7252.2764
352.15042	7163.2764
352.79776	7129.2764
353.43814	7177.2764
354.07852	7116.2764
354.72589	7169.2764
355.36627	7149.2764
356.01361	7137.2764
356.65399	7071.2764
357.30136	7179.2764
357.94174	7145.2764
358.58212	7221.2764
359.22946	7232.2764
359.86987	7143.2764
360.51025	7194.2764
361.15759	7230.2764
361.79797	7169.2764
362.43839	7196.2764
363.07877	7229.2764
363.7261	7126.2764
364.36649	7292.2764
365.00687	7168.2764
365.65424	7305.2764
366.29462	7188.2764
366.935	7045.2764
367.58234	7146.2764
368.22275	7072.2764
368.86313	7194.2764
369.50351	7182.2764
370.14389	7068.2764
370.78427	7216.2764
371.43164	7191.2764
372.07202	7253.2764
372.7124	7247.2764
373.35278	7241.2764
373.99319	7115.2764
374.63358	7227.2764
375.27396	7192.2764
375.9213	7235.2764
376.56168	7221.2764
377.20209	7075.2764
377.84247	7168.2764
378.48285	7191.2764
379.12323	7179.2764
379.76361	7189.2764
380.40402	7199.2764
381.0444	7197.2764
381.68478	7286.2764
382.32516	7255.2764
382.96555	7090.2764
383.60596	7246.2764
384.24634	7178.2764
384.88672	7210.2764
385.5271	7214.2764
386.16751	7137.2764
386.80789	7226.2764
387.44827	7180.2764
388.08865	7171.2764
388.72903	7110.2764
389.36945	7231.2764
390.00983	7200.2764
390.65021	7266.2764
391.28363	7134.2764
391.92401	7214.2764
392.56439	7344.2764
393.2048	7199.2764
393.84518	7287.2764
394.48557	7195.2764
395.11899	7188.2764
395.75937	7283.2764
396.39978	7266.2764
397.04016	7294.2764
397.68054	7295.2764
398.32092	7362.2764
398.9613	7307.2764
399.59473	7254.2764
400.23514	7297.2764
400.87552	7205.2764
401.50894	7286.2764
402.14932	7344.2764
402.7897	7236.2764
403.43011	7387.2764
404.06354	7254.2764
404.70392	7298.2764
405.3443	7348.2764
405.97772	7372.2764
406.6181	7373.2764
407.25851	7273.2764
407.89194	7383.2764
408.53232	7328.2764
409.1727	7353.2764
409.80612	7326.2764
410.4465	7261.2764
411.08691	7345.2764
411.72034	7325.2764
412.36072	7238.2764
412.99414	7414.2764
413.63452	7435.2764
414.26794	7445.2764
414.90836	7373.2764
415.54178	7408.2764
416.18216	7427.2764
416.81558	7443.2764
417.45596	7414.2764
418.08939	7518.2764
418.7298	7406.2764
419.36322	7433.2764
420.0036	7418.2764
420.63702	7508.2764
421.2774	7392.2764
421.91083	7459.2764
422.55124	7403.2764
423.18466	7448.2764
423.82504	7469.2764
424.45847	7612.2764
425.09885	7417.2764
425.73227	7408.2764
426.36569	7553.2764
427.0061	7512.2764
427.63953	7526.2764
428.27295	7582.2764
428.91333	7484.2764
429.54675	7519.2764
430.18018	7613.2764
430.82056	7621.2764
431.45401	7636.2764
432.08743	7544.2764
432.72781	7590.2764
433.36124	7644.2764
433.99466	7694.2764
434.62808	7598.2764
435.26846	7629.2764
435.90192	7697.2764
436.53534	7703.2764
437.16876	7682.2764
437.80914	7693.2764
438.44257	7748.2764
439.07599	7706.2764
439.70941	7718.2764
440.34982	7828.2764
440.98325	7725.2764
441.61667	7745.2764
442.25009	7799.2764
442.88351	7781.2764
443.51694	7782.2764
444.15732	7827.2764
444.79074	7827.2764
445.42419	7841.2764
446.05762	7741.2764
446.69104	7868.2764
447.32446	7883.2764
447.95789	7940.2764
448.59131	7921.2764
449.22473	7883.2764
449.85815	7924.2764
450.49158	7894.2764
451.12503	7994.2764
451.75845	8050.2764
452.39188	8072.2764
453.0253	8013.2764
453.65872	8079.2764
454.29214	8056.2764
454.92557	7966.2764
455.55899	7984.2764
456.19241	8095.2764
456.82587	8020.2764
457.45929	8101.2764
458.09271	8120.2764
458.72614	8124.2764
459.35956	8158.2764
459.99298	8161.2764
460.6264	8121.2764
461.25287	8172.2764
461.88629	8208.2764
462.51971	8223.2764
463.15317	8301.2764
463.78659	8328.2764
464.42001	8242.2764
465.05344	8228.2764
465.6799	8293.2764
466.31332	8344.2764
466.94675	8356.2764
467.58017	8418.2764
468.21359	8320.2764
468.84006	8399.2764
469.47351	8388.2764
470.10693	8337.2764
470.74036	8445.2764
471.36682	8393.2764
472.00024	8486.2764
472.63367	8454.2764
473.26709	8448.2764
473.89355	8442.2764
474.52698	8609.2764
475.1604	8572.2764
475.78687	8538.2764
476.42032	8618.2764
477.05374	8562.2764
477.68021	8565.2764
478.31363	8617.2764
478.94705	8588.2764
479.57352	8604.2764
480.20694	8697.2764
480.84036	8539.2764
481.46683	8688.2764
482.10025	8658.2764
482.72672	8740.2764
483.36014	8666.2764
483.9866	8768.2764
484.62006	8800.2764
485.24652	8833.2764
485.87994	8787.2764
486.51337	8754.2764
487.13983	8873.2764
487.77325	8843.2764
488.39972	8928.2764
489.03314	8952.2764
489.65961	8924.2764
490.28607	9001.2764
490.91949	8900.2764
491.54596	8970.2764
492.17938	8968.2764
492.80585	9066.2764
493.4393	8990.2764
494.06577	9030.2764
494.69223	9155.2764
495.32565	9137.2764
495.95212	9123.2764
496.57858	9141.2764
497.21201	9161.2764
497.83847	9044.2764
498.47189	9142.2764
499.09836	9140.2764
499.72482	9220.2764
500.35825	9280.2764
500.98471	9257.2764
501.61118	9220.2764
502.2446	9314.2764
502.87106	9338.2764
503.49753	9292.2764
504.12399	9353.2764
504.75742	9379.2764
505.38391	9351.2764
506.01038	9425.2764
506.63684	9420.2764
507.27026	9496.2764
507.89673	9492.2764
508.52319	9492.2764
509.14966	9421.2764
509.78308	9557.2764
510.40955	9606.2764
511.03601	9469.2764
511.66248	9533.2764
512.28894	9552.2764
512.91541	9584.2764
513.54883	9660.2764
514.17529	9580.2764
514.80176	9690.2764
515.42822	9616.2764
516.05469	9683.2764
516.68115	9736.2764
517.30762	9695.2764
517.93408	9730.2764
518.56055	9587.2764
519.18701	9820.2764
519.81348	9845.2764
520.43994	9802.2764
521.06641	9808.2764
521.69287	9856.2764
522.31934	9778.2764
522.9458	9847.2764
523.57227	9875.2764
524.19873	9832.2764
524.8252	9799.2764
525.45166	9954.2764
526.07813	9892.2764
526.70459	9976.5264
527.33105	10017.526
527.95752	9960.0264
528.58398	9988.7764
529.21045	9946.7764
529.83691	9981.5264
530.46338	9997.7764
531.08289	10126.776
531.70935	10011.026
532.33582	10013.776
532.96228	10106.026
533.58875	10043.026
534.21521	10224.526
534.84167	10142.276
535.46118	10201.026
536.08765	10146.776
536.71411	10145.776
537.34058	10196.776
537.96704	10223.276
538.59351	10137.026
539.21301	10215.276
539.83948	10237.276
540.46594	10289.276
541.08545	10239.776
541.71191	10297.276
542.33838	10363.776
542.95789	10321.276
543.58435	10332.276
544.21082	10322.026
544.83728	10400.026
545.45679	10434.276
546.08325	10419.776
546.70972	10456.776
547.32922	10409.526
547.95569	10454.776
548.58215	10437.526
549.20166	10520.026
549.82813	10440.276
550.44763	10480.776
551.0741	10510.026
551.6936	10520.026
552.32007	10550.276
552.94653	10534.526
553.56604	10606.526
554.1925	10639.526
554.81201	10585.776
555.43848	10479.026
556.05798	10559.276
556.68445	10594.026
557.30396	10687.526
557.93042	10660.276
558.54993	10568.276
559.17639	10653.026
559.7959	10558.526
560.42236	10677.526
561.04187	10570.276
561.66833	10613.026
562.28784	10622.026
562.91431	10573.276
563.53381	10588.276
564.15332	10588.526
564.77979	10653.026
565.39929	10563.776
566.0188	10548.526
566.64526	10485.276
567.26477	10572.526
567.89124	10535.276
568.51074	10389.526
569.13025	10397.026
569.75671	10447.526
570.37622	10387.526
570.99573	10381.526
571.61523	10361.526
572.2417	10305.526
572.86121	10341.526
573.48071	10300.276
574.10718	10226.026
574.72668	10105.026
575.34619	10109.026
575.9657	10045.276
576.58521	10014.776
577.21167	10002.526
577.83118	9891.2764
578.45068	9875.0264
579.07019	9873.2764
579.69666	9724.7764
580.31616	9722.2764
580.93567	9652.5264
581.55518	9577.2764
582.17468	9546.0264
582.79419	9445.0264
583.41364	9415.2764
584.0401	9358.5264
584.65961	9347.0264
585.27911	9189.5264
585.89862	9087.5264
586.51813	9194.0264
587.13763	9117.7764
587.75714	9006.5264
588.37665	8902.0264
588.99615	8918.2764
589.61566	8816.2764
590.23517	8720.7764
590.85468	8710.5264
591.47418	8642.2764
592.09369	8572.5264
592.7132	8509.0264
593.3327	8430.0264
593.95221	8381.5264
594.57172	8268.2764
595.19122	8304.2764
595.81073	8136.5264
596.43024	8119.5264
597.04974	8044.7764
597.66925	7962.7764
598.28876	7944.0264
598.90826	7898.0264
599.52777	7834.0264
600.14032	7782.0264
600.75983	7704.0264
601.37933	7662.7764
601.99884	7624.7764
602.61829	7506.0264
603.23779	7399.0264
603.8573	7395.5264
604.46985	7401.2764
605.08936	7322.2764
605.70886	7300.0264
606.32837	7254.2764
606.94788	7198.5264
607.56042	7112.0264
608.17993	7063.5264
608.79944	6898.2764
609.41895	6952.0264
610.03845	6953.7764
610.651	6829.0264
611.27051	6881.2764
611.89001	6802.7764
612.50256	6774.5264
613.12207	6683.7764
613.74158	6643.2764
614.35413	6597.5264
614.97363	6606.5264
615.59314	6484.7764
616.20563	6499.0264
616.82513	6426.0264
617.44464	6413.0264
618.05719	6424.2764
618.6767	6373.0264
619.2962	6271.2764
619.90875	6193.2764
620.52826	6192.5264
621.14081	6288.2764
621.76031	6107.5264
622.37286	6104.7764
622.99237	6016.2764
623.61188	6044.7764
624.22443	6001.5264
624.84393	5997.2764
625.45648	5903.5264
626.07599	5971.2764
626.68854	5963.2764
627.30804	5880.5264
627.92059	5819.7764
628.54004	5906.7764
629.15259	5735.5264
629.77209	5812.2764
630.38464	5770.2764
630.99719	5760.0264
631.6167	5689.0264
632.22925	5646.5264
632.84875	5597.5264
633.4613	5624.5264
634.07385	5598.5264
634.69336	5548.2764
635.30591	5619.2764
635.92542	5475.5264
636.53796	5513.7764
637.15051	5484.5264
637.77002	5407.0264
638.38257	5464.7764
639.00201	5309.5264
639.61456	5389.7764
640.22711	5374.5264
640.83966	5252.5264
641.45917	5290.5264
642.07172	5271.2764
642.68427	5206.7764
643.29681	5260.0264
643.91632	5163.5264
644.52887	5129.7764
645.14142	5152.0264
645.75397	5101.7764
646.37347	5046.0264
646.98602	5055.7764
647.59857	5012.2764
648.21106	4988.5264
648.82361	4905.5264
649.44312	4995.0264
650.05566	4961.7764
650.66821	4853.2764
651.28076	4902.2764
651.89331	4901.7764
652.28314	4857.7764
652.90265	4798.7764
653.52911	4654.7764
654.14856	4766.7764
654.77502	4701.7764
655.39453	4730.7764
656.01404	4755.7764
656.6405	4736.7764
657.26001	4714.7764
657.88647	4702.7764
658.50598	4581.7764
659.12549	4533.7764
659.75195	4588.7764
660.37146	4659.7764
660.99097	4633.7764
661.61743	4558.7764
662.23694	4571.7764
662.85645	4541.7764
663.48291	4478.7764
664.10242	4544.7764
664.72192	4452.7764
665.34143	4522.7764
665.96094	4381.7764
666.5874	4419.7764
667.20691	4442.7764
667.82642	4383.7764
668.44592	4355.7764
669.07239	4419.7764
669.69189	4408.7764
670.3114	4360.7764
670.93091	4316.7764
671.55042	4234.7764
672.17688	4264.7764
672.79639	4262.7764
673.41589	4262.7764
674.0354	4236.7764
674.65491	4215.7764
675.27441	4108.7764
675.89392	4130.7764
676.52039	4213.7764
677.13989	4199.7764
677.7594	4204.7764
678.37891	4110.7764
678.99841	4151.7764
679.61792	4139.7764
680.23743	4092.7764
680.85693	4077.7764
681.47638	4099.7764
682.09589	4095.7764
682.71539	4041.7764
683.3349	4061.7764
683.95441	4037.7764
684.57391	3946.7764
685.19342	4040.7764
685.81293	3993.7764
686.43243	4039.7764
687.05194	3911.7764
687.67145	4001.7764
688.29095	3955.7764
688.91046	3928.7764
689.52997	3929.7764
690.14948	3913.7764
690.76202	3864.7764
691.38849	3828.7764
692.00104	3810.7764
692.62054	3857.7764
693.24005	3758.7764
693.85956	3803.7764
694.47906	3823.7764
695.09857	3842.7764
695.71112	3751.7764
696.33063	3791.7764
696.95013	3854.7764
697.56964	3807.7764
698.18915	3615.7764
698.80865	3743.7764
699.42114	3717.7764
700.04065	3659.7764
700.66016	3640.7764
701.27271	3677.7764
701.89221	3630.7764
702.51172	3617.7764
703.13123	3673.7764
703.75073	3675.7764
704.36328	3631.7764
704.98279	3627.7764
705.60229	3619.7764
706.21484	3614.7764
706.83435	3593.7764
707.45386	3654.7764
708.06641	3603.7764
708.68591	3586.7764
709.30542	3609.7764
709.91797	3572.7764
710.53748	3521.7764
711.15698	3525.7764
711.76953	3530.7764
712.38898	3472.7764
713.00153	3485.7764
713.62103	3479.7764
714.24054	3411.7764
714.85309	3517.7764
715.4726	3442.7764
716.08514	3369.7764
716.70465	3477.7764
717.3172	3391.7764
717.93671	3340.7764
718.54926	3277.7764
719.16876	3411.7764
719.78131	3282.7764
720.40082	3449.7764
721.01337	3394.7764
721.63287	3329.7764
722.24542	3349.7764
722.86493	3296.7764
723.47742	3283.7764
724.08997	3273.7764
724.70947	3345.7764
725.32202	3304.7764
725.94153	3322.7764
726.55408	3322.7764
727.16663	3229.7764
727.78613	3195.7764
728.39868	3253.7764
729.01819	3205.7764
729.63074	3137.7764
730.24329	3167.7764
730.86279	3208.7764
731.47534	3180.7764
732.08789	3147.7764
732.7074	3169.7764
733.31995	3139.7764
733.93243	3100.7764
734.55194	3103.7764
735.16449	3153.7764
735.77704	3094.7764
736.38959	3038.7764
737.00909	3100.7764
737.62164	3005.7764
738.23419	2986.7764
738.84674	3051.7764
739.46625	2980.7764
740.0788	2947.7764
740.69135	3010.7764
741.30389	2936.7764
741.91644	2979.7764
742.53595	2987.7764
743.14844	2952.7764
743.76099	2971.7764
744.37354	2883.7764
744.98608	2892.7764
745.59863	2927.7764
746.21118	2890.7764
746.83069	2925.7764
747.44324	2845.7764
748.05579	2812.7764
748.66833	2821.7764
749.28088	2821.7764
749.89343	2812.7764
750.50598	2817.7764
751.11853	2769.7764
751.73102	2735.7764
752.34357	2759.7764
752.95612	2743.7764
753.56866	2754.7764
754.18121	2757.7764
754.79376	2721.7764
755.40631	2709.7764
756.01886	2721.7764
756.63141	2655.7764
757.24396	2654.7764
757.85651	2679.7764
758.46906	2653.7764
759.0816	2636.7764
759.69409	2613.7764
760.30664	2603.7764
760.91919	2569.7764
761.53174	2561.7764
762.14429	2556.7764
762.75684	2532.7764
763.36243	2493.7764
763.97498	2530.7764
764.58752	2583.7764
765.20007	2480.7764
765.81262	2467.7764
766.42517	2458.7764
767.03766	2395.7764
767.64325	2423.7764
768.2558	2444.7764
768.86835	2391.7764
769.4809	2377.7764
770.09344	2332.7764
770.69904	2311.7764
771.31158	2381.7764
771.92413	2309.7764
772.53668	2266.7764
773.14227	2245.7764
773.75476	2287.7764
774.36731	2298.7764
774.97986	2271.7764
775.58545	2291.7764
776.198	2231.7764
776.81055	2198.7764
777.4231	2174.7764
778.02869	2163.7764
778.64124	2144.7764
779.24683	2115.7764
779.85938	2127.7764
780.47186	2110.7764
781.07745	2076.7764
781.69	2121.7764
782.30255	2106.7764
782.90814	2076.7764
783.52069	2056.7764
784.12628	2057.7764
784.73883	2019.7764
785.35138	2016.7764
785.95697	1989.7764
786.56952	1966.7764
787.17505	1960.7764
787.7876	1984.7764
788.39319	1948.7764
789.00574	1917.7764
789.61133	1905.7764
790.22388	1893.7764
790.82947	1884.7764
791.44202	1910.7764
792.04761	1826.7764
792.66016	1853.7764
793.26569	1888.7764
793.87823	1897.7764
794.48383	1854.7764
795.09637	1819.7764
795.70197	1873.7764
796.30756	1885.7764
796.9201	1897.7764
797.5257	1804.7764
798.13824	1838.7764
798.74384	1885.7764
799.35632	1819.7764
799.96191	1766.7764
800.5675	1829.7764
801.1731	1766.7764
801.78564	1817.7764
802.39124	1853.7764
803.00378	1838.7764
803.60938	1801.7764
804.21497	1788.7764
804.82745	1807.7764
805.43304	1799.7764
806.03864	1773.7764
806.64423	1825.7764
807.25677	1799.7764
807.86237	1804.7764
808.46796	1819.7764
809.07355	1804.7764
809.6861	1729.7764
810.29163	1827.7764
810.89722	1789.7764
811.50281	1848.7764
812.1084	1787.7764
812.72095	1830.7764
813.32654	1825.7764
813.93213	1859.7764
814.53772	1861.7764
815.14331	1854.7764
815.74884	1782.7764
816.36139	1826.7764
816.96698	1816.7764
817.57257	1876.7764
818.17816	1852.7764
818.78375	1881.7764
819.38934	1844.7764
819.99493	1828.7764
820.60046	1896.7764
821.20605	1935.7764
821.81165	1890.7764
822.42419	1859.7764
823.02283	1958.7764
823.63538	1960.7764
824.23401	1956.7764
824.84656	1982.7764
825.44519	1993.7764
826.05768	2006.7764
826.65631	1972.7764
827.26886	2008.7764
827.86749	2055.7764
828.48004	2034.7764
829.07867	2039.7764
829.68427	2048.7764
830.28986	2098.7764
830.89539	2094.7764
831.50098	2142.7764
832.10657	2080.7764
832.71216	2119.7764
833.31775	2200.7764
833.92334	2173.7764
834.52893	2164.7764
835.12756	2179.7764
835.74005	2204.7764
836.33868	2234.7764
836.94427	2270.7764
837.54987	2272.7764
838.15546	2360.7764
838.76105	2316.7764
839.36664	2310.7764
839.96527	2412.7764
840.5708	2419.7764
841.17639	2388.7764
841.78198	2462.7764
842.38062	2529.7764
842.98621	2434.7764
843.5918	2541.7764
844.19739	2540.7764
844.79596	2624.7764
845.40155	2634.7764
846.00714	2588.7764
846.60577	2676.7764
847.21136	2701.7764
847.81696	2719.7764
848.42255	2772.7764
849.02118	2785.7764
849.62671	2860.7764
850.22534	2864.7764
850.83093	2878.7764
851.43652	2938.7764
852.04211	2963.7764
852.64075	2953.7764
853.24634	3011.7764
853.84491	3016.7764
854.4505	3207.7764
855.05609	3155.7764
855.65472	3165.7764
856.26031	3269.7764
856.85895	3305.7764
857.46454	3409.7764
858.06311	3340.7764
858.6687	3394.7764
859.26733	3485.7764
859.87292	3493.7764
860.47852	3589.7764
861.07715	3568.7764
861.68274	3699.7764
862.28131	3743.7764
862.8869	3722.7764
863.48553	3829.7764
864.09113	3902.7764
864.68976	3992.7764
865.28839	3964.7764
865.89398	4037.7764
866.49255	4061.7764
867.09814	4093.7764
867.69678	4191.7764
868.30237	4196.7764
868.901	4231.7764
869.49963	4369.7764
870.10522	4409.7764
870.7038	4476.7764
871.30243	4454.7764
871.90802	4580.7764
872.50665	4653.7764
873.10529	4677.7764
873.71088	4809.7764
874.30945	4864.7764
874.90808	4901.7764
875.51367	4943.7764
876.1123	5003.7764
876.71094	5050.7764
877.30957	5139.7764
877.91516	5152.7764
878.51373	5236.7764
879.11237	5343.7764
879.71796	5295.7764
880.31659	5427.7764
880.91522	5484.7764
881.51385	5623.7764
882.11243	5649.7764
882.71802	5673.7764
883.31665	5761.7764
883.91528	5793.7764
884.51392	5836.7764
885.11255	5988.7764
885.71814	6021.7764
886.31671	6151.7764
886.91534	6117.7764
887.51398	6203.7764
888.11261	6263.7764
888.71124	6331.7764
889.30988	6484.7764
889.90845	6480.7764
890.50708	6524.7764
891.11267	6543.7764
891.7113	6589.7764
892.30994	6782.7764
892.90857	6699.7764
893.50714	6847.7764
894.10577	6839.7764
894.70441	6959.7764
895.30304	7109.7764
895.90167	7168.7764
896.50031	7278.7764
897.09888	7109.7764
897.69751	7243.7764
898.29614	7387.7764
898.89478	7460.7764
899.49341	7363.7764
900.09204	7461.7764
900.69061	7574.7764
901.28925	7669.7764
901.88788	7700.7764
902.48651	7875.7764
903.07819	7851.7764
903.67682	7791.7764
904.27539	7877.7764
904.87402	8028.7764
905.47266	8054.7764
906.07129	8146.7764
906.66992	8042.7764
907.26855	8103.7764
907.86017	8112.7764
908.4588	8139.7764
909.05743	8325.7764
909.65607	8327.7764
910.2547	8264.7764
910.85327	8432.7764
911.44495	8444.7764
912.04358	8426.7764
912.64221	8470.7764
913.24084	8518.7764
913.83948	8501.7764
914.43109	8581.7764
915.02972	8619.7764
915.62836	8631.7764
916.22003	8597.7764
916.81866	8678.7764
917.4173	8606.7764
918.01587	8781.7764
918.60754	8783.7764
919.20618	8789.7764
919.80481	8901.7764
920.39648	8922.7764
920.99506	8875.7764
921.59369	8893.7764
922.18536	8890.7764
922.784	8845.7764
923.37567	8932.7764
923.9743	9017.7764
924.57288	8998.7764
925.16455	8984.7764
925.76318	9037.7764
926.36182	9077.7764
926.95349	9038.7764
927.55206	9056.7764
928.14374	9071.7764
928.74237	9124.7764
929.33405	9221.7764
929.93268	9084.7764
930.52429	9175.7764
931.12292	9174.7764
931.7146	9076.7764
932.31323	9057.7764
932.90491	9241.7764
933.50354	9106.7764
934.09515	9076.7764
934.69379	9123.7764
935.28546	9161.7764
935.88409	9212.7764
936.47577	9205.7764
937.07434	9175.7764
937.66602	9237.7764
938.26465	9185.7764
938.85632	9125.7764
939.448	9014.7764
940.04657	9224.7764
940.63824	9160.7764
941.22992	9187.7764
941.82855	9129.7764
942.42023	9097.7764
943.01184	9034.7764
943.61047	9060.7764
944.20215	8978.7764
944.79382	9161.7764
945.39246	9069.7764
945.98407	9000.7764
946.57574	9051.7764
947.17438	8995.7764
947.76605	8911.7764
948.35773	8922.7764
948.95636	9004.7764
949.54797	8959.7764
950.13965	8948.7764
950.73132	8942.7764
951.323	8934.7764
951.92163	8825.7764
952.51324	8894.7764
953.10492	8847.7764
953.69659	8929.7764
954.28827	8857.7764
954.8869	8849.7764
955.47852	8775.7764
956.07019	8712.7764
956.66187	8672.7764
957.25354	8727.7764
957.85211	8752.7764
958.44379	8637.7764
959.03546	8569.7764
959.62714	8544.7764
960.21881	8597.7764
960.81042	8598.7764
961.4021	8496.7764
961.99377	8437.7764
962.58545	8547.7764
963.17712	8467.7764
963.76874	8507.7764
964.36041	8551.7764
964.95905	8263.7764
965.55072	8343.2764
966.13544	8333.2764
966.72705	8311.5264
967.32568	8238.2764
967.91736	8208.0264
968.50903	8173.2764
969.09369	8283.0264
969.68536	8232.0264
970.284	8145.2764
970.86871	8104.2764
971.46039	8119.0264
972.052	8119.7764
972.64368	8122.5264
973.23535	8118.7764
973.82703	8082.2764
974.4187	7993.5264
975.01031	7993.5264
975.60199	7856.0264
976.19366	7931.5264
976.77838	7934.5264
977.37	7796.0264
977.96167	7764.2764
978.55334	7733.2764
979.14502	7624.7764
979.73669	7615.2764
980.32135	7700.5264
980.91302	7634.0264
981.5047	7621.5264
982.09637	7567.5264
982.68805	7652.7764
983.27271	7558.5264
983.86438	7454.7764
984.45605	7407.5264
985.04773	7482.2764
985.63934	7422.5264
986.22406	7283.5264
986.81573	7245.5264
987.40741	7346.5264
987.99908	7272.5264
988.58374	7272.7764
989.17542	7210.2764
989.76013	7209.2764
990.35181	7249.0264
990.94342	7127.2764
991.5351	7070.2764
992.11981	7065.5264
992.71149	7048.7764
993.29614	6935.7764
993.88782	6891.0264
994.47949	6879.0264
995.06421	6805.2764
995.65588	6802.0264
996.2475	6743.7764
996.83221	6770.7764
997.42389	6708.5264
998.00861	6742.5264
998.60022	6581.0264
999.18494	6582.0264
999.77661	6526.2764
1000.3613	6551.0264
1000.953	6487.0264
1001.5377	6494.2764
1002.1293	6452.7764
1002.721	6368.2764
1003.3057	6332.7764
1003.8973	6328.0264
1004.4821	6235.7764
1005.0668	6259.0264
1005.6584	6237.2764
1006.2431	6227.2764
1006.8348	6174.0264
1007.4195	6161.0264
1008.0112	6066.5264
1008.5958	6049.5264
1009.1875	6010.2764
1009.7722	5974.7764
1010.3569	5971.2764
1010.9486	5906.2764
1011.5333	5874.0264
1012.1249	5875.7764
1012.7097	5846.0264
1013.2944	5717.5264
1013.886	5785.5264
1014.4707	5685.2764
1015.0554	5662.5264
1015.6401	5676.0264
1016.2318	5619.0264
1016.8165	5550.0264
1017.4012	5554.5264
1017.9929	5489.2764
1018.5775	5551.7764
1019.1622	5409.2764
1019.7539	5433.5264
1020.3386	5380.2764
1020.9233	5299.7764
1021.508	5312.7764
1022.0927	5215.5264
1022.6844	5242.7764
1023.269	5250.5264
1023.8538	5174.0264
1024.4385	5115.7764
1025.0302	5014.0264
1025.6149	5073.2764
1026.1996	4990.5264
1026.7842	4994.0264
1027.3689	4967.7764
1027.9536	4918.0264
1028.5383	4851.7764
1029.123	4916.7764
1029.7147	4784.5264
1030.2994	4788.0264
1030.8842	4799.7764
1031.4688	4704.7764
1032.0535	4655.0264
1032.6382	4651.0264
1033.2229	4639.7764
1033.8076	4601.7764
1034.3923	4505.2764
1034.9771	4522.2764
1035.5687	4542.2764
1036.1533	4423.5264
1036.738	4389.0264
1037.3228	4369.0264
1037.9005	4335.5264
1038.4852	4274.7764
1039.0699	4259.7764
1039.6547	4257.2764
1040.2394	4227.0264
1040.824	4199.7764
1041.4087	4098.5264
1041.9934	4141.2764
1042.5781	4095.0264
1043.1628	4081.2764
1043.7476	4021.2764
1044.3323	4028.5264
1044.917	3986.0264
1045.5016	3910.0264
1046.0863	3967.7764
1046.6641	3932.0264
1047.2488	3837.7764
1047.8335	3884.7764
1048.4182	3741.0264
1049.0029	3802.2764
1049.5875	3694.2764
1050.1722	3731.5264
1050.75	3701.5264
1051.3347	3645.2764
1051.9194	3644.0264
1052.5042	3607.2764
1053.0889	3557.7764
1053.6666	3592.0264
1054.2512	3487.5264
1054.8359	3526.2764
1055.4207	3425.7764
1055.9984	3437.5264
1056.5831	3345.5264
1057.1678	3361.5264
1057.7526	3358.0264
1058.3302	3296.2764
1058.9149	3298.2764
1059.4996	3280.5264
1060.0774	3276.5264
1060.6621	3212.0264
1061.2468	3206.0264
1061.8246	3222.2764
1062.4093	3192.5264
1062.9939	3144.7764
1063.5717	3137.5264
1064.1564	3078.0264
1064.7411	3051.0264
1065.3188	3024.5264
1065.9036	2993.2764
1066.4883	3040.5264
1067.0659	2939.0264
1067.6506	2916.7764
1068.2284	2911.2764
1068.8131	2853.5264
1069.3978	2863.0264
1069.9756	2833.5264
1070.5603	2816.7764
1071.1381	2770.2764
1071.7227	2734.5264
1072.3004	2726.0264
1072.8782	2702.0264
1073.4629	2686.7764
1074.0406	2656.2764
1074.6254	2639.5264
1075.2031	2625.2764
1075.7877	2610.0264
1076.3655	2596.7764
1076.9502	2529.0264
1077.528	2477.7764
1078.1127	2500.7764
1078.6904	2448.0264
1079.2751	2465.2764
1079.8528	2417.5264
1080.4305	2396.7764
1081.0153	2376.5264
1081.593	2375.2764
1082.1777	2326.0264
1082.7555	2295.5264
1083.3333	2282.0264
1083.9178	2251.2764
1084.4956	2217.0264
1085.0734	2197.7764
1085.6581	2217.5264
1086.2358	2172.2764
1086.8136	2154.5264
1087.3914	2127.7764
1087.976	2141.5264
1088.5537	2076.2764
1089.1315	2032.0264
1089.7162	2054.5264
1090.2939	2037.2764
1090.8717	1992.5264
1091.4495	1956.0264
1092.0341	1966.0264
1092.6118	1958.7764
1093.1896	1936.2764
1093.7673	1897.5264
1094.3521	1854.5264
1094.9298	1861.5264
1095.5076	1845.0264
1096.0852	1846.7764
1096.663	1808.7764
1097.2407	1818.2764
1097.8254	1797.2764
1098.4032	1778.0264
1098.981	1781.5264
1099.5587	1737.5264
1100.1364	1704.0264
1100.7141	1725.0264
1101.2919	1732.7764
1101.8696	1679.5264
1102.4543	1660.5264
1103.0321	1570.0264
1103.6097	1641.5264
1104.1875	1619.2764
1104.7653	1593.7764
1105.343	1575.5264
1105.9208	1560.7764
1106.4985	1556.7764
1107.0763	1545.2764
1107.6539	1514.5264
1108.2317	1519.5264
1108.8094	1472.0264
1109.3872	1543.7764
1109.965	1452.5264
1110.5427	1464.5264
1111.1205	1439.5264
1111.6981	1434.0264
1112.2759	1404.5264
1112.8536	1424.5264
1113.4314	1389.7764
1114.0022	1396.2764
1114.58	1378.0264
1115.1576	1370.0264
1115.7354	1351.0264
1116.3131	1345.0264
1116.8909	1338.5264
1117.4686	1297.7764
1118.0464	1257.5264
1118.6241	1260.0264
1119.1948	1275.2764
1119.7726	1285.0264
1120.3503	1264.0264
1120.9281	1263.7764
1121.5059	1267.2764
1122.0836	1236.7764
1122.6543	1262.0264
1123.2321	1225.0264
1123.8098	1153.7764
1124.3876	1219.2764
1124.9584	1204.2764
1125.5361	1218.5264
1126.1139	1180.7764
1126.6915	1145.0264
1127.2623	1201.5264
1127.8401	1161.0264
1128.4178	1115.7764
1128.9956	1091.7764
1129.5664	1129.5264
1130.144	1111.2764
1130.7218	1083.7764
1131.2996	1101.0264
1131.8704	1096.2764
1132.4481	1074.7764
1133.0259	1051.0264
1133.5967	1063.5264
1134.1743	1080.5264
1134.7451	1033.0264
1135.3229	1057.0264
1135.9006	1036.0264
1136.4714	1075.2764
1137.0492	1020.5264
1137.6199	991.52637
1138.1976	1034.5264
1138.7684	1020.2764
1139.3462	1001.0264
1139.924	1002.0264
1140.4948	1001.2764
1141.0724	971.27637
1141.6432	997.52637
1142.2209	968.77637
1142.7917	958.27637
1143.3695	982.77637
1143.9403	982.77637
1143.9542	958.77637
1144.5389	978.77637
1145.1235	961.77637
1145.7013	982.77637
1146.286	947.77637
1146.8707	916.77637
1147.4485	952.77637
1148.0332	938.77637
1148.611	915.77637
1149.1956	924.77637
1149.7733	908.77637
1150.358	919.77637
1150.9358	890.77637
1151.5205	850.77637
1152.1052	917.77637
1152.683	907.77637
1153.2676	889.77637
1153.8453	885.77637
1154.4301	881.77637
1155.0078	874.77637
1155.5925	874.77637
1156.1703	882.77637
1156.755	821.77637
1157.3328	885.77637
1157.9174	864.77637
1158.4951	856.77637
1159.0798	854.77637
1159.6576	847.77637
1160.2354	860.77637
1160.8201	854.77637
1161.3978	851.77637
1161.9824	857.77637
1162.5602	845.77637
1163.1379	821.77637
1163.7227	847.77637
1164.3004	817.77637
1164.8782	785.77637
1165.4629	812.77637
1166.0405	831.77637
1166.6183	830.77637
1167.203	818.77637
1167.7808	802.77637
1168.3585	809.77637
1168.9432	795.77637
1169.521	814.77637
1170.0986	792.77637
1170.6764	795.77637
1171.2611	794.77637
1171.8389	812.77637
1172.4166	816.77637
1173.0013	759.77637
1173.5791	785.77637
1174.1567	798.77637
1174.7345	751.77637
1175.3192	747.77637
1175.897	762.77637
1176.4747	804.77637
1177.0525	759.77637
1177.6302	769.77637
1178.2148	770.77637
1178.7926	770.77637
1179.3704	752.77637
1179.9481	737.77637
1180.5259	759.77637
1181.1036	738.77637
1181.6813	770.77637
1182.259	764.77637
1182.8438	742.77637
1183.4215	732.77637
1183.9993	730.77637
1184.577	735.77637
1185.1548	702.77637
1185.7324	727.77637
1186.3102	722.77637
1186.8879	684.77637
1187.4657	703.77637
1188.0435	743.77637
1188.6212	718.77637
1189.199	732.77637
1189.7766	750.77637
1190.3544	718.77637
1190.9321	718.77637
1191.5099	732.77637
1192.0876	746.77637
1192.6654	716.77637
1193.2432	729.77637
1193.8208	694.77637
1194.3986	661.77637
1194.9763	710.77637
1195.5541	692.77637
1196.1318	708.77637
1196.7096	714.77637
1197.2872	724.77637
1197.865	746.77637
1198.4427	673.77637
1199.0135	698.77637
1199.5913	657.77637
1200.1691	698.77637
1200.7468	679.77637
1201.3245	690.77637
1201.9022	682.77637
1202.473	703.77637
1203.0508	709.77637
1203.6285	705.77637
1204.2063	706.77637
1204.7839	713.77637
1205.3617	667.77637
1205.9325	693.77637
1206.5103	684.77637
1207.088	699.77637
1207.6658	687.77637
1208.2366	700.77637
1208.8142	678.77637
1209.392	665.77637
1209.9697	702.77637
1210.5475	672.77637
1211.1183	666.77637
1211.696	663.77637
1212.2737	685.77637
1212.8445	678.77637
1213.4222	674.77637
1214	716.77637
1214.5708	685.77637
1215.1486	662.77637
1215.7262	688.77637
1216.297	659.77637
1216.8748	657.77637
1217.4456	654.77637
1218.0233	706.77637
1218.6011	680.77637
1219.1719	657.77637
1219.7495	669.77637
1220.3273	668.77637
1220.8981	711.77637
1221.4758	639.77637
1222.0466	649.77637
1222.6244	651.77637
1223.1951	671.77637
1223.7728	667.77637
1224.3436	652.77637
1224.9214	646.77637
1225.4991	698.77637
1226.0699	685.77637
1226.6476	642.77637
1227.2184	666.77637
1227.7961	634.77637
1228.3669	670.77637
1228.9377	656.77637
1229.5155	664.77637
1230.0933	651.77637
1230.6639	676.77637
1231.2347	668.77637
1231.8125	665.77637
1232.3833	695.77637
1232.9611	648.77637
1233.5319	673.77637
1234.1025	673.77637
1234.6803	682.77637
1235.2511	656.77637
1235.8219	649.77637
1236.3997	662.77637
1236.9705	676.77637
1237.5481	648.77637
1238.1189	655.77637
1238.6897	654.77637
1239.2675	656.77637
1239.8383	689.77637
1240.4091	662.77637
1240.9797	636.77637
1241.5575	671.77637
1242.1283	644.77637
1242.6991	651.77637
1243.2699	645.77637
1243.8477	671.77637
1244.4183	638.77637
1244.9891	640.77637
1245.5669	652.77637
1246.1377	671.77637
1246.7085	646.77637
1247.2793	654.77637
1247.85	642.77637
1248.4277	665.77637
1248.9985	633.77637
1249.5693	634.77637
1250.1401	654.77637
1250.7109	650.77637
1251.2816	661.77637
1251.8594	648.77637
1252.4302	638.77637
1253.001	640.77637
1253.5718	657.77637
1254.1426	616.77637
1254.7133	665.77637
1255.291	624.77637
1255.8618	670.77637
1256.4326	636.77637
1257.0034	647.77637
1257.5741	667.77637
1258.1449	662.77637
1258.7157	644.77637
1259.2865	659.77637
1259.8573	632.77637
1260.4281	636.77637
1260.9988	652.77637
1261.5696	666.77637
1262.1404	635.77637
1262.7112	680.77637
1263.282	646.77637
1263.8528	681.77637
1264.4235	655.77637
1264.9943	671.77637
1265.5651	632.77637
1266.1359	651.77637
1266.7067	660.77637
1267.2775	661.77637
1267.8481	641.77637
1268.4189	655.77637
1268.9897	644.77637
1269.5536	676.77637
1270.1244	677.77637
1270.6952	679.77637
1271.2659	656.77637
1271.8367	656.77637
1272.4075	631.77637
1272.9783	652.77637
1273.5491	657.77637
1274.1128	658.77637
1274.6836	650.77637
1275.2544	651.77637
1275.8252	658.77637
1276.396	661.77637
1276.9668	644.77637
1277.5305	632.77637
1278.1013	685.77637
1278.6721	668.77637
1279.2429	644.77637
1279.8068	662.77637
1280.3776	644.77637
1280.9482	647.77637
1281.519	650.77637
1282.0829	666.77637
1282.6537	664.77637
1283.2245	641.77637
1283.7882	665.77637
1284.359	630.77637
1284.9298	695.77637
1285.5006	655.77637
1286.0645	650.77637
1286.6353	628.77637
1287.2059	650.77637
1287.7698	677.77637
1288.3406	671.77637
1288.9044	664.77637
1289.4752	686.77637
1290.0459	645.77637
1290.6097	653.77637
1291.1805	639.77637
1291.7513	659.77637
1292.3152	660.77637
1292.886	664.77637
1293.4497	650.77637
1294.0205	662.77637
1294.5844	647.77637
1295.1552	664.77637
1295.719	648.77637
1296.2897	637.77637
1296.8535	650.77637
1297.4243	660.77637
1297.9882	598.77637
1298.559	641.77637
1299.1298	689.77637
1299.6935	645.77637
1300.2643	676.77637
1300.8281	645.77637
1301.3989	675.77637
1301.9628	647.77637
1302.5265	640.77637
1303.0973	674.77637
1303.6611	671.77637
1304.2319	646.77637
1304.7958	668.77637
1305.3596	650.77637
1305.9303	681.77637
1306.4941	644.77637
1307.0649	634.77637
1307.6288	625.77637
1308.1926	639.77637
1308.7633	644.77637
1309.3271	658.77637
1309.891	663.77637
1310.4618	668.77637
1311.0256	659.77637
1311.5894	655.77637
1312.1602	692.77637
1312.724	686.77637
1313.2878	659.77637
1313.8517	649.77637
1314.4225	679.77637
1314.9862	698.77637
1315.55	650.77637
1316.1208	658.77637
1316.6847	672.77637
1317.2485	689.77637
1317.8123	675.77637
1318.3761	677.77637
1318.9469	691.77637
1319.5107	680.77637
1320.0746	696.77637
1320.6383	658.77637
1321.2091	673.77637
1321.7729	679.77637
1322.3368	669.77637
1322.9006	646.77637
1323.4644	668.77637
1324.0282	658.77637
1324.599	644.77637
1325.1628	662.77637
1325.7267	660.77637
1326.2905	653.77637
1326.8542	679.77637
1327.4181	686.77637
1327.9819	655.77637
1328.5458	665.77637
1329.1096	671.77637
1329.6803	669.77637
1330.2441	695.77637
1330.808	668.77637
1331.3718	662.77637
1331.9357	654.77637
1332.4994	664.77637
1333.0632	687.77637
1333.6271	692.77637
1334.1909	670.77637
1334.7548	693.77637
1335.3185	722.77637
1335.8823	688.77637
1336.4462	675.77637
1337.01	694.77637
1337.5739	679.77637
1338.1376	694.77637
1338.7014	663.77637
1339.2583	648.77637
1339.8221	650.77637
1340.386	664.77637
1340.9497	674.77637
1341.5135	680.77637
1342.0774	659.77637
1342.6412	681.77637
1343.2051	693.77637
1343.7689	660.77637
1344.3257	682.77637
1344.8895	662.77637
1345.4534	702.77637
1346.0172	685.77637
1346.5811	668.77637
1347.1448	654.77637
1347.7017	676.77637
1348.2655	712.77637
1348.8293	667.77637
1349.3932	668.77637
1349.9569	664.77637
1350.5138	652.77637
1351.0776	683.77637
1351.6415	704.77637
1352.2053	686.77637
1352.7621	682.77637
1353.3259	679.77637
1353.8898	706.77637
1354.4536	687.77637
1355.0105	691.77637
1355.5742	729.77637
1356.1381	666.77637
1356.6949	652.77637
1357.2588	687.77637
1357.8226	678.77637
1358.3794	666.77637
1358.9432	691.77637
1359.5071	701.77637
1360.064	659.77637
1360.6277	666.77637
1361.1915	707.77637
1361.7484	685.77637
1362.3123	714.77637
1362.8761	687.77637
1363.4329	674.77637
1363.9897	678.77637
1364.5536	684.77637
1365.1174	689.77637
1365.6743	663.77637
1366.238	705.77637
1366.7949	700.77637
1367.3588	688.77637
1367.9156	654.77637
1368.4795	675.77637
1369.0432	712.77637
1369.6001	675.77637
1370.157	705.77637
1370.7208	671.77637
1371.2847	676.77637
1371.8414	688.77637
1372.4053	685.77637
1372.9622	692.77637
1373.519	714.77637
1374.0829	723.77637
1374.6396	702.77637
1375.2035	683.77637
1375.7604	672.77637
1376.3242	679.77637
1376.8811	657.77637
1377.4379	698.77637
1378.0017	672.77637
1378.5586	696.77637
1379.1224	686.77637
1379.6792	662.77637
1380.2361	682.77637
1380.793	677.77637
1381.3568	694.77637
1381.9137	670.77637
1382.4774	658.77637
1383.0343	686.77637
1383.5912	647.77637
1384.155	712.77637
1384.7119	674.77637
1385.2687	687.77637
1385.8256	696.77637
1386.3894	692.77637
1386.9463	709.77637
1387.5032	715.77637
1388.0599	715.77637
1388.6238	718.77637
1389.1807	730.77637
1389.7375	706.77637
1390.2943	709.77637
1390.8582	690.77637
1391.415	704.77637
1391.9719	713.77637
1392.5288	690.77637
1393.0856	692.77637
1393.6494	711.77637
1394.2063	688.77637
1394.7632	691.77637
1395.3201	746.77637
1395.8768	707.77637
1396.4337	720.77637
1396.9976	701.77637
1397.5544	733.77637
1398.1113	718.77637
1398.6681	680.77637
1399.225	716.77637
1399.7888	728.77637
