14.826543	11720.202
15.501734	11605.202
16.176924	11597.202
16.852116	11763.202
17.527306	11949.202
18.202496	11926.202
18.884647	12150.202
19.559839	12128.202
20.235029	12263.202
20.910219	12531.202
21.585411	12700.202
22.260601	13064.202
22.942753	13676.202
23.617943	14136.202
24.293135	14714.202
24.968325	15076.202
25.643515	15166.202
26.318707	15520.202
26.993896	15402.202
27.669086	15290.202
28.351238	15440.202
29.02643	15806.202
29.70162	16130.202
30.37681	16463.201
31.052002	17176.201
31.727192	17422.201
32.402382	17920.201
33.077572	18705.201
33.752766	19448.201
34.427956	19942.201
35.103146	20057.201
35.778336	20334.201
36.453526	20456.201
37.121758	20373.201
37.796947	20574.201
38.472137	20875.201
39.147327	21501.201
39.822521	21872.201
40.497711	22340.201
41.172901	22832.201
41.848091	22914.201
42.523281	23160.201
43.198471	23388.201
43.873665	23171.201
44.541893	24309.201
45.217083	24367.201
45.892277	24918.201
46.567467	24965.201
47.242657	25608.201
47.910885	25694.201
48.586079	25375.201
49.261269	25624.201
49.936459	25949.201
50.611649	26031.201
51.279881	26195.201
51.95507	25972.201
52.63026	26049.201
53.30545	26404.201
53.973682	26586.201
54.648872	26651.201
55.317101	27080.201
55.99229	27261.201
56.667484	27754.201
57.342674	27918.201
58.010902	27836.201
58.686092	28164.201
59.361286	28082.201
60.029514	27708.201
60.704704	27853.201
61.372936	27987.201
62.048126	28272.201
62.716354	28339.201
63.391548	28674.201
64.066734	29109.201
64.73497	28776.201
65.410156	28799.201
66.078384	28828.201
66.753578	28762.201
67.428772	28465.201
68.097	28781.201
68.772186	29291.201
69.440422	29262.201
70.10865	29454.201
70.783844	29305.201
71.452072	29180.201
72.127258	29476.201
72.795494	29722.201
73.47068	29476.201
74.138908	29476.201
74.814102	29558.201
75.48233	29476.201
76.150566	29350.201
76.825752	28834.201
77.49398	28776.201
78.169174	28585.201
78.837402	28789.201
79.50563	29394.201
80.173866	29394.201
80.849052	29394.201
81.517281	29476.201
82.185516	29394.201
82.860703	29312.201
83.528938	28940.201
84.197166	28745.201
84.872353	29018.201
85.540588	28809.201
86.208817	28775.201
86.877045	28908.201
87.552238	29106.201
88.220467	29312.201
88.888695	29312.201
89.556923	29312.201
90.225159	29312.201
90.900345	29312.201
91.568573	29066.201
92.236809	28984.201
92.905037	29336.201
93.573265	29304.201
94.241493	28849.201
94.909729	28860.201
95.584915	29053.201
96.253143	29137.201
96.921379	29014.201
97.589607	29148.201
98.257835	28984.201
98.926064	28587.201
99.594299	28643.201
100.26253	28529.201
100.93076	28573.201
101.59898	28324.201
102.26722	28769.201
102.93545	28738.201
103.60368	28738.201
104.2719	28656.201
104.94014	28656.201
105.60837	28574.201
106.2766	29021.201
106.94482	28277.201
107.61305	28328.201
108.28129	28350.201
108.94952	28349.201
109.61774	28313.201
110.28597	28166.201
110.95421	28382.201
111.62244	28498.201
112.28371	28528.201
112.95193	28308.201
113.62016	28472.201
114.28839	28737.201
114.95663	28485.201
115.62486	28309.201
116.29308	27986.201
116.95435	28176.201
117.62258	27903.201
118.29082	27663.201
118.95905	28142.201
119.62727	28329.201
120.28854	28024.201
120.95677	28041.201
121.625	28196.201
122.29324	27992.201
122.9545	27845.201
123.62273	27553.201
124.29096	27650.201
124.95919	27637.201
125.62046	27652.201
126.28869	27500.201
126.95692	27894.201
127.61819	27836.201
128.28642	27728.201
128.95465	27610.201
129.61592	27575.201
130.28415	27283.201
130.94542	27398.201
131.61365	27073.201
132.28188	27137.201
132.94315	26855.201
133.61137	27008.201
134.27264	27087.201
134.94087	26989.201
135.60214	27306.201
136.27037	27333.201
136.93164	27178.201
137.59987	27199.201
138.26114	27173.201
138.92937	27065.201
139.59064	26957.201
140.25888	26894.201
140.92014	26934.201
141.58838	26898.201
142.24965	26882.201
142.91788	26776.201
143.57915	26915.201
144.24738	26916.201
144.90865	26838.201
145.56992	26627.201
146.23814	26427.201
146.89941	26522.201
147.56764	26557.201
148.22891	26312.201
148.89018	26280.201
149.55841	26091.201
150.21968	26379.201
150.88095	26056.201
151.54918	26440.201
152.21045	26245.201
152.87172	26296.201
153.53995	26366.201
154.20122	25987.201
154.86249	26058.201
155.52376	25968.201
156.19199	25953.201
156.85326	25696.201
157.51453	25627.201
158.1758	25800.201
158.84402	25722.201
159.50529	25795.201
160.16656	26086.201
160.82782	26424.201
161.48909	25852.201
162.15733	25546.201
162.81859	25517.201
163.47986	25451.201
164.14113	25374.201
164.8024	25464.201
165.46367	25564.201
166.12494	25448.201
166.78621	25532.201
167.45444	25530.201
168.11571	25417.201
168.77698	25369.201
169.43825	25388.201
170.09952	25416.201
170.76079	25330.201
171.42206	25221.201
172.08333	25267.201
172.7446	25149.201
173.40587	25096.201
174.06714	25098.201
174.72841	25102.201
175.38966	25113.201
176.05093	24960.201
176.7122	25110.201
177.37347	25089.201
178.03474	24991.201
178.68906	24787.201
179.35033	24705.201
180.0116	24756.201
180.67287	24686.201
181.33414	24843.201
181.99541	24642.201
182.65668	24978.201
183.31795	24895.201
183.97922	24737.201
184.64047	24655.201
185.30174	24739.201
185.95605	24666.201
186.61732	24804.201
187.27859	24464.201
187.93987	24655.201
188.60114	24678.201
189.25545	24662.201
189.91672	24688.201
190.57799	24662.201
191.23926	24537.201
191.89355	24541.201
192.55482	24505.201
193.21609	24312.201
193.87041	24352.201
194.53168	24345.201
195.19295	24328.201
195.84726	24440.201
196.50851	24401.201
197.16978	24226.201
197.8241	24392.201
198.48537	24176.201
199.14664	24329.201
199.80095	24228.201
200.46222	24282.201
201.12349	24111.201
201.77779	24248.201
202.43906	24158.201
203.10033	24234.201
203.75464	24182.201
204.41591	24121.201
205.07022	24236.201
205.73149	24211.201
206.3858	23955.201
207.04706	24113.201
207.70137	24184.201
208.36264	24238.201
209.01695	24045.201
209.67822	24212.201
210.33253	23806.201
210.9938	24000.201
211.6481	24088.201
212.30937	24075.201
212.96368	24099.201
213.618	24094.201
214.27927	24024.201
214.93356	23892.201
215.59483	24164.201
216.24915	24099.201
216.91042	24000.201
217.56473	24057.201
218.21904	23985.201
218.88031	24012.201
219.53461	23880.201
220.18892	23732.201
220.85019	24163.201
221.5045	23999.201
222.15881	23880.201
222.82008	24023.201
223.47438	23876.201
224.12869	23987.201
224.783	23855.201
225.44427	24026.201
226.09859	23995.201
226.75288	24095.201
227.41415	23813.201
228.06847	24042.201
228.72278	23835.201
229.37708	23882.201
230.03139	24068.201
230.69266	23834.201
231.34697	24120.201
232.00128	24004.201
232.65558	23893.201
233.30989	23921.201
233.9642	24111.201
234.61852	23939.201
235.27979	23973.201
235.93408	23866.201
236.58839	24100.201
237.24271	23757.201
237.89702	24009.201
238.55133	23826.201
239.20563	23770.201
239.85994	23890.201
240.51425	23848.201
241.16856	23840.201
241.82286	23916.201
242.47717	24096.201
243.13148	24013.201
243.7858	24184.201
244.44009	23990.201
245.09441	23934.201
245.74872	23794.201
246.40303	23974.201
247.05733	23966.201
247.71164	24130.201
248.36595	24174.201
249.02026	24269.201
249.67456	24163.201
250.32887	24073.201
250.98318	24125.201
251.6375	24054.201
252.29181	24289.201
252.94611	24044.201
253.59346	23890.201
254.24777	24085.201
254.90207	23911.201
255.55638	24196.201
256.21069	24018.201
256.85803	24172.201
257.51236	23894.201
258.16666	24014.201
258.82095	24033.201
259.47528	24118.201
260.12958	23971.201
260.77692	24340.201
261.43124	24104.201
262.08554	24411.201
262.73288	24228.201
263.38721	24124.201
264.0415	24310.201
264.69583	24128.201
265.34317	24217.201
265.99747	24220.201
266.64484	24351.201
267.29913	24353.201
267.95343	24200.201
268.60776	24233.201
269.2551	24339.201
269.90939	24157.201
270.56372	24303.201
271.21106	24520.201
271.86536	24556.201
272.51273	24300.201
273.16702	24328.201
273.81436	24393.201
274.46869	24373.201
275.11603	24462.201
275.77032	24392.201
276.42465	24395.201
277.07199	24480.201
277.72632	24436.201
278.37366	24383.201
279.02795	24396.201
279.67529	24720.201
280.32962	24424.201
280.97696	24291.201
281.63129	24272.201
282.27863	24498.201
282.92596	24424.201
283.58029	24428.201
284.22763	24676.201
284.88193	24522.201
285.52927	24388.201
286.18359	24641.201
286.83093	24510.201
287.47827	24604.201
288.1326	24505.201
288.77994	24402.201
289.42728	24640.201
290.0816	24482.201
290.72894	24630.201
291.37628	24524.201
292.03061	24653.201
292.67795	24917.201
293.32529	24893.201
293.97266	24650.201
294.62695	24658.201
295.27429	24644.201
295.92166	24854.201
296.57596	24532.201
297.2233	24744.201
297.87067	24632.201
298.51801	24595.201
299.1723	24980.201
299.81967	24776.201
300.46701	24677.201
301.11435	24844.201
301.76169	25144.201
302.40906	24822.201
303.06335	24811.201
303.71069	24691.201
304.35806	24816.201
305.0054	24745.201
305.65274	24810.201
306.30011	24870.201
306.94745	25009.201
307.59479	24932.201
308.24908	24975.201
308.89645	25038.201
309.54379	24905.201
310.19113	25028.201
310.8385	24994.201
311.48584	24828.201
312.13318	24906.201
312.78055	25140.201
313.42789	24932.201
314.07523	24896.201
314.72256	24966.201
315.36993	25140.201
316.01727	25003.201
316.66461	24993.201
317.31198	25057.201
317.95932	25097.201
318.5997	25234.201
319.24704	25198.201
319.89441	24983.201
320.54175	25344.201
321.18909	25011.201
321.83646	25096.201
322.4838	25513.201
323.13113	25306.201
323.77847	25385.201
324.42584	25298.201
325.06622	25096.201
325.71356	25348.201
326.3609	25304.201
327.00827	25316.201
327.65561	25260.201
328.29599	25166.201
328.94336	25228.201
329.5907	25506.201
330.23804	25397.201
330.88538	25216.201
331.52579	25384.201
332.17313	25325.201
332.82047	25346.201
333.46085	25448.201
334.10822	25446.201
334.75555	25480.201
335.39594	25533.201
336.04327	25547.201
336.69064	25518.201
337.33102	25541.201
337.97836	25525.201
338.62573	25708.201
339.27307	25601.201
339.91345	25524.201
340.56079	25729.201
341.2012	25608.201
341.84854	25693.201
342.49588	25587.201
343.13626	25722.201
343.78363	25614.201
344.42401	25716.201
345.07135	25952.201
345.71173	25794.201
346.3591	25758.201
346.99948	25704.201
347.64682	25763.201
348.29416	25804.201
348.93457	25739.201
349.58191	25937.201
350.22229	25880.201
350.86267	25835.201
351.51004	25928.201
352.15042	25968.201
352.79776	25784.201
353.43814	26064.201
354.07852	25851.201
354.72589	25921.201
355.36627	25976.201
356.01361	25950.201
356.65399	26100.201
357.30136	26117.201
357.94174	26093.201
358.58212	26016.201
359.22946	25940.201
359.86987	25964.201
360.51025	26288.201
361.15759	26166.201
361.79797	26201.201
362.43839	26168.201
363.07877	26169.201
363.7261	26210.201
364.36649	26334.201
365.00687	26354.201
365.65424	26155.201
366.29462	26163.201
366.935	26126.201
367.58234	26478.201
368.22275	26430.201
368.86313	26279.201
369.50351	26346.201
370.14389	26155.201
370.78427	26354.201
371.43164	26426.201
372.07202	26526.201
372.7124	26514.201
373.35278	26609.201
373.99319	26180.201
374.63358	26683.201
375.27396	26427.201
375.9213	26516.201
376.56168	26576.201
377.20209	26754.201
377.84247	26594.201
378.48285	26648.201
379.12323	26605.201
379.76361	26509.201
380.40402	26491.201
381.0444	26580.201
381.68478	26569.201
382.32516	26736.201
382.96555	26765.201
383.60596	26923.201
384.24634	26684.201
384.88672	26605.201
385.5271	26764.201
386.16751	26869.201
386.80789	26776.201
387.44827	26870.201
388.08865	26912.201
388.72903	26794.201
389.36945	26935.201
390.00983	27249.201
390.65021	27080.201
391.28363	27211.201
391.92401	27045.201
392.56439	27592.201
393.2048	27247.201
393.84518	27345.201
394.48557	27370.201
395.11899	27276.201
395.75937	27312.201
396.39978	27372.201
397.04016	27610.201
397.68054	27388.201
398.32092	27501.201
398.9613	27328.201
399.59473	27452.201
400.23514	27489.201
400.87552	27744.201
401.50894	27696.201
402.14932	27752.201
402.7897	27557.201
403.43011	27646.201
404.06354	27980.201
404.70392	27920.201
405.3443	27922.201
405.97772	28022.201
406.6181	28099.201
407.25851	28129.201
407.89194	28072.201
408.53232	28351.201
409.1727	28204.201
409.80612	28329.201
410.4465	28626.201
411.08691	28396.201
411.72034	28320.201
412.36072	28522.201
412.99414	28732.201
413.63452	28582.201
414.26794	28643.201
414.90836	28699.201
415.54178	28592.201
416.18216	28945.201
416.81558	28985.201
417.45596	29025.201
418.08939	28985.201
418.7298	29277.201
419.36322	29325.201
420.0036	29249.201
420.63702	29299.201
421.2774	29470.201
421.91083	29503.201
422.55124	29437.201
423.18466	29772.201
423.82504	29785.201
424.45847	29520.201
425.09885	29679.201
425.73227	29980.201
426.36569	29931.201
427.0061	29912.201
427.63953	30389.201
428.27295	30310.201
428.91333	30304.201
429.54675	30428.201
430.18018	30603.201
430.82056	30494.201
431.45401	30656.201
432.08743	30774.201
432.72781	30860.201
433.36124	30856.201
433.99466	30916.201
434.62808	31133.201
435.26846	31049.201
435.90192	31268.201
436.53534	31176.201
437.16876	31351.201
437.80914	31475.201
438.44257	31837.201
439.07599	31810.201
439.70941	31717.201
440.34982	31738.201
440.98325	32072.201
441.61667	31932.201
442.25009	32152.201
442.88351	32142.201
443.51694	31977.201
444.15732	32508.201
444.79074	32562.201
445.42419	32547.201
446.05762	32538.201
446.69104	32645.201
447.32446	32993.203
447.95789	32913.203
448.59131	32898.203
449.22473	33007.203
449.85815	33008.203
450.49158	33228.203
451.12503	33476.203
451.75845	33519.203
452.39188	33627.203
453.0253	33880.203
453.65872	33832.203
454.29214	33601.203
454.92557	33600.203
455.55899	33707.203
456.19241	33798.203
456.82587	34110.203
457.45929	33885.203
458.09271	34034.203
458.72614	34070.203
459.35956	33904.203
459.99298	34161.203
460.6264	34336.203
461.25287	34288.203
461.88629	34646.203
462.51971	34422.203
463.15317	34257.203
463.78659	34696.203
464.42001	34830.203
465.05344	34591.203
465.6799	34706.203
466.31332	34929.203
466.94675	34864.203
467.58017	34984.203
468.21359	34998.203
468.84006	34962.203
469.47351	35082.203
470.10693	35048.203
470.74036	35048.203
471.36682	35070.203
472.00024	35314.203
472.63367	35291.203
473.26709	35280.203
473.89355	35376.203
474.52698	35246.203
475.1604	35416.203
475.78687	35427.203
476.42032	35440.203
477.05374	35328.203
477.68021	35856.203
478.31363	35525.203
478.94705	35664.203
479.57352	35556.203
480.20694	35830.203
480.84036	35873.203
481.46683	35747.203
482.10025	35666.203
482.72672	36137.203
483.36014	35970.203
483.9866	35684.203
484.62006	35800.203
485.24652	35981.203
485.87994	35946.203
486.51337	36040.203
487.13983	36004.203
487.77325	35769.203
488.39972	36123.203
489.03314	35990.203
489.65961	35912.203
490.28607	35826.203
490.91949	35868.203
491.54596	35872.203
492.17938	36102.203
492.80585	36025.203
493.4393	35894.203
494.06577	36136.203
494.69223	36072.203
495.32565	36072.203
495.95212	36168.203
496.57858	36162.203
497.21201	36012.203
497.83847	36040.203
498.47189	35774.203
499.09836	35859.203
499.72482	35990.203
500.35825	35685.203
500.98471	36113.203
501.61118	35960.203
502.2446	35576.203
502.87106	35562.203
503.49753	35520.203
504.12399	35686.203
504.75742	35579.203
505.38391	35465.203
506.01038	35262.203
506.63684	35132.203
507.27026	35101.203
507.89673	35041.203
508.52319	35224.203
509.14966	34900.203
509.78308	34615.203
510.40955	34731.203
511.03601	34458.203
511.66248	34445.203
512.28894	34276.203
512.91541	34494.203
513.54883	33976.203
514.17529	34037.203
514.80176	33752.203
515.42822	33983.203
516.05469	33624.203
516.68115	33166.203
517.30762	33469.203
517.93408	33213.203
518.56055	33035.203
519.18701	32820.203
519.81348	32790.203
520.43994	32472.201
521.06641	32187.201
521.69287	32200.201
522.31934	32075.201
522.9458	32141.201
523.57227	31744.201
524.19873	31668.201
524.8252	31515.201
525.45166	31194.201
526.07813	30800.201
526.70459	30757.201
527.33105	30649.201
527.95752	30679.201
528.58398	30332.201
529.21045	30298.201
529.83691	29986.201
530.46338	29962.201
531.08289	29645.201
531.70935	29420.201
532.33582	29353.201
532.96228	29264.201
533.58875	29020.201
534.21521	28878.201
534.84167	28805.201
535.46118	28459.201
536.08765	28575.201
536.71411	28217.201
537.34058	28042.201
537.96704	27980.201
538.59351	27701.201
539.21301	27576.201
539.83948	27538.201
540.46594	27421.201
541.08545	27039.201
541.71191	27087.201
542.33838	26610.201
542.95789	26795.201
543.58435	26616.201
544.21082	26348.201
544.83728	26476.201
545.45679	26216.201
546.08325	26242.201
546.70972	25843.201
547.32922	26004.201
547.95569	25795.201
548.58215	25740.201
549.20166	25675.201
549.82813	25569.201
550.44763	25406.201
551.0741	25507.201
551.6936	25209.201
552.32007	25126.201
552.94653	25019.201
553.56604	25155.201
554.1925	25038.201
554.81201	25004.201
555.43848	25185.201
556.05798	24780.201
556.68445	24589.201
557.30396	24644.201
557.93042	24563.201
558.54993	24463.201
559.17639	24565.201
559.7959	24437.201
560.42236	24379.201
561.04187	24275.201
561.66833	24430.201
562.28784	24098.201
562.91431	24189.201
563.53381	24357.201
564.15332	24299.201
564.77979	24381.201
565.39929	24132.201
566.0188	24062.201
566.64526	24101.201
567.26477	24036.201
567.89124	24057.201
568.51074	23937.201
569.13025	23986.201
569.75671	24047.201
570.37622	23877.201
570.99573	23792.201
571.61523	23787.201
572.2417	23668.201
572.86121	23749.201
573.48071	23604.201
574.10718	23450.201
574.72668	23617.201
575.34619	23255.201
575.9657	23489.201
576.58521	23242.201
577.21167	23153.201
577.83118	23098.201
578.45068	23043.201
579.07019	23104.201
579.69666	22923.201
580.31616	22922.201
580.93567	22742.201
581.55518	22730.201
582.17468	22688.201
582.79419	22485.201
583.41364	22555.201
584.0401	22350.201
584.65961	22199.201
585.27911	22119.201
585.89862	22115.201
586.51813	21992.201
587.13763	21932.201
587.75714	21745.201
588.37665	21642.201
588.99615	21506.201
589.61566	21518.201
590.23517	21271.201
590.85468	21327.201
591.47418	21087.201
592.09369	20891.201
592.7132	20758.201
593.3327	20869.201
593.95221	20628.201
594.57172	20465.201
595.19122	20307.201
595.81073	20148.201
596.43024	20066.201
597.04974	20039.201
597.66925	19817.201
598.28876	19789.201
598.90826	19577.201
599.52777	19460.201
600.14032	19339.201
600.75983	19221.201
601.37933	18998.201
601.99884	18972.201
602.61829	18861.201
603.23779	18685.201
603.8573	18608.201
604.46985	18455.201
605.08936	18236.201
605.70886	18138.201
606.32837	18040.201
606.94788	17970.201
607.56042	17923.201
608.17993	17780.201
608.79944	17675.201
609.41895	17534.201
610.03845	17372.201
610.651	17244.201
611.27051	17120.201
611.89001	16939.201
612.50256	16836.201
613.12207	16826.201
613.74158	16596.201
614.35413	16474.201
614.97363	16358.202
615.59314	16483.201
616.20563	16238.202
616.82513	16004.202
617.44464	15952.202
618.05719	15788.202
618.6767	15879.202
619.2962	15711.202
619.90875	15670.202
620.52826	15452.202
621.14081	15423.202
621.76031	15357.202
622.37286	15135.202
622.99237	15196.202
623.61188	14884.202
624.22443	14871.202
624.84393	14810.202
625.45648	14717.202
626.07599	14666.202
626.68854	14663.202
627.30804	14454.202
627.92059	14466.202
628.54004	14275.202
629.15259	14216.202
629.77209	14196.202
630.38464	14096.202
630.99719	13918.202
631.6167	13827.202
632.22925	13941.202
632.84875	13701.202
633.4613	13641.202
634.07385	13571.202
634.69336	13565.202
635.30591	13512.202
635.92542	13370.202
636.53796	13242.202
637.15051	13124.202
637.77002	13044.202
638.38257	13103.202
639.00201	13055.202
639.61456	12972.202
640.22711	12987.202
640.83966	12851.202
641.45917	12694.202
642.07172	12674.202
642.68427	12543.202
643.29681	12501.202
643.91632	12406.202
644.52887	12360.202
645.14142	12258.202
645.75397	12096.202
646.37347	12066.202
646.98602	12128.202
647.59857	12024.202
648.21106	12005.202
648.82361	11930.202
649.44312	11796.202
650.05566	12008.202
650.66821	11764.202
651.28076	11798.202
651.89331	11677.202
652.28314	11689.202
652.90265	11608.202
653.52911	11621.202
654.14856	11539.202
654.77502	11483.202
655.39453	11461.202
656.01404	11447.202
656.6405	11386.202
657.26001	11306.202
657.88647	11339.202
658.50598	11318.202
659.12549	11231.202
659.75195	11275.202
660.37146	11015.202
660.99097	11135.202
661.61743	10997.202
662.23694	10985.202
662.85645	11076.202
663.48291	11012.202
664.10242	11031.202
664.72192	10994.202
665.34143	10864.202
665.96094	10789.202
666.5874	10922.202
667.20691	10830.202
667.82642	10725.202
668.44592	10669.202
669.07239	10728.202
669.69189	10691.202
670.3114	10707.202
670.93091	10557.202
671.55042	10557.202
672.17688	10578.202
672.79639	10403.202
673.41589	10506.202
674.0354	10405.202
674.65491	10427.202
675.27441	10388.202
675.89392	10179.202
676.52039	10379.202
677.13989	10357.202
677.7594	10300.202
678.37891	10321.202
678.99841	10268.202
679.61792	10315.202
680.23743	10351.202
680.85693	10194.202
681.47638	10213.202
682.09589	10205.202
682.71539	10299.202
683.3349	10142.202
683.95441	10207.202
684.57391	10090.202
685.19342	10055.202
685.81293	9982.2021
686.43243	10085.202
687.05194	10131.202
687.67145	9945.2021
688.29095	9887.2021
688.91046	9919.2021
689.52997	9929.2021
690.14948	9913.2021
690.76202	9986.2021
691.38849	9923.2021
692.00104	9913.2021
692.62054	9885.2021
693.24005	9784.2021
693.85956	9855.2021
694.47906	9764.2021
695.09857	9811.2021
695.71112	9726.2021
696.33063	9692.2021
696.95013	9814.2021
697.56964	9735.2021
698.18915	9769.2021
698.80865	9812.2021
699.42114	9635.2021
700.04065	9577.2021
700.66016	9568.2021
701.27271	9595.2021
701.89221	9534.2021
702.51172	9661.2021
703.13123	9662.2021
703.75073	9504.2021
704.36328	9554.2021
704.98279	9534.2021
705.60229	9645.2021
706.21484	9474.2021
706.83435	9405.2021
707.45386	9548.2021
708.06641	9642.2021
708.68591	9389.2021
709.30542	9385.2021
709.91797	9380.2021
710.53748	9305.2021
711.15698	9515.2021
711.76953	9329.2021
712.38898	9348.2021
713.00153	9357.2021
713.62103	9184.2021
714.24054	9197.2021
714.85309	9289.2021
715.4726	9294.2021
716.08514	9379.2021
716.70465	9262.2021
717.3172	9138.2021
717.93671	9125.2021
718.54926	9325.2021
719.16876	9349.2021
719.78131	9107.2021
720.40082	9221.2021
721.01337	9227.2021
721.63287	9064.2021
722.24542	9091.2021
722.86493	9112.2021
723.47742	9152.2021
724.08997	9129.2021
724.70947	9177.2021
725.32202	8977.2021
725.94153	9053.2021
726.55408	9090.2021
727.16663	9071.2021
727.78613	9033.2021
728.39868	9104.2021
729.01819	8957.2021
729.63074	8976.2021
730.24329	8950.2021
730.86279	8998.2021
731.47534	8837.2021
732.08789	8939.2021
732.7074	8983.2021
733.31995	8871.2021
733.93243	8919.2021
734.55194	8882.2021
735.16449	8949.2021
735.77704	8759.2021
736.38959	8868.2021
737.00909	8864.2021
737.62164	8749.2021
738.23419	9115.2021
738.84674	9095.2021
739.46625	8965.2021
740.0788	8934.2021
740.69135	8765.2021
741.30389	8841.2021
741.91644	8697.2021
742.53595	8707.2021
743.14844	8784.2021
743.76099	8785.2021
744.37354	8763.2021
744.98608	8771.2021
745.59863	8637.2021
746.21118	8717.2021
746.83069	8665.2021
747.44324	8591.2021
748.05579	8688.2021
748.66833	8663.2021
749.28088	8617.2021
749.89343	8743.2021
750.50598	8645.2021
751.11853	8636.2021
751.73102	8573.2021
752.34357	8613.2021
752.95612	8618.2021
753.56866	8535.2021
754.18121	8438.2021
754.79376	8701.2021
755.40631	8449.2021
756.01886	8497.2021
756.63141	8541.2021
757.24396	8626.2021
757.85651	8602.2021
758.46906	8455.2021
759.0816	8599.2021
759.69409	8535.2021
760.30664	8429.2021
760.91919	8464.2021
761.53174	8519.2021
762.14429	8540.2021
762.75684	8510.2021
763.36243	8437.2021
763.97498	8367.2021
764.58752	8489.2021
765.20007	8373.2021
765.81262	8413.2021
766.42517	8445.2021
767.03766	8353.2021
767.64325	8341.2021
768.2558	8494.2021
768.86835	8242.2021
769.4809	8402.2021
770.09344	8437.2021
770.69904	8325.2021
771.31158	8328.2021
771.92413	8397.2021
772.53668	8309.2021
773.14227	8276.2021
773.75476	8213.2021
774.36731	8304.2021
774.97986	8301.2021
775.58545	8255.2021
776.198	8209.2021
776.81055	8180.2021
777.4231	8244.2021
778.02869	8162.2021
778.64124	8193.2021
779.24683	8089.2021
779.85938	8059.2021
780.47186	8230.2021
781.07745	8090.2021
781.69	8180.2021
782.30255	8109.2021
782.90814	8168.2021
783.52069	8125.2021
784.12628	8069.2021
784.73883	8006.2021
785.35138	7994.2021
785.95697	8032.2021
786.56952	8006.2021
787.17505	8031.2021
787.7876	7899.2021
788.39319	7901.2021
789.00574	7780.2021
789.61133	7919.2021
790.22388	7892.2021
790.82947	7898.2021
791.44202	7784.2021
792.04761	7838.2021
792.66016	7791.2021
793.26569	7743.2021
793.87823	7789.2021
794.48383	7815.2021
795.09637	7636.2021
795.70197	7778.2021
796.30756	7687.2021
796.9201	7620.2021
797.5257	7560.2021
798.13824	7549.2021
798.74384	7424.2021
799.35632	7523.2021
799.96191	7513.2021
800.5675	7493.2021
801.1731	7421.2021
801.78564	7405.2021
802.39124	7320.2021
803.00378	7176.2021
803.60938	7305.2021
804.21497	7227.2021
804.82745	7151.2021
805.43304	7114.2021
806.03864	7126.2021
806.64423	7134.2021
807.25677	7007.2021
807.86237	6978.2021
808.46796	6942.2021
809.07355	6866.2021
809.6861	6845.2021
810.29163	6834.2021
810.89722	6751.2021
811.50281	6681.2021
812.1084	6709.2021
812.72095	6638.2021
813.32654	6612.2021
813.93213	6579.2021
814.53772	6533.2021
815.14331	6419.2021
815.74884	6510.2021
816.36139	6475.2021
816.96698	6337.2021
817.57257	6332.2021
818.17816	6445.2021
818.78375	6178.2021
819.38934	6133.2021
819.99493	6134.2021
820.60046	5969.2021
821.20605	6040.2021
821.81165	5915.2021
822.42419	5901.2021
823.02283	5773.2021
823.63538	5817.2021
824.23401	5773.2021
824.84656	5776.2021
825.44519	5625.2021
826.05768	5557.2021
826.65631	5533.2021
827.26886	5473.2021
827.86749	5510.2021
828.48004	5429.2021
829.07867	5357.2021
829.68427	5256.2021
830.28986	5242.2021
830.89539	5223.2021
831.50098	5143.2021
832.10657	5096.2021
832.71216	5138.2021
833.31775	5097.2021
833.92334	5089.2021
834.52893	5027.2021
835.12756	4963.2021
835.74005	4878.2021
836.33868	4850.2021
836.94427	4849.2021
837.54987	4871.2021
838.15546	4775.2021
838.76105	4749.2021
839.36664	4724.2021
839.96527	4623.2021
840.5708	4659.2021
841.17639	4570.2021
841.78198	4607.2021
842.38062	4707.2021
842.98621	4621.2021
843.5918	4520.2021
844.19739	4570.2021
844.79596	4593.2021
845.40155	4436.2021
846.00714	4497.2021
846.60577	4489.2021
847.21136	4471.2021
847.81696	4495.2021
848.42255	4389.2021
849.02118	4424.2021
849.62671	4474.2021
850.22534	4481.2021
850.83093	4469.2021
851.43652	4466.2021
852.04211	4434.2021
852.64075	4345.2021
853.24634	4398.2021
853.84491	4449.2021
854.4505	4476.2021
855.05609	4466.2021
855.65472	4435.2021
856.26031	4526.2021
856.85895	4433.2021
857.46454	4425.2021
858.06311	4472.2021
858.6687	4479.2021
859.26733	4478.2021
859.87292	4535.2021
860.47852	4475.2021
861.07715	4535.2021
861.68274	4525.2021
862.28131	4589.2021
862.8869	4545.2021
863.48553	4681.2021
864.09113	4595.2021
864.68976	4621.2021
865.28839	4596.2021
865.89398	4587.2021
866.49255	4662.2021
867.09814	4615.2021
867.69678	4726.2021
868.30237	4797.2021
868.901	4734.2021
869.49963	4821.2021
870.10522	4766.2021
870.7038	4764.2021
871.30243	4838.2021
871.90802	4875.2021
872.50665	4919.2021
873.10529	4953.2021
873.71088	4935.2021
874.30945	4979.2021
874.90808	5052.2021
875.51367	5010.2021
876.1123	5095.2021
876.71094	5144.2021
877.30957	5140.2021
877.91516	5221.2021
878.51373	5209.2021
879.11237	5313.2021
879.71796	5404.2021
880.31659	5341.2021
880.91522	5397.2021
881.51385	5352.2021
882.11243	5413.2021
882.71802	5542.2021
883.31665	5438.2021
883.91528	5571.2021
884.51392	5623.2021
885.11255	5631.2021
885.71814	5662.2021
886.31671	5713.2021
886.91534	5722.2021
887.51398	5858.2021
888.11261	5934.2021
888.71124	5940.2021
889.30988	5922.2021
889.90845	5953.2021
890.50708	5988.2021
891.11267	6084.2021
891.7113	6145.2021
892.30994	6167.2021
892.90857	6239.2021
893.50714	6254.2021
894.10577	6269.2021
894.70441	6310.2021
895.30304	6386.2021
895.90167	6438.2021
896.50031	6540.2021
897.09888	6566.2021
897.69751	6596.2021
898.29614	6604.2021
898.89478	6680.2021
899.49341	6855.2021
900.09204	6765.2021
900.69061	6873.2021
901.28925	6935.2021
901.88788	6866.2021
902.48651	7011.2021
903.07819	7011.2021
903.67682	7159.2021
904.27539	7153.2021
904.87402	7201.2021
905.47266	7287.2021
906.07129	7369.2021
906.66992	7361.2021
907.26855	7476.2021
907.86017	7531.2021
908.4588	7489.2021
909.05743	7597.2021
909.65607	7579.2021
910.2547	7597.2021
910.85327	7567.2021
911.44495	7840.2021
912.04358	7837.2021
912.64221	7909.2021
913.24084	7960.2021
913.83948	8047.2021
914.43109	8057.2021
915.02972	8140.2021
915.62836	8111.2021
916.22003	8117.2021
916.81866	8231.2021
917.4173	8301.2021
918.01587	8277.2021
918.60754	8365.2021
919.20618	8483.2021
919.80481	8389.2021
920.39648	8632.2021
920.99506	8599.2021
921.59369	8705.2021
922.18536	8749.2021
922.784	8773.2021
923.37567	8771.2021
923.9743	8931.2021
924.57288	8921.2021
925.16455	9025.2021
925.76318	8823.2021
926.36182	8990.2021
926.95349	8988.2021
927.55206	9125.2021
928.14374	9180.2021
928.74237	9241.2021
929.33405	9325.2021
929.93268	9219.2021
930.52429	9352.2021
931.12292	9373.2021
931.7146	9227.2021
932.31323	9498.2021
932.90491	9409.2021
933.50354	9691.2021
934.09515	9575.2021
934.69379	9734.2021
935.28546	9699.2021
935.88409	9765.2021
936.47577	9702.2021
937.07434	9770.2021
937.66602	9823.2021
938.26465	9824.2021
938.85632	9887.2021
939.448	9819.2021
940.04657	10029.202
940.63824	10057.202
941.22992	10188.202
941.82855	10150.202
942.42023	10130.202
943.01184	10129.202
943.61047	10325.202
944.20215	10290.202
944.79382	10285.202
945.39246	10298.202
945.98407	10331.202
946.57574	10448.202
947.17438	10396.202
947.76605	10477.202
948.35773	10509.202
948.95636	10599.202
949.54797	10633.202
950.13965	10619.202
950.73132	10718.202
951.323	10629.202
951.92163	10552.202
952.51324	10713.202
953.10492	10672.202
953.69659	10931.202
954.28827	10803.202
954.8869	10954.202
955.47852	11252.202
956.07019	10869.202
956.66187	11069.202
957.25354	11005.202
957.85211	11081.202
958.44379	11101.202
959.03546	10974.202
959.62714	11285.202
960.21881	11175.202
960.81042	11142.202
961.4021	11245.202
961.99377	11294.202
962.58545	11303.202
963.17712	11131.202
963.76874	11279.202
964.36041	11267.202
964.95905	11358.202
965.55072	11454.202
966.13544	11457.202
966.72705	11572.202
967.32568	11373.202
967.91736	11474.202
968.50903	11511.202
969.09369	11576.202
969.68536	11592.202
970.284	11619.202
970.86871	11629.202
971.46039	11599.202
972.052	11586.202
972.64368	11735.202
973.23535	11674.202
973.82703	11791.202
974.4187	11782.202
975.01031	11772.202
975.60199	11943.202
976.19366	11776.202
976.77838	11968.202
977.37	11803.202
977.96167	11905.202
978.55334	11816.202
979.14502	11863.202
979.73669	11978.202
980.32135	11949.202
980.91302	12036.202
981.5047	11981.202
982.09637	12121.202
982.68805	12026.202
983.27271	12009.202
983.86438	11985.202
984.45605	12031.202
985.04773	11995.202
985.63934	11976.202
986.22406	12144.202
986.81573	12000.202
987.40741	12238.202
987.99908	12068.202
988.58374	12091.202
989.17542	12186.202
989.76013	12238.202
990.35181	12139.202
990.94342	12203.202
991.5351	12205.202
992.11981	12295.202
992.71149	12255.202
993.29614	12316.202
993.88782	12316.202
994.47949	12202.202
995.06421	12315.202
995.65588	12204.202
996.2475	12201.202
996.83221	12288.202
997.42389	12321.202
998.00861	12228.202
998.60022	12274.202
999.18494	12312.202
999.77661	12347.202
1000.3613	12243.202
1000.953	12273.202
1001.5377	12363.202
1002.1293	12347.202
1002.721	12326.202
1003.3057	12260.202
1003.8973	12324.202
1004.4821	12247.202
1005.0668	12355.202
1005.6584	12300.202
1006.2431	12297.202
1006.8348	12295.202
1007.4195	12101.202
1008.0112	12249.202
1008.5958	12322.202
1009.1875	12264.202
1009.7722	12286.202
1010.3569	12213.202
1010.9486	12253.202
1011.5333	12178.202
1012.1249	12313.202
1012.7097	12192.202
1013.2944	12203.202
1013.886	12260.202
1014.4707	12170.202
1015.0554	12207.202
1015.6401	12174.202
1016.2318	12183.202
1016.8165	12160.202
1017.4012	12256.202
1017.9929	12271.202
1018.5775	12014.202
1019.1622	12223.202
1019.7539	12119.202
1020.3386	12042.202
1020.9233	12174.202
1021.508	12013.202
1022.0927	12067.202
1022.6844	12002.202
1023.269	12076.202
1023.8538	12086.202
1024.4385	12057.202
1025.0302	12035.202
1025.6149	11943.202
1026.1996	12003.202
1026.7842	12009.202
1027.3689	11959.202
1027.9536	11964.202
1028.5383	11977.202
1029.123	11912.202
1029.7147	11956.202
1030.2994	11763.202
1030.8842	11852.202
1031.4688	11769.202
1032.0535	11723.202
1032.6382	11665.202
1033.2229	11753.202
1033.8076	11754.202
1034.3923	11638.202
1034.9771	11717.202
1035.5687	11752.202
1036.1533	11619.202
1036.738	11650.202
1037.3228	11715.202
1037.9005	11607.202
1038.4852	11593.202
1039.0699	11602.202
1039.6547	11491.202
1040.2394	11467.202
1040.824	11521.202
1041.4087	11527.202
1041.9934	11419.202
1042.5781	11402.202
1043.1628	11363.202
1043.7476	11428.202
1044.3323	11279.202
1044.917	11293.202
1045.5016	11331.202
1046.0863	11354.202
1046.6641	11280.202
1047.2488	11246.202
1047.8335	11243.202
1048.4182	11262.202
1049.0029	11243.202
1049.5875	11195.202
1050.1722	11173.202
1050.75	11158.202
1051.3347	11095.202
1051.9194	10986.202
1052.5042	11022.202
1053.0889	11097.202
1053.6666	11082.202
1054.2512	10847.202
1054.8359	10997.202
1055.4207	10889.202
1055.9984	11047.202
1056.5831	10959.202
1057.1678	10946.202
1057.7526	10959.202
1058.3302	10846.202
1058.9149	10897.202
1059.4996	10748.202
1060.0774	10938.202
1060.6621	10636.202
1061.2468	10745.202
1061.8246	10784.202
1062.4093	10642.202
1062.9939	10619.202
1063.5717	10648.202
1064.1564	10577.202
1064.7411	10559.202
1065.3188	10558.202
1065.9036	10587.202
1066.4883	10522.202
1067.0659	10581.202
1067.6506	10405.202
1068.2284	10527.202
1068.8131	10456.202
1069.3978	10433.202
1069.9756	10418.202
1070.5603	10377.202
1071.1381	10256.202
1071.7227	10345.202
1072.3004	10318.202
1072.8782	10217.202
1073.4629	10205.202
1074.0406	10206.202
1074.6254	10132.202
1075.2031	10121.202
1075.7877	10231.202
1076.3655	10097.202
1076.9502	10145.202
1077.528	10095.202
1078.1127	9981.2021
1078.6904	10058.202
1079.2751	9982.2021
1079.8528	10007.202
1080.4305	10020.202
1081.0153	9854.2021
1081.593	9952.2021
1082.1777	9790.2021
1082.7555	9914.2021
1083.3333	9752.2021
1083.9178	9904.2021
1084.4956	9766.2021
1085.0734	9711.2021
1085.6581	9755.2021
1086.2358	9792.2021
1086.8136	9692.2021
1087.3914	9665.2021
1087.976	9597.2021
1088.5537	9632.2021
1089.1315	9588.2021
1089.7162	9562.2021
1090.2939	9498.2021
1090.8717	9583.2021
1091.4495	9473.2021
1092.0341	9485.2021
1092.6118	9428.2021
1093.1896	9401.2021
1093.7673	9374.2021
1094.3521	9347.2021
1094.9298	9329.2021
1095.5076	9296.2021
1096.0852	9364.2021
1096.663	9284.2021
1097.2407	9295.2021
1097.8254	9296.2021
1098.4032	9260.2021
1098.981	9194.2021
1099.5587	9113.2021
1100.1364	9160.2021
1100.7141	9167.2021
1101.2919	9147.2021
1101.8696	9041.2021
1102.4543	9056.2021
1103.0321	9045.2021
1103.6097	9002.2021
1104.1875	9015.2021
1104.7653	8914.2021
1105.343	8999.2021
1105.9208	8847.2021
1106.4985	8835.2021
1107.0763	8782.2021
1107.6539	8903.2021
1108.2317	8721.2021
1108.8094	8786.2021
1109.3872	8817.2021
1109.965	8773.2021
1110.5427	8766.2021
1111.1205	8680.2021
1111.6981	8700.2021
1112.2759	8606.2021
1112.8536	8706.2021
1113.4314	8587.2021
1114.0022	8553.2021
1114.58	8532.2021
1115.1576	8544.2021
1115.7354	8456.2021
1116.3131	8421.2021
1116.8909	8408.2021
1117.4686	8391.2021
1118.0464	8332.2021
1118.6241	8398.2021
1119.1948	8405.2021
1119.7726	8361.2021
1120.3503	8255.2021
1120.9281	8165.2021
1121.5059	8179.2021
1122.0836	8209.2021
1122.6543	8200.2021
1123.2321	8142.2021
1123.8098	8125.2021
1124.3876	8031.2021
1124.9584	8116.2021
1125.5361	7999.2021
1126.1139	8015.2021
1126.6915	7906.2021
1127.2623	7961.2021
1127.8401	7932.2021
1128.4178	7859.2021
1128.9956	7904.2021
1129.5664	7835.2021
1130.144	7839.2021
1130.7218	7754.2021
1131.2996	7846.2021
1131.8704	7795.2021
1132.4481	7733.2021
1133.0259	7702.2021
1133.5967	7687.2021
1134.1743	7775.2021
1134.7451	7635.2021
1135.3229	7529.2021
1135.9006	7580.2021
1136.4714	7526.2021
1137.0492	7454.2021
1137.6199	7532.2021
1138.1976	7519.2021
1138.7684	7408.2021
1139.3462	7370.2021
1139.924	7412.2021
1140.4948	7393.2021
1141.0724	7365.2021
1141.6432	7361.2021
1142.2209	7177.2021
1142.7917	7259.2021
1143.3695	7241.2021
1143.9403	7241.2021
1143.9542	7245.2021
1144.5389	7149.2021
1145.1235	7113.2021
1145.7013	7036.2021
1146.286	7051.2021
1146.8707	7031.2021
1147.4485	7022.2021
1148.0332	6918.2021
1148.611	6879.2021
1149.1956	6887.2021
1149.7733	6930.2021
1150.358	6898.2021
1150.9358	6901.2021
1151.5205	6824.2021
1152.1052	6708.2021
1152.683	6829.2021
1153.2676	6695.2021
1153.8453	6658.2021
1154.4301	6683.2021
1155.0078	6609.2021
1155.5925	6645.2021
1156.1703	6615.2021
1156.755	6611.2021
1157.3328	6548.2021
1157.9174	6493.2021
1158.4951	6571.2021
1159.0798	6487.2021
1159.6576	6386.2021
1160.2354	6462.2021
1160.8201	6267.2021
1161.3978	6346.2021
1161.9824	6232.2021
1162.5602	6291.2021
1163.1379	6270.2021
1163.7227	6289.2021
1164.3004	6219.2021
1164.8782	6164.2021
1165.4629	6174.2021
1166.0405	6105.2021
1166.6183	6159.2021
1167.203	6121.2021
1167.7808	5971.2021
1168.3585	6017.2021
1168.9432	5977.2021
1169.521	5937.2021
1170.0986	5961.2021
1170.6764	5833.2021
1171.2611	5918.2021
1171.8389	5848.2021
1172.4166	5814.2021
1173.0013	5737.2021
1173.5791	5687.2021
1174.1567	5753.2021
1174.7345	5660.2021
1175.3192	5663.2021
1175.897	5633.2021
1176.4747	5597.2021
1177.0525	5611.2021
1177.6302	5623.2021
1178.2148	5581.2021
1178.7926	5501.2021
1179.3704	5537.2021
1179.9481	5490.2021
1180.5259	5466.2021
1181.1036	5452.2021
1181.6813	5338.2021
1182.259	5348.2021
1182.8438	5273.2021
1183.4215	5359.2021
1183.9993	5319.2021
1184.577	5262.2021
1185.1548	5217.2021
1185.7324	5194.2021
1186.3102	5160.2021
1186.8879	5045.2021
1187.4657	5112.2021
1188.0435	5099.2021
1188.6212	5098.2021
1189.199	4985.2021
1189.7766	4995.2021
1190.3544	5001.2021
1190.9321	4887.2021
1191.5099	4876.2021
1192.0876	4854.2021
1192.6654	4906.2021
1193.2432	4810.2021
1193.8208	4856.2021
1194.3986	4800.2021
1194.9763	4689.2021
1195.5541	4748.2021
1196.1318	4747.2021
1196.7096	4668.2021
1197.2872	4681.2021
1197.865	4629.2021
1198.4427	4591.2021
1199.0135	4557.2021
1199.5913	4465.2021
1200.1691	4533.2021
1200.7468	4518.2021
1201.3245	4469.2021
1201.9022	4526.2021
1202.473	4458.2021
1203.0508	4362.2021
1203.6285	4383.2021
1204.2063	4308.2021
1204.7839	4319.2021
1205.3617	4292.2021
1205.9325	4299.2021
1206.5103	4291.2021
1207.088	4140.2021
1207.6658	4189.2021
1208.2366	4143.2021
1208.8142	4122.2021
1209.392	4058.2019
1209.9697	4117.2021
1210.5475	4055.2019
1211.1183	4050.2019
1211.696	3925.2019
1212.2737	3980.2019
1212.8445	3942.2019
1213.4222	3927.2019
1214	3904.2019
1214.5708	3884.2019
1215.1486	3834.2019
1215.7262	3844.2019
1216.297	3794.2019
1216.8748	3767.2019
1217.4456	3774.2019
1218.0233	3732.2019
1218.6011	3747.2019
1219.1719	3717.2019
1219.7495	3649.2019
1220.3273	3696.2019
1220.8981	3656.2019
1221.4758	3541.2019
1222.0466	3631.2019
1222.6244	3566.2019
1223.1951	3497.2019
1223.7728	3481.2019
1224.3436	3503.2019
1224.9214	3483.2019
1225.4991	3474.2019
1226.0699	3431.2019
1226.6476	3465.2019
1227.2184	3357.2019
1227.7961	3391.2019
1228.3669	3346.2019
1228.9377	3301.2019
1229.5155	3293.2019
1230.0933	3318.2019
1230.6639	3297.2019
1231.2347	3261.2019
1231.8125	3281.2019
1232.3833	3238.2019
1232.9611	3216.2019
1233.5319	3163.2019
1234.1025	3201.2019
1234.6803	3212.2019
1235.2511	3106.2019
1235.8219	3178.2019
1236.3997	3145.2019
1236.9705	3093.2019
1237.5481	3136.2019
1238.1189	3071.2019
1238.6897	3102.2019
1239.2675	3137.2019
1239.8383	3081.2019
1240.4091	3085.2019
1240.9797	3122.2019
1241.5575	2970.2019
1242.1283	3058.2019
1242.6991	3013.2019
1243.2699	2990.2019
1243.8477	2959.2019
1244.4183	3000.2019
1244.9891	3021.2019
1245.5669	3004.2019
1246.1377	2978.2019
1246.7085	2968.2019
1247.2793	2942.2019
1247.85	2955.2019
1248.4277	2942.2019
1248.9985	2971.2019
1249.5693	2903.2019
1250.1401	2925.2019
1250.7109	2924.2019
1251.2816	2900.2019
1251.8594	2913.2019
1252.4302	2952.2019
1253.001	2895.2019
1253.5718	2897.2019
1254.1426	2934.2019
1254.7133	2874.2019
1255.291	2872.2019
1255.8618	2839.2019
1256.4326	2907.2019
1257.0034	2900.2019
1257.5741	2894.2019
1258.1449	2898.2019
1258.7157	2911.2019
1259.2865	2920.2019
1259.8573	2870.2019
1260.4281	2886.2019
1260.9988	2894.2019
1261.5696	2817.2019
1262.1404	2874.2019
1262.7112	2859.2019
1263.282	2862.2019
1263.8528	2825.2019
1264.4235	2818.2019
1264.9943	2878.2019
1265.5651	2883.2019
1266.1359	2790.2019
1266.7067	2855.2019
1267.2775	2874.2019
1267.8481	2822.2019
1268.4189	2869.2019
1268.9897	2782.2019
1269.5536	2854.2019
1270.1244	2852.2019
1270.6952	2841.2019
1271.2659	2822.2019
1271.8367	2816.2019
1272.4075	2861.2019
1272.9783	2784.2019
1273.5491	2835.2019
1274.1128	2804.2019
1274.6836	2798.2019
1275.2544	2770.2019
1275.8252	2775.2019
1276.396	2773.2019
1276.9668	2789.2019
1277.5305	2839.2019
1278.1013	2802.2019
1278.6721	2767.2019
1279.2429	2816.2019
1279.8068	2834.2019
1280.3776	2810.2019
1280.9482	2822.2019
1281.519	2785.2019
1282.0829	2769.2019
1282.6537	2786.2019
1283.2245	2811.2019
1283.7882	2803.2019
1284.359	2832.2019
1284.9298	2793.2019
1285.5006	2829.2019
1286.0645	2763.2019
1286.6353	2800.2019
1287.2059	2806.2019
1287.7698	2720.2019
1288.3406	2795.2019
1288.9044	2761.2019
1289.4752	2761.2019
1290.0459	2787.2019
1290.6097	2790.2019
1291.1805	2784.2019
1291.7513	2759.2019
1292.3152	2767.2019
1292.886	2794.2019
1293.4497	2791.2019
1294.0205	2829.2019
1294.5844	2787.2019
1295.1552	2760.2019
1295.719	2790.2019
1296.2897	2787.2019
1296.8535	2782.2019
1297.4243	2793.2019
1297.9882	2793.2019
1298.559	2817.2019
1299.1298	2772.2019
1299.6935	2753.2019
1300.2643	2727.2019
1300.8281	2794.2019
1301.3989	2776.2019
1301.9628	2775.2019
1302.5265	2766.2019
1303.0973	2761.2019
1303.6611	2816.2019
1304.2319	2790.2019
1304.7958	2743.2019
1305.3596	2745.2019
1305.9303	2766.2019
1306.4941	2766.2019
1307.0649	2761.2019
1307.6288	2743.2019
1308.1926	2832.2019
1308.7633	2793.2019
1309.3271	2768.2019
1309.891	2771.2019
1310.4618	2807.2019
1311.0256	2766.2019
1311.5894	2766.2019
1312.1602	2781.2019
1312.724	2768.2019
1313.2878	2767.2019
1313.8517	2736.2019
1314.4225	2776.2019
1314.9862	2753.2019
1315.55	2688.2019
1316.1208	2753.2019
1316.6847	2787.2019
1317.2485	2734.2019
1317.8123	2715.2019
1318.3761	2845.2019
1318.9469	2775.2019
1319.5107	2783.2019
1320.0746	2745.2019
1320.6383	2732.2019
1321.2091	2749.2019
1321.7729	2767.2019
1322.3368	2736.2019
1322.9006	2780.2019
1323.4644	2782.2019
1324.0282	2783.2019
1324.599	2794.2019
1325.1628	2807.2019
1325.7267	2761.2019
1326.2905	2749.2019
1326.8542	2755.2019
1327.4181	2776.2019
1327.9819	2782.2019
1328.5458	2775.2019
1329.1096	2708.2019
1329.6803	2750.2019
1330.2441	2804.2019
1330.808	2784.2019
1331.3718	2773.2019
1331.9357	2715.2019
1332.4994	2753.2019
1333.0632	2739.2019
1333.6271	2787.2019
1334.1909	2727.2019
1334.7548	2801.2019
1335.3185	2739.2019
1335.8823	2765.2019
1336.4462	2711.2019
1337.01	2773.2019
1337.5739	2781.2019
1338.1376	2791.2019
1338.7014	2768.2019
1339.2583	2785.2019
1339.8221	2775.2019
1340.386	2759.2019
1340.9497	2794.2019
1341.5135	2808.2019
1342.0774	2776.2019
1342.6412	2779.2019
1343.2051	2767.2019
1343.7689	2772.2019
1344.3257	2769.2019
1344.8895	2743.2019
1345.4534	2769.2019
1346.0172	2778.2019
1346.5811	2801.2019
1347.1448	2775.2019
1347.7017	2798.2019
1348.2655	2813.2019
1348.8293	2783.2019
1349.3932	2759.2019
1349.9569	2812.2019
1350.5138	2784.2019
1351.0776	2786.2019
1351.6415	2780.2019
1352.2053	2752.2019
1352.7621	2758.2019
1353.3259	2780.2019
1353.8898	2738.2019
1354.4536	2775.2019
1355.0105	2791.2019
1355.5742	2733.2019
1356.1381	2818.2019
1356.6949	2819.2019
1357.2588	2816.2019
1357.8226	2733.2019
1358.3794	2748.2019
1358.9432	2767.2019
1359.5071	2784.2019
1360.064	2784.2019
1360.6277	2812.2019
1361.1915	2767.2019
1361.7484	2836.2019
1362.3123	2731.2019
1362.8761	2807.2019
1363.4329	2726.2019
1363.9897	2730.2019
1364.5536	2821.2019
1365.1174	2772.2019
1365.6743	2813.2019
1366.238	2785.2019
1366.7949	2757.2019
1367.3588	2779.2019
1367.9156	2759.2019
1368.4795	2793.2019
1369.0432	2786.2019
1369.6001	2762.2019
1370.157	2820.2019
1370.7208	2795.2019
1371.2847	2811.2019
1371.8414	2762.2019
1372.4053	2771.2019
1372.9622	2767.2019
1373.519	2830.2019
1374.0829	2830.2019
1374.6396	2810.2019
1375.2035	2770.2019
1375.7604	2858.2019
1376.3242	2788.2019
1376.8811	2814.2019
1377.4379	2817.2019
1378.0017	2765.2019
1378.5586	2830.2019
1379.1224	2839.2019
1379.6792	2789.2019
1380.2361	2817.2019
1380.793	2766.2019
1381.3568	2791.2019
1381.9137	2777.2019
1382.4774	2789.2019
1383.0343	2829.2019
1383.5912	2816.2019
1384.155	2819.2019
1384.7119	2765.2019
1385.2687	2814.2019
1385.8256	2819.2019
1386.3894	2813.2019
1386.9463	2807.2019
1387.5032	2787.2019
1388.0599	2782.2019
1388.6238	2809.2019
1389.1807	2805.2019
1389.7375	2813.2019
1390.2943	2782.2019
1390.8582	2817.2019
1391.415	2789.2019
1391.9719	2826.2019
1392.5288	2795.2019
1393.0856	2789.2019
1393.6494	2763.2019
1394.2063	2846.2019
1394.7632	2775.2019
1395.3201	2830.2019
1395.8768	2819.2019
1396.4337	2845.2019
1396.9976	2813.2019
1397.5544	2830.2019
1398.1113	2801.2019
1398.6681	2859.2019
1399.225	2775.2019
1399.7888	2751.2019
