6.6765881	20524.768
7.3460598	20144.768
8.0296249	19589.768
8.7061443	19002.768
9.3826628	17924.768
10.059181	17239.768
10.7357	16543.768
11.412218	16035.768
12.088737	15582.768
12.765256	15403.768
13.441774	14818.768
14.12534	14571.768
14.801858	14407.768
15.478377	14000.768
16.154896	13805.768
16.831413	13580.768
17.507933	13512.768
18.184452	13539.768
18.86097	13487.768
19.537489	13623.768
20.214006	13514.768
20.890526	13424.768
21.567045	13522.768
22.243563	13432.768
22.920082	13709.768
23.5966	13986.768
24.273119	14199.768
24.949638	14599.768
25.626156	14983.768
26.302675	15400.768
26.972147	15387.768
27.648664	15495.768
28.325184	15571.768
29.001701	15584.768
29.678221	15425.768
30.35474	15604.768
31.031258	15697.768
31.707777	16043.768
32.384296	16427.768
33.053768	16825.768
33.730286	17209.768
34.406803	17710.768
35.083321	18507.768
35.752792	19024.768
36.429314	19351.768
37.105831	19413.768
37.782349	19708.768
38.45182	19687.768
39.128342	19683.768
39.804859	20311.768
40.481377	20616.768
41.157894	21105.768
41.827366	21755.768
42.503887	22331.768
43.180405	22892.768
43.849876	23198.768
44.526394	23278.768
45.195866	23100.768
45.872383	23499.768
46.548904	24244.768
47.218376	24837.768
47.894894	25333.768
48.571411	25939.768
49.240883	26011.768
49.9174	26421.768
50.586872	26399.768
51.263393	26720.768
51.932865	27027.768
52.609383	27188.768
53.278854	27499.768
53.955372	27514.768
54.631889	27893.768
55.301361	28064.768
55.977882	28543.768
56.647354	28763.768
57.323872	29139.768
57.993343	30225.768
58.669861	30815.768
59.339333	31740.768
60.008804	31815.768
60.685322	31476.768
61.354794	31113.768
62.031315	30739.768
62.700787	30836.768
63.377304	31138.768
64.046776	31479.768
64.716248	32039.768
65.392769	32303.768
66.062233	32675.768
66.731705	32693.768
67.408226	32859.766
68.077698	32987.766
68.754219	32973.766
69.423691	33050.766
70.093163	33323.766
70.762634	33650.766
71.439148	34128.766
72.10862	34221.766
72.778091	34154.766
73.447563	34250.766
74.124084	34402.766
74.793556	35008.766
75.463028	35560.766
76.1325	35633.766
76.801971	35697.766
77.478485	35722.766
78.147957	34723.766
78.817429	34434.766
79.4869	34542.766
80.163422	34509.766
80.832893	34921.766
81.502365	35250.766
82.171837	35756.766
82.841309	35618.766
83.51078	36079.766
84.180252	35847.766
84.849724	35321.766
85.526237	35028.766
86.195709	35271.766
86.865181	35362.766
87.534653	35185.766
88.204124	35403.766
88.873596	35349.766
89.543068	35731.766
90.21254	36047.766
90.882011	36353.766
91.551483	36413.766
92.220955	36300.766
92.890427	35998.766
93.559898	36006.766
94.22937	36000.766
94.898842	35945.766
95.568314	35896.766
96.237785	35660.766
96.900208	35832.766
97.569679	35927.766
98.239151	35918.766
98.908623	36149.766
99.578094	35951.766
100.24757	35776.766
100.91704	35587.766
101.58651	35527.766
102.24893	35456.766
102.9184	35545.766
103.58788	35544.766
104.25735	35775.766
104.92682	35737.766
105.59629	36002.766
106.25872	36434.766
106.92819	36359.766
107.59766	36039.766
108.26713	35888.766
108.9366	35406.766
109.59903	35363.766
110.2685	35495.766
110.93797	35279.766
111.6004	35385.766
112.26987	35285.766
112.93934	35357.766
113.60881	35536.766
114.27123	35547.766
114.9407	35492.766
115.60313	35884.766
116.2726	35881.766
116.94207	35677.766
117.61154	35303.766
118.27397	35087.766
118.94344	34850.766
119.60587	35063.766
120.27534	34905.766
120.93776	35064.766
121.60723	35048.766
122.2767	35081.766
122.93913	35278.766
123.6086	35004.766
124.27103	34778.766
124.9405	34425.766
125.60292	34341.766
126.27239	34389.766
126.93481	34323.766
127.60429	34390.766
128.26671	34421.766
128.93619	34559.766
129.5986	34517.766
130.26808	34441.766
130.93051	34474.766
131.59998	34300.766
132.26241	34052.766
132.92482	33969.766
133.5943	33887.766
134.25671	33762.766
134.92619	33727.766
135.58862	33671.766
136.25104	33700.766
136.92052	33817.766
137.58293	33786.766
138.25241	33793.766
138.91484	33899.766
139.57726	33855.766
140.23969	33510.766
140.90915	33508.766
141.57158	33370.766
142.23401	33330.766
142.90347	33171.766
143.5659	33236.766
144.22832	33231.766
144.8978	33032.766
145.56023	33195.766
146.22264	32968.766
146.88507	32927.766
147.5475	32942.766
148.21696	32674.768
148.87939	32738.768
149.54181	32681.768
150.20424	32655.768
150.86667	32660.768
151.52908	32607.768
152.19856	32584.768
152.86098	32405.768
153.52341	32583.768
154.18584	32428.768
154.84825	32286.768
155.51068	32229.768
156.17311	32088.768
156.83553	32191.768
157.49796	32037.768
158.16039	32075.768
158.82985	31824.768
159.49228	31961.768
160.15469	31883.768
160.81712	31663.768
161.47955	31915.768
162.14197	31604.768
162.8044	31870.768
163.46683	31583.768
164.12924	31529.768
164.78462	31352.768
165.4541	31196.768
166.11652	31255.768
166.77895	30920.768
167.43433	31157.768
168.09674	31393.768
168.75917	31253.768
169.4216	31247.768
170.08401	31112.768
170.74644	31025.768
171.40887	31121.768
172.07129	30751.768
172.73372	30875.768
173.3891	30788.768
174.05151	30942.768
174.71394	30649.768
175.37637	30538.768
176.03879	30673.768
176.70122	30706.768
177.3566	30458.768
178.01901	30402.768
178.68144	30395.768
179.34387	30609.768
179.99925	30372.768
180.66167	30370.768
181.3241	30258.768
181.97948	30334.768
182.64189	30159.768
183.30432	30062.768
183.96675	29909.768
184.62212	30087.768
185.28455	29962.768
185.94698	29988.768
186.60236	29673.768
187.26477	29876.768
187.9272	29788.768
188.58258	29661.768
189.245	29640.768
189.90742	29760.768
190.56281	29676.768
191.22522	29508.768
191.8806	29388.768
192.54303	29428.768
193.20544	29526.768
193.86082	29401.768
194.5162	29349.768
195.17863	29147.768
195.84105	29197.768
196.49643	29263.768
197.15886	29283.768
197.81424	29109.768
198.47665	29229.768
199.13203	29156.768
199.79446	28971.768
200.44984	28964.768
201.11226	28985.768
201.76764	29055.768
202.43007	29039.768
203.08545	28695.768
203.74081	28904.768
204.40324	28786.768
205.05862	28751.768
205.72104	28717.768
206.37642	28599.768
207.0318	28655.768
207.69423	28652.768
208.34961	28449.768
209.00497	28507.768
209.6674	28453.768
210.32278	28481.768
210.9852	28330.768
211.64058	28410.768
212.29596	28314.768
212.95134	28210.768
213.61377	28119.768
214.26913	28255.768
214.92451	28154.768
215.5799	28248.768
216.23528	28268.768
216.89769	28114.768
217.55307	28177.768
218.20845	28028.768
218.86383	28116.768
219.52626	27768.768
220.18163	27823.768
220.83701	27819.768
221.49239	27767.768
222.14777	27749.768
222.81018	27983.768
223.46556	27649.768
224.12094	27621.768
224.77632	27799.768
225.4317	27957.768
226.08708	27711.768
226.74245	27697.768
227.39783	27671.768
228.05321	27608.768
228.71564	27543.768
229.371	27548.768
230.02638	27649.768
230.68176	27421.768
231.33714	27237.768
231.99252	27541.768
232.6479	27442.768
233.30327	27489.768
233.95865	27256.768
234.61403	27411.768
235.26941	27415.768
235.92479	27291.768
236.58015	27176.768
237.22849	27112.768
237.89091	27027.768
238.53925	27312.768
239.19463	27109.768
239.85001	27090.768
240.50537	26937.768
241.16075	26833.768
241.81613	26873.768
242.47151	26980.768
243.12689	26889.768
243.78226	26819.768
244.43059	26932.768
245.08597	26756.768
245.74135	26676.768
246.39673	26651.768
247.05211	26635.768
247.70044	26601.768
248.35582	26759.768
249.01118	26695.768
249.66656	26556.768
250.32195	26515.768
250.97028	26543.768
251.62566	26423.768
252.28104	26622.768
252.9364	26471.768
253.58473	26336.768
254.24011	26391.768
254.89549	26424.768
255.55087	26423.768
256.19919	26301.768
256.85458	26256.768
257.5029	26247.768
258.15829	26405.768
258.81366	26203.768
259.46201	26247.768
260.11737	26241.768
260.77274	26066.768
261.42108	26097.768
262.07645	26103.768
262.72479	26187.768
263.38016	26130.768
264.03555	26231.768
264.68387	25941.768
265.33923	25909.768
265.98758	26023.768
266.64294	25947.768
267.29129	25974.768
267.94666	25831.768
268.595	25991.768
269.25037	25973.768
269.89871	25935.768
270.55408	25695.768
271.20242	25767.768
271.85074	25704.768
272.5061	25843.768
273.1615	25617.768
273.80981	25841.768
274.45816	25682.768
275.11353	25619.768
275.76187	25683.768
276.41724	25677.768
277.06558	25600.768
277.7139	25827.768
278.36929	25717.768
279.01761	25451.768
279.66592	25665.768
280.32132	25553.768
280.96964	25451.768
281.62503	25509.768
282.27335	25609.768
282.92169	25451.768
283.57001	25351.768
284.2254	25319.768
284.87372	25309.768
285.52206	25479.768
286.17038	25351.768
286.82578	25389.768
287.47409	25314.768
288.12244	25127.768
288.77075	25240.768
289.42612	25123.768
290.07446	25306.768
290.72278	25159.768
291.37112	25215.768
292.01944	25116.768
292.67484	25223.768
293.32315	25334.768
293.9715	25079.768
294.61981	25165.768
295.26816	25202.768
295.91647	24955.768
296.56482	25071.768
297.21313	25123.768
297.86148	24908.768
298.51685	24880.768
299.16519	24871.768
299.81351	25017.768
300.46185	24849.768
301.11017	25050.768
301.75851	24917.768
302.40683	24944.768
303.05515	24880.768
303.70349	24919.768
304.35181	24823.768
305.00015	24822.768
305.64847	24806.768
306.29681	24724.768
306.94513	24745.768
307.59348	24752.768
308.24179	24743.768
308.88309	24791.768
309.53845	24597.768
310.1868	24865.768
310.82806	24762.768
311.47641	24809.768
312.12473	24681.768
312.77307	24411.768
313.42139	24761.768
314.06973	24533.768
314.711	24853.768
315.36639	24576.768
316.00766	24650.768
316.65601	24647.768
317.30432	24657.768
317.95267	24577.768
318.60098	24487.768
319.24228	24628.768
319.89059	24681.768
320.53894	24477.768
321.18726	24371.768
321.82855	24447.768
322.47687	24486.768
323.12521	24379.768
323.77353	24357.768
324.41483	24546.768
325.06317	24616.768
325.71149	24540.768
326.35278	24414.768
327.0011	24555.768
327.64944	24378.768
328.29071	24343.768
328.93906	24397.768
329.58737	24329.768
330.23572	24255.768
330.87698	24307.768
331.52533	24391.768
332.1666	24337.768
332.81494	24477.768
333.45621	24360.768
334.10455	24417.768
334.74582	24383.768
335.39417	24411.768
336.04248	24104.768
336.68378	24185.768
337.33209	24272.768
337.97339	24255.768
338.6217	24472.768
339.263	24399.768
339.91132	24260.768
340.55261	24329.768
341.20096	24252.768
341.84222	24237.768
342.49057	24351.768
343.13184	24323.768
343.77313	24211.768
344.42145	24222.768
345.06979	24455.768
345.71106	24336.768
346.35236	24162.768
347.00067	24308.768
347.64197	24295.768
348.28323	24510.768
348.93158	24227.768
349.57288	24192.768
350.21414	24364.768
350.86249	24247.768
351.50375	24114.768
352.14505	24406.768
352.79337	24370.768
353.43466	24174.768
354.08298	24288.768
354.72427	24104.768
355.36554	24246.768
356.00684	24013.768
356.65515	24257.768
357.29645	24068.768
357.93774	24274.768
358.57901	24112.768
359.22031	24225.768
359.86862	24152.768
360.50992	24273.768
361.15118	24240.768
361.79248	24482.768
362.43378	24421.768
363.08209	24125.768
363.72339	24204.768
364.36465	24340.768
365.00595	24171.768
365.64722	24221.768
366.28851	24002.768
366.92978	24218.768
367.57108	24292.768
368.21237	24141.768
368.86069	24253.768
369.50198	24027.768
370.14325	24334.768
370.78455	24188.768
371.42581	24345.768
372.06711	24404.768
372.70837	24280.768
373.34967	24379.768
373.99097	24189.768
374.63223	24323.768
375.27353	24143.768
375.91479	24177.768
376.55609	24417.768
377.19736	24153.768
377.83865	24174.768
378.47995	24275.768
379.12122	24274.768
379.76251	24231.768
380.40378	24274.768
381.04507	24336.768
381.68634	24150.768
382.32764	24279.768
382.96188	24139.768
383.60315	24373.768
384.24445	24256.768
384.88571	24249.768
385.52701	24297.768
386.1683	24356.768
386.80252	24283.768
387.44382	24117.768
388.08508	24298.768
388.72638	24146.768
389.36765	24280.768
390.00189	24254.768
390.64319	24247.768
391.28445	24417.768
391.92575	24290.768
392.56702	24448.768
393.20126	24330.768
393.84256	24170.768
394.48383	24347.768
395.12512	24502.768
395.75934	24378.768
396.40063	24284.768
397.03488	24434.768
397.67615	24433.768
398.31744	24309.768
398.95871	24622.768
399.59296	24583.768
400.23425	24425.768
400.86847	24356.768
401.50977	24435.768
402.15103	24696.768
402.78528	24602.768
403.42657	24525.768
404.06079	24617.768
404.70209	24488.768
405.34335	24602.768
405.9776	24716.768
406.6189	24687.768
407.25311	24668.768
407.89441	24788.768
408.53568	24704.768
409.16992	24760.768
409.80417	24718.768
410.44543	24677.768
411.07968	24711.768
411.72095	24841.768
412.35519	24695.768
412.99649	24820.768
413.63071	24800.768
414.272	24830.768
414.90625	24909.768
415.54752	25006.768
416.18176	25017.768
416.81598	24830.768
417.45728	24935.768
418.09152	24858.768
418.73279	24932.768
419.36703	25071.768
420.00128	25095.768
420.64255	24874.768
421.27679	25056.768
421.91101	25136.768
422.55231	25127.768
423.18655	25169.768
423.82077	25239.768
424.46207	25101.768
425.09628	25127.768
425.73053	25261.768
426.37183	25258.768
427.00604	25326.768
427.64029	25391.768
428.27454	25496.768
428.90875	25293.768
429.55005	25283.768
430.1843	25445.768
430.81851	25431.768
431.45276	25416.768
432.08698	25371.768
432.72827	25327.768
433.36252	25607.768
433.99673	25669.768
434.63098	25560.768
435.26523	25572.768
435.89944	25562.768
436.53369	25705.768
437.17499	25552.768
437.8092	25784.768
438.44345	25665.768
439.07767	25589.768
439.71191	25721.768
440.34616	25685.768
440.98038	25726.768
441.61462	25886.768
442.24887	25864.768
442.88309	25880.768
443.51733	25841.768
444.15158	26163.768
444.7858	26145.768
445.42004	25907.768
446.06134	25958.768
446.68851	26083.768
447.32275	25945.768
447.957	26045.768
448.59122	26120.768
449.22546	26161.768
449.85971	26455.768
450.49393	26186.768
451.12817	26232.768
451.76242	26267.768
452.39664	26176.768
453.03088	26416.768
453.6651	26489.768
454.29935	26646.768
454.92654	26370.768
455.56079	26360.768
456.19501	26419.768
456.82925	26365.768
457.46347	26315.768
458.09772	26571.768
458.73196	26631.768
459.35916	26627.768
459.99338	26778.768
460.62762	26812.768
461.25482	26655.768
461.88904	26667.768
462.52328	26744.768
463.1575	26852.768
463.79175	26752.768
464.41895	26878.768
465.05319	26841.768
465.68741	26875.768
466.31461	27005.768
466.94885	26848.768
467.58307	27211.768
468.21732	27158.768
468.84451	27235.768
469.47873	27289.768
470.10593	27227.768
470.74017	27159.768
471.37439	27275.768
472.00159	27332.768
472.63583	27310.768
473.27005	27263.768
473.89725	27330.768
474.53149	27278.768
475.15866	27391.768
475.79291	27416.768
476.4201	27476.768
477.05432	27496.768
477.68857	27531.768
478.31577	27481.768
478.95001	27563.768
479.57718	27555.768
480.21143	27831.768
480.83862	27715.768
481.47284	27879.768
482.10004	27933.768
482.73428	27959.768
483.36145	27911.768
483.9957	28057.768
484.62289	28250.768
485.25009	28060.768
485.88431	28206.768
486.51151	28203.768
487.14575	28303.768
487.77292	28215.768
488.40717	28193.768
489.03436	28469.768
489.66153	28541.768
490.29578	28363.768
490.92297	28592.768
491.55017	28525.768
492.17734	28553.768
492.81158	28576.768
493.43878	28733.768
494.073	28873.768
494.7002	28855.768
495.32739	28816.768
495.95456	28767.768
496.58881	29167.768
497.216	28994.768
497.8432	29082.768
498.47037	29122.768
499.10461	29121.768
499.73181	29319.768
500.35898	29439.768
500.99323	29305.768
501.62042	29683.768
502.24762	29463.768
502.87479	29528.768
503.50198	29645.768
504.12918	29471.768
504.75638	29712.768
505.39059	29567.768
506.01779	29847.768
506.64499	30009.768
507.27216	30079.768
507.89935	30115.768
508.52655	30219.768
509.15375	30350.768
509.78091	30202.768
510.40811	30383.768
511.04236	30339.768
511.66953	30511.768
512.29675	30571.768
512.92389	30731.768
513.55109	30575.768
514.17828	31011.768
514.80548	30999.768
515.43268	30842.768
516.05988	30837.768
516.68707	31068.768
517.31427	31114.768
517.94141	30995.768
518.5686	31304.768
519.1958	31237.768
519.823	31491.768
520.4502	31490.768
521.07739	31635.768
521.69751	31634.768
522.32471	31931.768
522.9519	31949.768
523.5791	32111.768
524.2063	32161.768
524.83344	32400.768
525.46063	32409.768
526.08783	32429.768
526.70801	32602.768
527.33514	32678.768
527.96234	32755.768
528.58954	32820.766
529.21674	32944.766
529.83685	33176.766
530.46405	33194.766
531.09125	33238.766
531.71844	33518.766
532.34564	33525.766
532.97284	33692.766
533.59296	33761.766
534.22015	33838.766
534.84735	34071.766
535.46747	34031.766
536.09467	34144.766
536.72186	34421.766
537.34906	34373.766
537.96918	34518.766
538.59637	34585.766
539.21655	34626.766
539.84369	34854.766
540.47089	34758.766
541.09106	34912.766
541.71826	35125.766
542.3454	35238.766
542.96558	35252.766
543.59277	35333.766
544.21997	35501.766
544.84009	35581.766
545.46729	35622.766
546.0874	35722.766
546.7146	35740.766
547.3418	35823.766
547.96191	35976.766
548.58911	35827.766
549.20929	36146.766
549.83649	36034.766
550.4566	36171.766
551.0838	36204.766
551.70392	36387.766
552.33112	36418.766
552.95129	36356.766
553.57843	36644.766
554.19861	36453.766
554.81873	36445.766
555.44592	36645.766
556.0661	36500.766
556.69324	36556.766
557.31342	36610.766
557.93353	36571.766
558.56073	36528.766
559.18085	36589.766
559.80804	36661.766
560.42822	36674.766
561.04834	36490.766
561.67554	36539.766
562.29565	36501.766
562.91583	36507.766
563.54303	36513.766
564.16315	36371.766
564.78333	36219.766
565.41046	36268.766
566.03064	36314.766
566.65076	36270.766
567.27094	36113.766
567.89807	35926.766
568.51825	35918.766
569.13837	35842.766
569.75854	35605.766
570.38574	35632.766
571.00586	35414.766
571.62598	35449.766
572.24615	35354.766
572.86627	35208.766
573.49347	35065.766
574.11359	34859.766
574.73376	34870.766
575.35388	34799.766
575.97406	34569.766
576.59418	34501.766
577.21429	34412.766
577.84149	34324.766
578.46167	34164.766
579.08179	34028.766
579.70197	33919.766
580.32208	33701.766
580.9422	33431.766
581.56238	33301.766
582.1825	33177.766
582.80267	32996.766
583.42279	32940.766
584.04291	32822.766
584.66309	32688.768
585.2832	32532.768
585.90338	32407.768
586.5235	32046.768
587.14362	32007.768
587.76379	31917.768
588.38391	31775.768
589.00409	31431.768
589.62421	31451.768
590.24438	31293.768
590.8645	31050.768
591.48462	30898.768
592.1048	30778.768
592.72491	30720.768
593.34509	30545.768
593.96521	30396.768
594.58533	30320.768
595.20551	30038.768
595.8186	29954.768
596.43872	29644.768
597.0589	29595.768
597.67902	29502.768
598.29913	29419.768
598.91223	29219.768
599.53241	29097.768
600.15253	28930.768
600.77271	28806.768
601.39282	28718.768
602.01294	28638.768
602.62604	28475.768
603.24622	28144.768
603.86633	28136.768
604.48651	28062.768
605.09955	27844.768
605.71973	27807.768
606.33984	27570.768
606.95294	27507.768
607.57312	27351.768
608.19324	27245.768
608.80634	27307.768
609.42645	27021.768
610.04663	26972.768
610.65973	26757.768
611.27985	26684.768
611.90002	26577.768
612.51312	26504.768
613.13324	26179.768
613.75336	26266.768
614.36646	26169.768
614.98663	25936.768
615.59973	25895.768
616.21985	25800.768
616.83295	25790.768
617.45306	25522.768
618.07324	25356.768
618.68634	25334.768
619.30646	25278.768
619.91956	25070.768
620.53973	25097.768
621.15277	25148.768
621.77295	24989.768
622.38605	24944.768
623.00616	24713.768
623.61926	24668.768
624.23236	24726.768
624.85254	24378.768
625.46558	24353.768
626.08575	24237.768
626.69885	24200.768
627.31897	24169.768
627.93207	24095.768
628.55225	23938.768
629.16534	23810.768
629.77838	23739.768
630.39856	23465.768
631.01166	23488.768
631.62476	23349.768
632.24487	23430.768
632.85797	23172.768
633.47815	23196.768
634.09119	23101.768
634.70428	23064.768
635.31738	22894.768
635.93756	22496.768
636.55066	22351.768
637.16376	22262.768
637.78387	22123.768
638.39697	22228.768
639.01007	22069.768
639.62317	22056.768
640.23627	22037.768
640.85638	21748.768
641.46948	21735.768
642.08258	21751.768
642.69568	21704.768
643.31586	21600.768
643.92896	21606.768
644.54199	21268.768
644.90845	21291.768
645.52863	21170.768
646.14874	20944.768
646.77594	21179.768
647.39606	21058.768
648.02325	20884.768
648.64343	20803.768
649.26355	20615.768
649.89075	20656.768
650.51086	20334.768
651.13104	20363.768
651.75824	20338.768
652.37836	20288.768
652.99847	20230.768
653.62567	20176.768
654.24585	19858.768
654.86597	19930.768
655.48615	19779.768
656.11328	19600.768
656.73346	19744.768
657.35358	19555.768
657.97375	19685.768
658.60095	19470.768
659.22107	19242.768
659.84119	19114.768
660.46136	18985.768
661.08856	19024.768
661.70868	18876.768
662.3288	18842.768
662.94897	18762.768
663.56909	18679.768
664.19629	18550.768
664.81647	18533.768
665.43658	18388.768
666.0567	18156.768
666.67688	18163.768
667.297	18068.768
667.91718	18264.768
668.54431	18060.768
669.15741	17908.768
669.78461	17883.768
670.40479	17781.768
671.0249	17828.768
671.64502	17779.768
672.2652	17639.768
672.88531	17527.768
673.50549	17613.768
674.12561	17388.768
674.74573	17331.768
675.36591	17158.768
675.98602	17300.768
676.6062	17195.768
677.22632	17056.768
677.8465	16918.768
678.46661	16844.768
679.08673	16780.768
679.70691	16840.768
680.32703	16758.768
680.9472	16760.768
681.56732	16511.768
682.18042	16440.768
682.80054	16287.768
683.42072	16254.768
684.04083	16337.768
684.66101	16219.768
685.28113	16260.768
685.90125	16174.768
686.52142	16005.768
687.14154	16040.768
687.76172	15928.768
688.37482	15790.768
688.99493	15780.768
689.61505	15796.768
690.23523	15508.768
690.84833	15537.768
691.46844	15535.768
692.08862	15505.768
692.70874	15505.768
693.32886	15214.768
693.94196	15330.768
694.56213	15253.768
695.18225	15082.768
695.80237	15065.768
696.41547	14981.768
697.03564	14912.768
697.65576	14990.768
698.26886	14909.768
698.88904	14762.768
699.50916	14710.768
700.12225	14598.768
700.74237	14628.768
701.36255	14360.768
701.97565	14510.768
702.59576	14447.768
703.20886	14382.768
703.82898	14405.768
704.44916	14240.768
705.06226	14134.768
705.68237	14147.768
706.30255	14116.768
706.91565	13936.768
707.53577	14039.768
708.14886	13838.768
708.76898	13875.768
709.38208	13766.768
710.00226	13728.768
710.61536	13601.768
711.23547	13605.768
711.84857	13575.768
712.46869	13537.768
713.08179	13378.768
713.70197	13460.768
714.31506	13393.768
714.93518	13337.768
715.54828	13318.768
716.16846	13107.768
716.78149	13084.768
717.40167	13064.768
718.01477	12966.768
718.62787	12910.768
719.24799	12956.768
719.86108	13052.768
720.47418	12818.768
721.0943	12742.768
721.7074	12696.768
722.3205	12707.768
722.94067	12616.768
723.55377	12603.768
724.16687	12527.768
724.78699	12494.768
725.40009	12519.768
726.01318	12358.768
726.6333	12450.768
727.2464	12150.768
727.8595	12194.768
728.47968	12160.768
729.09277	12050.768
729.70587	12154.768
730.31897	12079.768
730.93909	11982.768
731.55219	11902.768
732.16528	11943.768
732.77838	12008.768
733.39148	11624.768
734.0116	11758.768
734.62469	11824.768
735.23779	11538.768
735.85089	11645.768
736.46399	11592.768
737.08411	11502.768
737.6972	11570.768
738.3103	11541.768
738.9234	11252.768
739.5365	11426.768
740.1496	11418.768
740.7627	11375.768
741.38281	11357.768
741.98889	11316.768
742.60901	11254.768
743.22211	11074.768
743.83521	11047.768
744.4483	11103.768
745.0614	11003.768
745.6745	11014.768
746.2876	11023.768
746.9007	10935.768
747.51379	10887.768
748.12689	10883.768
748.73999	10893.768
749.35309	10748.768
749.96619	10785.768
750.57928	10670.768
751.19238	10718.768
751.80548	10687.768
752.41858	10674.768
753.03162	10667.768
753.6377	10601.768
754.25079	10548.768
754.86389	10590.768
755.47699	10513.768
756.09009	10558.768
756.70319	10312.768
757.31628	10418.768
757.92938	10373.768
758.5354	10356.768
759.1485	10372.768
759.7616	10302.768
760.37469	10339.768
760.98779	10132.768
761.60089	10232.768
762.20691	10177.768
762.82001	10229.768
763.43311	10108.768
764.0462	10227.768
764.6593	10124.768
765.26538	10080.768
765.87848	10168.768
766.49152	10014.768
767.10461	10027.768
767.71069	9925.7676
768.32379	10043.768
768.93689	9984.7676
769.54291	9927.7676
770.15601	9975.7676
770.7691	9932.7676
771.37518	9870.7676
771.98828	9962.7676
772.60138	9800.7676
773.2074	9864.7676
773.8205	9832.7676
774.43359	9817.7676
775.03961	9799.7676
775.65271	9806.7676
776.25879	9869.7676
776.87189	9776.7676
777.48499	9804.7676
778.091	9813.7676
778.7041	9809.7676
779.31018	9695.7676
779.92328	9742.7676
780.5293	9710.7676
781.1424	9630.7676
781.75549	9745.7676
782.36157	9712.7676
782.97461	9794.7676
783.58069	9747.7676
784.19379	9672.7676
784.7998	9568.7676
785.4129	9708.7676
786.01898	9752.7676
786.625	9699.7676
787.2381	9714.7676
787.84418	9543.7676
788.45728	9646.7676
789.06329	9598.7676
789.67639	9642.7676
790.28247	9722.7676
790.88849	9668.7676
791.50159	9638.7676
792.10767	9694.7676
792.72076	9624.7676
793.32678	9774.7676
793.93286	9655.7676
794.5459	9597.7676
795.15198	9623.7676
795.76508	9572.7676
796.37109	9617.7676
796.97717	9599.7676
797.59027	9497.7676
798.19629	9602.7676
798.80237	9587.7676
799.40839	9528.7676
800.02148	9614.7676
800.62756	9566.7676
801.23358	9621.7676
801.83966	9514.7676
802.45276	9654.7676
803.05878	9693.7676
803.66486	9729.7676
804.27087	9740.7676
804.87695	9678.7676
805.49005	9640.7676
806.09607	9608.7676
806.70215	9602.7676
807.30817	9582.7676
807.91425	9564.7676
808.52728	9664.7676
809.13336	9554.7676
809.73938	9567.7676
810.34546	9780.7676
810.95148	9697.7676
811.55756	9550.7676
812.16357	9727.7676
812.76965	9613.7676
813.37567	9687.7676
813.98877	9592.7676
814.59485	9598.7676
815.20087	9662.7676
815.80695	9594.7676
816.41296	9643.7676
817.01904	9688.7676
817.62506	9582.7676
818.23114	9658.7676
818.83716	9713.7676
819.44324	9725.7676
820.04926	9627.7676
820.65533	9616.7676
821.26135	9764.7676
821.86743	9635.7676
822.47345	9811.7676
823.07953	9706.7676
823.68555	9654.7676
824.29163	9861.7676
824.89764	9775.7676
825.50372	9809.7676
826.10272	9774.7676
826.70874	9749.7676
827.31482	9827.7676
827.92084	9855.7676
828.52692	9886.7676
829.13293	9845.7676
829.73901	9886.7676
830.34503	9845.7676
830.94403	9794.7676
831.55011	10022.768
832.15613	9890.7676
832.76221	9931.7676
833.36823	10017.768
833.9743	10024.768
834.5733	9993.7676
835.17932	10062.768
835.7854	10096.768
836.39142	10089.768
836.99042	10090.768
837.5965	10219.768
838.20251	10086.768
838.80859	10166.768
839.40759	10228.768
840.01361	10210.768
840.61969	10311.768
841.22571	10313.768
841.82471	10369.768
842.43079	10257.768
843.0368	10355.768
843.6358	10417.768
844.24188	10473.768
844.8479	10435.768
845.4469	10465.768
846.05298	10507.768
846.65198	10650.768
847.258	10561.768
847.86407	10615.768
848.46307	10678.768
849.06909	10779.768
849.67517	10753.768
850.27417	10799.768
850.88019	10996.768
851.47919	10875.768
852.08527	10887.768
852.68427	10954.768
853.29028	11156.768
853.88928	11208.768
854.49536	11224.768
855.09436	11266.768
855.70038	11314.768
856.29938	11371.768
856.90546	11350.768
857.50446	11374.768
858.11047	11543.768
858.70947	11590.768
859.31555	11632.768
859.91455	11719.768
860.52057	11767.768
861.11957	11864.768
861.71857	11886.768
862.32465	11877.768
862.92365	12120.768
863.52966	11978.768
864.12866	12197.768
864.72766	12249.768
865.33374	12404.768
865.93274	12508.768
866.53876	12382.768
867.13776	12439.768
867.73676	12635.768
868.33575	12684.768
868.94183	12815.768
869.54083	12863.768
870.13983	12910.768
870.74591	13046.768
871.34491	13138.768
871.94391	13268.768
872.54291	13294.768
873.14893	13448.768
873.74792	13510.768
874.34692	13465.768
874.953	13491.768
875.552	13824.768
876.151	13846.768
876.75	14063.768
877.349	14032.768
877.95502	14254.768
878.55402	14139.768
879.15302	14358.768
879.75201	14414.768
880.35101	14660.768
880.95001	14777.768
881.54901	14814.768
882.15509	15016.768
882.75409	14926.768
883.35309	15136.768
883.95209	15281.768
884.55109	15342.768
885.15009	15326.768
885.74908	15557.768
886.34808	15672.768
886.94708	15758.768
887.54608	15791.768
888.14508	16104.768
888.74408	16118.768
889.35016	16057.768
889.94208	16326.768
890.54816	16456.768
891.14716	16632.768
891.73907	16756.768
892.34515	16833.768
892.93707	16860.768
893.53607	16967.768
894.13513	17096.768
894.73413	17354.768
895.33313	17390.768
895.93213	17373.768
896.53113	17655.768
897.13013	17618.768
897.72913	17791.768
898.32813	17896.768
898.92712	17998.768
899.52612	18117.768
900.12512	18129.768
900.71704	18253.768
901.31604	18460.768
901.91504	18445.768
902.51404	18551.768
903.1131	18718.768
903.7121	18858.768
904.30402	18948.768
904.90302	19008.768
905.50201	18880.768
906.10101	19124.768
906.70001	19278.768
907.29199	19294.768
907.89099	19382.768
908.48999	19630.768
909.08899	19583.768
909.68799	19678.768
910.27991	19887.768
910.87897	19906.768
911.47797	19792.768
912.06989	20088.768
912.66888	20053.768
913.26788	20186.768
913.86688	20314.768
914.45886	20264.768
915.05786	20422.768
915.65686	20446.768
916.24878	20388.768
916.84778	20513.768
917.43976	20722.768
918.03876	20740.768
918.63776	20662.768
919.22974	20886.768
919.82874	20618.768
920.42773	20947.768
921.01965	20808.768
921.61865	20840.768
922.21063	21007.768
922.80963	21024.768
923.40155	20904.768
924.00061	20891.768
924.59961	21136.768
925.19153	21206.768
925.79053	21258.768
926.38251	21071.768
926.97443	21131.768
927.57343	21162.768
928.17242	21142.768
928.7644	21215.768
929.3634	21087.768
929.95538	21272.768
930.5473	21106.768
931.1463	21091.768
931.73828	21217.768
932.33728	21244.768
932.9292	21159.768
933.5282	20987.768
934.12018	21142.768
934.7121	21011.768
935.3111	21144.768
935.90308	21243.768
936.50208	21013.768
937.09406	21158.768
937.68597	20933.768
938.28497	21015.768
938.87695	21008.768
939.46887	20838.768
940.06787	20742.768
940.65985	20786.768
941.25183	20791.768
941.85083	20727.768
942.44275	20702.768
943.03473	20862.768
943.62665	20569.768
944.22565	20536.768
944.81763	20519.768
945.40955	20509.768
946.00153	20462.768
946.60052	20212.768
947.1925	20302.768
947.78442	20328.768
948.3764	20160.768
948.96832	20108.768
949.56732	20172.768
950.1593	20118.768
950.75128	19947.768
951.3432	19933.768
951.93518	19684.768
952.5271	19604.768
953.1261	19735.768
953.71808	19550.768
954.31	19550.768
954.90198	19414.768
955.49396	19424.768
956.08588	19221.768
956.67786	19196.768
957.26978	19170.768
957.86877	19033.768
958.46075	19027.768
959.04565	18921.768
959.63763	18855.768
960.23663	18787.768
960.82855	18577.768
961.42053	18610.768
962.01245	18373.768
962.60443	18397.768
963.19635	18314.768
963.78833	18276.768
964.38031	17902.768
964.97223	18124.768
965.56421	18028.768
966.15613	17956.768
966.74103	17877.768
967.33301	17670.768
967.92499	17609.768
968.51691	17549.768
969.10889	17459.768
969.70081	17329.768
970.29279	17322.768
970.8847	17118.768
971.47668	17154.768
972.06866	16996.768
972.65356	16746.768
973.24548	16782.768
973.83746	16577.768
974.42938	16733.768
975.02136	16569.768
975.61334	16438.768
976.19824	16348.768
976.79016	16364.768
977.38214	16234.768
977.97406	16136.768
978.56604	16082.768
979.15094	16052.768
979.74292	15881.768
980.33484	15880.768
980.92682	15736.768
981.51874	15613.768
982.10364	15416.768
982.69562	15478.768
983.2876	15415.768
983.87952	15255.768
984.46442	15045.768
985.0564	15065.768
985.6413	14911.768
986.23322	14979.768
986.8252	14825.768
987.41718	14762.768
988.00208	14545.768
988.59399	14635.768
989.17889	14436.768
989.77087	14445.768
990.36285	14430.768
990.94775	14288.768
991.53967	14171.768
992.13165	14059.768
992.71655	13999.768
993.30847	13981.768
993.89343	13831.768
994.48535	13710.768
995.07025	13638.768
995.66223	13699.768
996.24713	13537.768
996.83911	13568.768
997.42401	13438.768
998.01593	13345.768
998.60083	13246.768
999.19281	13212.768
999.78473	13120.768
1000.3697	13077.768
1000.9546	12948.768
1001.5465	12875.768
1002.1314	12808.768
1002.7234	12693.768
1003.3083	12623.768
1003.9003	12627.768
1004.4852	12443.768
1005.0771	12473.768
1005.662	12379.768
1006.2469	12266.768
1006.8389	12241.768
1007.4238	12088.768
1008.0087	12054.768
1008.6006	12000.768
1009.1855	11976.768
1009.7775	11873.768
1010.3624	11808.768
1010.9473	11756.768
1011.5322	11656.768
1012.1241	11588.768
1012.7091	11559.768
1013.294	11452.768
1013.8859	11420.768
1014.4708	11357.768
1015.0558	11364.768
1015.6407	11303.768
1016.2326	11208.768
1016.8175	10969.768
1017.4024	11045.768
1017.9944	10920.768
1018.5793	10950.768
1019.1642	10853.768
1019.7491	10765.768
1020.334	10759.768
1020.9189	10627.768
1021.5109	10665.768
1022.0958	10525.768
1022.6807	10429.768
1023.2656	10374.768
1023.8505	10363.768
1024.4354	10153.768
1025.0273	10182.768
1025.6123	10206.768
1026.1971	10104.768
1026.7821	10000.768
1027.3669	9993.7676
1027.9519	9887.7676
1028.5367	9903.7676
1029.1217	9779.7676
1029.7067	9708.7676
1030.2915	9740.7676
1030.8765	9595.7676
1031.4613	9652.7676
1032.0463	9485.7676
1032.6311	9474.7676
1033.2231	9350.7676
1033.808	9342.7676
1034.3859	9226.7676
1034.9708	9200.7676
1035.5557	9146.7676
1036.1406	9183.7676
1036.7255	9064.7676
1037.3104	8985.7676
1037.8953	8865.7676
1038.4802	8786.7676
1039.0651	8819.7676
1039.65	8769.7676
1040.235	8638.7676
1040.8198	8631.7676
1041.4048	8557.7676
1041.9896	8526.7676
1042.5746	8548.7676
1043.1525	8341.7676
1043.7373	8388.7676
1044.3223	8345.7676
1044.9071	8224.7676
1045.4921	8188.7671
1046.0769	8150.7671
1046.6619	8061.7671
1047.2397	8050.7671
1047.8246	7979.7671
1048.4095	7982.7671
1048.9944	7865.7671
1049.5793	7841.7671
1050.1572	7727.7671
1050.7421	7739.7671
1051.327	7684.7671
1051.9119	7560.7671
1052.4897	7504.7671
1053.0747	7528.7671
1053.6595	7372.7671
1054.2445	7324.7671
1054.8224	7328.7671
1055.4072	7322.7671
1055.9922	7255.7671
1056.577	7162.7671
1057.1549	7128.7671
1057.7399	7069.7671
1058.3247	7046.7671
1058.9026	6929.7671
1059.4875	7023.7671
1060.0724	6936.7671
1060.6503	6812.7671
1061.2352	6730.7671
1061.8131	6806.7671
1062.3979	6671.7671
1062.9829	6665.7671
1063.5608	6634.7671
1064.1456	6528.7671
1064.7235	6447.7671
1065.3083	6419.7671
1065.8933	6368.7671
1066.4712	6273.7671
1067.056	6282.7671
1067.6339	6300.7671
1068.2189	6209.7671
1068.7968	6140.7671
1069.3816	6116.7671
1069.9595	5994.7671
1070.5444	5904.7671
1071.1222	5897.7671
1071.7072	5916.7671
1072.285	5816.7671
1072.8699	5851.7671
1073.4478	5766.7671
1074.0327	5763.7671
1074.6105	5703.7671
1075.1884	5637.7671
1075.7733	5606.7671
1076.3512	5506.7671
1076.9291	5463.7671
1077.5139	5505.7671
1078.0918	5469.7671
1078.6766	5422.7671
1079.2545	5318.7671
1079.8395	5304.7671
1080.4174	5230.7671
1080.9952	5219.7671
1081.573	5172.7671
1082.158	5174.7671
1082.7358	5156.7671
1083.3207	5078.7671
1083.8986	5010.7671
1084.4764	5037.7671
1085.0543	4983.7671
1085.6392	4901.7671
1086.217	4925.7671
1086.7949	4841.7671
1087.3728	4808.7671
1087.9576	4820.7671
1088.5355	4811.7671
1089.1134	4752.7671
1089.6913	4682.7671
1090.2761	4629.7671
1090.854	4723.7671
1091.4319	4588.7671
1092.0098	4594.7671
1092.5876	4541.7671
1093.1655	4529.7671
1093.7504	4536.7671
1094.3282	4389.7671
1094.9061	4445.7671
1095.484	4461.7671
1096.0618	4384.7671
1096.6396	4307.7671
1097.2175	4299.7671
1097.8025	4214.7671
1098.3802	4290.7671
1098.9581	4231.7671
1099.536	4166.7671
1100.1139	4246.7671
1100.6918	4145.7671
1101.2697	4122.7671
1101.8474	4111.7671
1102.4253	4160.7671
1103.0032	4138.7671
1103.5811	4096.7671
1104.1589	4104.7671
1104.7438	4002.7671
1105.3146	4078.7671
1105.8925	4002.7671
1106.4703	4027.7671
1107.0482	3968.7671
1107.6261	3987.7671
1108.2039	4036.7671
1108.7817	3986.7671
1109.3596	3868.7671
1109.9375	3827.7671
1110.5154	3915.7671
1111.0933	3868.7671
1111.671	3866.7671
1112.2489	3874.7671
1112.8268	3823.7671
1113.3976	3765.7671
1113.9755	3791.7671
1114.5533	3771.7671
1115.1312	3762.7671
1115.709	3744.7671
1116.2869	3734.7671
1116.8647	3753.7671
1117.4426	3698.7671
1118.0134	3738.7671
1118.5913	3682.7671
1119.1692	3709.7671
1119.7471	3708.7671
1120.3248	3641.7671
1120.8956	3622.7671
1121.4735	3614.7671
1122.0514	3603.7671
1122.6293	3665.7671
1123.2001	3579.7671
1123.778	3530.7671
1124.3558	3667.7671
1124.9336	3553.7671
1125.5045	3520.7671
1126.0823	3510.7671
1126.6602	3586.7671
1127.238	3479.7671
1127.8088	3482.7671
1128.3867	3485.7671
1128.9575	3446.7671
1129.5354	3448.7671
1130.1133	3480.7671
1130.6912	3458.7671
1131.262	3407.7671
1131.8397	3477.7671
1132.4176	3440.7671
1132.9884	3464.7671
1133.5663	3460.7671
1134.1371	3382.7671
1134.715	3468.7671
1135.2858	3401.7671
1135.8636	3321.7671
1136.3429	3298.7671
1136.9277	3381.7671
1137.5127	3427.7671
1138.0906	3415.7671
1138.6754	3300.7671
1139.2604	3362.7671
1139.8452	3291.7671
1140.4231	3321.7671
1141.0081	3217.7671
1141.5858	3243.7671
1142.1708	3273.7671
1142.7557	3343.7671
1143.3335	3314.7671
1143.9185	3298.7671
1144.5034	3246.7671
1145.0812	3269.7671
1145.6661	3315.7671
1146.244	3279.7671
1146.8289	3382.7671
1147.4067	3209.7671
1147.9917	3306.7671
1148.5765	3222.7671
1149.1544	3256.7671
1149.7394	3263.7671
1150.3171	3198.7671
1150.895	3162.7671
1151.48	3162.7671
1152.0579	3188.7671
1152.6427	3183.7671
1153.2206	3168.7671
1153.8055	3053.7671
1154.3833	3163.7671
1154.9683	3184.7671
1155.5461	3100.7671
1156.131	3149.7671
1156.7089	3139.7671
1157.2938	3185.7671
1157.8717	3143.7671
1158.4495	3111.7671
1159.0344	3134.7671
1159.6123	3165.7671
1160.1971	3099.7671
1160.775	3190.7671
1161.3529	3154.7671
1161.9379	3078.7671
1162.5156	3140.7671
1163.0935	3172.7671
1163.6785	3079.7671
1164.2563	3136.7671
1164.8341	3128.7671
1165.4191	3125.7671
1165.9969	3065.7671
1166.5748	3150.7671
1167.1597	3143.7671
1167.7375	3077.7671
1168.3154	2978.7671
1168.8933	3079.7671
1169.4781	3102.7671
1170.056	3074.7671
1170.6339	3101.7671
1171.2118	3107.7671
1171.7966	3019.7671
1172.3745	3035.7671
1172.9524	3046.7671
1173.5303	3141.7671
1174.1151	3014.7671
1174.693	3128.7671
1175.2709	3082.7671
1175.8488	3038.7671
1176.4266	3031.7671
1177.0044	3090.7671
1177.5823	3023.7671
1178.1602	3026.7671
1178.7451	3095.7671
1179.3229	3043.7671
1179.9008	2997.7671
1180.4786	2955.7671
1181.0565	3035.7671
1181.6344	3036.7671
1182.2123	3047.7671
1182.79	3022.7671
1183.3679	2913.7671
1183.9458	3022.7671
1184.5237	3058.7671
1185.1085	3028.7671
1185.6864	2971.7671
1186.2572	3060.7671
1186.8422	2973.7671
1187.42	2995.7671
1187.9979	3024.7671
1188.5757	2994.7671
1189.1536	2998.7671
1189.7244	2999.7671
1190.3093	3010.7671
1190.8801	2963.7671
1191.458	3011.7671
1192.0428	2998.7671
1192.6136	2941.7671
1193.1915	2934.7671
1193.7694	2947.7671
1194.3473	2991.7671
1194.9252	2969.7671
1195.5031	2927.7671
1196.0808	2945.7671
1196.6587	2992.7671
1197.2366	3043.7671
1197.8074	2990.7671
1198.3853	2992.7671
1198.9631	3026.7671
1199.541	3011.7671
1200.1188	2906.7671
1200.6967	3008.7671
1201.2745	2917.7671
1201.8453	2990.7671
1202.4232	2894.7671
1203.0011	3037.7671
1203.579	2963.7671
1204.1498	3016.7671
1204.7277	3025.7671
1205.3054	2950.7671
1205.8833	2960.7671
1206.4541	3008.7671
1207.032	2973.7671
1207.6099	2991.7671
1208.1877	3007.7671
1208.7656	2948.7671
1209.3364	2970.7671
1209.9143	2996.7671
1210.4851	2917.7671
1211.063	3058.7671
1211.6407	2904.7671
1212.2115	2979.7671
1212.7894	2937.7671
1213.3673	2981.7671
1213.9381	2972.7671
1214.516	2984.7671
1215.0939	2932.7671
1215.6647	2924.7671
1216.2426	2930.7671
1216.8204	2844.7671
1217.3912	2991.7671
1217.969	2888.7671
1218.5399	2922.7671
1219.1177	3012.7671
1219.6956	2922.7671
1220.2664	2932.7671
1220.8372	2919.7671
1221.415	2884.7671
1221.9929	2971.7671
1222.5637	3008.7671
1223.1416	2981.7671
1223.7124	2969.7671
1224.2903	2956.7671
1224.8611	2975.7671
1225.439	2971.7671
1226.0098	2900.7671
1226.5876	2996.7671
1227.1584	2938.7671
1227.7363	2845.7671
1228.3071	2934.7671
1228.885	2921.7671
1229.4558	2897.7671
1230.0266	2890.7671
1230.6045	2933.7671
1231.1753	2999.7671
1231.7532	2956.7671
1232.324	2914.7671
1232.8948	2905.7671
1233.4727	2899.7671
1234.0435	2965.7671
1234.6213	2955.7671
1235.1921	2919.7671
1235.7629	2995.7671
1236.3337	2943.7671
1236.9116	2931.7671
1237.4824	3190.7671
1238.0532	3788.7671
1238.6311	2996.7671
1239.2019	2960.7671
1239.7727	2956.7671
1240.3506	2879.7671
1240.9214	2932.7671
1241.4922	2975.7671
1242.063	2965.7671
1242.6409	2905.7671
1243.2117	2869.7671
1243.7825	2907.7671
1244.3533	2938.7671
1244.9241	2948.7671
1245.502	2891.7671
1246.0728	2915.7671
1246.6436	2987.7671
1247.2144	2984.7671
1247.7852	2962.7671
1248.363	2961.7671
1248.9338	2931.7671
1249.5046	2960.7671
1250.0754	2971.7671
1250.6464	2976.7671
1251.2172	2953.7671
1251.788	2928.7671
1252.3658	2951.7671
1252.9366	2981.7671
1253.5074	2917.7671
1254.0782	2933.7671
1254.649	3009.7671
1255.2198	3011.7671
1255.7906	2891.7671
1256.3615	2928.7671
1256.9323	2969.7671
1257.5031	2987.7671
1258.074	2903.7671
1258.6448	2982.7671
1259.2156	2926.7671
1259.7864	2889.7671
1260.3572	2986.7671
1260.928	2909.7671
1261.5059	2932.7671
1262.0767	2910.7671
1262.6404	2980.7671
1263.2112	2921.7671
1263.7821	2916.7671
1264.3529	2973.7671
1264.9237	2985.7671
1265.4945	2929.7671
1266.0653	2946.7671
1266.6361	2889.7671
1267.2069	2968.7671
1267.7777	2926.7671
1268.3485	2929.7671
1268.9193	2970.7671
1269.4832	3005.7671
1270.054	2965.7671
1270.6248	2921.7671
1271.1956	2996.7671
1271.7664	2974.7671
1272.3372	2929.7671
1272.908	3023.7671
1273.4788	3054.7671
1274.0426	2910.7671
1274.6134	2954.7671
1275.1842	2906.7671
1275.755	2997.7671
1276.3187	2979.7671
1276.8896	2922.7671
1277.4604	2989.7671
1278.0313	3004.7671
1278.6021	2986.7671
1279.1658	2974.7671
1279.7366	3027.7671
1280.3074	2938.7671
1280.8783	2957.7671
1281.442	2961.7671
1282.0128	2961.7671
1282.5836	2964.7671
1283.1473	2968.7671
1283.7183	2998.7671
1284.2891	2993.7671
1284.8528	3017.7671
1285.4236	2978.7671
1285.9873	2857.7671
1286.5582	2929.7671
1287.129	2966.7671
1287.6998	2960.7671
1288.2635	3005.7671
1288.8344	2974.7671
1289.3982	2988.7671
1289.969	3000.7671
1290.5398	2961.7671
1291.1035	2982.7671
1291.6743	2947.7671
1292.2382	2948.7671
1292.809	2995.7671
1293.3727	3068.7671
1293.9435	2988.7671
1294.5143	2945.7671
1295.0781	2965.7671
1295.6489	3103.7671
1296.2126	3021.7671
1296.7834	3054.7671
1297.3473	3032.7671
1297.9181	3045.7671
1298.4818	2993.7671
1299.0526	3049.7671
1299.6163	2967.7671
1300.1802	3053.7671
1300.751	3000.7671
1301.3147	3017.7671
1301.8855	3019.7671
1302.4493	2969.7671
1303.0201	3083.7671
1303.5839	3015.7671
1304.1477	3019.7671
1304.7185	3024.7671
1305.2822	3051.7671
1305.853	3023.7671
1306.4169	2972.7671
1306.9806	3032.7671
1307.5514	3060.7671
1308.1151	3001.7671
1308.679	3027.7671
1309.2498	3028.7671
1309.8135	3062.7671
1310.3773	3007.7671
1310.9481	2981.7671
1311.5118	3018.7671
1312.0756	2993.7671
1312.6394	2989.7671
1313.2102	3057.7671
1313.7739	3044.7671
1314.3378	3068.7671
1314.9086	3008.7671
1315.4723	3036.7671
1316.036	3040.7671
1316.5999	3075.7671
1317.1707	3078.7671
1317.7344	3053.7671
1318.2982	2983.7671
1318.8619	3042.7671
1319.4257	3002.7671
1319.9965	3094.7671
1320.5603	3087.7671
1321.124	3035.7671
1321.6879	3107.7671
1322.2516	3089.7671
1322.8153	3037.7671
1323.3792	2971.7671
1323.95	2961.7671
1324.5137	3055.7671
1325.0774	3020.7671
1325.6412	2979.7671
1326.205	3060.7671
1326.7688	3063.7671
1327.3325	3089.7671
1327.8962	3049.7671
1328.4601	3136.7671
1329.0238	2985.7671
1329.5875	3031.7671
1330.1584	3040.7671
1330.7222	3011.7671
1331.2859	3125.7671
1331.8497	3099.7671
1332.4135	3005.7671
1332.9702	3116.7671
1333.541	3095.7671
1334.1047	3023.7671
1334.6685	3112.7671
1335.2323	3117.7671
1335.796	3085.7671
1336.3599	3061.7671
1336.9165	3104.7671
1337.4803	3157.7671
1338.0441	3097.7671
1338.6078	3007.7671
1339.1716	3088.7671
1339.7354	3045.7671
1340.2991	3066.7671
1340.8629	3043.7671
1341.4266	3128.7671
1341.9905	3064.7671
1342.5542	3087.7671
1343.111	3086.7671
1343.6747	3112.7671
1344.2384	3124.7671
1344.8022	3171.7671
1345.366	3113.7671
1345.9297	3069.7671
1346.4865	3151.7671
1347.0502	3117.7671
1347.614	3105.7671
1348.1777	3084.7671
1348.7415	3069.7671
1349.2982	3115.7671
1349.8619	3061.7671
1350.4258	3060.7671
1350.9895	3082.7671
1351.5463	3096.7671
1352.11	3193.7671
1352.6738	3176.7671
1353.2375	3113.7671
1353.7943	3122.7671
1354.358	3148.7671
1354.9218	3089.7671
1355.4856	3142.7671
1356.0422	3031.7671
1356.6061	3065.7671
1357.1627	3155.7671
1357.7266	3068.7671
1358.2903	3178.7671
1358.854	3093.7671
1359.4108	3058.7671
1359.9745	3132.7671
1360.5313	3161.7671
1361.095	3145.7671
1361.6588	3076.7671
1362.2155	3066.7671
1362.7793	3104.7671
1363.3359	3163.7671
1363.8998	3150.7671
1364.4564	3115.7671
1365.0203	3095.7671
1365.584	3182.7671
1366.1407	3067.7671
1366.7045	3104.7671
1367.2612	3137.7671
1367.825	3197.7671
1368.3817	3145.7671
1368.9454	3164.7671
1369.5022	3172.7671
1370.0659	3057.7671
1370.6227	3096.7671
1371.1864	3141.7671
1371.7432	3075.7671
1372.3069	3155.7671
1372.8636	3102.7671
1373.4274	3140.7671
1373.9841	3215.7671
1374.5479	3067.7671
1375.1046	3101.7671
1375.6613	3152.7671
1376.2251	3146.7671
1376.7817	3071.7671
1377.3385	3177.7671
1377.9022	3114.7671
1378.459	3209.7671
1379.0227	3139.7671
1379.5795	3176.7671
1380.1362	3143.7671
1380.7	3091.7671
1381.2567	3178.7671
1381.8134	3167.7671
1382.3772	3220.7671
1382.9338	3165.7671
1383.4906	3154.7671
1384.0543	3177.7671
1384.6111	3097.7671
1385.1678	3163.7671
1385.7316	3067.7671
1386.2883	3207.7671
1386.845	3169.7671
1387.4017	3152.7671
1387.9585	3156.7671
1388.5222	3167.7671
1389.079	3199.7671
1389.6356	3112.7671
1390.1924	3209.7671
1390.7561	3116.7671
1391.3129	3110.7671
1391.8696	3107.7671
1392.4263	3177.7671
1392.983	3172.7671
1393.5468	3126.7671
1394.1035	3121.7671
1394.6602	3211.7671
1395.2169	3086.7671
1395.7737	3127.7671
1396.3303	3218.7671
1396.8942	3159.7671
1397.4438	3140.7671
1398.0076	3209.7671
1398.5643	3225.7671
1399.121	3199.7671
1399.6777	3169.7671
1400.2415	3121.7671
