17.0039	998.215
17.6805	996.215
18.3571	957.215
19.0336	986.215
19.7123	995.215
20.3887	1003.21
21.0651	992.215
21.7414	982.215
22.4176	986.215
23.0939	1004.21
23.77	1001.21
24.4462	1034.21
25.1222	1054.21
25.7983	1120.21
26.4742	1110.21
27.1502	1131.21
27.8261	1149.21
28.5019	1170.21
29.1777	1161.21
29.8534	1162.21
30.5291	1167.21
31.2048	1171.21
31.8804	1163.21
32.5559	1187.21
33.2314	1240.21
33.9069	1264.21
34.5823	1290.21
35.2577	1336.21
35.933	1425.21
36.6083	1432.21
37.2835	1449.21
37.9587	1519.21
38.6338	1566.21
39.3066	1502.21
39.9817	1540.21
40.6566	1562.21
41.3316	1581.21
42.0065	1631.21
42.6813	1650.21
43.3539	1734.21
44.0286	1774.21
44.7033	1846.21
45.378	1809.21
46.0526	1793.21
46.7249	1857.21
47.3994	1878.21
48.0739	1927.21
48.7483	2007.21
49.4204	2037.21
50.0947	2087.21
50.769	2073.21
51.4433	2134.21
52.1152	2047.21
52.7893	2163.21
53.4634	2225.21
54.1352	2168.21
54.8092	2251.21
55.4831	2223.21
56.1548	2308.21
56.8286	2241.21
57.5024	2297.21
58.1739	2479.21
58.8477	2490.21
59.5213	2513.21
60.1927	2572.21
60.8663	2632.21
61.5375	2594.21
62.211	2544.21
62.8845	2517.21
63.5556	2563.21
64.2289	2466.21
64.8999	2617.21
65.5732	2669.21
66.2441	2613.21
66.9173	2688.21
67.5881	2722.21
68.2612	2808.21
68.9319	2797.21
69.6049	2764.21
70.2755	2772.21
70.9484	2869.21
71.619	2860.21
72.2918	2842.21
72.9622	2901.21
73.6349	2923.21
74.3053	2873.21
74.9756	2911.21
75.6482	2937.21
76.3184	2996.21
76.9909	2999.21
77.661	3032.21
78.3311	2936.21
79.0034	2944.21
79.6734	2950.21
80.3433	2938.21
81.0155	2931.21
81.6854	3063.21
82.3552	3080.21
83.0272	3101.21
83.6969	3076.21
84.3666	3065.21
85.0385	3130.21
85.7081	3041.21
86.3776	3005.21
87.0471	3075.21
87.7188	3121.21
88.3882	3080.21
89.0575	3069.21
89.7268	3076.21
90.3961	3093.21
91.0676	3043.21
91.7367	3155.21
92.4059	3152.21
93.0749	3143.21
93.7439	3097.21
94.4152	3161.21
95.0841	3097.21
95.753	3153.21
96.4218	3121.21
97.0906	3097.21
97.7594	3075.21
98.4281	3137.21
99.0967	3139.21
99.7676	3116.21
100.436	3064.21
101.105	3159.21
101.773	3136.21
102.442	3168.21
103.11	3045.21
103.778	3026.21
104.447	3138.21
105.115	3156.21
105.783	3139.21
106.451	3215.21
107.119	3188.21
107.787	3146.21
108.455	3225.21
109.123	3121.21
109.791	3049.21
110.459	3047.21
111.127	3132.21
111.795	3110.21
112.462	3093.21
113.13	3130.21
113.795	3142.21
114.463	3110.21
115.13	3095.21
115.798	3125.21
116.465	3122.21
117.133	3084.21
117.8	3165.21
118.467	3105.21
119.132	3044.21
119.8	3057.21
120.467	3057.21
121.134	3066.21
121.801	3095.21
122.466	3068.21
123.133	3068.21
123.8	3110.21
124.467	3063.21
125.133	3115.21
125.798	3106.21
126.465	3025.21
127.131	2977.21
127.796	3021.21
128.462	3091.21
129.129	3055.21
129.796	3016.21
130.46	3056.21
131.126	3082.21
131.793	3071.21
132.457	3028.21
133.123	3067.21
133.789	3018.21
134.453	3001.21
135.119	3015.21
135.783	2988.21
136.449	2988.21
137.115	3007.21
137.779	3047.21
138.445	3013.21
139.108	3042.21
139.774	3037.21
140.438	2987.21
141.104	2966.21
141.769	3009.21
142.433	2881.21
143.098	3009.21
143.762	3003.21
144.427	2945.21
145.09	2950.21
145.756	2912.21
146.419	2943.21
147.084	2935.21
147.747	2991.21
148.41	2901.21
149.075	2893.21
149.738	2881.21
150.403	2902.21
151.066	2899.21
151.731	2933.21
152.394	2921.21
153.056	2937.21
153.721	2897.21
154.384	2882.21
155.046	2940.21
155.711	2937.21
156.374	2878.21
157.036	2943.21
157.701	2876.21
158.363	2827.21
159.025	2924.21
159.69	2854.21
160.352	2914.21
161.014	2848.21
161.676	2878.21
162.34	2860.21
163.002	2867.21
163.664	2832.21
164.326	2781.21
164.99	2854.21
165.652	2826.21
166.314	2906.21
166.975	2833.21
167.637	2842.21
168.301	2843.21
168.962	2842.21
169.624	2821.21
170.285	2845.21
170.947	2882.21
171.608	2788.21
172.272	2808.21
172.933	2773.21
173.594	2795.21
174.255	2737.21
174.917	2764.21
175.578	2795.21
176.239	2752.21
176.9	2713.21
177.561	2726.21
178.222	2758.21
178.882	2697.21
179.543	2760.21
180.204	2742.21
180.865	2713.21
181.526	2771.21
182.186	2780.21
182.847	2762.21
183.507	2781.21
184.168	2753.21
184.828	2782.21
185.489	2752.21
186.149	2692.21
186.809	2688.21
187.47	2703.21
188.13	2684.21
188.79	2731.21
189.45	2724.21
190.11	2690.21
190.768	2703.21
191.428	2670.21
192.088	2723.21
192.748	2694.21
193.408	2691.21
194.068	2679.21
194.728	2651.21
195.385	2734.21
196.045	2625.21
196.705	2651.21
197.364	2717.21
198.021	2675.21
198.681	2594.21
199.34	2586.21
200	2690.21
200.657	2635.21
201.316	2619.21
201.976	2651.21
202.635	2630.21
203.292	2559.21
203.951	2654.21
204.61	2596.21
205.267	2616.21
205.926	2599.21
206.585	2585.21
207.242	2630.21
207.9	2615.21
208.559	2597.21
209.216	2613.21
209.875	2551.21
210.533	2633.21
211.19	2618.21
211.848	2578.21
212.505	2567.21
213.163	2611.21
213.819	2608.21
214.478	2587.21
215.134	2591.21
215.792	2553.21
216.451	2611.21
217.107	2566.21
217.765	2580.21
218.421	2569.21
219.079	2569.21
219.735	2531.21
220.391	2568.21
221.049	2529.21
221.704	2567.21
222.362	2526.21
223.018	2569.21
223.675	2540.21
224.331	2526.21
224.989	2512.21
225.644	2580.21
226.3	2542.21
226.957	2552.21
227.612	2461.21
228.268	2541.21
228.925	2512.21
229.58	2553.21
230.235	2541.21
230.893	2505.21
231.548	2552.21
232.203	2511.21
232.86	2543.21
233.515	2449.21
234.17	2572.21
234.827	2458.21
235.481	2497.21
236.136	2489.21
236.791	2481.21
237.448	2514.21
238.102	2497.21
238.757	2488.21
239.411	2490.21
240.066	2491.21
240.722	2443.21
241.377	2456.21
242.031	2544.21
242.685	2433.21
243.339	2419.21
243.993	2492.21
244.648	2458.21
245.304	2485.21
245.958	2452.21
246.612	2427.21
247.266	2409.21
247.92	2480.21
248.574	2437.21
249.227	2479.21
249.881	2430.21
250.535	2430.21
251.189	2513.21
251.842	2426.21
252.496	2484.21
253.149	2471.21
253.803	2482.21
254.456	2462.21
255.11	2444.21
255.763	2429.21
256.416	2441.21
257.07	2433.21
257.723	2433.21
258.376	2475.21
259.029	2406.21
259.682	2455.21
260.335	2437.21
260.988	2457.21
261.641	2427.21
262.294	2407.21
262.947	2432.21
263.598	2462.21
264.251	2436.21
264.903	2375.21
265.556	2379.21
266.209	2406.21
266.861	2367.21
267.512	2406.21
268.164	2371.21
268.817	2416.21
269.469	2417.21
270.121	2431.21
270.772	2346.21
271.424	2426.21
272.076	2428.21
272.728	2373.21
273.378	2412.21
274.03	2372.21
274.682	2395.21
275.332	2351.21
275.984	2335.21
276.636	2375.21
277.288	2360.21
277.938	2383.21
278.59	2360.21
279.239	2389.21
279.891	2394.21
280.542	2346.21
281.192	2277.21
281.843	2399.21
282.495	2377.21
283.144	2361.21
283.796	2340.21
284.445	2357.21
285.096	2348.21
285.745	2369.21
286.397	2380.21
287.048	2417.21
287.697	2325.21
288.348	2341.21
288.997	2339.21
289.648	2324.21
290.297	2364.21
290.948	2372.21
291.596	2320.21
292.247	2242.21
292.896	2351.21
293.544	2309.21
294.195	2345.21
294.844	2352.21
295.494	2308.21
296.143	2330.21
296.793	2308.21
297.441	2305.21
298.09	2299.21
298.74	2297.21
299.388	2214.21
300.036	2303.21
300.687	2390.21
301.335	2338.21
301.983	2290.21
302.633	2300.21
303.281	2322.21
303.929	2291.21
304.579	2291.21
305.227	2229.21
305.874	2280.21
306.522	2269.21
307.172	2277.21
307.819	2337.21
308.467	2284.21
309.114	2256.21
309.764	2313.21
310.412	2327.21
311.059	2267.21
311.706	2337.21
312.354	2248.21
313.003	2279.21
313.65	2269.21
314.297	2265.21
314.944	2278.21
315.592	2255.21
316.239	2281.21
316.886	2283.21
317.535	2216.21
318.182	2247.21
318.828	2231.21
319.475	2269.21
320.122	2273.21
320.769	2263.21
321.415	2203.21
322.062	2241.21
322.709	2231.21
323.355	2265.21
324.002	2263.21
324.648	2171.21
325.294	2243.21
325.941	2241.21
326.587	2248.21
327.233	2239.21
327.88	2209.21
328.526	2259.21
329.172	2224.21
329.818	2251.21
330.464	2243.21
331.11	2221.21
331.754	2283.21
332.4	2208.21
333.046	2218.21
333.692	2249.21
334.337	2220.21
334.983	2220.21
335.629	2168.21
336.275	2236.21
336.918	2173.21
337.564	2221.21
338.209	2202.21
338.855	2215.21
339.5	2188.21
340.143	2193.21
340.789	2164.21
341.434	2131.21
342.079	2220.21
342.722	2247.21
343.367	2196.21
344.012	2221.21
344.658	2210.21
345.3	2209.21
345.945	2207.21
346.59	2170.21
347.233	2200.21
347.878	2206.21
348.523	2214.21
349.165	2206.21
349.81	2188.21
350.455	2204.21
351.097	2161.21
351.742	2173.21
352.384	2219.21
353.029	2219.21
353.673	2181.21
354.315	2185.21
354.96	2187.21
355.602	2159.21
356.246	2187.21
356.888	2170.21
357.533	2187.21
358.175	2116.21
358.819	2151.21
359.461	2143.21
360.105	2153.21
360.746	2148.21
361.39	2217.21
362.032	2146.21
362.676	2151.21
363.318	2190.21
363.961	2207.21
364.603	2204.21
365.247	2167.21
365.888	2123.21
366.529	2206.21
367.173	2226.21
367.814	2148.21
368.456	2198.21
369.099	2196.21
369.74	2132.21
370.381	2196.21
371.025	2203.21
371.666	2166.21
372.307	2132.21
372.95	2146.21
373.591	2200.21
374.232	2155.21
374.875	2168.21
375.516	2177.21
376.156	2161.21
376.797	2156.21
377.44	2181.21
378.081	2174.21
378.721	2196.21
379.362	2149.21
380.002	2145.21
380.645	2145.21
381.285	2130.21
381.926	2159.21
382.566	2159.21
383.206	2174.21
383.847	2161.21
384.489	2140.21
385.129	2099.21
385.769	2189.21
386.409	2217.21
387.049	2158.21
387.689	2123.21
388.329	2178.21
388.969	2184.21
389.609	2188.21
390.249	2188.21
390.889	2154.21
391.528	2157.21
392.168	2173.21
392.81	2176.21
393.449	2156.21
394.089	2162.21
394.726	2204.21
395.366	2139.21
396.005	2143.21
396.645	2210.21
397.284	2163.21
397.923	2132.21
398.562	2139.21
399.202	2146.21
399.841	2163.21
400.48	2151.21
401.119	2198.21
401.758	2147.21
402.397	2167.21
403.034	2161.21
403.673	2179.21
404.311	2176.21
404.95	2134.21
405.589	2150.21
406.228	2180.21
406.864	2153.21
407.503	2188.21
408.142	2153.21
408.78	2159.21
409.419	2190.21
410.055	2200.21
410.693	2180.21
411.332	2115.21
411.968	2196.21
412.606	2131.21
413.244	2122.21
413.883	2181.21
414.519	2214.21
415.157	2184.21
415.795	2172.21
416.431	2143.21
417.069	2191.21
417.707	2194.21
418.342	2175.21
418.98	2110.21
419.616	2191.21
420.254	2171.21
420.891	2199.21
421.527	2169.21
422.165	2194.21
422.8	2180.21
423.438	2219.21
424.075	2177.21
424.71	2186.21
425.348	2167.21
425.983	2132.21
426.62	2179.21
427.256	2204.21
427.893	2212.21
428.528	2129.21
429.165	2174.21
429.8	2158.21
430.435	2214.21
431.072	2168.21
431.707	2163.21
432.344	2148.21
432.979	2134.21
433.615	2187.21
434.25	2175.21
434.885	2231.21
435.521	2166.21
436.156	2190.21
436.79	2186.21
437.427	2260.21
438.061	2190.21
438.696	2177.21
439.332	2207.21
439.967	2172.21
440.601	2192.21
441.237	2215.21
441.871	2171.21
442.505	2232.21
443.142	2210.21
443.776	2175.21
444.41	2233.21
445.044	2161.21
445.678	2225.21
446.314	2182.21
446.947	2215.21
447.581	2187.21
448.215	2175.21
448.849	2168.21
449.484	2180.21
450.118	2236.21
450.752	2218.21
451.385	2227.21
452.018	2205.21
452.652	2198.21
453.285	2228.21
453.921	2203.21
454.554	2209.59
455.187	2260.58
455.821	2241.8
456.454	2225.91
457.087	2217.75
457.72	2212.18
458.353	2236.46
458.986	2262.67
459.619	2207.53
460.252	2169.92
460.885	2187.97
461.518	2216.16
462.15	2231.92
462.783	2182.92
463.416	2248.44
464.048	2225.31
464.681	2212.51
465.314	2185.12
465.946	2180.91
466.579	2202.05
467.209	2253.61
467.841	2222.75
468.474	2239.74
469.106	2258.78
469.738	2210.18
470.371	2233.97
471.003	2163.38
471.633	2191.51
472.265	2201.56
472.897	2191.84
473.529	2231.94
474.161	2172.24
474.791	2214.85
475.423	2225.33
476.054	2205.53
476.686	2241.29
477.318	2163.78
477.948	2206.77
478.579	2208
479.211	2234.73
479.84	2225.62
480.472	2174.71
481.103	2174.54
481.733	2180.73
482.364	2227.85
482.996	2221.46
483.625	2215.04
484.256	2215.78
484.887	2205.66
485.516	2198.53
486.148	2222.53
486.779	2224.02
487.408	2201.45
488.039	2224.61
488.668	2253.98
489.298	2207.45
489.927	2198.18
490.558	2147.48
491.187	2242.43
491.818	2224.74
492.446	2168.81
493.077	2185.66
493.705	2213.26
494.336	2170.39
494.964	2165.11
495.595	2183.78
496.223	2243.04
496.854	2187.26
497.482	2195.75
498.112	2216
498.741	2221.54
499.371	2183.76
499.999	2188.49
500.627	2221.07
501.257	2216.49
501.885	2232.48
502.513	2217.84
503.143	2212.08
503.771	2226.47
504.399	2211.81
505.029	2211.82
505.656	2189.88
506.284	2190.73
506.914	2222.75
507.541	2186.3
508.169	2191.46
508.796	2163.9
509.426	2212.45
510.054	2244.56
510.681	2212.57
511.308	2243.88
511.938	2213.31
512.565	2226.66
513.192	2184.7
513.819	2233.09
514.446	2252.26
515.076	2243.79
515.703	2215.88
516.33	2224.26
516.957	2227.47
517.584	2203.17
518.21	2220.09
518.837	2227.67
519.464	2264.08
520.093	2226.9
520.72	2192.48
521.346	2230.56
521.973	2199.9
522.6	2209.41
523.226	2229.27
523.853	2213.71
524.479	2189.02
525.105	2209.24
525.732	2216.67
526.358	2292.23
526.984	2236.74
527.611	2213.23
528.237	2179.37
528.863	2239.25
529.489	2249.59
530.115	2253.95
530.741	2189.68
531.365	2231.75
531.991	2203.84
532.617	2238.96
533.243	2237.92
533.869	2244.48
534.495	2199.02
535.12	2207.15
535.746	2238.58
536.369	2206.18
536.995	2241.96
537.621	2233.39
538.246	2233.82
538.872	2253.91
539.495	2191.76
540.12	2236.1
540.746	2227.09
541.371	2264.61
541.994	2263.89
542.62	2279.13
543.245	2252.9
543.87	2246.17
544.493	2231.22
545.118	2224.93
545.743	2241.03
546.366	2224.12
546.991	2240.61
547.616	2253.41
548.238	2240.92
548.863	2257.26
549.488	2254.12
550.111	2248.59
550.735	2282.64
551.36	2277.63
551.982	2243.73
552.607	2232.35
553.229	2215.78
553.854	2256.28
554.476	2263.49
555.101	2256.18
555.723	2255.21
556.347	2230.05
556.969	2277.51
557.594	2266.01
558.216	2267.49
558.84	2258.88
559.462	2281.66
560.086	2276.74
560.708	2291.61
561.332	2302.79
561.954	2271.51
562.578	2307.11
563.199	2266.62
563.821	2281.02
564.445	2327.02
565.066	2288.69
565.69	2272.36
566.312	2283.62
566.933	2288.13
567.557	2282.34
568.178	2272.98
568.799	2258.86
569.423	2282.35
570.044	2285.84
570.665	2305.55
571.289	2248.11
571.91	2288.67
572.531	2280.37
573.152	2252.42
573.775	2300.21
574.396	2281.64
575.017	2306.8
575.638	2247.07
576.261	2244.98
576.882	2267.16
577.503	2276.93
578.123	2258.06
578.744	2272.54
579.365	2244.78
579.987	2263.46
580.608	2258.71
581.229	2245.29
581.849	2288.28
582.47	2240.36
583.09	2259.77
583.71	2221.78
584.331	2289.58
584.951	2257.42
585.571	2279.92
586.194	2197.55
586.814	2229.98
587.434	2218.21
588.054	2228.88
588.674	2196.26
589.294	2226.12
589.914	2145.52
590.534	2233.93
591.154	2194.05
591.774	2198.62
592.391	2196.85
593.011	2149.92
593.631	2194.14
594.25	2152.65
594.87	2183.22
595.49	2192.04
596.109	2176.05
596.729	2169.23
597.348	2101.22
597.967	2147.39
598.585	2126.77
599.204	2126.17
599.823	2140.62
600.443	2146.91
601.062	2099.43
601.681	2111.51
602.298	2107.13
602.917	2126.09
603.536	2057.34
604.155	2095.47
604.772	2125.01
605.391	2076.42
606.01	2057.66
606.629	2051.9
607.245	2039.87
607.864	2024.33
608.483	2059.9
609.099	2070.84
609.718	2077.13
610.337	2056.97
610.953	2004.36
611.572	2055.31
612.19	2007.79
612.806	2059.38
613.425	2030.45
614.043	2032.11
614.659	1985.07
615.278	1993.24
615.894	2032.16
616.512	2019.58
617.128	1995.75
617.746	1955.47
618.364	1997.99
618.98	1973.97
619.598	1961.01
620.214	1970.87
620.832	1940.66
621.448	1973.87
622.065	1982.47
622.681	1974.87
623.297	1967.34
623.914	1960.17
624.53	1857.46
625.148	1918.53
625.763	1941.14
626.381	1928
626.996	1914.38
627.611	1854.26
628.229	1888.55
628.844	1897.24
629.459	1861.51
630.076	1871.19
630.692	1876.22
631.307	1852.61
631.924	1870.07
632.539	1846.11
633.154	1876.21
633.771	1811.95
634.386	1841.92
635.001	1849.26
635.615	1837.85
636.232	1766.21
636.847	1822.02
637.462	1837.11
638.076	1786.29
638.693	1717.87
639.308	1745.75
639.922	1762.39
640.537	1738.44
641.151	1756.72
641.768	1756.18
642.382	1823.52
642.996	1740.49
643.611	1741.86
644.225	1741.63
644.839	1745.26
645.453	1727.86
646.067	1701.2
646.681	1720.35
647.295	1694.37
647.912	1681.26
648.526	1733.73
649.139	1708.35
649.753	1661
650.367	1669.09
650.981	1662.84
651.595	1651.94
652.208	1670.21
652.822	1661.63
653.436	1622.96
654.049	1672.27
654.663	1658.78
655.274	1664.69
655.888	1653.45
656.501	1611.16
657.115	1612.94
657.728	1657.79
658.333	1561.79
658.954	1605.79
659.574	1606.79
660.196	1630.79
660.816	1585.79
661.435	1588.79
662.057	1603.79
662.676	1580.79
663.298	1600.79
663.917	1594.79
664.537	1612.79
665.158	1566.79
665.777	1582.79
666.399	1532.79
667.018	1534.79
667.637	1563.79
668.258	1573.79
668.877	1528.79
669.496	1575.79
670.118	1540.79
670.737	1532.79
671.355	1525.79
671.974	1505.79
672.595	1511.79
673.214	1525.79
673.833	1490.79
674.452	1489.79
675.072	1502.79
675.691	1464.79
676.31	1500.79
676.928	1478.79
677.549	1487.79
678.167	1438.79
678.786	1461.79
679.404	1451.79
680.022	1472.79
680.641	1499.79
681.261	1403.79
681.879	1477.79
682.497	1470.79
683.116	1446.79
683.734	1436.79
684.352	1420.79
684.97	1400.79
685.588	1397.79
686.206	1378.79
686.824	1387.79
687.441	1415.79
688.059	1437.79
688.677	1385.79
689.297	1423.79
689.915	1409.79
690.532	1383.79
691.15	1448.79
691.765	1364.79
692.383	1383.79
693	1364.79
693.618	1352.79
694.235	1401.79
694.852	1315.79
695.47	1339.79
696.087	1304.79
696.704	1329.79
697.321	1286.79
697.939	1333.79
698.556	1332.79
699.173	1320.79
699.788	1332.79
700.405	1305.79
701.022	1299.79
701.639	1324.79
702.255	1325.79
702.872	1271.79
703.487	1278.79
704.104	1266.79
704.72	1247.79
705.337	1324.79
705.954	1258.79
706.568	1241.79
707.185	1310.79
707.801	1324.79
708.416	1263.79
709.032	1256.79
709.648	1188.79
710.265	1222.79
710.879	1213.79
711.495	1207.79
712.111	1238.79
712.725	1235.79
713.341	1217.79
713.958	1182.79
714.572	1253.79
715.188	1183.79
715.804	1216.79
716.417	1153.79
717.033	1172.79
717.647	1205.79
718.263	1126.79
718.876	1179.79
719.492	1197.79
720.108	1145.79
720.721	1176.79
721.337	1181.79
721.95	1148.79
722.566	1153.79
723.179	1117.79
723.795	1099.79
724.408	1140.79
725.023	1148.79
725.637	1140.79
726.252	1136.79
726.865	1121.79
727.48	1149.79
728.093	1116.79
728.706	1124.79
729.321	1119.79
729.934	1128.79
730.549	1086.79
731.162	1054.79
731.775	1074.79
732.39	1080.79
733.003	1112.79
733.615	1085.79
734.23	1071.79
734.843	1069.79
735.455	1028.79
736.07	1064.79
736.682	1031.79
737.295	1049.79
737.909	1057.79
738.522	1047.79
739.134	1023.79
739.746	1039.79
740.361	1017.79
740.973	993.785
741.585	1035.79
742.197	1030.79
742.809	1044.79
743.423	1014.79
744.035	993.785
744.647	981.785
745.259	986.785
745.871	1011.79
746.485	964.785
747.097	987.785
747.708	1013.79
748.32	991.785
748.932	991.785
749.544	948.785
750.155	963.785
750.767	963.785
751.378	934.785
751.99	951.785
752.601	972.785
753.215	971.785
753.826	926.785
754.437	939.785
755.049	930.785
755.66	927.785
756.271	922.785
756.882	913.785
757.493	922.785
758.104	907.785
758.715	900.785
759.324	894.785
759.935	895.785
760.546	886.785
761.157	872.785
761.768	923.785
762.379	888.785
762.989	855.785
763.6	887.785
764.211	871.785
764.821	859.785
765.43	853.785
766.04	862.785
766.651	843.785
767.261	856.785
767.872	855.785
768.482	808.785
769.09	838.785
769.701	843.785
770.311	795.785
770.921	807.785
771.531	814.785
772.139	852.785
772.75	822.785
773.36	805.785
773.967	803.785
774.577	803.785
775.187	810.785
775.797	791.785
776.405	778.785
777.015	797.785
777.625	766.785
778.232	762.785
778.842	767.785
779.452	778.785
780.059	742.785
780.669	733.785
781.276	739.785
781.886	741.785
782.495	751.785
783.103	729.785
783.712	728.785
784.319	729.785
784.929	714.785
785.536	732.785
786.145	745.785
786.752	764.785
787.361	715.785
787.968	722.785
788.577	708.785
789.184	732.785
789.793	705.785
790.4	715.785
791.009	680.785
791.616	717.785
792.224	667.785
792.831	669.785
793.44	693.785
794.047	698.785
794.653	672.785
795.262	663.785
795.868	662.785
796.477	661.785
797.083	666.785
797.69	662.785
798.298	644.785
798.904	667.785
799.511	618.785
800.119	668.785
800.725	631.785
801.331	655.785
801.937	630.785
802.545	613.785
803.151	635.785
803.757	632.785
804.365	622.785
804.971	621.785
805.577	645.785
806.183	623.785
806.789	598.785
807.397	624.785
808.002	641.785
808.608	577.785
809.214	624.785
809.819	613.785
810.425	603.785
811.032	611.785
811.638	589.785
812.243	591.785
812.849	592.785
813.454	616.785
814.059	589.785
814.664	610.785
815.27	596.785
815.875	566.785
816.48	576.785
817.087	579.785
817.692	592.785
818.297	603.785
818.902	568.785
819.507	583.785
820.112	592.785
820.717	575.785
821.322	594.785
821.927	580.785
822.529	601.785
823.134	578.785
823.739	565.785
824.343	575.785
824.948	556.785
825.552	581.785
826.157	577.785
826.761	572.785
827.366	590.785
827.97	568.785
828.575	607.785
829.177	577.785
829.781	578.785
830.385	581.785
830.989	587.785
831.594	575.785
832.198	584.785
832.8	559.785
833.404	604.785
834.008	571.785
834.612	581.785
835.214	588.785
835.817	581.785
836.421	578.785
837.025	570.785
837.627	578.785
838.23	591.785
838.834	561.785
839.436	565.785
840.039	582.785
840.643	579.785
841.244	579.785
841.848	563.785
842.451	574.785
843.053	577.785
843.656	581.785
844.259	598.785
844.86	587.785
845.464	575.785
846.065	589.785
846.668	579.785
847.271	596.785
847.872	595.785
848.475	578.785
849.076	601.785
849.679	604.785
850.28	591.785
850.883	572.785
851.484	600.785
852.086	598.785
852.687	606.785
853.29	603.785
853.89	605.785
854.493	618.785
855.094	613.785
855.694	616.785
856.297	602.785
856.897	624.785
857.5	636.785
858.1	620.785
858.7	612.785
859.303	629.785
859.903	644.785
860.505	617.785
861.105	620.785
861.705	660.785
862.307	653.785
862.908	600.785
863.508	636.785
864.107	647.785
864.709	643.785
865.309	644.785
865.909	621.785
866.511	657.785
867.111	670.785
867.711	664.785
868.31	643.785
868.91	679.785
869.512	677.785
870.111	695.785
870.711	685.785
871.31	663.785
871.909	680.785
872.511	658.785
873.11	646.785
873.71	690.785
874.309	664.785
874.908	646.785
875.507	658.785
876.107	680.785
876.706	686.785
877.307	708.785
877.906	684.785
878.505	725.785
879.104	686.785
879.703	699.785
880.302	727.785
880.901	664.785
881.5	737.785
882.098	720.785
882.697	710.785
883.296	739.785
883.894	736.785
884.493	728.785
885.092	721.785
885.69	733.785
886.289	756.785
886.885	753.785
887.483	743.785
888.082	722.785
888.68	775.785
889.279	760.785
889.877	774.785
890.475	762.785
891.073	802.785
891.671	804.785
892.267	797.785
892.866	801.785
893.464	827.785
894.062	797.785
894.66	801.785
895.255	830.785
895.853	831.785
896.451	842.785
897.049	835.785
897.645	846.785
898.242	868.853
898.84	843.072
899.438	880.85
900.033	860.003
900.631	840.596
901.228	883.964
901.824	870.335
902.421	865.746
903.019	887.919
903.614	893.34
904.211	931.094
904.809	898.211
905.404	924.477
906.001	930.3
906.598	906.315
907.193	884.766
907.791	934.86
908.386	903.538
908.983	926.942
909.578	934.762
910.174	958.206
910.769	967.119
911.366	936.101
911.963	973.37
912.558	959.672
913.155	986.116
913.749	978.979
914.344	1000.35
914.94	970.843
915.535	1007.43
916.132	1026.31
916.726	1016.58
917.323	1026.34
917.917	965.288
918.513	1021.02
919.108	1015.48
919.702	1027.73
920.298	1022.69
920.892	1024.05
921.487	1043.2
922.083	1041.19
922.677	1058.39
923.271	1046.89
923.867	1035.87
924.461	1066.57
925.055	1081.21
925.651	1074.7
926.245	1054.76
926.839	1083.03
927.432	1121.72
928.028	1108.2
928.622	1115.29
929.215	1078.09
929.809	1123.58
930.405	1106.41
930.998	1113.5
931.592	1157.73
932.185	1124.12
932.779	1138.99
933.372	1122.8
933.968	1121.29
934.561	1165.29
935.154	1173.36
935.747	1177.81
936.341	1184.38
936.934	1166.14
937.527	1161.36
938.12	1159.12
938.713	1173.93
939.308	1195.04
939.901	1188.95
940.494	1177.83
941.087	1164.82
941.68	1205
942.273	1202.02
942.865	1195.14
943.458	1218.09
944.051	1205.33
944.643	1225.47
945.236	1214.56
945.829	1225
946.419	1211.96
947.012	1239.3
947.604	1224.54
948.196	1227.4
948.789	1264.71
949.381	1236.2
949.974	1222.6
950.566	1255.58
951.158	1251.3
951.75	1237.59
952.34	1234.92
952.933	1216.52
953.525	1258.52
954.117	1258.95
954.709	1252.73
955.299	1243.63
955.891	1245.43
956.482	1281.43
957.074	1269.7
957.666	1246.32
958.256	1256.64
958.848	1281.66
959.439	1273.15
960.029	1243.65
960.621	1248.92
961.212	1274.52
961.804	1280.16
962.393	1271.07
962.985	1290.28
963.576	1256.6
964.165	1268.97
964.757	1248.89
965.346	1281.43
965.937	1260.1
966.529	1270.81
967.118	1257.83
967.709	1266.36
968.298	1254.59
968.889	1242.38
969.48	1251.4
970.069	1254.36
970.66	1293.71
971.249	1288.71
971.84	1247.71
972.429	1274.31
973.02	1249.47
973.608	1270.61
974.199	1269.63
974.788	1243.67
975.379	1276.7
975.967	1262.95
976.556	1265.78
977.146	1237.64
977.735	1242.68
978.325	1220.53
978.914	1250.62
979.502	1241.06
980.092	1234.12
980.681	1239.91
981.271	1212.01
981.859	1232.23
982.447	1242.74
983.037	1228.84
983.626	1224.21
984.214	1259.41
984.804	1222.27
985.392	1202.4
985.98	1231.57
986.568	1223.49
987.158	1207.25
987.745	1197.03
988.333	1220.54
988.921	1176.89
989.511	1181.15
990.098	1178.02
990.686	1208.21
991.274	1166.62
991.861	1193.14
992.449	1176.16
993.038	1165.84
993.626	1163.24
994.213	1172.36
994.8	1166.91
995.388	1171.8
995.975	1164.18
996.562	1155.13
997.15	1114.43
997.739	1157.65
998.326	1145.18
998.913	1153.46
999.5	1103.74
1000.09	1111.23
1000.67	1129.94
1001.26	1115.09
1001.85	1125.11
1002.44	1105.5
1003.02	1100.48
1003.61	1088.95
1004.2	1100.9
1004.78	1082.08
1005.37	1103.93
1005.96	1073.89
1006.54	1085.64
1007.13	1076.93
1007.71	1103.57
1008.3	1077.05
1008.89	1036.17
1009.47	1062.37
1010.06	1066.21
1010.65	1052.97
1011.23	1066.76
1011.82	1037.25
1012.4	1056.3
1012.99	1029.03
1013.57	1031.37
1014.16	1004.01
1014.74	1014.53
1015.33	1008.57
1015.92	1003.94
1016.5	1023.19
1017.09	997.56
1017.67	991.874
1018.26	992.101
1018.84	983.854
1019.43	972.976
1020.01	972.171
1020.6	966.09
1021.18	961.456
1021.77	936.25
1022.35	950.562
1022.94	977.166
1023.52	944.572
1024.11	933.981
1024.69	922.684
1025.28	948.859
1025.86	923.517
1026.45	918.854
1027.03	921.844
1027.62	912.59
1028.2	903.243
1028.78	891.418
1029.37	882.877
1029.95	886.564
1030.54	863.29
1031.12	855.034
1031.71	868.81
1032.29	881.22
1032.87	877.927
1033.46	864.148
1034.04	845.443
1034.62	872.014
1035.21	875.057
1035.79	845.894
1036.37	841.319
1036.96	831.991
1037.54	833.052
1038.13	820.762
1038.71	803.476
1039.29	812.032
1039.88	813.326
1040.46	806.641
1041.04	786.597
1041.62	800.788
1042.21	793.367
1042.79	771.176
1043.37	760.44
1043.96	767.737
1044.54	765.072
1045.12	770.234
1045.7	797.26
1046.29	766.226
1046.87	771.23
1047.45	766.204
1048.03	740.27
1048.62	730.651
1049.2	729.599
1049.78	738.23
1050.36	737.703
1050.95	720.886
1051.53	702.169
1052.11	726.919
1052.69	730.327
1053.27	702.467
1053.85	714.446
1054.43	703.025
1055.02	686.499
1055.6	680.408
1056.18	662.05
1056.76	688.312
1057.34	694.71
1057.93	681.609
1058.51	695.446
1059.09	686.078
1059.67	676.307
1060.25	653.685
1060.83	666.921
1061.41	617.699
1061.99	609.538
1062.57	657.557
1063.16	649.199
1063.73	648.54
1064.31	622.39
1064.9	637.807
1065.48	623.895
1066.06	623.263
1066.64	619.565
1067.22	622.157
1067.8	603.373
1068.38	593.59
1068.96	600.143
1069.54	609.124
1070.12	584.822
1070.7	566.959
1071.28	598.588
1071.86	590.313
1072.44	585.895
1073.02	574.633
1073.6	588.268
1074.18	550.511
1074.76	562.278
1075.34	573.422
1075.92	562.687
1076.5	571.283
1077.08	559.288
1077.46	556.288
1078.04	539.288
1078.63	531.288
1079.22	534.288
1079.81	545.288
1080.39	562.288
1080.98	527.288
1081.57	551.288
1082.15	547.288
1082.74	539.288
1083.33	537.288
1083.92	518.288
1084.5	505.288
1085.09	529.288
1085.68	527.288
1086.26	514.288
1086.85	503.288
1087.43	511.288
1088.02	518.288
1088.61	478.288
1089.2	483.288
1089.78	468.288
1090.37	484.288
1090.95	488.288
1091.54	477.288
1092.13	498.288
1092.71	473.288
1093.3	469.288
1093.88	452.288
1094.47	483.288
1095.06	452.288
1095.64	486.288
1096.23	479.288
1096.81	460.288
1097.4	472.288
1097.98	452.288
1098.57	443.288
1099.16	475.288
1099.74	430.288
1100.32	426.288
1100.91	453.288
1101.5	437.288
1102.08	448.288
1102.67	429.288
1103.25	446.288
1103.84	425.288
1104.42	445.288
1105.01	423.288
1105.59	423.288
1106.17	419.288
1106.76	409.288
1107.35	421.288
1107.93	398.288
1108.51	369.288
1109.1	395.288
1109.68	396.288
1110.27	381.288
1110.85	400.288
1111.44	383.288
1112.02	406.288
1112.6	391.288
1113.19	403.288
1113.77	375.288
1114.36	384.288
1114.94	375.288
1115.52	379.288
1116.11	367.288
1116.69	358.288
1117.28	363.288
1117.86	378.288
1118.44	362.288
1119.03	378.288
1119.61	376.288
1120.19	344.288
1120.78	376.288
1121.36	363.288
1121.94	359.288
1122.52	343.288
1123.11	348.288
1123.69	348.288
1124.27	339.288
1124.86	359.288
1125.44	355.288
1126.02	325.288
1126.61	331.288
1127.19	333.288
1127.77	336.288
1128.35	325.288
1128.94	322.288
1129.52	332.288
1130.1	318.288
1130.68	313.288
1131.27	324.288
1131.85	305.288
1132.43	303.288
1133.01	297.288
1133.6	313.288
1134.18	330.288
1134.76	318.288
1135.34	316.288
1135.92	314.288
1136.5	317.288
1137.09	313.288
1137.67	313.288
1138.25	295.288
1138.83	307.288
1139.41	300.288
1139.99	291.288
1140.58	298.288
1141.16	290.288
1141.74	277.288
1142.32	290.288
1142.9	278.288
1143.48	292.288
1144.06	286.288
1144.64	284.288
1145.22	267.288
1145.81	256.288
1146.39	279.288
1146.97	259.288
1147.55	283.288
1148.13	282.288
1148.71	279.288
1149.29	277.288
1149.87	260.288
1150.45	284.288
1151.03	273.288
1151.61	261.288
1152.19	236.288
1152.77	267.288
1153.35	262.288
1153.93	245.288
1154.51	253.288
1155.09	263.288
1155.67	258.288
1156.25	250.288
1156.83	250.288
1157.41	242.288
1157.99	241.288
1158.57	244.288
1159.15	230.288
1159.73	234.288
1160.31	235.288
1160.89	226.288
1161.47	248.288
1162.05	230.288
1162.63	248.288
1163.21	248.288
1163.79	225.288
1164.36	220.288
1164.95	246.288
1165.52	215.288
1166.1	233.288
1166.68	221.288
1167.26	227.288
1167.84	217.288
1168.42	225.288
1169	234.288
1169.57	225.288
1170.15	231.288
1170.73	217.288
1171.31	212.288
1171.89	207.288
1172.47	213.288
1173.05	220.288
1173.62	219.288
1174.2	205.288
1174.78	200.288
1175.36	221.288
1175.94	205.288
1176.51	201.288
1177.09	207.288
1177.67	205.288
1178.25	195.288
1178.83	189.288
1179.4	197.288
1179.98	192.288
1180.56	201.288
1181.14	198.288
1181.71	205.288
1182.29	205.288
1182.87	198.288
1183.44	198.288
1184.02	185.288
1184.6	192.288
1185.18	207.288
1185.75	195.288
1186.33	200.288
1186.91	177.288
1187.48	168.288
1188.06	191.288
1188.64	192.288
1189.21	176.288
1189.79	175.288
1190.37	179.288
1190.94	175.288
1191.52	178.288
1192.1	163.288
1192.67	169.288
1193.25	174.288
1193.83	161.288
1194.4	169.288
1194.98	189.288
1195.55	165.288
1196.13	181.288
1196.71	170.288
1197.28	159.288
1197.86	163.288
1198.43	147.288
1199.01	168.288
1199.59	170.288
1200.16	158.288
