17.0039	973.382
17.6805	985.382
18.3571	993.382
19.0336	954.382
19.7123	984.382
20.3887	976.382
21.0651	991.382
21.7414	992.382
22.4176	1014.38
23.0939	1006.38
23.77	1042.38
24.4462	1025.38
25.1222	1054.38
25.7983	1040.38
26.4742	1114.38
27.1502	1167.38
27.8261	1211.38
28.5019	1194.38
29.1777	1186.38
29.8534	1231.38
30.5291	1245.38
31.2048	1218.38
31.8804	1264.38
32.5559	1256.38
33.2314	1347.38
33.9069	1314.38
34.5823	1380.38
35.2577	1458.38
35.933	1500.38
36.6083	1526.38
37.2835	1588.38
37.9587	1676.38
38.6338	1644.38
39.3066	1704.38
39.9817	1695.38
40.6566	1706.38
41.3316	1754.38
42.0065	1756.38
42.6813	1838.38
43.3539	1908.38
44.0286	1935.38
44.7033	2012.38
45.378	2035.38
46.0526	2057.38
46.7249	2028.38
47.3994	2082.38
48.0739	2179.38
48.7483	2218.38
49.4204	2275.38
50.0947	2359.38
50.769	2337.38
51.4433	2360.38
52.1152	2350.38
52.7893	2395.38
53.4634	2441.38
54.1352	2458.38
54.8092	2501.38
55.4831	2525.38
56.1548	2513.38
56.8286	2562.38
57.5024	2582.38
58.1739	2649.38
58.8477	2722.38
59.5213	2750.38
60.1927	2834.38
60.8663	2955.38
61.5375	2975.38
62.211	2946.38
62.8845	2875.38
63.5556	2835.38
64.2289	2896.38
64.8999	2817.38
65.5732	2895.38
66.2441	2918.38
66.9173	2921.38
67.5881	3036.38
68.2612	3057.38
68.9319	3009.38
69.6049	3076.38
70.2755	3112.38
70.9484	3011.38
71.619	3114.38
72.2918	3115.38
72.9622	3127.38
73.6349	3153.38
74.3053	3223.38
74.9756	3132.38
75.6482	3138.38
76.3184	3253.38
76.9909	3305.38
77.661	3276.38
78.3311	3269.38
79.0034	3192.38
79.6734	3164.38
80.3433	3227.38
81.0155	3207.38
81.6854	3232.38
82.3552	3241.38
83.0272	3364.38
83.6969	3342.38
84.3666	3320.38
85.0385	3361.38
85.7081	3348.38
86.3776	3347.38
87.0471	3324.38
87.7188	3349.38
88.3882	3262.38
89.0575	3279.38
89.7268	3266.38
90.3961	3312.38
91.0676	3369.38
91.7367	3342.38
92.4059	3449.38
93.0749	3454.38
93.7439	3416.38
94.4152	3345.38
95.0841	3336.38
95.753	3306.38
96.4218	3352.38
97.0906	3336.38
97.7594	3305.38
98.4281	3358.38
99.0967	3295.38
99.7676	3356.38
100.436	3367.38
101.105	3381.38
101.773	3338.38
102.442	3268.38
103.11	3371.38
103.778	3298.38
104.447	3302.38
105.115	3343.38
105.783	3418.38
106.451	3364.38
107.119	3365.38
107.787	3418.38
108.455	3451.38
109.123	3333.38
109.791	3374.38
110.459	3326.38
111.127	3346.38
111.795	3289.38
112.462	3269.38
113.13	3296.38
113.795	3229.38
114.463	3341.38
115.13	3320.38
115.798	3268.38
116.465	3333.38
117.133	3304.38
117.8	3310.38
118.467	3319.38
119.132	3280.38
119.8	3302.38
120.467	3238.38
121.134	3237.38
121.801	3265.38
122.466	3272.38
123.133	3286.38
123.8	3240.38
124.467	3279.38
125.133	3285.38
125.798	3345.38
126.465	3273.38
127.131	3238.38
127.796	3258.38
128.462	3273.38
129.129	3213.38
129.796	3270.38
130.46	3212.38
131.126	3227.38
131.793	3273.38
132.457	3141.38
133.123	3192.38
133.789	3245.38
134.453	3205.38
135.119	3180.38
135.783	3100.38
136.449	3188.38
137.115	3208.38
137.779	3185.38
138.445	3205.38
139.108	3274.38
139.774	3161.38
140.438	3194.38
141.104	3207.38
141.769	3208.38
142.433	3155.38
143.098	3169.38
143.762	3186.38
144.427	3133.38
145.09	3061.38
145.756	3164.38
146.419	3126.38
147.084	3095.38
147.747	3145.38
148.41	3162.38
149.075	3152.38
149.738	3149.38
150.403	3093.38
151.066	3144.38
151.731	3074.38
152.394	3120.38
153.056	3136.38
153.721	3112.38
154.384	3081.38
155.046	3082.38
155.711	3125.38
156.374	3079.38
157.036	3066.38
157.701	3077.38
158.363	3028.38
159.025	3063.38
159.69	3122.38
160.352	3006.38
161.014	3061.38
161.676	3077.38
162.34	3129.38
163.002	3056.38
163.664	3133.38
164.326	2997.38
164.99	3113.38
165.652	3085.38
166.314	3010.38
166.975	3081.38
167.637	3013.38
168.301	2939.38
168.962	2979.38
169.624	2935.38
170.285	2974.38
170.947	2983.38
171.608	2970.38
172.272	2931.38
172.933	2911.38
173.594	2940.38
174.255	2948.38
174.917	2956.38
175.578	2987.38
176.239	2958.38
176.9	3003.38
177.561	2885.38
178.222	2965.38
178.882	2895.38
179.543	2853.38
180.204	2945.38
180.865	2884.38
181.526	2972.38
182.186	2940.38
182.847	2959.38
183.507	2913.38
184.168	2859.38
184.828	2936.38
185.489	2866.38
186.149	2839.38
186.809	2944.38
187.47	2912.38
188.13	2918.38
188.79	2934.38
189.45	2900.38
190.11	2917.38
190.768	2850.38
191.428	2900.38
192.088	2859.38
192.748	2839.38
193.408	2867.38
194.068	2887.38
194.728	2887.38
195.385	2850.38
196.045	2827.38
196.705	2853.38
197.364	2798.38
198.021	2923.38
198.681	2867.38
199.34	2843.38
200	2869.38
200.657	2896.38
201.316	2780.38
201.976	2827.38
202.635	2877.38
203.292	2851.38
203.951	2798.38
204.61	2748.38
205.267	2807.38
205.926	2757.38
206.585	2878.38
207.242	2874.38
207.9	2851.38
208.559	2857.38
209.216	2793.38
209.875	2793.38
210.533	2781.38
211.19	2796.38
211.848	2672.38
212.505	2791.38
213.163	2767.38
213.819	2816.38
214.478	2802.38
215.134	2792.38
215.792	2816.38
216.451	2815.38
217.107	2759.38
217.765	2832.38
218.421	2770.38
219.079	2760.38
219.735	2803.38
220.391	2809.38
221.049	2773.38
221.704	2755.38
222.362	2714.38
223.018	2754.38
223.675	2806.38
224.331	2754.38
224.989	2723.38
225.644	2757.38
226.3	2738.38
226.957	2759.38
227.612	2765.38
228.268	2680.38
228.925	2780.38
229.58	2704.38
230.235	2739.38
230.893	2702.38
231.548	2686.38
232.203	2773.38
232.86	2765.38
233.515	2786.38
234.17	2717.38
234.827	2753.38
235.481	2725.38
236.136	2756.38
236.791	2664.38
237.448	2756.38
238.102	2706.38
238.757	2734.38
239.411	2769.38
240.066	2748.38
240.722	2739.38
241.377	2683.38
242.031	2781.38
242.685	2723.38
243.339	2772.38
243.993	2695.38
244.648	2748.38
245.304	2705.38
245.958	2732.38
246.612	2697.38
247.266	2729.38
247.92	2674.38
248.574	2662.38
249.227	2670.38
249.881	2658.38
250.535	2728.38
251.189	2670.38
251.842	2733.38
252.496	2724.38
253.149	2706.38
253.803	2702.38
254.456	2665.38
255.11	2709.38
255.763	2680.38
256.416	2733.38
257.07	2703.38
257.723	2695.38
258.376	2661.38
259.029	2708.38
259.682	2711.38
260.335	2623.38
260.988	2704.38
261.641	2667.38
262.294	2674.38
262.947	2613.38
263.598	2709.38
264.251	2710.38
264.903	2662.38
265.556	2584.38
266.209	2646.38
266.861	2696.38
267.512	2701.38
268.164	2666.38
268.817	2676.38
269.469	2665.38
270.121	2700.38
270.772	2693.38
271.424	2655.38
272.076	2686.38
272.728	2654.38
273.378	2588.38
274.03	2640.38
274.682	2682.38
275.332	2675.38
275.984	2658.38
276.636	2626.38
277.288	2650.38
277.938	2624.38
278.59	2633.38
279.239	2584.38
279.891	2649.38
280.542	2615.38
281.192	2700.38
281.843	2627.38
282.495	2607.38
283.144	2663.38
283.796	2619.38
284.445	2609.38
285.096	2583.38
285.745	2609.38
286.397	2589.38
287.048	2656.38
287.697	2664.38
288.348	2609.38
288.997	2589.38
289.648	2709.38
290.297	2677.38
290.948	2658.38
291.596	2593.38
292.247	2642.38
292.896	2634.38
293.544	2613.38
294.195	2663.38
294.844	2649.38
295.494	2617.38
296.143	2696.38
296.793	2662.38
297.441	2601.38
298.09	2595.38
298.74	2647.38
299.388	2627.38
300.036	2603.38
300.687	2634.38
301.335	2620.38
301.983	2610.38
302.633	2655.38
303.281	2637.38
303.929	2622.38
304.579	2519.38
305.227	2630.38
305.874	2629.38
306.522	2608.38
307.172	2641.38
307.819	2613.38
308.467	2590.38
309.114	2605.38
309.764	2593.38
310.412	2588.38
311.059	2592.38
311.706	2618.38
312.354	2552.38
313.003	2590.38
313.65	2554.38
314.297	2577.38
314.944	2609.38
315.592	2619.38
316.239	2624.38
316.886	2650.38
317.535	2640.38
318.182	2584.38
318.828	2563.38
319.475	2543.38
320.122	2594.38
320.769	2588.38
321.415	2592.38
322.062	2601.38
322.709	2511.38
323.355	2552.38
324.002	2538.38
324.648	2602.38
325.294	2574.38
325.941	2557.38
326.587	2517.38
327.233	2614.38
327.88	2572.38
328.526	2605.38
329.172	2559.38
329.818	2594.38
330.464	2498.38
331.11	2574.38
331.754	2573.38
332.4	2600.38
333.046	2572.38
333.692	2578.38
334.337	2637.38
334.983	2569.38
335.629	2570.38
336.275	2580.38
336.918	2583.38
337.564	2604.38
338.209	2527.38
338.855	2555.38
339.5	2645.38
340.143	2563.38
340.789	2586.38
341.434	2563.38
342.079	2562.38
342.722	2594.38
343.367	2562.38
344.012	2600.38
344.658	2554.38
345.3	2564.38
345.945	2584.38
346.59	2542.38
347.233	2573.38
347.878	2558.38
348.523	2595.38
349.165	2540.38
349.81	2536.38
350.455	2558.38
351.097	2645.38
351.742	2553.38
352.384	2572.38
353.029	2646.38
353.673	2568.38
354.315	2572.38
354.96	2546.38
355.602	2554.38
356.246	2522.38
356.888	2546.38
357.533	2610.38
358.175	2605.38
358.819	2572.38
359.461	2569.38
360.105	2558.38
360.746	2553.38
361.39	2615.38
362.032	2567.38
362.676	2567.38
363.318	2562.38
363.961	2525.38
364.603	2522.38
365.247	2602.38
365.888	2563.38
366.529	2511.38
367.173	2527.38
367.814	2563.38
368.456	2512.38
369.099	2573.38
369.74	2602.38
370.381	2548.38
371.025	2570.38
371.666	2602.38
372.307	2583.38
372.95	2525.38
373.591	2562.38
374.232	2542.38
374.875	2526.38
375.516	2579.38
376.156	2564.38
376.797	2563.38
377.44	2555.38
378.081	2545.38
378.721	2538.38
379.362	2580.38
380.002	2559.38
380.645	2537.38
381.285	2548.38
381.926	2512.38
382.566	2513.38
383.206	2537.38
383.847	2541.38
384.489	2520.38
385.129	2569.38
385.769	2580.38
386.409	2569.38
387.049	2577.38
387.689	2550.38
388.329	2577.38
388.969	2572.38
389.609	2490.38
390.249	2541.38
390.889	2551.38
391.528	2573.38
392.168	2542.38
392.81	2504.38
393.449	2521.38
394.089	2595.38
394.726	2602.38
395.366	2564.38
396.005	2532.38
396.645	2581.38
397.284	2527.38
397.923	2532.38
398.562	2618.38
399.202	2523.38
399.841	2558.38
400.48	2594.38
401.119	2606.38
401.758	2546.38
402.397	2535.38
403.034	2589.38
403.673	2644.38
404.311	2610.38
404.95	2605.38
405.589	2545.38
406.228	2639.38
406.864	2611.38
407.503	2595.38
408.142	2598.38
408.78	2607.38
409.419	2600.38
410.055	2619.38
410.693	2621.38
411.332	2587.38
411.968	2589.38
412.606	2603.38
413.244	2591.38
413.883	2633.38
414.519	2578.38
415.157	2629.38
415.795	2634.38
416.431	2591.38
417.069	2680.38
417.707	2564.38
418.342	2630.38
418.98	2646.38
419.616	2617.38
420.254	2597.38
420.891	2647.38
421.527	2659.38
422.165	2644.38
422.8	2617.38
423.438	2646.38
424.075	2676.38
424.71	2657.38
425.348	2640.38
425.983	2604.38
426.62	2647.38
427.256	2600.38
427.893	2643.38
428.528	2654.38
429.165	2648.38
429.8	2589.38
430.435	2660.38
431.072	2688.38
431.707	2704.38
432.344	2661.38
432.979	2661.38
433.615	2721.38
434.25	2691.38
434.885	2693.38
435.521	2677.38
436.156	2696.38
436.79	2636.38
437.427	2684.38
438.061	2752.38
438.696	2740.38
439.332	2726.38
439.967	2684.38
440.601	2688.38
441.237	2691.38
441.871	2757.38
442.505	2652.38
443.142	2747.38
443.776	2722.38
444.41	2719.38
445.044	2717.38
445.678	2622.38
446.314	2712.38
446.947	2702.38
447.581	2750.38
448.215	2720.38
448.849	2760.38
449.484	2649.38
450.118	2665.38
450.752	2777.44
451.385	2656.35
452.018	2742.07
452.652	2612.56
453.285	2714.58
453.921	2664.73
454.554	2740.26
455.187	2763.61
455.821	2783.9
456.454	2762.36
457.087	2745.18
457.72	2657.89
458.353	2759.5
458.986	2729.01
459.619	2724.61
460.252	2706.83
460.885	2701.84
461.518	2805.75
462.15	2803.77
462.783	2769.92
463.416	2770.38
464.048	2738.63
464.681	2743.36
465.314	2764.03
465.946	2752.39
466.579	2742.6
467.209	2772.99
467.841	2786.5
468.474	2739.53
469.106	2777.35
469.738	2761.6
470.371	2785.16
471.003	2779.14
471.633	2766.38
472.265	2784.7
472.897	2764.86
473.529	2776.15
474.161	2736.4
474.791	2809.83
475.423	2728.41
476.054	2723.91
476.686	2727.37
477.318	2718.66
477.948	2718.33
478.579	2781.55
479.211	2757.31
479.84	2779.84
480.472	2782.07
481.103	2771.83
481.733	2734.02
482.364	2707.54
482.996	2773.98
483.625	2711.53
484.256	2756.49
484.887	2745.14
485.516	2715.06
486.148	2736.94
486.779	2738.94
487.408	2699.56
488.039	2709.71
488.668	2810.71
489.298	2715.6
489.927	2715.92
490.558	2769.99
491.187	2750.35
491.818	2706.62
492.446	2683.75
493.077	2779.22
493.705	2710.39
494.336	2723.8
494.964	2731.85
495.595	2737.62
496.223	2751.81
496.854	2701.24
497.482	2736.48
498.112	2667.01
498.741	2714.37
499.371	2735.55
499.999	2670.56
500.627	2768.32
501.257	2701.54
501.885	2685.55
502.513	2718.97
503.143	2697.55
503.771	2694.75
504.399	2738.14
505.029	2659.98
505.656	2690.44
506.284	2739.38
506.914	2724.36
507.541	2723.79
508.169	2689.41
508.796	2727.86
509.426	2698.75
510.054	2648.16
510.681	2649.83
511.308	2682.34
511.938	2714.54
512.565	2691.46
513.192	2707.01
513.819	2681.71
514.446	2603.21
515.076	2627.89
515.703	2662.13
516.33	2683.13
516.957	2666.74
517.584	2667.55
518.21	2622.13
518.837	2649.41
519.464	2581.46
520.093	2648.03
520.72	2633.82
521.346	2658.47
521.973	2585.19
522.6	2598.82
523.226	2636.2
523.853	2624.97
524.479	2600.61
525.105	2631.54
525.732	2597.18
526.358	2567.71
526.984	2586.25
527.611	2607.75
528.237	2569.46
528.863	2554.84
529.489	2604.15
530.115	2565.56
530.741	2555.19
531.365	2578.12
531.991	2580
532.617	2506.75
533.243	2539.84
533.869	2518.29
534.495	2513.44
535.12	2521.67
535.746	2494.39
536.369	2506.09
536.995	2506.94
537.621	2511.12
538.246	2485.25
538.872	2486.34
539.495	2461.72
540.12	2452.16
540.746	2468.74
541.371	2506
541.994	2497.6
542.62	2461.99
543.245	2456.99
543.87	2449.9
544.493	2443.47
545.118	2428.06
545.743	2406.19
546.366	2407.34
546.991	2418.47
547.616	2430.32
548.238	2425.58
548.863	2409.48
549.488	2391.49
550.111	2392.81
550.735	2333.22
551.36	2428.84
551.982	2362.53
552.607	2373.8
553.229	2381.95
553.854	2360.5
554.476	2364.91
555.101	2367.73
555.723	2322.63
556.347	2326.62
556.969	2327.32
557.594	2377.46
558.216	2356.23
558.84	2318.52
559.462	2339
560.086	2338.32
560.708	2294.76
561.332	2319.36
561.954	2311.29
562.578	2273.72
563.199	2321.15
563.821	2290.02
564.445	2309.2
565.066	2299.01
565.69	2304.79
566.312	2301.03
566.933	2332.13
567.557	2322.01
568.178	2322.22
568.799	2298.64
569.423	2295.79
570.044	2263.92
570.665	2306.35
571.289	2266.98
571.91	2307.65
572.531	2251.64
573.152	2331.87
573.775	2271.04
574.396	2310.5
575.017	2256.11
575.638	2247.57
576.261	2233.92
576.882	2276.63
577.503	2274
578.123	2259.91
578.744	2244.1
579.365	2286.03
579.987	2239.82
580.608	2233.76
581.229	2216.51
581.849	2269.43
582.47	2223.81
583.09	2242.74
583.71	2204.61
584.331	2185.9
584.951	2200.01
585.571	2203.67
586.194	2197.05
586.814	2176.74
587.434	2211.88
588.054	2172.84
588.674	2183.64
589.294	2174.24
589.914	2164.93
590.534	2134.87
591.154	2123.1
591.774	2185.45
592.391	2166.92
593.011	2147.38
593.631	2095.02
594.25	2118.13
594.87	2124.94
595.49	2103.72
596.109	2129.43
596.729	2125.66
597.348	2132.54
597.967	2104.77
598.585	2088.05
599.204	2066.24
599.823	2048.68
600.443	2039.01
601.062	2004.89
601.681	2011.89
602.298	2017.72
602.917	2020.64
603.536	2017.27
604.155	2006.3
604.772	2007.39
605.391	2028.04
606.01	2040.63
606.629	1989.17
607.245	1962.91
607.864	1979.74
608.483	1885.62
609.099	1962.11
609.718	1972.53
610.337	1957.5
610.953	1944.56
611.572	1911.26
612.19	1863.23
612.806	1879.79
613.425	1888.79
614.043	1942.78
614.659	1852.41
615.278	1885.98
615.894	1844.34
616.512	1874.35
617.128	1806.81
617.746	1818.01
618.364	1819.26
618.98	1848.59
619.598	1729.53
620.214	1788.62
620.832	1757.61
621.448	1745.32
622.065	1793.58
622.681	1776.1
623.297	1716.34
623.914	1745.13
624.53	1673.9
625.148	1741.37
625.763	1686.5
626.381	1722.38
626.996	1671.26
627.611	1682.24
628.229	1649.96
628.844	1643.07
629.459	1655.29
630.076	1658.12
630.692	1674.35
631.307	1590.19
631.924	1632.89
632.539	1633.94
633.154	1583.38
633.771	1613.19
634.386	1583.85
635.001	1578.88
635.615	1567.89
636.232	1559.86
636.847	1543.55
637.462	1547
638.076	1539.03
638.693	1527.54
639.308	1521.2
639.922	1504.94
640.537	1517.04
641.151	1504.89
641.768	1493.51
642.382	1495.11
642.996	1493.85
643.611	1454.1
644.225	1405.12
644.839	1451.85
645.453	1440.98
646.067	1447.86
646.681	1432.06
647.295	1446.55
647.912	1429.64
648.526	1375.87
649.139	1440.83
649.753	1363.68
650.367	1351.8
650.981	1351.61
651.595	1404.13
652.208	1370.4
652.822	1312.4
653.436	1357.14
654.049	1409.31
654.663	1340.07
655.274	1361.77
655.888	1364.62
655.961	1327.62
656.581	1271.62
657.201	1287.62
657.823	1301.62
658.442	1322.62
659.064	1288.62
659.684	1300.62
660.306	1286.62
660.925	1276.62
661.547	1252.62
662.166	1288.62
662.786	1294.62
663.408	1294.62
664.027	1299.62
664.646	1231.62
665.268	1269.62
665.887	1221.62
666.506	1259.62
667.128	1244.62
667.747	1246.62
668.366	1190.62
668.987	1258.62
669.606	1166.62
670.225	1188.62
670.844	1225.62
671.465	1210.62
672.084	1204.62
672.703	1213.62
673.322	1213.62
673.942	1195.62
674.561	1210.62
675.18	1184.62
675.798	1164.62
676.417	1198.62
677.038	1132.62
677.656	1177.62
678.275	1188.62
678.893	1164.62
679.511	1202.62
680.13	1173.62
680.75	1174.62
681.368	1147.62
681.987	1149.62
682.605	1166.62
683.223	1151.62
683.841	1148.62
684.459	1145.62
685.077	1157.62
685.695	1127.62
686.313	1086.62
686.931	1145.62
687.549	1141.62
688.166	1161.62
688.784	1086.62
689.402	1129.62
690.02	1088.62
690.637	1158.62
691.255	1086.62
691.872	1105.62
692.49	1112.62
693.107	1123.62
693.725	1099.62
694.342	1095.62
694.96	1078.62
695.577	1113.62
696.192	1067.62
696.809	1092.62
697.426	1124.62
698.044	1069.62
698.661	1072.62
699.278	1078.62
699.895	1033.62
700.51	1063.62
701.127	1078.62
701.744	1056.62
702.36	1055.62
702.977	1023.62
703.592	1082.62
704.209	1039.62
704.825	1061.62
705.442	1036.62
706.056	1038.62
706.673	1014.62
707.29	1009.62
707.906	1037.62
708.52	1005.62
709.137	1038.62
709.753	1036.62
710.367	1017.62
710.984	1045.62
711.6	1008.62
712.214	1019.62
712.83	1021.62
713.444	1019.62
714.06	976.618
714.676	1037.62
715.29	1027.62
715.906	1004.62
716.52	1005.62
717.136	1011.62
717.752	1017.62
718.365	983.618
718.981	983.618
719.595	998.618
720.21	998.618
720.824	974.618
721.44	1003.62
722.053	994.618
722.669	967.618
723.282	963.618
723.897	948.618
724.511	979.618
725.126	994.618
725.739	983.618
726.352	957.618
726.968	971.618
727.581	952.618
728.196	969.618
728.809	948.618
729.422	963.618
730.037	926.618
730.65	977.618
731.265	934.618
731.877	948.618
732.49	909.618
733.105	905.618
733.718	926.618
734.33	911.618
734.943	929.618
735.558	919.618
736.17	940.618
736.783	901.618
737.397	901.618
738.01	950.618
738.622	919.618
739.234	916.618
739.846	887.618
740.461	921.618
741.073	902.618
741.685	908.618
742.297	893.618
742.909	942.618
743.523	918.618
744.135	890.618
744.747	925.618
745.359	900.618
745.971	869.618
746.583	876.618
747.195	900.618
747.807	896.618
748.42	877.618
749.032	871.618
749.644	895.618
750.255	892.618
750.867	850.618
751.478	917.618
752.09	869.618
752.701	873.618
753.313	885.618
753.924	833.618
754.535	875.618
755.146	845.618
755.758	834.618
756.369	850.618
756.98	891.618
757.591	869.618
758.202	876.618
758.813	855.618
759.424	831.618
760.033	886.618
760.644	875.618
761.255	825.618
761.866	862.618
762.476	884.618
763.087	845.618
763.698	855.618
764.309	841.618
764.917	813.618
765.528	838.618
766.138	828.618
766.749	833.618
767.359	839.618
767.967	835.618
768.578	832.618
769.188	792.618
769.798	805.618
770.409	803.618
771.017	818.618
771.627	780.618
772.237	833.618
772.845	790.618
773.455	779.618
774.065	797.618
774.673	785.618
775.283	800.618
775.893	777.618
776.501	776.618
777.111	785.618
777.72	762.618
778.328	784.618
778.938	765.618
779.547	768.618
780.155	777.618
780.764	761.618
781.372	755.618
781.981	756.618
782.589	746.618
783.198	771.618
783.807	757.618
784.415	763.618
785.024	771.618
785.631	709.618
786.24	763.618
786.848	711.618
787.457	718.618
788.064	736.618
788.673	681.618
789.28	708.618
789.886	691.618
790.495	739.618
791.102	734.618
791.711	711.618
792.318	711.618
792.927	703.618
793.533	681.618
794.14	677.618
794.749	684.618
795.355	706.618
795.962	674.618
796.57	660.618
797.176	682.618
797.783	665.618
798.391	693.618
798.998	680.618
799.604	673.618
800.212	647.618
800.818	648.618
801.424	654.618
802.03	644.618
802.639	648.618
803.245	647.618
803.851	640.618
804.457	627.618
805.062	587.618
805.67	641.618
806.276	629.618
806.882	617.618
807.488	623.618
808.093	598.618
808.699	607.618
809.307	586.618
809.912	577.618
810.518	581.618
811.123	574.618
811.729	566.618
812.334	591.618
812.94	549.618
813.545	548.618
814.15	579.618
814.755	547.618
815.361	561.618
815.968	537.618
816.573	560.618
817.178	523.618
817.783	533.618
818.388	545.618
818.993	527.618
819.598	537.618
820.201	514.618
820.806	531.618
821.411	479.618
822.015	520.618
822.62	501.618
823.225	535.618
823.83	513.618
824.434	498.618
825.039	499.618
825.643	471.618
826.248	501.618
826.85	465.618
827.455	466.618
828.059	484.618
828.663	470.618
829.268	448.618
829.872	464.618
830.474	464.618
831.078	469.618
831.682	462.618
832.286	449.618
832.891	456.618
833.492	452.618
834.096	446.618
834.7	438.618
835.304	437.618
835.906	431.618
836.51	431.618
837.114	432.618
837.715	437.618
838.319	425.618
838.923	428.618
839.524	427.618
840.128	421.618
840.732	429.618
841.333	399.618
841.936	416.618
842.538	429.618
843.141	413.618
843.745	393.618
844.346	402.618
844.949	429.618
845.55	418.618
846.153	401.618
846.754	418.618
847.358	423.618
847.961	410.618
848.562	417.618
849.165	379.618
849.766	410.618
850.368	424.618
850.969	399.618
851.57	418.618
852.173	400.618
852.773	396.618
853.376	402.618
853.977	405.618
854.58	397.618
855.18	414.618
855.781	437.618
856.383	407.618
856.984	407.618
857.586	425.618
858.186	413.618
858.787	383.618
859.389	412.618
859.989	411.618
860.589	423.618
861.192	401.618
861.792	418.618
862.392	420.618
862.992	421.618
863.594	415.618
864.194	430.618
864.794	419.618
865.393	424.618
865.995	421.618
866.595	422.618
867.195	439.618
867.795	412.618
868.396	416.618
868.996	428.618
869.596	442.618
870.195	448.618
870.795	443.618
871.394	458.618
871.996	451.618
872.595	448.618
873.195	438.618
873.794	451.618
874.393	448.618
874.992	447.618
875.592	457.618
876.191	438.618
876.79	457.618
877.389	451.618
877.988	463.618
878.587	439.618
879.186	456.618
879.785	448.618
880.384	467.618
880.983	487.618
881.581	471.618
882.18	461.618
882.779	464.618
883.378	477.618
883.976	501.618
884.575	493.618
885.174	469.618
885.772	499.618
886.371	502.618
886.969	513.618
887.567	500.618
888.164	493.618
888.762	527.618
889.36	505.618
889.959	508.618
890.557	481.618
891.155	532.618
891.753	497.618
892.349	506.618
892.947	528.881
893.545	526.065
894.143	542.994
894.739	536.753
895.337	530.787
895.935	550.429
896.533	534.512
897.129	531.569
897.726	563.893
898.324	581.205
898.922	565.379
899.517	584.26
900.115	570.846
900.713	589.726
901.308	579.214
901.906	582.637
902.501	596.249
903.098	582.992
903.696	590.088
904.291	609.224
904.888	602.873
905.486	585.206
906.081	609.557
906.678	621.185
907.273	616.366
907.87	598.315
908.465	606.39
909.062	614.494
909.657	607.162
910.254	629.689
910.849	652.172
911.446	634.876
912.041	636.763
912.637	651.767
913.232	664.59
913.829	639.92
914.423	659.359
915.02	649.947
915.615	659.293
916.209	655.343
916.806	680.578
917.4	673.024
917.996	672.835
918.591	691.689
919.185	674.998
919.781	709.914
920.376	698.874
920.97	666.642
921.566	706.883
922.16	696.662
922.754	704.892
923.35	714.601
923.944	703.479
924.538	724.437
925.132	741.546
925.728	711.253
926.322	689.009
926.916	735.237
927.51	721.173
928.105	729.994
928.699	727.26
929.293	737.902
929.886	770.952
930.48	775.94
931.076	764.739
931.669	758.482
932.263	765.87
932.856	769.992
933.449	777.551
934.043	787.206
934.636	775.859
935.229	804.329
935.825	784.861
936.418	760.152
937.011	807.586
937.604	796.007
938.197	808.209
938.79	818.549
939.383	818.094
939.976	799.972
940.569	813.614
941.162	808.112
941.755	801.255
942.348	852.44
942.94	819.861
943.533	837.896
944.126	814.35
944.719	832.859
945.311	824.312
945.902	835.827
946.494	848.374
947.087	842.619
947.679	833.173
948.272	877.257
948.864	857.951
949.456	863.681
950.049	848.31
950.639	864.185
951.231	852.353
951.823	877.942
952.415	867.142
953.008	877.166
953.6	876.073
954.19	877.554
954.782	891.206
955.374	883.782
955.966	883.123
956.555	890.366
957.147	917.1
957.739	865.843
958.329	890.383
958.921	884.515
959.512	888.823
960.104	918.612
960.693	915.067
961.285	894.003
961.877	883.044
962.466	907.963
963.058	900.105
963.647	909.648
964.238	909.761
964.83	922.595
965.419	895.809
966.01	914.911
966.599	897.367
967.191	917.904
967.78	913.592
968.371	913.089
968.962	916.81
969.551	928.026
970.142	930.158
970.731	924.777
971.322	924.657
971.911	939.299
972.502	933.078
973.09	949.749
973.679	917.002
974.27	928.196
974.859	931.88
975.449	943.251
976.038	964.837
976.628	938.717
977.217	958.003
977.805	940.442
978.396	941.966
978.984	939.474
979.573	945.733
980.163	937.42
980.751	968.023
981.34	938.518
981.93	962.895
982.518	958.631
983.106	931.426
983.696	945.8
984.284	976.945
984.872	938.528
985.46	974.627
986.05	942.04
986.638	939.839
987.226	943.533
987.814	954.828
988.404	929.816
988.992	978.693
989.579	959.812
990.167	961.447
990.755	974.726
991.342	934.966
991.932	958.448
992.519	962.034
993.107	952.924
993.694	968.598
994.282	972.792
994.869	973.816
995.456	938.386
996.044	951.335
996.631	954.968
997.218	953.68
997.805	985.173
998.392	973.723
998.98	939.081
999.567	961.541
1000.15	961.035
1000.74	956.618
1001.33	943.822
1001.91	956.425
1002.5	957.249
1003.09	975.564
1003.68	989.373
1004.26	959.101
1004.85	938.715
1005.44	929.834
1006.02	937.002
1006.61	964.111
1007.2	945.411
1007.78	949.848
1008.37	959.51
1008.95	938.017
1009.54	941.724
1010.13	937.2
1010.71	962.448
1011.3	959.949
1011.88	957.202
1012.47	925.007
1013.05	942.653
1013.64	931.584
1014.23	923.144
1014.81	927.848
1015.4	949.821
1015.98	934.303
1016.57	930.106
1017.15	931.229
1017.74	925.588
1018.33	946.032
1018.91	933.177
1019.49	933.034
1020.08	925.668
1020.66	941.719
1021.25	946.243
1021.84	916.446
1022.42	907.313
1023	892.229
1023.59	934.895
1024.17	908.225
1024.76	912.976
1025.34	937.198
1025.93	902.132
1026.51	909.988
1027.1	923.045
1027.68	914.35
1028.26	912.449
1028.85	900.391
1029.43	895.698
1030.02	905.867
1030.6	874.576
1031.18	870.582
1031.77	906.701
1032.35	876.026
1032.94	904.215
1033.52	899.363
1034.1	862.623
1034.69	876.165
1035.27	910.47
1035.86	894.499
1036.44	878.64
1037.02	913.112
1037.61	871.948
1038.19	872.819
1038.77	846.578
1039.35	854.413
1039.94	874.424
1040.52	840.283
1041.1	834.968
1041.69	872.198
1042.27	861.742
1042.85	854.115
1043.44	846.79
1044.02	867.922
1044.6	826.805
1045.18	857.927
1045.77	845.611
1046.35	832.838
1046.93	829.431
1047.51	824.576
1048.09	855.949
1048.68	853.055
1049.26	811.403
1049.84	851.924
1050.42	856.111
1051	826.161
1051.59	818.806
1052.17	794.896
1052.75	830.587
1053.33	773.803
1053.92	823.831
1054.5	814.394
1055.08	826.781
1055.66	816.743
1056.24	824.299
1056.82	803.17
1057.4	791.537
1057.98	804.891
1058.57	801.01
1059.15	802.75
1059.73	808.738
1060.31	826.88
1060.89	793.538
1061.47	801.448
1062.05	816.344
1062.63	790.885
1063.21	747.549
1063.79	802.74
1064.37	765.63
1064.96	784.455
1065.54	755.43
1066.12	805.009
1066.7	763.144
1067.28	777.561
1067.86	770.389
1068.44	737.001
1069.02	760.038
1069.6	739.546
1070.18	746.485
1070.76	720.297
1071.34	760.886
1071.92	710.292
1072.5	734.856
1073.08	764.246
1073.66	752.982
1074.11	678.982
1074.7	755.982
1075.29	709.982
1075.88	717.982
1076.47	714.982
1077.05	732.982
1077.64	733.982
1078.23	673.982
1078.82	731.982
1079.4	701.982
1079.99	692.982
1080.58	719.982
1081.16	675.982
1081.75	693.982
1082.34	707.982
1082.93	710.982
1083.51	699.982
1084.1	699.982
1084.68	717.982
1085.27	682.982
1085.86	724.982
1086.44	687.982
1087.03	706.982
1087.62	660.982
1088.2	670.982
1088.79	683.982
1089.38	681.982
1089.96	667.982
1090.55	657.982
1091.14	681.982
1091.72	656.982
1092.31	676.982
1092.89	640.982
1093.48	621.982
1094.06	640.982
1094.65	665.982
1095.24	624.982
1095.82	629.982
1096.41	629.982
1096.99	639.982
1097.58	663.982
1098.16	619.982
1098.75	622.982
1099.34	631.982
1099.92	617.982
1100.51	615.982
1101.09	633.982
1101.68	626.982
1102.26	620.982
1102.85	589.982
1103.43	590.982
1104.02	630.982
1104.6	604.982
1105.19	613.982
1105.77	598.982
1106.35	561.982
1106.94	582.982
1107.52	580.982
1108.11	579.982
1108.69	596.982
1109.28	584.982
1109.86	583.982
1110.44	607.982
1111.03	596.982
1111.61	593.982
1112.2	564.982
1112.78	595.982
1113.37	577.982
1113.95	565.982
1114.53	553.982
1115.12	544.982
1115.7	545.982
1116.28	540.982
1116.87	558.982
1117.45	541.982
1118.04	580.982
1118.62	563.982
1119.2	530.982
1119.79	606.982
1120.37	524.982
1120.95	548.982
1121.54	510.982
1122.12	540.982
1122.7	545.982
1123.28	555.982
1123.87	496.982
1124.45	518.982
1125.03	523.982
1125.62	501.982
1126.2	501.982
1126.78	495.982
1127.36	489.982
1127.95	494.982
1128.53	506.982
1129.11	516.982
1129.69	495.982
1130.28	492.982
1130.86	505.982
1131.44	501.982
1132.02	491.982
1132.6	475.982
1133.19	491.982
1133.77	518.982
1134.35	498.982
1134.93	448.982
1135.52	460.982
1136.1	465.982
1136.68	486.982
1137.26	456.982
1137.84	473.982
1138.42	459.982
1139	456.982
1139.59	456.982
1140.17	458.982
1140.75	440.982
1141.33	461.982
1141.91	473.982
1142.49	455.982
1143.07	433.982
1143.65	446.982
1144.23	422.982
1144.82	432.982
1145.4	415.982
1145.98	415.982
1146.56	418.982
1147.14	394.982
1147.72	427.982
1148.3	412.982
1148.88	425.982
1149.46	426.982
1150.04	409.982
1150.62	433.982
1151.2	415.982
1151.78	410.982
1152.36	412.982
1152.94	417.982
1153.52	396.982
1154.1	386.982
1154.68	410.982
1155.26	406.982
1155.84	373.982
1156.42	386.982
1157	388.982
1157.58	381.982
1158.16	384.982
1158.74	340.982
1159.32	345.982
1159.9	373.982
1160.48	380.982
1161.06	359.982
1161.64	346.982
1162.22	389.982
1162.8	373.982
1163.38	366.982
1163.95	350.982
1164.53	364.982
1165.11	364.982
1165.69	339.982
1166.27	366.982
1166.85	340.982
1167.43	345.982
1168.01	325.982
1168.59	335.982
1169.16	333.982
1169.74	335.982
1170.32	304.982
1170.9	304.982
1171.48	294.982
1172.05	335.982
1172.63	338.982
1173.21	303.982
1173.79	303.982
1174.37	322.982
1174.95	308.982
1175.52	287.982
1176.1	320.982
1176.68	309.982
1177.26	304.982
1177.83	297.982
1178.41	305.982
1178.99	314.982
1179.57	301.982
1180.15	285.982
1180.72	309.982
1181.3	286.982
1181.88	265.982
1182.46	253.982
1183.03	284.982
1183.61	264.982
1184.19	280.982
1184.76	260.982
1185.34	278.982
1185.92	279.982
1186.49	251.982
1187.07	265.982
1187.65	255.982
1188.22	262.982
1188.8	258.982
1189.38	229.982
1189.95	263.982
1190.53	238.982
1191.11	244.982
1191.68	221.982
1192.26	231.982
1192.84	241.982
1193.41	243.982
1193.99	210.982
1194.56	220.982
1195.14	220.982
1195.72	248.982
1196.29	217.982
1196.87	213.982
1197.44	220.982
1198.02	226.982
1198.6	205.982
1199.17	197.982
1199.75	196.982
1200.32	222.982
1200.9	225.982
1201.47	198.982
1202.05	219.982
1202.62	205.982
1203.2	201.982
1203.77	187.982
1204.35	203.982
1204.92	203.982
1205.5	185.982
1206.07	186.982
1206.65	183.982
1207.22	168.982
1207.8	169.982
1208.37	164.982
1208.95	196.982
1209.52	172.982
1210.1	173.982
1210.67	175.982
1211.25	177.982
1211.82	187.982
1212.4	156.982
1212.97	148.982
1213.54	155.982
1214.12	162.982
1214.69	163.982
1215.27	157.982
1215.84	159.982
1216.41	173.982
1216.99	156.982
1217.56	159.982
1218.14	150.982
1218.71	138.982
1219.28	149.982
1219.86	126.982
1220.43	167.982
1221	150.982
1221.58	147.982
1222.15	138.982
1222.72	141.982
1223.3	134.982
1223.87	125.982
1224.44	111.982
1225.02	145.982
1225.59	140.982
1226.16	110.982
1226.74	123.982
1227.31	133.982
1227.88	124.982
1228.45	135.982
1229.03	126.982
1229.6	130.982
1230.17	130.982
1230.74	120.982
1231.32	111.982
1231.89	115.982
1232.46	135.982
1233.04	121.982
1233.61	117.982
1234.18	107.982
1234.75	124.982
1235.32	108.982
1235.9	104.982
1236.47	105.982
1237.04	126.982
1237.61	115.982
1238.18	100.982
1238.75	82.9823
1239.33	104.982
1239.9	107.982
1240.47	94.9823
1241.04	118.982
1241.61	114.982
1242.19	91.9823
1242.76	93.9823
1243.33	98.9823
1243.9	117.982
1244.47	92.9823
1245.04	104.982
1245.61	103.982
1246.18	106.982
1246.75	96.9823
1247.33	103.982
1247.9	92.9823
1248.47	108.982
1249.04	99.9823
1249.61	90.9823
1250.18	94.9823
1250.75	105.982
1251.32	110.982
1251.89	103.982
1252.46	91.9823
1253.03	105.982
1253.6	92.9823
1254.17	88.9823
1254.74	102.982
1255.31	98.9823
1255.88	127.982
1256.45	190.518
1257.02	154.823
1257.59	131.982
1258.16	115.982
1258.73	79.9823
1259.3	103.982
1259.87	212.982
1260.44	112.016
1261.01	162.537
1261.58	105.982
1262.15	116.982
1262.72	107.982
1263.29	82.9823
1263.86	90.9823
1264.43	99.9823
1265	94.9823
1265.57	90.9823
1266.14	97.9823
1266.71	96.9823
1267.27	94.9823
1267.84	95.9823
1268.41	96.9823
1268.98	88.9823
1269.55	87.9823
1270.12	100.982
1270.69	90.9823
1271.26	93.9823
1271.82	94.9823
1272.39	86.9823
1272.96	93.9823
1273.53	80.9823
1274.1	97.9823
1274.67	80.9823
1275.23	66.9823
1275.8	87.9823
1276.37	106.982
1276.94	86.9823
1277.51	83.9823
1278.08	95.9823
1278.64	109.982
1279.21	90.9823
1279.78	97.9823
1280.34	87.9823
1280.91	98.9823
1281.48	91.9823
1282.05	82.9823
1282.62	97.9823
1283.18	94.9823
1283.75	98.9823
1284.32	84.9823
1284.89	94.9823
1285.45	82.9823
1286.02	93.9823
1286.59	91.9823
1287.15	100.982
1287.72	83.9823
1288.29	93.9823
1288.85	97.9823
1289.42	98.9823
1289.99	92.9823
1290.56	103.982
1291.12	86.9823
1291.69	88.9823
1292.26	116.982
1292.82	91.9823
1293.39	88.9823
1293.96	92.9823
1294.52	120.982
1295.09	89.9823
1295.65	82.9823
1296.22	81.9823
1296.79	97.9823
1297.35	86.9823
1297.92	84.9823
1298.48	95.9823
1299.05	95.9823
1299.62	76.9823
1300.18	80.9823
