34.6581	21165.8
35.3335	21405.8
36.0088	21795.8
36.6841	22123.8
37.3593	22881.8
38.0345	23106.8
38.7096	23798.8
39.3847	24309.8
40.0597	24549.8
40.7347	24645.8
41.4096	24967.8
42.0845	24817.8
42.7594	24855.8
43.4342	25315.8
44.1089	25428.8
44.7836	25763.8
45.4583	26133.8
46.1329	25863.8
46.8075	26155.8
47.482	26479.8
48.1542	26872.8
48.8286	26951.8
49.503	27004.8
50.1773	27497.8
50.8516	27522.8
51.5258	27427.8
52.2	27728.8
52.8719	28195.8
53.5459	28209.8
54.22	28427.8
54.894	28483.8
55.568	28891.8
56.2396	28890.8
56.9134	29230.8
57.5872	28997.8
58.261	29498.8
58.9324	29550.8
59.6061	29651.8
60.2797	30012.8
60.9533	30234.8
61.6246	30119.8
62.2981	30478.8
62.9715	30995.8
63.6449	30795.8
64.3159	30790.8
64.9892	30617.8
65.6625	30645.8
66.3334	30574.8
67.0066	31006.8
67.6774	31120.8
68.3505	31253.8
69.0235	31343.8
69.6942	31430.8
70.3671	31363.8
71.04	31421.8
71.7105	31583.8
72.3833	31974.8
73.0537	31915.8
73.7264	31675.8
74.3968	31766.8
75.0694	31976.8
75.7397	31707.8
76.4122	31903.8
77.0823	32145.8
77.7548	32294.8
78.4248	32067.8
79.0972	31939.8
79.7671	31887.8
80.4394	31985.8
81.1093	32201.8
81.7814	31825.8
82.4512	31921.8
83.1232	32127.8
83.7929	32097.8
84.4649	32109.8
85.1345	32227.8
85.8041	32301.8
86.4759	32271.8
87.1453	32302.8
87.8171	32103.8
88.4864	31992.8
89.1558	31851.8
89.8274	32285.8
90.4966	32112.8
91.1658	32116.8
91.8372	31661.8
92.5063	31708.8
93.1754	31991.8
93.8467	31934.8
94.5156	31771.8
95.1846	31917.8
95.8534	31993.8
96.5246	31746.8
97.1933	32136.8
97.8621	31524.8
98.5308	31717.8
99.2017	31535.8
99.8703	31313.8
100.539	31353.8
101.207	31214.8
101.876	31059.8
102.546	30977.8
103.215	30744.8
103.883	30791.8
104.551	31350.8
105.22	31299.8
105.888	31207.8
106.558	30988.8
107.226	31056.8
107.894	31427.8
108.562	31345.8
109.23	31311.8
109.898	31433.8
110.566	31477.8
111.234	31047.8
111.902	30638.8
112.569	30406.8
113.237	30307.8
113.905	30804.8
114.572	30468.8
115.24	30761.8
115.907	30409.8
116.575	30343.8
117.242	30405.8
117.909	30443.8
118.577	30716.8
119.244	30763.8
119.911	30744.8
120.578	30316.8
121.245	29992.8
121.913	30225.8
122.58	29965.8
123.247	30080.8
123.913	29905.8
124.58	29737.8
125.247	29652.8
125.914	29503.8
126.578	29481.8
127.245	29660.8
127.912	29873.8
128.578	29689.8
129.245	29532.8
129.912	29664.8
130.576	29660.8
131.242	29714.8
131.909	29691.8
132.575	29646.8
133.241	29654.8
133.905	29512.8
134.571	29352.8
135.237	29197.8
135.904	28587.8
136.567	28553.8
137.233	28763.8
137.899	28601.8
138.563	28473.8
139.229	27959.8
139.895	27722.8
140.56	27658.8
141.224	27686.8
141.89	28289.8
142.555	28539.8
143.219	28427.8
143.884	28297.8
144.547	28797.8
145.213	28686.8
145.878	28724.8
146.541	28382.8
147.207	28565.8
147.872	28542.8
148.535	28401.8
149.2	28259.8
149.863	28408.8
150.528	28473.8
151.191	28604.8
151.856	28323.8
152.519	28344.8
153.184	27942.8
153.846	28213.8
154.511	27721.8
155.173	27981.8
155.838	27991.8
156.501	28163.8
157.165	27316.8
157.828	27395.8
158.492	27373.8
159.154	27469.8
159.819	27229.8
160.481	27365.8
161.143	27395.8
161.807	27428.8
162.469	27310.8
163.134	27367.8
163.795	27272.8
164.457	27220.8
165.121	27491.8
165.783	27293.8
166.445	27201.8
167.109	27205.8
167.771	27191.8
168.432	27424.8
169.096	27300.8
169.757	27449.8
170.419	27231.8
171.08	27201.8
171.744	26839.8
172.405	26893.8
173.067	26887.8
173.728	26927.8
174.391	26954.8
175.052	26713.8
175.713	26781.8
176.375	26760.8
177.036	26514.8
177.699	26750.8
178.36	26746.8
179.021	26810.8
179.681	26973.8
180.342	26965.8
181.003	26437.8
181.666	26493.8
182.326	26119.8
182.987	26259.8
183.648	26547.8
184.308	26393.8
184.969	26445.8
185.629	26220.8
186.289	26171.8
186.95	26023.8
187.61	26135.8
188.27	26371.8
188.93	26329.8
189.593	26041.8
190.253	25960.8
190.913	25992.8
191.573	25891.8
192.233	26377.8
192.891	25863.8
193.55	26019.8
194.21	25841.8
194.87	25829.8
195.53	25675.8
196.189	25678.8
196.849	25861.8
197.509	25892.8
198.168	25769.8
198.828	25914.8
199.487	25829.8
200.147	25865.8
200.806	25507.8
201.463	25625.8
202.122	25443.8
202.782	25568.8
203.441	25635.8
204.1	25549.8
204.759	25315.8
205.416	25335.8
206.075	25113.8
206.734	25309.8
207.393	25125.8
208.052	25331.8
208.708	25531.8
209.367	25461.8
210.026	25300.8
210.684	25206.8
211.341	25338.8
211.999	25429.8
212.658	25230.8
213.314	25490.8
213.973	25289.8
214.631	25173.8
215.29	25212.8
215.946	25152.8
216.604	25269.8
217.26	25299.8
217.918	25213.8
218.576	25082.8
219.232	24820.8
219.89	24886.8
220.548	25020.8
221.204	24725.8
221.862	25059.8
222.518	24805.8
223.175	24790.8
223.831	24601.8
224.489	24573.8
225.146	24909.8
225.802	24887.8
226.459	25029.8
227.115	24975.8
227.772	24941.8
228.427	25011.8
229.085	24887.8
229.74	25064.8
230.397	25013.8
231.052	24957.8
231.707	24683.8
232.365	24851.8
233.02	24596.8
233.677	24657.8
234.332	24579.8
234.989	24784.8
235.643	24835.8
236.298	24651.8
236.955	24748.8
237.61	24691.8
238.264	24567.8
238.921	24441.8
239.575	24675.8
240.23	24748.8
240.886	24861.8
241.541	24659.8
242.195	24398.8
242.851	24486.8
243.506	24364.8
244.16	24781.8
244.816	24615.8
245.47	24363.8
246.124	24551.8
246.778	24283.8
247.434	24169.8
248.088	24130.8
248.742	24675.8
249.396	24433.8
250.05	24260.8
250.706	24382.8
251.359	23975.8
252.013	24002.8
252.667	24378.8
253.32	24070.8
253.974	24577.8
254.629	24316.8
255.283	24363.8
255.936	24410.8
256.589	24339.8
257.243	24216.8
257.896	24538.8
258.549	24448.8
259.202	24436.8
259.855	24311.8
260.508	23809.8
261.161	24007.8
261.814	24178.8
262.467	24187.8
263.12	23931.8
263.773	24145.8
264.426	24041.8
265.078	24104.8
265.731	24107.8
266.384	23824.8
267.036	24027.8
267.689	24202.8
268.341	24219.8
268.994	24267.8
269.646	24313.8
270.299	24008.8
270.951	23888.8
271.603	24085.8
272.255	24135.8
272.908	24105.8
273.558	23980.8
274.21	23787.8
274.862	24003.8
275.514	23964.8
276.166	24065.8
276.818	24024.8
277.467	24317.8
278.119	24300.8
278.771	24173.8
279.423	24035.8
280.074	23952.8
280.724	24022.8
281.375	24043.8
282.027	24147.8
282.679	24269.8
283.328	24164.8
283.979	24038.8
284.631	24077.8
285.28	24005.8
285.931	23905.8
286.582	24174.8
287.234	23978.8
287.883	24388.8
288.534	23987.8
289.185	23867.8
289.834	24015.8
290.485	23849.8
291.133	24058.8
291.784	24113.8
292.435	24151.8
293.084	24143.8
293.734	24133.8
294.383	23760.8
295.034	24138.8
295.684	24169.8
296.333	24196.8
296.983	24139.8
297.632	24204.8
298.282	24006.8
298.93	23988.8
299.581	24170.8
300.229	24137.8
300.879	24155.8
301.527	24228.8
302.177	24084.8
302.825	24125.8
303.473	24195.8
304.123	23757.8
304.771	23913.8
305.421	24390.8
306.069	24095.8
306.718	24200.8
307.366	24057.8
308.014	24061.8
308.663	24168.8
309.311	23786.8
309.958	24287.8
310.608	23879.8
311.255	23915.8
311.903	24001.8
312.552	23490.8
313.199	23400.8
313.847	23459.8
314.496	23357.8
315.143	23671.8
315.79	23921.8
316.437	23765.8
317.086	23720.8
317.733	23697.8
318.38	23870.8
319.027	24298.8
319.676	24085.8
320.323	24380.8
320.969	23932.8
321.616	23861.8
322.263	23825.8
322.911	23907.8
323.558	24062.8
324.204	24049.8
324.851	24108.8
325.497	24008.8
326.144	24251.8
326.79	23866.8
327.438	24087.8
328.085	24151.8
328.731	24291.8
329.377	24309.8
330.023	24017.8
330.669	24035.8
331.315	23995.8
331.961	23750.8
332.607	23999.8
333.253	24101.8
333.899	24243.8
334.544	23835.8
335.19	23967.8
335.836	24065.8
336.482	24243.8
337.127	23929.8
337.773	23834.8
338.418	23950.8
339.064	24216.8
339.709	24108.8
340.355	23945.8
341	23592.8
341.645	23901.8
342.288	24040.8
342.933	24240.8
343.579	24103.8
344.224	24142.8
344.869	24037.8
345.514	24038.8
346.159	24039.8
346.802	24054.8
347.447	24258.8
348.091	24261.8
348.736	24007.8
349.381	23707.8
350.024	23789.8
350.668	23654.8
351.313	23940.8
351.957	23868.8
352.6	23976.8
353.244	24116.8
353.889	23867.8
354.533	24048.8
355.175	24043.8
355.82	24148.8
356.464	24155.8
357.106	24403.8
357.75	23734.8
358.394	24291.8
359.036	24083.8
359.68	23895.8
360.324	24142.8
360.966	24123.8
361.61	24051.8
362.254	24309.8
362.896	24052.8
363.54	24153.8
364.181	24206.8
364.825	23932.8
365.466	24030.8
366.11	23979.8
366.751	24259.8
367.395	24339.8
368.039	24004.8
368.68	24086.8
369.323	24067.8
369.964	24163.8
370.608	24253.8
371.249	24063.8
371.89	24243.8
372.533	24131.8
373.174	23930.8
373.817	24099.8
374.458	24207.8
375.101	24155.8
375.742	24106.8
376.383	24095.8
377.025	24141.8
377.666	24123.8
378.309	24051.8
378.95	24278.8
379.59	24489.8
380.233	24363.8
380.873	24297.8
381.514	24201.8
382.156	24175.8
382.796	24109.8
383.437	23813.8
384.079	24158.8
384.719	24391.8
385.359	24316.8
386	24271.8
386.642	24120.8
387.282	24214.8
387.922	24305.8
388.562	24044.8
389.202	24277.8
389.844	24387.8
390.483	24409.8
391.123	24054.8
391.763	24113.8
392.403	24017.8
393.044	24124.8
393.684	24337.8
394.324	24614.8
394.963	24325.8
395.602	24487.8
396.242	24384.8
396.881	24516.8
397.521	24577.8
398.16	24575.8
398.801	24396.8
399.44	24581.8
400.08	24442.8
400.719	24335.8
401.358	24408.8
401.997	24687.8
402.636	24451.8
403.275	24440.8
403.914	24597.8
404.552	24507.8
405.191	24675.8
405.83	24636.8
406.469	24790.8
407.107	24570.8
407.746	24803.8
408.382	24467.8
409.021	24786.8
409.659	24836.8
410.298	24501.8
410.936	24550.8
411.575	24735.8
412.213	24703.8
412.851	24825.8
413.49	24803.8
414.126	24899.8
414.764	24836.8
415.402	24876.8
416.04	24809.8
416.678	24766.8
417.314	24885.8
417.952	25248.8
418.59	25107.8
419.227	24849.8
419.865	24846.8
420.501	24762.8
421.139	25157.8
421.776	24867.8
422.414	25499.8
423.049	25212.8
423.687	25183.8
424.324	25231.8
424.96	25073.8
425.597	25074.8
426.234	25443.8
426.87	25188.8
427.507	25288.8
428.144	25261.8
428.779	25295.8
429.416	25337.8
430.051	25253.8
430.688	25411.8
431.325	25523.8
431.96	25349.8
432.597	25423.8
433.232	25456.8
433.869	25562.8
434.503	25232.8
435.14	25361.8
435.775	25659.8
436.412	25675.8
437.046	25560.8
437.683	25472.8
438.317	25485.8
438.954	25797.8
439.588	25447.8
440.224	25896.8
440.858	25590.8
441.495	25937.8
442.129	25761.8
442.765	25341.8
443.399	25183.8
444.033	25307.8
444.669	25609.8
445.303	26161.8
445.939	25964.8
446.573	25798.8
447.207	25712.8
447.843	25622.8
448.477	25761.8
449.11	25785.8
449.746	25887.8
450.38	26299.8
451.013	26281.8
451.647	25787.8
452.282	25832.8
452.916	25877.8
453.549	26085.8
454.182	26123.8
454.818	26089.8
455.451	26238.8
456.084	25994.8
456.718	26147.8
457.353	25711.8
457.986	25955.8
458.619	26136.8
459.252	25993.8
459.885	26453.8
460.518	26239.8
461.153	26072.8
461.786	25802.8
462.418	25931.8
463.051	25859.8
463.684	26220.8
464.316	26403.8
464.949	26235.8
465.582	25989.8
466.214	26095.8
466.847	26108.8
467.479	25992.8
468.111	26160.8
468.746	26247.8
469.378	26064.8
470.011	26124.8
470.643	25935.8
471.275	25978.8
471.907	25915.8
472.537	26112.8
473.169	26075.8
473.801	26463.8
474.433	26492.8
475.065	26351.8
475.697	25960.8
476.329	26316.8
476.961	26019.8
477.592	26039.8
478.224	26135.8
478.856	26123.8
479.487	25941.8
480.117	25828.8
480.748	25699.8
481.38	25777.8
482.011	25976.8
482.643	26136.8
483.274	26148.8
483.903	26093.8
484.534	26245.8
485.166	26079.8
485.797	25977.8
486.426	25788.8
487.057	25830.8
487.688	26093.8
488.319	26276.8
488.948	25891.8
489.579	25803.8
490.21	25749.8
490.839	26043.8
491.469	25937.8
492.1	26048.8
492.729	26129.8
493.359	26181.8
493.99	25709.8
494.618	26062.8
495.249	25673.8
495.88	25657.8
496.508	25701.8
497.138	25827.8
497.767	25668.8
498.397	25406.8
499.027	25719.8
499.655	25715.8
500.286	25415.8
500.914	25649.8
501.544	25799.8
502.172	25892.8
502.802	25797.8
503.43	25635.8
504.06	25533.8
504.687	25508.8
505.317	25518.8
505.945	25594.8
506.575	25735.8
507.203	25507.8
507.83	25585.8
508.46	25271.8
509.087	25279.8
509.717	25412.8
510.344	25594.8
510.972	25547.8
511.601	25371.8
512.228	25705.8
512.858	25176.8
513.485	25473.8
514.112	25434.8
514.741	25362.8
515.368	25470.8
515.995	25517.8
516.622	25376.8
517.252	25507.8
517.878	25135.8
518.505	25007.8
519.134	24787.8
519.761	24979.8
520.388	24993.8
521.014	24677.8
521.643	24638.8
522.27	24654.8
522.896	24499.8
523.523	24449.8
524.149	24734.8
524.776	24750.8
525.404	24669.8
526.031	24605.8
526.657	24721.8
527.283	24230.8
527.91	24374.8
528.536	24475.8
529.162	24574.8
529.788	24528.8
530.416	24806.8
531.042	24308.8
531.668	24223.2
532.294	24285.4
532.92	24097.1
533.546	24355.6
534.172	24478.4
534.798	24142.4
535.423	24368.5
536.049	24032.9
536.675	23930.8
537.3	23890.7
537.926	23812
538.551	24105.2
539.177	24065.4
539.802	24153.6
540.428	23621
541.051	23500.2
541.676	23430.7
542.301	23306.9
542.927	23577.1
543.552	23675.7
544.177	23736
544.802	23569.2
545.427	23300.4
546.05	22997.7
546.675	23137.4
547.3	23224.7
547.925	23068.8
548.55	23248.5
549.174	22682.3
549.797	22882.3
550.422	22888.7
551.047	22734.4
551.671	22647.2
552.294	22774.4
552.918	22821.7
553.543	22406.5
554.167	22624.6
554.789	22437.9
555.414	22140.8
556.038	22288.3
556.66	22050.3
557.285	22246.9
557.909	22289.7
558.531	22093.3
559.155	22198.3
559.777	21827.7
560.401	21714.4
561.025	21760.4
561.647	21723
562.271	21853.2
562.893	21898.5
563.517	21616.2
564.14	21526.5
564.762	21330.1
565.386	21379
566.007	21427.9
566.631	21225.3
567.252	21253.2
567.876	21151.7
568.497	21121
569.121	20975
569.742	20979.7
570.366	20992.2
570.987	21014.2
571.61	21440.6
572.231	22537.8
572.852	22083.1
573.476	20629.5
574.097	20740.7
574.72	20695.1
575.341	20721.2
575.961	20574.5
576.584	20721.9
577.205	20627.2
577.826	20497.3
578.449	20433.8
579.07	20209.3
579.69	20280.1
580.313	20416.4
580.934	20308.7
581.554	20121
582.174	20378.6
582.797	20158.3
583.417	19885.1
584.038	20041
584.658	19799.8
585.281	19812.5
585.901	20001.5
586.521	19885.5
587.141	19979.1
587.763	19871.8
588.383	19758.4
589.003	19720.8
589.623	19660.2
590.243	19603.3
590.863	19619.8
591.483	19535.9
592.105	19403.5
592.725	19216.1
593.345	19202.6
593.964	19091.1
594.584	19182.5
595.204	19143.1
595.823	19092.3
596.443	19208
597.062	19128.1
597.682	18875.8
598.301	18781.6
598.92	18613.2
599.54	18825.2
600.159	18631.1
600.778	18636.5
601.397	18550.3
602.017	18488.2
602.636	18417
603.255	18403.2
603.874	18375.6
604.493	18346.9
605.112	18404.3
605.731	18297
606.347	18204.6
606.966	18161.1
607.585	18151.2
608.204	17968
608.823	17851.6
609.441	17851.5
610.06	17816.2
610.676	17532.3
611.295	17510.6
611.913	17484.1
612.532	17318.4
613.15	17396.2
613.766	17268
614.385	17281.4
615.003	17051.6
615.621	17015.4
616.237	16942.5
616.856	16859.5
617.474	16886.1
618.09	16760.4
618.708	16744.5
619.326	16785
619.944	16647.5
620.56	16627
621.177	16454.3
621.793	16245.7
622.411	16374.4
623.029	16654
623.644	16562.3
624.262	16157.5
624.88	16146.6
625.495	15634.2
626.113	15535.1
626.728	15378.8
627.346	15377.4
627.961	15359.2
628.578	15432.9
629.194	15339.4
629.811	15315.4
630.426	15218.8
631.043	15293
631.658	15335.1
632.276	15239
632.891	15292.5
633.508	15385.2
634.123	15003.3
634.74	15053.1
635.354	14944
635.971	14719.9
636.586	14818.8
637.201	14694.1
637.818	14760.1
638.432	14653.8
639.047	14540.7
639.663	14454.5
640.278	14392.8
640.892	14378.6
641.509	14239.7
642.123	14407.5
642.738	14252.2
643.354	13984.4
643.968	13917.5
644.583	13809.8
645.199	13768.7
645.813	13666.9
646.427	13668
647.041	13739.5
647.655	13694.7
648.271	13518
648.885	13644.7
649.499	13419.2
650.113	13438.2
650.727	13578.3
651.343	13391.8
651.956	13452
652.57	13529.2
653.184	13376.3
653.797	13304.4
654.411	13181.6
655.024	13204.3
655.638	13277.8
656.254	13209
656.867	13124.6
657.48	13088.8
658.094	12929.2
658.707	13033.1
659.32	12952.9
659.933	12794.9
660.547	12812.4
661.16	12775.8
661.773	12856.2
662.386	12575.8
662.999	12648.4
663.612	12579.6
664.225	12390.4
664.838	12466.6
665.451	12486
666.063	12524.6
666.674	12333.7
667.287	12305.7
667.899	12241.8
668.512	12164.1
669.125	11944.2
669.404	12190.2
670.023	12071.2
670.644	12097.2
671.265	12066.2
671.886	11918.2
672.507	11843.2
673.128	11900.2
673.749	11957.2
674.368	11845.2
674.989	11978.2
675.609	11729.2
676.23	11849.2
676.851	11810.2
677.469	11709.2
678.09	11601.2
678.711	11481.2
679.331	11646.2
679.949	11539.2
680.57	11777.2
681.19	11458.2
681.811	11466.2
682.429	11564.2
683.049	11531.2
683.669	11486.2
684.287	11486.2
684.908	11509.2
685.528	11352.2
686.146	11322.2
686.766	11020.2
687.386	11170.2
688.003	11202.2
688.623	11294.2
689.241	11194.2
689.861	11297.2
690.481	11226.2
691.098	11186.2
691.718	11102.2
692.336	11100.2
692.955	11029.2
693.573	10837.2
694.192	11026.2
694.81	11179.2
695.429	11066.2
696.046	10982.2
696.666	10879.2
697.283	10922.2
697.902	10946.2
698.519	10996.2
699.139	11106.2
699.756	10903.2
700.375	10820.2
700.992	10681.2
701.611	10758.2
702.228	10795.2
702.844	10785.2
703.463	10754.2
704.08	10655.2
704.699	10530.2
705.316	10433.2
705.932	10510.2
706.551	10521.2
707.168	10589.2
707.784	10634.2
708.403	10569.2
709.019	10576.2
709.635	10617.2
710.254	10402.2
710.87	10351.2
711.487	10497.2
712.103	10637.2
712.721	10521.2
713.337	10578.2
713.953	10359.2
714.569	10419.2
715.188	10262.2
715.804	10426.2
716.419	10210.2
717.035	10204.2
717.651	10376.2
718.269	10196.2
718.885	10286.2
719.501	10282.2
720.116	10210.2
720.732	10257.2
721.348	10127.2
721.963	10287.2
722.579	10078.2
723.196	10135.2
723.812	10122.2
724.427	10017.2
725.043	10070.2
725.658	10125.2
726.273	10130.2
726.889	9864.18
727.504	9990.18
728.119	10024.2
728.734	9966.18
729.349	9988.18
729.964	9975.18
730.579	9833.18
731.194	10021.2
731.809	9982.18
732.424	9971.18
733.039	9880.18
733.654	9952.18
734.268	10034.2
734.883	9966.18
735.498	9803.18
736.112	9927.18
736.725	9954.18
737.34	9711.18
737.954	9836.18
738.569	9874.18
739.183	9778.18
739.797	9734.18
740.412	9760.18
741.024	9770.18
741.638	9706.18
742.252	9700.18
742.867	9770.18
743.481	9604.18
744.093	9804.18
744.707	9706.18
745.321	9849.18
745.935	9673.18
746.549	9835.18
747.161	9751.18
747.775	9549.18
748.388	9684.18
749	9612.18
749.614	9703.18
750.228	9592.18
750.841	9450.18
751.453	9858.18
752.066	9594.18
752.68	9496.18
753.291	9660.18
753.905	9648.18
754.516	9615.18
755.129	9803.18
755.743	9727.18
756.354	9612.18
756.967	9581.18
757.578	9562.18
758.192	9461.18
758.805	9564.18
759.416	9515.18
760.029	9520.18
760.64	9512.18
761.253	9659.18
761.863	9573.18
762.476	9712.18
763.087	9399.18
763.7	9652.18
764.311	9434.18
764.923	9497.18
765.534	9430.18
766.147	9455.18
766.757	9424.18
767.368	9443.18
767.98	9382.18
768.591	9291.18
769.203	9610.18
769.813	9544.18
770.424	9452.18
771.036	9314.18
771.646	9368.18
772.258	9322.18
772.869	9418.18
773.479	9362.18
774.091	9385.18
774.701	9248.18
775.311	9486.18
775.923	9381.18
776.533	9271.18
777.142	9496.18
777.752	9340.18
778.364	9447.18
778.974	9411.18
779.583	9421.18
780.193	9360.18
780.805	9359.18
781.414	9174.18
782.024	9364.18
782.633	9344.18
783.243	9375.18
783.854	9395.18
784.464	9368.18
785.073	9347.18
785.682	9077.18
786.291	8956.18
786.901	9236.18
787.51	9156.18
788.121	9201.18
788.73	9141.18
789.339	9068.18
789.948	9041.18
790.557	9018.18
791.166	8897.18
791.775	9024.18
792.384	8996.18
792.992	9066.18
793.601	8935.18
794.21	8886.18
794.819	8858.18
795.427	8835.18
796.036	8936.18
796.644	9032.18
797.253	9015.18
797.861	8964.18
798.47	8938.18
799.078	8856.18
799.686	8804.18
800.295	8981.18
800.903	8791.18
801.511	8661.18
802.12	8811.18
802.726	8901.18
803.334	8784.18
803.942	8558.18
804.55	8556.18
805.158	8580.18
805.766	8468.18
806.374	8435.18
806.979	8569.18
807.587	8546.18
808.195	8384.18
808.803	8258.18
809.41	8362.18
810.016	8345.18
810.624	8338.18
811.231	8412.18
811.839	8224.18
812.444	8188.18
813.052	8146.18
813.659	8166.18
814.267	8195.18
814.872	8163.18
815.479	8062.18
816.086	7821.18
816.692	7942.18
817.299	7907.18
817.906	7828.18
818.511	7782.18
819.118	7747.18
819.725	7825.18
820.33	7721.18
820.937	7710.18
821.542	7584.18
822.149	7407.18
822.755	7553.18
823.36	7419.18
823.967	7304.18
824.572	7344.18
825.178	7378.18
825.783	7148.18
826.389	7366.18
826.994	7187.18
827.6	7004.18
828.205	7096.18
828.811	7062.18
829.416	7222.18
830.022	7215.18
830.626	7146.18
831.232	7013.18
831.837	7097.18
832.441	6928.18
833.047	6851.18
833.651	6906.18
834.257	6795.18
834.861	6802.18
835.465	6652.18
836.071	6616.18
836.675	6594.18
837.281	6573.18
837.884	6622.18
838.488	6684.18
839.094	6544.18
839.697	6507.18
840.301	6431.18
840.905	6466.18
841.51	6366.18
842.114	6419.18
842.717	6416.18
843.323	6326.18
843.926	6371.18
844.529	6365.18
845.133	6372.18
845.736	6264.18
846.341	6267.18
846.944	6319.18
847.547	6255.18
848.15	6242.18
848.754	6253.18
849.359	6282.18
849.962	6206.18
850.565	6121.18
851.167	6182.18
851.77	6174.18
852.373	6269.18
852.976	6248.18
853.579	6165.18
854.181	6342.18
854.786	6174.18
855.389	6138.18
855.991	6106.18
856.594	6221.18
857.196	6203.18
857.799	6179.18
858.401	6306.18
859.004	6284.18
859.606	6315.18
860.208	6258.18
860.81	6155.18
861.413	6376.18
862.015	6469.18
862.617	6332.18
863.219	6501.18
863.821	6353.18
864.421	6351.18
865.023	6453.18
865.625	6467.18
866.227	6482.18
866.829	6602.18
867.431	6748.18
868.032	6574.18
868.634	6549.18
869.234	6627.18
869.836	6727.18
870.437	6531.18
871.039	6722.18
871.64	6774.18
872.242	6801.18
872.841	6866.18
873.443	6812.18
874.044	6765.18
874.645	6831.18
875.245	6951.18
875.846	6873.18
876.447	7015.18
877.048	6991.18
877.647	7096.18
878.249	6981.18
878.85	7103.18
879.449	7075.18
880.05	7212.18
880.651	7317.18
881.249	7297.18
881.85	7286.18
882.451	7233.18
883.05	7227.18
883.651	7366.18
884.249	7403.18
884.85	7540.18
885.451	7501.18
886.049	7651.18
886.65	7688.18
887.248	7679.18
887.849	7779.18
888.447	7617.18
889.048	7569.18
889.646	7839.18
890.246	7780.18
890.844	7904.18
891.445	7889.18
892.043	7870.18
892.643	7846.18
893.241	8001.18
893.841	7951.18
894.439	8039.18
895.039	8191.18
895.637	8145.18
896.237	8180.18
896.835	8240.18
897.433	8396.18
898.033	8395.18
898.63	8291.18
899.228	8606.18
899.828	8672.18
900.425	8559.18
901.025	8587.18
901.623	8466.18
902.22	8560.18
902.818	8461.18
903.417	8481.18
904.014	8716.18
904.612	8865.18
905.211	8738.18
905.808	8690.18
906.406	8828.18
907.003	8929.18
907.602	8847.18
908.199	9048.18
908.796	9168.18
909.393	9123.18
909.99	9135.18
910.589	9164.18
911.186	9101.18
911.783	9049.18
912.38	9036.18
912.977	9181.18
913.573	9189.18
914.17	9422.18
914.769	9295.18
915.365	9495.18
915.962	9444.18
916.559	9522.18
917.155	9622.18
917.752	9772.18
918.348	9797.18
918.944	9854.18
919.541	9832.18
920.137	9662.18
920.733	9729.18
921.33	9740.18
921.926	9895.18
922.522	9950.18
923.118	9932.18
923.714	9919.18
924.31	10060.2
924.906	9940.18
925.502	10147.2
926.098	10034.2
926.694	10183.2
927.29	10076.2
927.886	10304.2
928.48	10375.2
929.075	10366.2
929.671	10270.2
930.267	10300.2
930.862	10440.2
931.458	10401.2
932.054	10511.2
932.647	10539.2
933.243	10571.2
933.838	10598.2
934.433	10674.2
935.029	10433.2
935.622	10589.2
936.217	10765.2
936.813	10742.2
937.408	10814.2
938.001	10976.2
938.596	10734.2
939.191	10915.2
939.786	10892.2
940.379	10956.2
940.974	10964.2
941.569	11109.2
942.162	11029.2
942.757	10915.2
943.352	11090.2
943.944	10911.2
944.539	11042.2
945.132	11088.2
945.726	11143.2
946.321	11217.2
946.914	11241.2
947.508	11412.2
948.101	11407.2
948.695	11462.2
949.289	11426.2
949.882	11230.2
950.476	11364.2
951.068	11651.2
951.663	11492.2
952.255	11575.2
952.849	11463.2
953.441	11652.2
954.035	11480.2
954.627	11501.2
955.219	11771.2
955.813	11626.2
956.405	11636.2
956.999	11701.2
957.591	11802.2
958.185	11741.2
958.777	11786.2
959.369	11652.2
959.962	11903.2
960.554	11807.2
961.146	11991.2
961.739	11792.2
962.331	11753.2
962.922	11714.2
963.516	11838.2
964.107	11804.2
964.699	11918.2
965.292	12086.2
965.883	12131.2
966.475	12165.2
967.066	11967.2
967.659	12001.2
968.25	11981.2
968.841	11965.2
969.432	12158.3
970.026	12158.9
970.617	12157.9
971.207	12170.9
971.798	12175.9
972.389	12187.1
972.982	12092
973.573	12167.3
974.164	12244.9
974.755	12331.7
975.345	12287.8
975.936	12247
976.526	12245.9
977.117	12374.8
977.708	12330.6
978.3	12346.4
978.891	12485.1
979.481	12431.6
980.072	12319.3
980.662	12447.9
981.252	12196.9
981.843	12342.8
982.433	12344.3
983.023	12324.9
983.613	12423.2
984.203	12475.1
984.793	12486.2
985.383	12294.4
985.973	12065.7
986.561	12332.9
987.151	12177
987.741	12044.2
988.331	12498.4
988.921	12306.4
989.511	12461.7
990.1	12484
990.69	12383.7
991.28	12358
991.867	12554.4
992.457	12393.2
993.047	12702.7
993.636	12702.4
994.226	12626.1
994.813	12561.8
995.402	12508.1
995.992	12503.8
996.581	12567.1
997.17	12677.4
997.758	12569.2
998.347	12539.4
998.936	12696.1
999.523	12644
1000.11	12470.5
1000.7	12434.8
1001.29	12517.2
1001.88	12466.7
1002.47	12662
1003.06	12679
1003.64	12538.8
1004.23	12513.5
1004.82	12537.4
1005.41	12495.9
1006	12443.1
1006.58	12550.8
1007.17	12565.5
1007.76	12555.9
1008.35	12654.1
1008.93	12578.6
1009.52	12526
1010.11	12343.5
1010.7	12570.5
1011.28	12575.8
1011.87	12479.5
1012.46	12633.1
1013.04	12555.3
1013.63	12499.1
1014.22	12397.9
1014.81	12406.9
1015.39	12387.1
1015.98	12536.6
1016.57	12543.4
1017.15	12472.7
1017.74	12527.8
1018.33	12385.5
1018.92	12424.9
1019.5	12513.2
1020.09	12344.8
1020.67	12428.4
1021.26	12478.8
1021.85	12466.2
1022.43	12440.9
1023.02	12278.3
1023.6	12294.7
1024.19	12386.3
1024.78	12330.9
1025.36	12263.8
1025.95	12267.7
1026.54	12317.9
1027.12	12220.1
1027.71	12165
1028.29	12084.4
1028.88	12156.4
1029.46	11961.2
1030.05	12126.8
1030.63	12182.1
1031.22	12160.2
1031.81	12050.6
1032.39	11899
1032.98	11902.6
1033.56	11748.9
1034.15	12021.3
1034.73	11990
1035.32	11969.1
1035.9	11943.9
1036.49	11982.1
1037.07	11862.2
1037.66	11833.8
1038.24	11773.6
1038.83	11925.9
1039.41	11909.1
1039.99	11853.5
1040.58	11882.2
1041.16	11770.5
1041.75	11684.8
1042.33	11679.9
1042.92	11560
1043.5	11636
1044.09	11664.2
1044.67	11620
1045.25	11649.5
1045.84	11632.3
1046.42	11493.3
1047.01	11476.6
1047.59	11379
1048.17	11393.8
1048.76	11430.6
1049.34	11426.4
1049.92	11422.1
1050.51	11353.6
1051.09	11377.1
1051.67	11355.5
1052.26	11301
1052.84	11411.6
1053.42	11302.8
1054.01	11316.2
1054.59	11245.9
1055.17	11216
1055.76	11102.7
1056.34	10954.4
1056.92	11010.6
1057.5	11510.3
1058.09	10999.5
1058.67	10778.6
1059.25	10824.3
1059.84	10720.3
1060.42	10601.9
1061	10718
1061.58	10768.3
1062.17	10689.3
1062.75	10758.4
1063.33	10886.6
1063.91	11029.2
1064.49	10849.6
1065.08	10893.6
1065.66	10781.1
1066.24	10688.3
1066.82	10753.4
1067.4	10706.4
1067.99	10723.6
1068.57	10756.7
1069.15	10668.3
1069.73	10655.5
1070.31	10585.1
1070.89	10542.4
1071.48	10579.1
1072.06	10467.2
1072.64	10506.7
1073.22	10514.6
1073.8	10506.7
1074.38	10436
1074.96	10369.8
1075.54	10333.3
1076.12	10300
1076.71	10281.1
1077.29	10362.1
1077.87	10321.6
1078.45	10178.2
1079.03	10244.8
1079.61	10148.4
1080.19	10199.9
1080.77	10134.3
1081.35	10065.7
1081.93	10102.1
1082.51	10225.6
1083.09	10249.6
1083.67	10014.9
1084.25	10015.6
1084.83	10032.5
1085.41	10025.5
1085.99	9907.53
1086.57	10093
1087.15	10054.2
1087.73	9994.49
1088.31	9851.89
1088.89	9828.14
1089.47	9792.3
1090.05	9857.02
1090.63	9828.68
1091.21	9842.96
1091.79	9835.98
1092.37	9742.94
1092.95	9818.95
1093.53	9660.46
1094.11	9525.51
1094.69	9689.49
1095.27	9718.84
1095.84	9545.76
1096.42	9644.98
1097	9777.63
1097.58	9588.02
1098.16	9425.23
1098.74	9554.55
1099.32	9541.04
1099.9	9390.6
1100.47	9393.22
1101.05	9408.22
1101.63	9339.97
1102.21	9421.71
1102.79	9347.6
1103.37	9379.98
1103.95	9301.09
1104.52	9295.41
1105.1	9292.97
1105.68	9313.84
1106.26	9219.99
1106.84	9393.71
1107.42	9183.43
1107.99	9071.71
1108.57	9061
1109.15	9053.65
1109.73	8818.18
1110.3	9079.97
1110.88	9095.1
1111.46	9010.44
1112.04	9044.56
1112.61	9023.09
1113.19	8943.95
1113.77	8838.49
1114.34	8878.48
1114.92	8890.33
1115.5	8996.99
1116.08	8803.13
1116.65	8945.72
1117.23	8699.05
1117.81	8584.11
1118.38	8695.9
1118.96	8680.87
1119.54	8676.34
1120.11	8747.51
1120.69	8662.13
1121.27	8589.04
1121.84	8636.59
1122.42	8572.34
1123	8492.82
1123.57	8460.65
1124.15	8542.01
1124.72	8513.02
1125.3	8546.87
1125.88	8533.04
1126.45	8542.52
1127.03	8395.22
1127.6	8438.05
1128.18	8153.22
1128.76	8271.95
1129.33	8289.06
1129.91	8335.17
1130.48	8328.27
1131.06	8184.54
1131.63	8110.55
1132.21	8105.58
1132.79	8144.77
1133.36	7985.6
1133.93	8007.34
1134.51	8004.78
1135.09	8223.02
1135.66	7989.68
1136.24	8063.12
1136.81	7898.13
1137.39	7863.27
1137.96	7790.55
1138.54	7846.96
1139.11	7901.41
1139.69	7957.48
1140.26	7792.05
1140.83	7797.87
1141.41	7705.94
1141.98	7833.8
1142.56	7708.62
1143.13	7757.75
1143.71	7712.3
1144.28	7762.57
1144.86	7760.29
1145.43	7743.53
1146	7530.88
1146.2	7537.88
1146.79	7468.88
1147.37	7504.88
1147.95	7555.88
1148.53	7434.88
1149.12	7493.88
1149.7	7330.88
1150.28	7363.88
1150.86	7263.88
1151.44	7282.88
1152.02	7137.88
1152.6	7217.88
1153.19	7105.88
1153.77	7172.88
1154.35	7240.88
1154.93	7029.88
1155.51	7047.88
1156.09	7176.88
1156.67	7111.88
1157.25	7053.88
1157.83	7051.88
1158.42	7091.88
1159	6953.88
1159.58	6787.88
1160.16	6928.88
1160.74	6829.88
1161.32	6909.88
1161.9	6819.88
1162.48	6897.88
1163.06	6891.88
1163.64	6738.88
1164.22	6770.88
1164.8	6795.88
1165.38	6651.88
1165.96	6579.88
1166.54	6474.88
1167.12	6615.88
1167.7	6566.88
1168.28	6442.88
1168.86	6446.88
1169.44	6444.88
1170.02	6385.88
1170.6	6337.88
1171.18	6350.88
1171.76	6311.88
1172.34	6394.88
1172.92	6349.88
1173.5	6193.88
1174.08	6148.88
1174.66	6112.88
1175.24	6086.88
1175.82	6113.88
1176.4	6161.88
1176.97	6186.88
1177.55	6191.88
1178.13	5998.88
1178.71	5986.88
1179.29	5989.88
1179.87	6050.88
1180.45	5961.88
1181.03	5908.88
1181.61	5921.88
1182.18	5974.88
1182.76	5911.88
1183.34	5783.88
1183.92	5632.88
1184.5	5758.88
1185.08	5751.88
1185.65	5809.88
1186.23	5772.88
1186.81	5581.88
1187.39	5690.88
1187.97	5585.88
1188.55	5496.88
1189.12	5547.88
1189.7	5466.88
1190.28	5447.88
1190.86	5431.88
1191.43	5452.88
1192.01	5303.88
1192.59	5265.88
1193.17	5222.88
1193.74	5181.88
1194.32	5222.88
1194.9	5356.88
1195.48	5194.88
1196.05	5283.88
1196.63	5236.88
1197.21	5120.88
1197.79	5105.88
1198.36	4912.88
1198.94	5081.88
1199.52	5098.88
1200.09	5057.88
1200.67	5025.88
1201.25	5003.88
1201.82	4959.88
1202.4	4949.88
1202.98	4865.88
1203.55	4872.88
1204.13	4837.88
1204.7	4848.88
1205.28	4798.88
1205.86	4668.88
1206.44	4748.88
1207.01	4631.88
1207.59	4578.88
1208.16	4624.88
1208.74	4666.88
1209.31	4544.88
1209.89	4628.88
1210.47	4545.88
1211.04	4428.88
1211.62	4402.88
1212.19	4431.88
1212.77	4350.88
1213.34	4372.88
1213.92	4372.88
1214.5	4225.88
1215.07	4176.88
1215.65	4246.88
1216.22	4218.88
1216.8	4203.88
1217.37	4186.88
1217.95	4150.88
1218.52	4293.88
1219.1	4028.88
1219.67	4105.88
1220.25	4050.88
1220.82	4053.88
1221.4	4012.88
1221.97	3910.88
1222.55	3955.88
1223.12	3921.88
1223.7	3961.88
1224.27	3824.88
1224.85	3782.88
1225.42	3799.88
1225.99	3866.88
1226.57	3820.88
1227.14	3812.88
1227.72	3841.88
1228.29	3777.88
1228.86	3782.88
1229.44	3792.88
1230.01	3677.88
1230.59	3571.88
1231.16	3653.88
1231.73	3633.88
1232.31	3600.88
1232.88	3645.88
1233.46	3637.88
1234.03	3513.88
1234.6	3576.88
1235.18	3497.88
1235.75	3473.88
1236.32	3391.88
1236.9	3458.88
1237.47	3424.88
1238.04	3451.88
1238.61	3335.88
1239.19	3421.88
1239.76	3380.88
1240.33	3279.88
1240.91	3354.88
1241.48	3357.88
1242.05	3443.88
1242.63	3251.88
1243.2	3312.88
1243.77	3254.88
1244.34	3226.88
1244.92	3252.88
1245.49	3270.88
1246.06	3242.88
1246.63	3089.88
1247.21	3242.88
1247.78	3159.88
1248.35	3161.88
1248.92	3192.88
1249.5	3135.88
1250.07	3172.88
1250.64	3121.88
1251.21	3102.88
1251.78	3142.88
1252.36	3109.88
1252.93	3093.88
1253.5	3083.88
1254.07	3014.88
1254.64	3114.88
1255.21	3113.88
1255.78	3154.88
1256.36	3024.88
1256.93	3052.88
1257.5	3115.88
1258.07	3023.88
1258.64	3047.88
1259.21	3052.88
1259.78	3024.88
1260.35	3060.88
1260.93	3101.88
1261.5	3033.88
1262.07	3131.88
1262.64	3020.88
1263.21	3076.88
1263.78	2975.88
1264.35	3040.88
1264.92	3057.88
1265.49	2973.88
1266.06	3014.88
1266.63	3021.88
1267.2	3031.88
1267.77	2881.88
1268.34	3023.88
1268.91	3013.88
1269.48	3022.88
1270.05	3013.88
1270.62	3013.88
1271.19	2966.88
1271.76	2996.88
1272.33	2984.88
1272.9	2967.88
1273.47	3025.88
1274.04	3049.88
1274.61	3023.88
1275.18	3056.88
1275.75	2989.88
1276.32	2928.88
1276.89	2906.88
1277.46	2954.88
1278.03	2973.88
1278.6	2988.88
1279.17	3029.88
1279.74	2843.88
1280.3	2912.88
1280.87	3040.88
1281.44	2950.88
1282.01	3004.88
1282.58	2940.88
1283.15	2993.88
1283.72	2954.88
1284.29	2947.88
1284.86	2991.88
1285.42	2982.88
1285.99	2871.88
1286.56	2951.88
1287.13	2901.88
1287.7	3010.88
1288.27	2951.88
1288.83	2996.88
1289.4	2924.88
1289.97	2995.88
1290.54	2948.88
1291.11	2955.88
1291.68	2986.88
1292.24	2969.88
1292.81	2951.88
1293.38	2926.88
1293.95	2935.88
1294.51	2956.88
1295.08	2904.88
1295.65	2994.88
1296.22	2934.88
1296.79	2903.88
1297.35	2799.88
1297.92	3017.88
1298.49	3026.88
1299.05	2956.88
1299.62	2947.88
1300.19	2946.88
1300.76	2931.88
1301.32	2879.88
1301.89	2902.88
1302.46	2991.88
1303.02	2952.88
1303.59	2985.88
1304.16	3007.88
1304.72	2940.88
1305.29	2921.88
1305.86	2917.88
1306.42	2961.88
1306.99	2970.88
1307.56	2842.88
1308.12	2905.88
1308.69	2924.88
1309.26	2962.88
1309.82	2872.88
1310.39	2899.88
1310.95	2905.88
1311.52	2818.88
1312.09	2907.88
1312.65	2894.88
1313.22	2934.88
1313.78	2959.88
1314.35	2901.88
1314.92	2940.88
1315.48	2921.88
1316.05	2865.88
1316.61	2959.88
1317.18	2859.88
1317.74	2877.88
1318.31	2888.88
1318.87	2871.88
1319.44	2903.88
1320.01	2926.88
1320.57	2891.88
1321.13	2877.88
1321.7	2914.88
1322.27	2933.88
1322.83	2872.88
1323.4	2886.88
1323.96	2813.88
1324.52	2894.88
1325.09	2885.88
1325.65	3035.88
1326.22	6451.88
1326.78	4697.88
1327.35	2914.88
1327.91	2901.88
1328.48	2890.88
1329.04	2706.88
1329.61	2840.88
1330.17	2877.88
1330.73	2935.88
1331.3	2921.88
1331.86	2858.88
1332.43	2980.88
1332.99	2916.88
1333.55	2866.88
1334.12	2895.88
1334.68	2922.88
1335.25	2868.88
1335.81	2881.88
1336.37	2898.88
1336.94	2895.88
1337.5	3001.88
1338.06	2951.88
1338.63	2871.88
1339.19	2952.88
1339.75	2886.88
1340.32	2877.88
1340.88	2905.88
1341.44	2963.88
1342.01	3004.88
1342.57	2911.88
1343.13	3068.88
1343.69	2890.88
1344.26	2975.88
1344.82	2982.88
1345.38	2955.88
1345.95	2965.88
1346.51	2986.88
1347.07	2942.88
1347.64	2865.88
1348.2	2846.88
1348.76	2878.88
1349.32	2973.88
1349.88	3008.88
1350.45	2937.88
1351.01	2942.88
1351.57	2964.88
1352.13	2944.88
1352.7	2923.88
1353.26	2912.88
1353.82	2952.88
1354.38	2943.88
1354.94	2983.88
1355.51	3029.88
1356.07	2914.88
1356.63	2910.88
1357.19	2918.88
1357.75	2891.88
1358.31	2905.88
1358.87	2935.88
1359.43	3007.88
1360	2964.88
1360.56	2928.88
1361.12	2858.88
1361.68	2827.88
1362.24	2979.88
1362.8	2956.88
1363.36	2955.88
1363.92	2897.88
1364.49	2996.88
1365.05	2959.88
1365.61	2974.88
1366.17	2977.88
1366.73	2927.88
1367.29	2923.88
1367.85	2948.88
1368.41	2975.88
1368.97	2980.88
1369.53	2876.88
1370.09	2887.88
1370.65	2945.88
1371.21	2963.88
1371.77	2942.88
1372.33	2890.88
1372.89	2902.88
1373.45	2940.88
1374.01	2924.88
1374.57	2953.88
1375.13	2889.88
1375.69	2932.88
1376.25	2912.88
1376.81	2887.88
1377.37	2932.88
1377.93	2971.88
1378.49	2970.88
1379.05	2860.88
1379.61	2985.88
1380.17	2872.88
1380.73	2875.88
1381.29	2921.88
1381.85	2913.88
1382.41	2942.88
1382.97	2953.88
1383.52	2961.88
1384.08	3053.88
1384.64	2963.88
1385.2	2928.88
1385.76	2944.88
1386.32	2870.88
1386.88	2881.88
1387.44	2945.88
1387.99	2935.88
1388.55	2948.88
1389.11	2952.88
1389.67	2968.88
1390.23	2955.88
1390.79	2927.88
1391.35	2907.88
1391.9	2974.88
1392.46	3058.88
1393.02	2950.88
1393.58	3033.88
1394.14	2978.88
1394.7	2950.88
1395.25	2983.88
1395.81	2986.88
1396.37	2979.88
1396.93	2917.88
1397.48	2953.88
1398.04	2980.88
1398.6	2903.88
1399.16	2938.88
1399.71	2879.88
1400.27	2937.88
