34.6581	20620.5
35.3335	20899.5
36.0088	21304.5
36.6841	21735.5
37.3593	22517.5
38.0345	23028.5
38.7096	23809.5
39.3847	24112.5
40.0597	24475.5
40.7347	24413.5
41.4096	24837.5
42.0845	24752.5
42.7594	24986.5
43.4342	25017.5
44.1089	25534.5
44.7836	25968.5
45.4583	26030.5
46.1329	26553.5
46.8075	26692.5
47.482	26715.5
48.1542	26863.5
48.8286	27058.5
49.503	27338.5
50.1773	27392.5
50.8516	27751.5
51.5258	27781.5
52.2	28140.5
52.8719	28217.5
53.5459	28535.5
54.22	28598.5
54.894	28415.5
55.568	28731.5
56.2396	28919.5
56.9134	29080.5
57.5872	28989.5
58.261	29108.5
58.9324	29158.5
59.6061	29337.5
60.2797	29317.5
60.9533	29942.5
61.6246	29847.5
62.2981	30220.5
62.9715	30253.5
63.6449	30063.5
64.3159	30181.5
64.9892	30005.5
65.6625	30057.5
66.3334	29991.5
67.0066	30301.5
67.6774	30204.5
68.3505	30148.5
69.0235	30425.5
69.6942	30265.5
70.3671	30505.5
71.04	31407.5
71.7105	30553.5
72.3833	30719.5
73.0537	30511.5
73.7264	30448.5
74.3968	30511.5
75.0694	30833.5
75.7397	30695.5
76.4122	30362.5
77.0823	30717.5
77.7548	30738.5
78.4248	30781.5
79.0972	30419.5
79.7671	30428.5
80.4394	30229.5
81.1093	30599.5
81.7814	30547.5
82.4512	30450.5
83.1232	30267.5
83.7929	30356.5
84.4649	30079.5
85.1345	30505.5
85.8041	30404.5
86.4759	30590.5
87.1453	30641.5
87.8171	30320.5
88.4864	30020.5
89.1558	29920.5
89.8274	30100.5
90.4966	29873.5
91.1658	29902.5
91.8372	29615.5
92.5063	29852.5
93.1754	29710.5
93.8467	30029.5
94.5156	29835.5
95.1846	29899.5
95.8534	29947.5
96.5246	29939.5
97.1933	29767.5
97.8621	29641.5
98.5308	29562.5
99.2017	29557.5
99.8703	29324.5
100.539	29531.5
101.207	29275.5
101.876	29159.5
102.546	28924.5
103.215	28849.5
103.883	28920.5
104.551	28810.5
105.22	28731.5
105.888	28988.5
106.558	28861.5
107.226	29191.5
107.894	28945.5
108.562	29072.5
109.23	28949.5
109.898	29039.5
110.566	28608.5
111.234	28739.5
111.902	28391.5
112.569	28411.5
113.237	28228.5
113.905	28403.5
114.572	28411.5
115.24	28327.5
115.907	28509.5
116.575	28217.5
117.242	28476.5
117.909	28315.5
118.577	28377.5
119.244	28251.5
119.911	28218.5
120.578	28020.5
121.245	28066.5
121.913	27744.5
122.58	27971.5
123.247	27999.5
123.913	27594.5
124.58	27512.5
125.247	27401.5
125.914	27017.5
126.578	26855.5
127.245	27091.5
127.912	27486.5
128.578	27279.5
129.245	27437.5
129.912	27155.5
130.576	27375.5
131.242	27728.5
131.909	27416.5
132.575	27379.5
133.241	27419.5
133.905	27553.5
134.571	27031.5
135.237	26689.5
135.904	26480.5
136.567	26327.5
137.233	26044.5
137.899	25883.5
138.563	25915.5
139.229	25322.5
139.895	25235.5
140.56	25157.5
141.224	25817.5
141.89	25919.5
142.555	26153.5
143.219	26372.5
143.884	26493.5
144.547	26375.5
145.213	26359.5
145.878	26376.5
146.541	26431.5
147.207	26182.5
147.872	26428.5
148.535	26022.5
149.2	26051.5
149.863	26193.5
150.528	26068.5
151.191	26015.5
151.856	26060.5
152.519	26428.5
153.184	25975.5
153.846	25833.5
154.511	26839.5
155.173	26981.5
155.838	26162.5
156.501	25781.5
157.165	25648.5
157.828	25599.5
158.492	25295.5
159.154	25254.5
159.819	25284.5
160.481	25369.5
161.143	25351.5
161.807	25215.5
162.469	25233.5
163.134	25099.5
163.795	25216.5
164.457	25376.5
165.121	25247.5
165.783	25355.5
166.445	25388.5
167.109	25436.5
167.771	25416.5
168.432	25063.5
169.096	25083.5
169.757	25247.5
170.419	25100.5
171.08	25158.5
171.744	24999.5
172.405	25000.5
173.067	24983.5
173.728	24894.5
174.391	25055.5
175.052	24632.5
175.713	24711.5
176.375	24832.5
177.036	24721.5
177.699	24852.5
178.36	24629.5
179.021	24800.5
179.681	24711.5
180.342	24791.5
181.003	24791.5
181.666	24306.5
182.326	24323.5
182.987	24146.5
183.648	24448.5
184.308	24320.5
184.969	24527.5
185.629	23671.5
186.289	24121.5
186.95	24088.5
187.61	24106.5
188.27	24218.5
188.93	24213.5
189.593	24179.5
190.253	24319.5
190.913	24033.5
191.573	24052.5
192.233	24156.5
192.891	24139.5
193.55	23938.5
194.21	23814.5
194.87	24056.5
195.53	23797.5
196.189	23932.5
196.849	23947.5
197.509	24151.5
198.168	23740.5
198.828	24071.5
199.487	23969.5
200.147	23914.5
200.806	23771.5
201.463	23575.5
202.122	23645.5
202.782	23839.5
203.441	23601.5
204.1	23699.5
204.759	23584.5
205.416	23581.5
206.075	23623.5
206.734	23500.5
207.393	23954.5
208.052	23706.5
208.708	23755.5
209.367	23588.5
210.026	23677.5
210.684	23515.5
211.341	23824.5
211.999	23667.5
212.658	23752.5
213.314	23641.5
213.973	23559.5
214.631	23495.5
215.29	23589.5
215.946	23629.5
216.604	23522.5
217.26	23733.5
217.918	23724.5
218.576	23417.5
219.232	23284.5
219.89	23478.5
220.548	23172.5
221.204	23196.5
221.862	23405.5
222.518	23153.5
223.175	23225.5
223.831	23111.5
224.489	23319.5
225.146	23507.5
225.802	23458.5
226.459	23500.5
227.115	23513.5
227.772	23474.5
228.427	23481.5
229.085	23455.5
229.74	23471.5
230.397	23552.5
231.052	23541.5
231.707	23471.5
232.365	23327.5
233.02	23364.5
233.677	23364.5
234.332	23255.5
234.989	23228.5
235.643	23147.5
236.298	23279.5
236.955	23225.5
237.61	23481.5
238.264	23168.5
238.921	23267.5
239.575	23360.5
240.23	23522.5
240.886	23273.5
241.541	23289.5
242.195	23234.5
242.851	23168.5
243.506	22894.5
244.16	23139.5
244.816	23426.5
245.47	23025.5
246.124	23080.5
246.778	23244.5
247.434	23044.5
248.088	23002.5
248.742	23232.5
249.396	23230.5
250.05	23235.5
250.706	23191.5
251.359	23048.5
252.013	23016.5
252.667	22977.5
253.32	23287.5
253.974	23336.5
254.629	23499.5
255.283	23296.5
255.936	23299.5
256.589	23359.5
257.243	23106.5
257.896	23315.5
258.549	23400.5
259.202	23191.5
259.855	23331.5
260.508	23170.5
261.161	23352.5
261.814	23121.5
262.467	23229.5
263.12	23362.5
263.773	23258.5
264.426	23309.5
265.078	23164.5
265.731	23347.5
266.384	23035.5
267.036	23021.5
267.689	23117.5
268.341	23269.5
268.994	23416.5
269.646	23083.5
270.299	23225.5
270.951	23283.5
271.603	23399.5
272.255	23540.5
272.908	23487.5
273.558	23267.5
274.21	22915.5
274.862	23392.5
275.514	23156.5
276.166	23299.5
276.818	23400.5
277.467	23627.5
278.119	23469.5
278.771	23629.5
279.423	23644.5
280.074	23153.5
280.724	23463.5
281.375	23461.5
282.027	23616.5
282.679	23921.5
283.328	23518.5
283.979	23570.5
284.631	23548.5
285.28	23457.5
285.931	23629.5
286.582	23438.5
287.234	23408.5
287.883	23780.5
288.534	23559.5
289.185	23255.5
289.834	23584.5
290.485	23612.5
291.133	23722.5
291.784	23866.5
292.435	23792.5
293.084	23543.5
293.734	23600.5
294.383	23695.5
295.034	23783.5
295.684	23688.5
296.333	23645.5
296.983	24035.5
297.632	23815.5
298.282	23877.5
298.93	23724.5
299.581	23813.5
300.229	23845.5
300.879	23765.5
301.527	24026.5
302.177	24100.5
302.825	23867.5
303.473	24035.5
304.123	23727.5
304.771	23871.5
305.421	24104.5
306.069	24118.5
306.718	23962.5
307.366	24128.5
308.014	24223.5
308.663	24157.5
309.311	23820.5
309.958	24123.5
310.608	24129.5
311.255	23716.5
311.903	23801.5
312.552	23813.5
313.199	23397.5
313.847	23697.5
314.496	23423.5
315.143	23511.5
315.79	23771.5
316.437	23917.5
317.086	23869.5
317.733	23928.5
318.38	23781.5
319.027	24228.5
319.676	24475.5
320.323	24372.5
320.969	24369.5
321.616	24274.5
322.263	24262.5
322.911	24152.5
323.558	24041.5
324.204	24654.5
324.851	24297.5
325.497	24224.5
326.144	24495.5
326.79	24327.5
327.438	24185.5
328.085	24441.5
328.731	24512.5
329.377	24543.5
330.023	24331.5
330.669	24499.5
331.315	24570.5
331.961	24658.5
332.607	24443.5
333.253	24705.5
333.899	24520.5
334.544	24837.5
335.19	24367.5
335.836	24642.5
336.482	24825.5
337.127	24711.5
337.773	24743.5
338.418	24895.5
339.064	24914.5
339.709	24817.5
340.355	24453.5
341	24827.5
341.645	24701.5
342.288	24866.5
342.933	24887.5
343.579	25051.5
344.224	24921.5
344.869	24855.5
345.514	24989.5
346.159	25042.5
346.802	24655.5
347.447	25081.5
348.091	25278.5
348.736	24908.5
349.381	24725.5
350.024	24603.5
350.668	24723.5
351.313	24728.5
351.957	24881.5
352.6	24855.5
353.244	25265.5
353.889	25181.5
354.533	25058.5
355.175	25047.5
355.82	25151.5
356.464	25332.5
357.106	25205.5
357.75	25393.5
358.394	25152.5
359.036	25050.5
359.68	25465.5
360.324	25096.5
360.966	25080.5
361.61	25191.5
362.254	25552.5
362.896	25243.5
363.54	25522.5
364.181	25427.5
364.825	25399.5
365.466	25470.5
366.11	25291.5
366.751	25525.5
367.395	25690.5
368.039	25567.5
368.68	25784.5
369.323	25728.5
369.964	25765.5
370.608	25720.5
371.249	25775.5
371.89	25620.5
372.533	25274.5
373.174	25465.5
373.817	25755.5
374.458	25711.5
375.101	25943.5
375.742	25733.5
376.383	25907.5
377.025	25775.5
377.666	25736.5
378.309	25879.5
378.95	25879.5
379.59	26042.5
380.233	26045.5
380.873	25943.5
381.514	25950.5
382.156	26076.5
382.796	25855.5
383.437	25986.5
384.079	26243.5
384.719	25954.5
385.359	26042.5
386	26170.5
386.642	25809.5
387.282	26056.5
387.922	26146.5
388.562	26111.5
389.202	25904.5
389.844	26288.5
390.483	26066.5
391.123	26030.5
391.763	26245.5
392.403	26082.5
393.044	26421.5
393.684	26440.5
394.324	26542.5
394.963	26286.5
395.602	26498.5
396.242	26315.5
396.881	26421.5
397.521	26301.5
398.16	26411.5
398.801	26335.5
399.44	26523.5
400.08	26520.5
400.719	26535.5
401.358	26229.5
401.997	26605.5
402.636	26482.5
403.275	26728.5
403.914	26778.5
404.552	26469.5
405.191	26615.5
405.83	26870.5
406.469	26736.5
407.107	26693.5
407.746	26837.5
408.382	26703.5
409.021	27013.5
409.659	26815.5
410.298	27119.5
410.936	27058.5
411.575	26909.5
412.213	27084.5
412.851	27490.5
413.49	27295.5
414.126	27287.5
414.764	27241.5
415.402	26937.5
416.04	27303.5
416.678	27119.5
417.314	27285.5
417.952	27597.5
418.59	27429.5
419.227	27479.5
419.865	27405.5
420.501	27220.5
421.139	27571.5
421.776	27496.5
422.414	27825.5
423.049	27775.5
423.687	27340.5
424.324	27827.5
424.96	27570.5
425.597	27727.5
426.234	28027.5
426.87	27934.5
427.507	28020.5
428.144	28005.5
428.779	28009.5
429.416	27879.5
430.051	28010.5
430.688	28289.5
431.325	28195.5
431.96	28071.5
432.597	27765.5
433.232	28204.5
433.869	28355.5
434.503	28383.5
435.14	28127.5
435.775	28449.5
436.412	28276.5
437.046	28342.5
437.683	28403.5
438.317	28496.5
438.954	28328.5
439.588	28725.5
440.224	28526.5
440.858	28696.5
441.495	28558.5
442.129	28784.5
442.765	28533.5
443.399	28531.5
444.033	28368.5
444.669	28568.5
445.303	28716.5
445.939	28920.5
446.573	28825.5
447.207	28862.5
447.843	29135.5
448.477	28899.5
449.11	28871.5
449.746	29180.5
450.38	29236.5
451.013	29100.5
451.647	28864.5
452.282	29175.5
452.916	28961.5
453.549	29235.5
454.182	29056.5
454.818	29400.5
455.451	29728.5
456.084	29101.5
456.718	29068.5
457.353	28997.5
457.986	29306.5
458.619	28829.5
459.252	29141.5
459.885	29307.5
460.518	29669.5
461.153	29391.5
461.786	29089.5
462.418	29248.5
463.051	29307.5
463.684	29267.5
464.316	29539.5
464.949	29209.5
465.582	29177.5
466.214	29213.5
466.847	28967.5
467.479	29085.5
468.111	29301.5
468.746	29216.5
469.378	29481.5
470.011	29337.5
470.643	28767.5
471.275	29182.5
471.907	29279.5
472.537	29293.5
473.169	29023.5
473.801	29252.5
474.433	29434.5
475.065	29163.5
475.697	29194.5
476.329	28707.5
476.961	29069.5
477.592	29121.5
478.224	29205.5
478.856	29091.5
479.487	29103.5
480.117	29156.5
480.748	29130.5
481.38	29039.5
482.011	29175.5
482.643	28977.5
483.274	29058.5
483.903	29007.5
484.534	29215.5
485.166	29102.5
485.797	28891.5
486.426	28761.5
487.057	28821.5
487.688	28945.5
488.319	28711.5
488.948	28619.5
489.579	28594.5
490.21	28166.5
490.839	28777.5
491.469	28807.5
492.1	28775.5
492.729	28734.5
493.359	28368.5
493.99	28307.5
494.618	28545.5
495.249	28497.5
495.88	28407.5
496.508	28075.5
497.138	28253.5
497.767	28511.5
498.397	28094.5
499.027	28229.5
499.655	28002.5
500.286	28212.5
500.914	28151.5
501.544	28257.5
502.172	27974.5
502.802	27972.5
503.43	27763.5
504.06	27667.5
504.687	27512.5
505.317	27449.5
505.945	27842.5
506.575	27635.5
507.203	27443.5
507.83	27321.5
508.46	27216.5
509.087	27297.5
509.717	27511.5
510.344	27388.5
510.972	26825.5
511.601	27033.5
512.228	27070.5
512.858	26752.5
513.485	26772.5
514.112	26345.5
514.741	26559.5
515.368	26730.5
515.995	26537.5
516.622	26635.5
517.252	26101.5
517.878	26267.5
518.505	26123.5
519.134	26086.5
519.761	25925.5
520.388	25931.5
521.014	25571.5
521.643	25250.5
522.27	24936.5
522.896	25054.5
523.523	25353.5
524.149	25241.5
524.776	25257.5
525.404	25134.5
526.031	25163.5
526.657	24778.5
527.283	24521.5
527.91	24657.5
528.536	24980.5
529.162	24631.5
529.788	24615.5
530.416	24535.5
531.042	24527.5
531.668	23982.4
532.294	24063.4
532.92	24127.3
533.546	23874
534.172	23950.4
534.798	24079.9
535.423	23819.6
536.049	23633
536.675	23486.3
537.3	23384.3
537.926	23375.6
538.551	23325.4
539.177	23321
539.802	23331.3
540.428	22888.4
541.051	22904.9
541.676	22771.9
542.301	22757.8
542.927	22764.1
543.552	22562.2
544.177	22338.3
544.802	22411.7
545.427	22243.1
546.05	22048.3
546.675	22134.1
547.3	22045.4
547.925	21673.3
548.55	21775.2
549.174	21570.6
549.797	21468.4
550.422	21622
551.047	21246.3
551.671	21176.3
552.294	21249.5
552.918	21185.6
553.543	20980.9
554.167	21195.9
554.789	20975.3
555.414	20667.4
556.038	20738
556.66	20702.9
557.285	20489.2
557.909	20380.7
558.531	20571.4
559.155	20174.8
559.777	20263.7
560.401	20002.5
561.025	19864.7
561.647	20051.7
562.271	19790
562.893	19915.8
563.517	19971.2
564.14	19545.3
564.762	19551
565.386	19333.2
566.007	19325.1
566.631	19272.9
567.252	19281.9
567.876	19218.4
568.497	19099
569.121	18804.4
569.742	18795
570.366	18859.3
570.987	18826.5
571.61	18999.4
572.231	18897.2
572.852	18730.6
573.476	18647.5
574.097	18743.6
574.72	18641.6
575.341	18578.1
575.961	18532.3
576.584	18460.3
577.205	18366.4
577.826	18298.3
578.449	18198.1
579.07	18034.5
579.69	18087.6
580.313	18087.9
580.934	18144.7
581.554	18050.3
582.174	17985.6
582.797	17970.3
583.417	17852.3
584.038	17686
584.658	17799.7
585.281	17769.5
585.901	17689.9
586.521	17720.4
587.141	17711.2
587.763	17680.4
588.383	17372.6
589.003	17454.4
589.623	17264.7
590.243	17242.5
590.863	17325.4
591.483	17281.2
592.105	17114.9
592.725	17096.8
593.345	16955.2
593.964	16974
594.584	17045.8
595.204	17058.4
595.823	16994.6
596.443	17061.2
597.062	16878.5
597.682	16694.1
598.301	16688.3
598.92	16626.4
599.54	16652.6
600.159	16576.1
600.778	16554.1
601.397	16383.7
602.017	16406.4
602.636	16308.7
603.255	16169.9
603.874	16354.7
604.493	16306.5
605.112	16230.5
605.731	16181.2
606.347	16079.6
606.966	15888.7
607.585	15858.1
608.204	15891.7
608.823	15827
609.441	15776.2
610.06	15637.4
610.676	15467.7
611.295	15544.3
611.913	15406.4
612.532	15145.4
613.15	15302.3
613.766	15126.2
614.385	15048
615.003	14858.5
615.621	14817.7
616.237	14872
616.856	14773
617.474	14810.8
618.09	14628.2
618.708	14705.7
619.326	14547.7
619.944	14474.4
620.56	14351
621.177	14395.9
621.793	14133.7
622.411	14048.3
623.029	13979.5
623.644	13887.4
624.262	13695.2
624.88	13679.2
625.495	13409.5
626.113	13285.2
626.728	13067.6
627.346	13040.3
627.961	13042.9
628.578	13016.3
629.194	13190.7
629.811	13227
630.426	13132.5
631.043	13028.8
631.658	12946.7
632.276	13055.5
632.891	12988.9
633.508	13097.7
634.123	13026.9
634.74	12881.2
635.354	12717.5
635.971	12534.4
636.586	12618.8
637.201	12670.8
637.818	12540.1
638.432	12482.8
639.047	12418.3
639.663	12402.6
640.278	12294.9
640.892	12179.5
641.509	12200.7
642.123	12130.7
642.738	12142.6
643.354	12034.4
643.968	11947.5
644.583	11697.1
645.199	11723
645.813	11473.7
646.427	11732.8
647.041	11592.5
647.655	11564.6
648.271	11533.5
648.885	11482
649.499	11389.8
650.113	11418.3
650.727	11504.9
651.343	11534.9
651.956	11301
652.57	11277.6
653.184	11424.6
653.797	11406.9
654.411	11146.5
655.024	11069.1
655.638	11115.2
656.254	11055.5
656.867	11033.9
657.48	11128.8
658.094	10970.2
658.707	10857.3
659.32	10895.3
659.933	10880.1
660.547	10883
661.16	10955.7
661.773	11027.5
662.386	10817.6
662.999	10662.1
663.612	10604.3
664.225	10550.3
664.838	10386.4
665.451	10364.8
666.063	10576.4
666.674	10384
667.287	10279.9
667.899	10371.3
668.512	10344.2
669.125	10198.5
669.404	10265.5
670.023	10140.5
670.644	10365.5
671.265	10208.5
671.886	10146.5
672.507	10183.5
673.128	10183.5
673.749	10168.5
674.368	10210.5
674.989	10146.5
675.609	10217.5
676.23	9975.55
676.851	10139.5
677.469	10082.5
678.09	9863.55
678.711	9875.55
679.331	9920.55
679.949	9999.55
680.57	9936.55
681.19	9982.55
681.811	9896.55
682.429	9825.55
683.049	9741.55
683.669	9699.55
684.287	9675.55
684.908	9905.55
685.528	9879.55
686.146	9601.55
686.766	9708.55
687.386	9644.55
688.003	9607.55
688.623	9651.55
689.241	9682.55
689.861	9450.55
690.481	9647.55
691.098	9443.55
691.718	9380.55
692.336	9528.55
692.955	9644.55
693.573	9549.55
694.192	9594.55
694.81	9340.55
695.429	9533.55
696.046	9419.55
696.666	9462.55
697.283	9321.55
697.902	9309.55
698.519	9566.55
699.139	9320.55
699.756	9406.55
700.375	9321.55
700.992	9129.55
701.611	9228.55
702.228	9362.55
702.844	9281.55
703.463	9118.55
704.08	9223.55
704.699	9193.55
705.316	9039.55
705.932	9200.55
706.551	9043.55
707.168	9148.55
707.784	9131.55
708.403	9113.55
709.019	9005.55
709.635	9276.55
710.254	9087.55
710.87	9128.55
711.487	9064.55
712.103	9143.55
712.721	9019.55
713.337	9138.55
713.953	9145.55
714.569	9107.55
715.188	9085.55
715.804	8869.55
716.419	8749.55
717.035	8981.55
717.651	9020.55
718.269	8990.55
718.885	8839.55
719.501	8991.55
720.116	8812.55
720.732	8868.55
721.348	8946.55
721.963	8883.55
722.579	8892.55
723.196	8858.55
723.812	8997.55
724.427	8852.55
725.043	8838.55
725.658	8708.55
726.273	8753.55
726.889	8836.55
727.504	8735.55
728.119	8600.55
728.734	8650.55
729.349	8665.55
729.964	8860.55
730.579	8624.55
731.194	8716.55
731.809	8624.55
732.424	8660.55
733.039	8767.55
733.654	8724.55
734.268	8693.55
734.883	8703.55
735.498	8718.55
736.112	8697.55
736.725	8670.55
737.34	8600.55
737.954	8626.55
738.569	8504.55
739.183	8724.55
739.797	8641.55
740.412	8694.55
741.024	8569.55
741.638	8530.55
742.252	8598.55
742.867	8550.55
743.481	8454.55
744.093	8542.55
744.707	8560.55
745.321	8500.55
745.935	8530.55
746.549	8713.55
747.161	8520.55
747.775	8583.55
748.388	8527.55
749	8596.55
749.614	8664.55
750.228	8656.55
750.841	8641.55
751.453	8620.55
752.066	8701.55
752.68	8456.55
753.291	8488.55
753.905	8518.55
754.516	8601.55
755.129	8723.55
755.743	8718.55
756.354	8666.55
756.967	8750.55
757.578	8630.55
758.192	8613.55
758.805	8443.55
759.416	8634.55
760.029	8648.55
760.64	8672.55
761.253	8628.55
761.863	8526.55
762.476	8685.55
763.087	8750.55
763.7	8823.55
764.311	8724.55
764.923	8798.55
765.534	8747.55
766.147	8692.55
766.757	8677.55
767.368	8530.55
767.98	8689.55
768.591	8706.55
769.203	8872.55
769.813	8655.55
770.424	8813.55
771.036	8726.55
771.646	8748.55
772.258	8764.55
772.869	8746.55
773.479	8669.55
774.091	8815.55
774.701	8767.55
775.311	8902.55
775.923	8746.55
776.533	8764.55
777.142	8896.55
777.752	8923.55
778.364	8867.55
778.974	8854.55
779.583	9024.55
780.193	8870.55
780.805	8906.55
781.414	8928.55
782.024	8926.55
782.633	8975.55
783.243	8958.55
783.854	8916.55
784.464	8967.55
785.073	8836.55
785.682	8970.55
786.291	8839.55
786.901	8975.55
787.51	8881.55
788.121	8934.55
788.73	8876.55
789.339	8828.55
789.948	8792.55
790.557	8688.55
791.166	8668.55
791.775	8707.55
792.384	8661.55
792.992	8888.55
793.601	8800.55
794.21	8901.55
794.819	8857.55
795.427	8834.55
796.036	8862.55
796.644	8858.55
797.253	8905.55
797.861	8886.55
798.47	8744.55
799.078	8806.55
799.686	8928.55
800.295	8949.55
800.903	8849.55
801.511	8971.55
802.12	8908.55
802.726	8851.55
803.334	8748.55
803.942	8693.55
804.55	8719.55
805.158	8603.55
805.766	8693.55
806.374	8855.55
806.979	8773.55
807.587	8750.55
808.195	8723.55
808.803	8642.55
809.41	8655.55
810.016	8610.55
810.624	8508.55
811.231	8566.55
811.839	8536.55
812.444	8432.55
813.052	8441.55
813.659	8377.55
814.267	8361.55
814.872	8419.55
815.479	8391.55
816.086	8364.55
816.692	8188.55
817.299	8262.55
817.906	8312.55
818.511	8329.55
819.118	8207.55
819.725	8104.55
820.33	8122.55
820.937	8170.55
821.542	8126.55
822.149	8052.55
822.755	8006.55
823.36	7807.55
823.967	7736.55
824.572	7810.55
825.178	7766.55
825.783	7628.55
826.389	7698.55
826.994	7626.55
827.6	7657.55
828.205	7589.55
828.811	7658.55
829.416	7439.55
830.022	7562.55
830.626	7351.55
831.232	7392.55
831.837	7361.55
832.441	7221.55
833.047	7159.55
833.651	7224.55
834.257	7322.55
834.861	7224.55
835.465	7164.55
836.071	6975.55
836.675	6901.55
837.281	6909.55
837.884	6961.55
838.488	6831.55
839.094	6948.55
839.697	6812.55
840.301	6670.55
840.905	6658.55
841.51	6622.55
842.114	6637.55
842.717	6585.55
843.323	6652.55
843.926	6464.55
844.529	6440.55
845.133	6404.55
845.736	6212.55
846.341	6233.55
846.944	6267.55
847.547	6146.55
848.15	6290.55
848.754	6169.55
849.359	6236.55
849.962	6114.55
850.565	6068.55
851.167	6104.55
851.77	6096.55
852.373	6126.55
852.976	6117.55
853.579	5895.55
854.181	5924.55
854.786	5788.55
855.389	5947.55
855.991	5984.55
856.594	5849.55
857.196	5854.55
857.799	5919.55
858.401	5925.55
859.004	5895.55
859.606	5818.55
860.208	5939.55
860.81	5839.55
861.413	5895.55
862.015	5706.55
862.617	5885.55
863.219	6056.55
863.821	5932.55
864.421	5895.55
865.023	5817.55
865.625	5851.55
866.227	5812.55
866.829	5815.55
867.431	5912.55
868.032	5930.55
868.634	5873.55
869.234	5836.55
869.836	6092.55
870.437	5891.55
871.039	5956.55
871.64	6070.55
872.242	6205.55
872.841	6079.55
873.443	6170.55
874.044	6046.55
874.645	6090.55
875.245	6056.55
875.846	6181.55
876.447	6210.55
877.048	6209.55
877.647	6234.55
878.249	6165.55
878.85	6242.55
879.449	6127.55
880.05	6346.55
880.651	6329.55
881.249	6350.55
881.85	6224.55
882.451	6445.55
883.05	6431.55
883.651	6472.55
884.249	6400.55
884.85	6466.55
885.451	6438.55
886.049	6592.55
886.65	6421.55
887.248	6416.55
887.849	6549.55
888.447	6614.55
889.048	6647.55
889.646	6728.55
890.246	6725.55
890.844	6791.55
891.445	6805.55
892.043	6833.55
892.643	6742.55
893.241	6832.55
893.841	6786.55
894.439	6888.55
895.039	6852.55
895.637	6813.55
896.237	6891.55
896.835	7044.55
897.433	6880.55
898.033	7009.55
898.63	7029.55
899.228	7149.55
899.828	7129.55
900.425	7161.55
901.025	7180.55
901.623	7121.55
902.22	7228.55
902.818	7112.55
903.417	7136.55
904.014	7245.55
904.612	7240.55
905.211	7355.55
905.808	7374.55
906.406	7363.55
907.003	7429.55
907.602	7492.55
908.199	7569.55
908.796	7570.55
909.393	7636.55
909.99	7565.55
910.589	7517.55
911.186	7525.55
911.783	7604.55
912.38	7507.55
912.977	7644.55
913.573	7704.55
914.17	7749.55
914.769	7836.55
915.365	7702.55
915.962	7848.55
916.559	7897.55
917.155	7868.55
917.752	7856.55
918.348	7959.55
918.944	7935.55
919.541	8016.55
920.137	7946.55
920.733	8034.55
921.33	8023.55
921.926	8061.55
922.522	8215.55
923.118	8079.55
923.714	8409.55
924.31	8164.55
924.906	8256.55
925.502	8046.55
926.098	8163.55
926.694	8222.55
927.29	8414.55
927.886	8332.55
928.48	8400.55
929.075	8409.55
929.671	8471.55
930.267	8405.55
930.862	8370.55
931.458	8433.55
932.054	8393.55
932.647	8553.55
933.243	8481.55
933.838	8512.55
934.433	8572.55
935.029	8492.55
935.622	8560.55
936.217	8546.55
936.813	8688.55
937.408	8730.55
938.001	8709.55
938.596	8703.55
939.191	8769.55
939.786	8780.55
940.379	8813.55
940.974	8857.55
941.569	8735.55
942.162	8810.55
942.757	8874.55
943.352	8840.55
943.944	8669.55
944.539	8763.55
945.132	8923.55
945.726	9051.55
946.321	9123.55
946.914	8932.55
947.508	8952.55
948.101	8997.55
948.695	9109.55
949.289	9085.55
949.882	9109.55
950.476	9136.55
951.068	9308.55
951.663	9104.55
952.255	9270.55
952.849	9178.55
953.441	9275.55
954.035	9064.55
954.627	9259.55
955.219	9356.55
955.813	9418.55
956.405	9346.55
956.999	9371.55
957.591	9512.55
958.185	9442.55
958.777	9384.55
959.369	9445.55
959.962	9264.55
960.554	9500.55
961.146	9392.55
961.739	9412.55
962.331	9517.55
962.922	9420.55
963.516	9409.55
964.107	9469.55
964.699	9517.55
965.292	9559.55
965.883	9470.55
966.475	9663.55
967.066	9557.55
967.659	9578.55
968.25	9757.55
968.841	9642.55
969.432	9761.53
970.026	9753.84
970.617	9635.6
971.207	9587.75
971.798	9495.97
972.389	9687.28
972.982	9808.85
973.573	9662.83
974.164	9670.49
974.755	9787.59
975.345	9984.3
975.936	9866.1
976.526	9924.61
977.117	9902
977.708	9822.48
978.3	9989.74
978.891	9936.8
979.481	10011
980.072	9954.51
980.662	9901.71
981.252	9832.09
981.843	9963.49
982.433	9965.28
983.023	10012.4
983.613	10004.3
984.203	9915.34
984.793	9946.27
985.383	9970.31
985.973	9878.47
986.561	9990.24
987.151	9802.49
987.741	9959.83
988.331	10039.6
988.921	9991.72
989.511	10079.9
990.1	10273.5
990.69	10126
991.28	9989.68
991.867	10082
992.457	10161.6
993.047	10032.4
993.636	10220.8
994.226	10305.2
994.813	10257.5
995.402	10315.7
995.992	10248.3
996.581	10330.8
997.17	10211.4
997.758	10490.4
998.347	10474.6
998.936	10282.8
999.523	10346.3
1000.11	10366.1
1000.7	10348.3
1001.29	10374.7
1001.88	10422.3
1002.47	10391.3
1003.06	10349.6
1003.64	10415.2
1004.23	10393.1
1004.82	10355.6
1005.41	10475.8
1006	10278.8
1006.58	10510.7
1007.17	10544.7
1007.76	10594.1
1008.35	10580.1
1008.93	10422
1009.52	10520.7
1010.11	10467.1
1010.7	10419.4
1011.28	10555
1011.87	10611.9
1012.46	10634.6
1013.04	10526.7
1013.63	10640.1
1014.22	10392.1
1014.81	10456.7
1015.39	10516.7
1015.98	10407.1
1016.57	10604.1
1017.15	10598.1
1017.74	10624.2
1018.33	10626.9
1018.92	10718.4
1019.5	10529.4
1020.09	10520.3
1020.67	10624.7
1021.26	10663.9
1021.85	10590.4
1022.43	10627.5
1023.02	10528.2
1023.6	10534.9
1024.19	10632.7
1024.78	10515.5
1025.36	10561.9
1025.95	10663.2
1026.54	10564.6
1027.12	10583.6
1027.71	10513.6
1028.29	10415.7
1028.88	10493.6
1029.46	10464.9
1030.05	10514.4
1030.63	10552.7
1031.22	10568.5
1031.81	10644.7
1032.39	10490.1
1032.98	10425
1033.56	10559.7
1034.15	10491.1
1034.73	10395.3
1035.32	10400.6
1035.9	10569.8
1036.49	10601.5
1037.07	10538.6
1037.66	10465.3
1038.24	10483.5
1038.83	10592.1
1039.41	10543.5
1039.99	10520.9
1040.58	10612.4
1041.16	10512.8
1041.75	10468.7
1042.33	10424
1042.92	10421.2
1043.5	10384.2
1044.09	10313.5
1044.67	10487
1045.25	10472.9
1045.84	10425.8
1046.42	10402.9
1047.01	10473.3
1047.59	10423
1048.17	10284.8
1048.76	10345.6
1049.34	10365
1049.92	10363.1
1050.51	10440.1
1051.09	10434.5
1051.67	10413.5
1052.26	10245.2
1052.84	10358.4
1053.42	10333.9
1054.01	10267.2
1054.59	10345.2
1055.17	10370.1
1055.76	10218.5
1056.34	10203.8
1056.92	10046.7
1057.5	10081.5
1058.09	10011.2
1058.67	10073.4
1059.25	9885.66
1059.84	9938.43
1060.42	9896.09
1061	10042.4
1061.58	10008.2
1062.17	10037.8
1062.75	10157.5
1063.33	10155.3
1063.91	10299.9
1064.49	10214.9
1065.08	10195.2
1065.66	10184.7
1066.24	10055
1066.82	10130.6
1067.4	10055.8
1067.99	10080.5
1068.57	9926.8
1069.15	10191.6
1069.73	9996.59
1070.31	10103.2
1070.89	9921.9
1071.48	9987.58
1072.06	10029.7
1072.64	10051.3
1073.22	10015
1073.8	10075.7
1074.38	9901.46
1074.96	10007.4
1075.54	9922.85
1076.12	9779.04
1076.71	9856.98
1077.29	9919.93
1077.87	9735.62
1078.45	9867.62
1079.03	9872.05
1079.61	9822.57
1080.19	9830.58
1080.77	9768.04
1081.35	9664.75
1081.93	9851.17
1082.51	9853.78
1083.09	9885.18
1083.67	9880.1
1084.25	9738.37
1084.83	9831.15
1085.41	9848.63
1085.99	9756.25
1086.57	9812.53
1087.15	9695.39
1087.73	9717.67
1088.31	9792.64
1088.89	9742.32
1089.47	9677.07
1090.05	9783.28
1090.63	9576.66
1091.21	9693.43
1091.79	9683.48
1092.37	9697.61
1092.95	9575.44
1093.53	9610.38
1094.11	9525.38
1094.69	9496.93
1095.27	9525.09
1095.84	9555.82
1096.42	9587.49
1097	9621.86
1097.58	9499.16
1098.16	9540.75
1098.74	9457.79
1099.32	9479.73
1099.9	9480.26
1100.47	9475.05
1101.05	9603.62
1101.63	9490.53
1102.21	9505.79
1102.79	9414.43
1103.37	9456.56
1103.95	9324.12
1104.52	9467.83
1105.1	9437.3
1105.68	9481.52
1106.26	9535.85
1106.84	9387.13
1107.42	9387.22
1107.99	9412.24
1108.57	9290.17
1109.15	9281.17
1109.73	9203.46
1110.3	9284.1
1110.88	9267.21
1111.46	9289.34
1112.04	9319.18
1112.61	9234.29
1113.19	9199.58
1113.77	9283.42
1114.34	9194
1114.92	9181.86
1115.5	9218.04
1116.08	9295.46
1116.65	9097.97
1117.23	9183.12
1117.81	8987.76
1118.38	8995.86
1118.96	9030.46
1119.54	9032.18
1120.11	9011.42
1120.69	9057.61
1121.27	9094.16
1121.84	9032.52
1122.42	9029.46
1123	8907.29
1123.57	9090.52
1124.15	8989.32
1124.72	9041.37
1125.3	8975.37
1125.88	8924.96
1126.45	9025.99
1127.03	8786.53
1127.6	8794.4
1128.18	8804.02
1128.76	8879.11
1129.33	8682.32
1129.91	8810.38
1130.48	8818.6
1131.06	8543.11
1131.63	8578.78
1132.21	8571.85
1132.79	8602.7
1133.36	8571.99
1133.93	8546.19
1134.51	8759.6
1135.09	8539.94
1135.66	8600.23
1136.24	8636.49
1136.81	8570.94
1137.39	8524.67
1137.96	8513.24
1138.54	8411.27
1139.11	8607.9
1139.69	8613.3
1140.26	8577.87
1140.83	8308.61
1141.41	8317.72
1141.98	8464.87
1142.56	8455.57
1143.13	8430.44
1143.71	8434.6
1144.28	8216.75
1144.86	8309.66
1145.43	8307.93
1146	8165.88
1146.2	8155.88
1146.79	8164.88
1147.37	8092.88
1147.95	8115.88
1148.53	8069.88
1149.12	8155.88
1149.7	7887.88
1150.28	8012.88
1150.86	7962.88
1151.44	8006.88
1152.02	7957.88
1152.6	8117.88
1153.19	8040.88
1153.77	7998.88
1154.35	7843.88
1154.93	7777.88
1155.51	7807.88
1156.09	7769.88
1156.67	7924.88
1157.25	7771.88
1157.83	7719.88
1158.42	7733.88
1159	7616.88
1159.58	7728.88
1160.16	7697.88
1160.74	7596.88
1161.32	7497.88
1161.9	7601.88
1162.48	7809.88
1163.06	7702.88
1163.64	7578.88
1164.22	7625.88
1164.8	7653.88
1165.38	7504.88
1165.96	7453.88
1166.54	7468.88
1167.12	7443.88
1167.7	7372.88
1168.28	7316.88
1168.86	7234.88
1169.44	7347.88
1170.02	7182.88
1170.6	7259.88
1171.18	7167.88
1171.76	7350.88
1172.34	7153.88
1172.92	7244.88
1173.5	7316.88
1174.08	7117.88
1174.66	7161.88
1175.24	7168.88
1175.82	6975.88
1176.4	7162.88
1176.97	7116.88
1177.55	7020.88
1178.13	7066.88
1178.71	6889.88
1179.29	6944.88
1179.87	6967.88
1180.45	6893.88
1181.03	6959.88
1181.61	6996.88
1182.18	6929.88
1182.76	7001.88
1183.34	6821.88
1183.92	6904.88
1184.5	6726.88
1185.08	6772.88
1185.65	6721.88
1186.23	6788.88
1186.81	6816.88
1187.39	6684.88
1187.97	6633.88
1188.55	6596.88
1189.12	6498.88
1189.7	6632.88
1190.28	6620.88
1190.86	6594.88
1191.43	6480.88
1192.01	6485.88
1192.59	6407.88
1193.17	6416.88
1193.74	6438.88
1194.32	6402.88
1194.9	6456.88
1195.48	6389.88
1196.05	6472.88
1196.63	6332.88
1197.21	6311.88
1197.79	6385.88
1198.36	6267.88
1198.94	6238.88
1199.52	6112.88
1200.09	6164.88
1200.67	6126.88
1201.25	6093.88
1201.82	6144.88
1202.4	6051.88
1202.98	6051.88
1203.55	6098.88
1204.13	5922.88
1204.7	6042.88
1205.28	5974.88
1205.86	5876.88
1206.44	6001.88
1207.01	5946.88
1207.59	5795.88
1208.16	5772.88
1208.74	5808.88
1209.31	5897.88
1209.89	5784.88
1210.47	5740.88
1211.04	5720.88
1211.62	5567.88
1212.19	5842.88
1212.77	5625.88
1213.34	5634.88
1213.92	5635.88
1214.5	5451.88
1215.07	5490.88
1215.65	5381.88
1216.22	5426.88
1216.8	5451.88
1217.37	5483.88
1217.95	5353.88
1218.52	5621.88
1219.1	5536.88
1219.67	5385.88
1220.25	5342.88
1220.82	5321.88
1221.4	5257.88
1221.97	5267.88
1222.55	5249.88
1223.12	5254.88
1223.7	5206.88
1224.27	5163.88
1224.85	5177.88
1225.42	5259.88
1225.99	5174.88
1226.57	5096.88
1227.14	5100.88
1227.72	5096.88
1228.29	5081.88
1228.86	4990.88
1229.44	5107.88
1230.01	4996.88
1230.59	4896.88
1231.16	4836.88
1231.73	4887.88
1232.31	4851.88
1232.88	4906.88
1233.46	4905.88
1234.03	4878.88
1234.6	4647.88
1235.18	4716.88
1235.75	4690.88
1236.32	4692.88
1236.9	4725.88
1237.47	4570.88
1238.04	4721.88
1238.61	4572.88
1239.19	4621.88
1239.76	4489.88
1240.33	4434.88
1240.91	4483.88
1241.48	4506.88
1242.05	4477.88
1242.63	4549.88
1243.2	4540.88
1243.77	4488.88
1244.34	4392.88
1244.92	4393.88
1245.49	4428.88
1246.06	4369.88
1246.63	4356.88
1247.21	4407.88
1247.78	4265.88
1248.35	4231.88
1248.92	4337.88
1249.5	4264.88
1250.07	4145.88
1250.64	4383.88
1251.21	4212.88
1251.78	4337.88
1252.36	4211.88
1252.93	4311.88
1253.5	4246.88
1254.07	4311.88
1254.64	4327.88
1255.21	4181.88
1255.78	4268.88
1256.36	4193.88
1256.93	4152.88
1257.5	4201.88
1258.07	4158.88
1258.64	4169.88
1259.21	4215.88
1259.78	4111.88
1260.35	4107.88
1260.93	3998.88
1261.5	4150.88
1262.07	4145.88
1262.64	4112.88
1263.21	4140.88
1263.78	4087.88
1264.35	4026.88
1264.92	4069.88
1265.49	4046.88
1266.06	3995.88
1266.63	3994.88
1267.2	4028.88
1267.77	3990.88
1268.34	4015.88
1268.91	4118.88
1269.48	4220.88
1270.05	3982.88
1270.62	4060.88
1271.19	4075.88
1271.76	4018.88
1272.33	4008.88
1272.9	4056.88
1273.47	4043.88
1274.04	3994.88
1274.61	4085.88
1275.18	4002.88
1275.75	4050.88
1276.32	4038.88
1276.89	3938.88
1277.46	3954.88
1278.03	3997.88
1278.6	3992.88
1279.17	4031.88
1279.74	4087.88
1280.3	4013.88
1280.87	4010.88
1281.44	4003.88
1282.01	4062.88
1282.58	4040.88
1283.15	4138.88
1283.72	4025.88
1284.29	4048.88
1284.86	4036.88
1285.42	3986.88
1285.99	4050.88
1286.56	3880.88
1287.13	3952.88
1287.7	4042.88
1288.27	4050.88
1288.83	3999.88
1289.4	3919.88
1289.97	3980.88
1290.54	4033.88
1291.11	3938.88
1291.68	3959.88
1292.24	4016.88
1292.81	3993.88
1293.38	3982.88
1293.95	4037.88
1294.51	4075.88
1295.08	4019.88
1295.65	3975.88
1296.22	3962.88
1296.79	3983.88
1297.35	4033.88
1297.92	4069.88
1298.49	4034.88
1299.05	4052.88
1299.62	4070.88
1300.19	3967.88
1300.76	4000.88
1301.32	4061.88
1301.89	4089.88
1302.46	3957.88
1303.02	3878.88
1303.59	4035.88
1304.16	3999.88
1304.72	3948.88
1305.29	4009.88
1305.86	4008.88
1306.42	4009.88
1306.99	4012.88
1307.56	4024.88
1308.12	4031.88
1308.69	4054.88
1309.26	3980.88
1309.82	3986.88
1310.39	4047.88
1310.95	4100.88
1311.52	4051.88
1312.09	3948.88
1312.65	4012.88
1313.22	3960.88
1313.78	3922.88
1314.35	4073.88
1314.92	3953.88
1315.48	3977.88
1316.05	3957.88
1316.61	4064.88
1317.18	4045.88
1317.74	4089.88
1318.31	4060.88
1318.87	3996.88
1319.44	3952.88
1320.01	3953.88
1320.57	4080.88
1321.13	3975.88
1321.7	4006.88
1322.27	4066.88
1322.83	4053.88
1323.4	3960.88
1323.96	4040.88
1324.52	3986.88
1325.09	4021.88
1325.65	4052.88
1326.22	4021.88
1326.78	3988.88
1327.35	3980.88
1327.91	4012.88
1328.48	3953.88
1329.04	4013.88
1329.61	3935.88
1330.17	3937.88
1330.73	4025.88
1331.3	3998.88
1331.86	3997.88
1332.43	4080.88
1332.99	3998.88
1333.55	4008.88
1334.12	4033.88
1334.68	3986.88
1335.25	4083.88
1335.81	4080.88
1336.37	4095.88
1336.94	4096.88
1337.5	4105.88
1338.06	4030.88
1338.63	3979.88
1339.19	4007.88
1339.75	4128.88
1340.32	4065.88
1340.88	4126.88
1341.44	3983.88
1342.01	4095.88
1342.57	4011.88
1343.13	3944.88
1343.69	4055.88
1344.26	4030.88
1344.82	4027.88
1345.38	4029.88
1345.95	4057.88
1346.51	4053.88
1347.07	4043.88
1347.64	3979.88
1348.2	4064.88
1348.76	4009.88
1349.32	4081.88
1349.88	4097.88
1350.45	3974.88
1351.01	4056.88
1351.57	4040.88
1352.13	4055.88
1352.7	4027.88
1353.26	4056.88
1353.82	4024.88
1354.38	4078.88
1354.94	4144.88
1355.51	4111.88
1356.07	4081.88
1356.63	3997.88
1357.19	4077.88
1357.75	4093.88
1358.31	4105.88
1358.87	4088.88
1359.43	4066.88
1360	4040.88
1360.56	3997.88
1361.12	4053.88
1361.68	3998.88
1362.24	4090.88
1362.8	4109.88
1363.36	4149.88
1363.92	4058.88
1364.49	4108.88
1365.05	4047.88
1365.61	4093.88
1366.17	4007.88
1366.73	4199.88
1367.29	4124.88
1367.85	4167.88
1368.41	4116.88
1368.97	4041.88
1369.53	4131.88
1370.09	4048.88
1370.65	4102.88
1371.21	4189.88
1371.77	4167.88
1372.33	4120.88
1372.89	4160.88
1373.45	4161.88
1374.01	4091.88
1374.57	4102.88
1375.13	3933.88
1375.69	4110.88
1376.25	4109.88
1376.81	4100.88
1377.37	4062.88
1377.93	4160.88
1378.49	4125.88
1379.05	4072.88
1379.61	4060.88
1380.17	4033.88
1380.73	4158.88
1381.29	4112.88
1381.85	4132.88
1382.41	4162.88
1382.97	4101.88
1383.52	4110.88
1384.08	4073.88
1384.64	4118.88
1385.2	4115.88
1385.76	3952.88
1386.32	4072.88
1386.88	4199.88
1387.44	4183.88
1387.99	4184.88
1388.55	4181.88
1389.11	4170.88
1389.67	4145.88
1390.23	4032.88
1390.79	4279.88
1391.35	4133.88
1391.9	4257.88
1392.46	4073.88
1393.02	4096.88
1393.58	4281.88
1394.14	4181.88
1394.7	4195.88
1395.25	4186.88
1395.81	4136.88
1396.37	4204.88
1396.93	4097.88
1397.48	4051.88
1398.04	4084.88
1398.6	4124.88
1399.16	4054.88
1399.71	4199.88
1400.27	4142.88
