34.6581	12122.9
35.3335	12361.9
36.0088	12736.9
36.6841	13076.9
37.3593	13712.9
38.0345	14094.9
38.7096	14594.9
39.3847	15108.9
40.0597	15131.9
40.7347	15551.9
41.4096	15588.9
42.0845	15884.9
42.7594	16045.9
43.4342	16216.9
44.1089	16292.9
44.7836	16962.9
45.4583	17020.9
46.1329	17158.9
46.8075	17282.9
47.482	17485.9
48.1542	17901.9
48.8286	17974.9
49.503	18401.9
50.1773	18142.9
50.8516	18771.9
51.5258	18826.9
52.2	19033.9
52.8719	19481.9
53.5459	19624.9
54.22	19781.9
54.894	19906.9
55.568	19958.9
56.2396	20154.9
56.9134	20434.9
57.5872	20776.9
58.261	20928.9
58.9324	21000.9
59.6061	20936.9
60.2797	21134.9
60.9533	21482.9
61.6246	21663.9
62.2981	22067.9
62.9715	22313.9
63.6449	22119.9
64.3159	22280.9
64.9892	22044.9
65.6625	22395.9
66.3334	22528.9
67.0066	22378.9
67.6774	22769.9
68.3505	22848.9
69.0235	23191.9
69.6942	23004.9
70.3671	23133.9
71.04	22910.9
71.7105	23294.9
72.3833	23278.9
73.0537	23350.9
73.7264	23521.9
74.3968	23585.9
75.0694	23573.9
75.7397	23704.9
76.4122	23745.9
77.0823	24112.9
77.7548	24105.9
78.4248	23547.9
79.0972	24026.9
79.7671	24218.9
80.4394	23931.9
81.1093	23886.9
81.7814	23997.9
82.4512	23848.9
83.1232	23962.9
83.7929	23958.9
84.4649	23910.9
85.1345	24204.9
85.8041	24249.9
86.4759	24264.9
87.1453	24234.9
87.8171	24034.9
88.4864	24287.9
89.1558	24268.9
89.8274	24384.9
90.4966	24520.9
91.1658	24278.9
91.8372	24201.9
92.5063	24060.9
93.1754	24226.9
93.8467	24350.9
94.5156	24249.9
95.1846	24366.9
95.8534	24164.9
96.5246	24287.9
97.1933	24241.9
97.8621	24098.9
98.5308	24323.9
99.2017	24234.9
99.8703	24376.9
100.539	24058.9
101.207	24117.9
101.876	24005.9
102.546	23847.9
103.215	23910.9
103.883	23762.9
104.551	23582.9
105.22	23744.9
105.888	23927.9
106.558	23979.9
107.226	23914.9
107.894	24008.9
108.562	24307.9
109.23	24190.9
109.898	24296.9
110.566	24058.9
111.234	23714.9
111.902	23788.9
112.569	23684.9
113.237	23940.9
113.905	23836.9
114.572	23708.9
115.24	23532.9
115.907	23795.9
116.575	23705.9
117.242	23762.9
117.909	23889.9
118.577	24078.9
119.244	23549.9
119.911	23833.9
120.578	23574.9
121.245	23608.9
121.913	23335.9
122.58	23489.9
123.247	23362.9
123.913	23297.9
124.58	23211.9
125.247	22750.9
125.914	23000.9
126.578	23096.9
127.245	22926.9
127.912	23273.9
128.578	23360.9
129.245	23025.9
129.912	23088.9
130.576	22974.9
131.242	23325.9
131.909	23214.9
132.575	23073.9
133.241	23002.9
133.905	22912.9
134.571	22699.9
135.237	22408.9
135.904	22552.9
136.567	22520.9
137.233	22554.9
137.899	22000.9
138.563	22106.9
139.229	21731.9
139.895	21649.9
140.56	21791.9
141.224	22012.9
141.89	22271.9
142.555	22450.9
143.219	22467.9
143.884	22374.9
144.547	22473.9
145.213	22420.9
145.878	22588.9
146.541	22406.9
147.207	22487.9
147.872	22358.9
148.535	22573.9
149.2	22254.9
149.863	21896.9
150.528	22299.9
151.191	22268.9
151.856	22536.9
152.519	22189.9
153.184	22068.9
153.846	21980.9
154.511	21990.9
155.173	22040.9
155.838	21910.9
156.501	21776.9
157.165	21780.9
157.828	21615.9
158.492	21399.9
159.154	21440.9
159.819	21484.9
160.481	21592.9
161.143	21523.9
161.807	21586.9
162.469	21408.9
163.134	21477.9
163.795	21504.9
164.457	21691.9
165.121	21891.9
165.783	21886.9
166.445	21661.9
167.109	21576.9
167.771	21494.9
168.432	21326.9
169.096	21529.9
169.757	21601.9
170.419	21373.9
171.08	21435.9
171.744	21256.9
172.405	21395.9
173.067	21273.9
173.728	21296.9
174.391	21291.9
175.052	21266.9
175.713	21088.9
176.375	21159.9
177.036	20968.9
177.699	21032.9
178.36	21068.9
179.021	20952.9
179.681	20904.9
180.342	20948.9
181.003	20883.9
181.666	20877.9
182.326	20776.9
182.987	20779.9
183.648	20882.9
184.308	20651.9
184.969	20446.9
185.629	20713.9
186.289	20518.9
186.95	20508.9
187.61	20645.9
188.27	20688.9
188.93	20907.9
189.593	20576.9
190.253	20478.9
190.913	20392.9
191.573	20413.9
192.233	20634.9
192.891	20530.9
193.55	20648.9
194.21	20274.9
194.87	20425.9
195.53	20344.9
196.189	20361.9
196.849	20465.9
197.509	20458.9
198.168	20417.9
198.828	20470.9
199.487	20348.9
200.147	20031.9
200.806	20318.9
201.463	20400.9
202.122	20145.9
202.782	20057.9
203.441	20236.9
204.1	19978.9
204.759	19777.9
205.416	19674.9
206.075	20054.9
206.734	20056.9
207.393	20239.9
208.052	20093.9
208.708	20048.9
209.367	20325.9
210.026	20067.9
210.684	20408.9
211.341	20095.9
211.999	20034.9
212.658	19903.9
213.314	19902.9
213.973	19892.9
214.631	19537.9
215.29	19689.9
215.946	19841.9
216.604	19915.9
217.26	19706.9
217.918	20064.9
218.576	19749.9
219.232	19635.9
219.89	19588.9
220.548	19813.9
221.204	19658.9
221.862	19563.9
222.518	19522.9
223.175	19146.9
223.831	19302.9
224.489	19768.9
225.146	19731.9
225.802	19496.9
226.459	19854.9
227.115	19572.9
227.772	19583.9
228.427	19615.9
229.085	19519.9
229.74	19707.9
230.397	19518.9
231.052	19834.9
231.707	19304.9
232.365	19178.9
233.02	19362.9
233.677	19197.9
234.332	19402.9
234.989	19544.9
235.643	19407.9
236.298	19420.9
236.955	19377.9
237.61	19303.9
238.264	19276.9
238.921	19202.9
239.575	19452.9
240.23	19212.9
240.886	19286.9
241.541	19104.9
242.195	19194.9
242.851	18878.9
243.506	19316.9
244.16	19242.9
244.816	19244.9
245.47	19111.9
246.124	19133.9
246.778	19260.9
247.434	19128.9
248.088	18786.9
248.742	19153.9
249.396	19120.9
250.05	19099.9
250.706	18990.9
251.359	18870.9
252.013	18990.9
252.667	18589.9
253.32	19098.9
253.974	18993.9
254.629	19149.9
255.283	18963.9
255.936	19019.9
256.589	19006.9
257.243	19109.9
257.896	19252.9
258.549	19092.9
259.202	18906.9
259.855	19018.9
260.508	18677.9
261.161	18670.9
261.814	18748.9
262.467	18542.9
263.12	19027.9
263.773	18730.9
264.426	18804.9
265.078	18678.9
265.731	18588.9
266.384	18642.9
267.036	18969.9
267.689	18878.9
268.341	18857.9
268.994	18986.9
269.646	18688.9
270.299	18828.9
270.951	18814.9
271.603	18621.9
272.255	18965.9
272.908	18705.9
273.558	18616.9
274.21	18577.9
274.862	18560.9
275.514	18528.9
276.166	18518.9
276.818	18607.9
277.467	18778.9
278.119	18638.9
278.771	18608.9
279.423	18368.9
280.074	18636.9
280.724	18699.9
281.375	18614.9
282.027	18827.9
282.679	18632.9
283.328	18533.9
283.979	18552.9
284.631	18500.9
285.28	18620.9
285.931	18544.9
286.582	18440.9
287.234	18400.9
287.883	18622.9
288.534	18269.9
289.185	18371.9
289.834	18620.9
290.485	18450.9
291.133	18556.9
291.784	18528.9
292.435	18493.9
293.084	18437.9
293.734	18380.9
294.383	18239.9
295.034	18394.9
295.684	18598.9
296.333	18406.9
296.983	18420.9
297.632	18424.9
298.282	18605.9
298.93	18472.9
299.581	18424.9
300.229	18525.9
300.879	18902.9
301.527	18524.9
302.177	18408.9
302.825	18218.9
303.473	18353.9
304.123	18343.9
304.771	18645.9
305.421	18592.9
306.069	18428.9
306.718	18278.9
307.366	18425.9
308.014	18369.9
308.663	18427.9
309.311	18479.9
309.958	18509.9
310.608	18324.9
311.255	18096.9
311.903	17894.9
312.552	18192.9
313.199	17920.9
313.847	17856.9
314.496	18060.9
315.143	17953.9
315.79	17942.9
316.437	18160.9
317.086	18040.9
317.733	18053.9
318.38	18185.9
319.027	18425.9
319.676	18362.9
320.323	18256.9
320.969	18298.9
321.616	18342.9
322.263	18280.9
322.911	18170.9
323.558	18416.9
324.204	18490.9
324.851	18368.9
325.497	18232.9
326.144	18451.9
326.79	18261.9
327.438	18416.9
328.085	18441.9
328.731	18440.9
329.377	18446.9
330.023	18284.9
330.669	18195.9
331.315	18191.9
331.961	18272.9
332.607	18411.9
333.253	18526.9
333.899	18192.9
334.544	18142.9
335.19	18386.9
335.836	18127.9
336.482	18469.9
337.127	18471.9
337.773	18318.9
338.418	18264.9
339.064	18133.9
339.709	18088.9
340.355	18108.9
341	18015.9
341.645	18044.9
342.288	18222.9
342.933	18033.9
343.579	18136.9
344.224	18208.9
344.869	17896.9
345.514	17916.9
346.159	18293.9
346.802	18237.9
347.447	18318.9
348.091	18248.9
348.736	18004.9
349.381	17934.9
350.024	17890.9
350.668	17959.9
351.313	18065.9
351.957	17876.9
352.6	18239.9
353.244	18241.9
353.889	18159.9
354.533	18116.9
355.175	18122.9
355.82	18383.9
356.464	18298.9
357.106	18342.9
357.75	18184.9
358.394	18269.9
359.036	17950.9
359.68	18248.9
360.324	18190.9
360.966	18241.9
361.61	18308.9
362.254	18368.9
362.896	18372.9
363.54	18113.9
364.181	18236.9
364.825	18292.9
365.466	18365.9
366.11	18396.9
366.751	18220.9
367.395	18132.9
368.039	18227.9
368.68	18026.9
369.323	18276.9
369.964	18402.9
370.608	18278.9
371.249	18303.9
371.89	18241.9
372.533	18144.9
373.174	18224.9
373.817	18312.9
374.458	18232.9
375.101	18425.9
375.742	18315.9
376.383	18078.9
377.025	18148.9
377.666	18402.9
378.309	18484.9
378.95	18543.9
379.59	18428.9
380.233	18460.9
380.873	18293.9
381.514	18343.9
382.156	18057.9
382.796	18371.9
383.437	18124.9
384.079	18388.9
384.719	18526.9
385.359	18372.9
386	18275.9
386.642	18307.9
387.282	18002.9
387.922	18328.9
388.562	18508.9
389.202	18472.9
389.844	18471.9
390.483	18325.9
391.123	18287.9
391.763	18316.9
392.403	18458.9
393.044	18408.9
393.684	18504.9
394.324	18480.9
394.963	18561.9
395.602	18620.9
396.242	18447.9
396.881	18373.9
397.521	18608.9
398.16	18587.9
398.801	18459.9
399.44	18507.9
400.08	18490.9
400.719	18370.9
401.358	18467.9
401.997	18443.9
402.636	18489.9
403.275	18611.9
403.914	18865.9
404.552	18514.9
405.191	18704.9
405.83	18737.9
406.469	18409.9
407.107	18748.9
407.746	18752.9
408.382	18746.9
409.021	18840.9
409.659	18660.9
410.298	18635.9
410.936	18702.9
411.575	18765.9
412.213	18709.9
412.851	18785.9
413.49	18693.9
414.126	18654.9
414.764	18708.9
415.402	18844.9
416.04	18737.9
416.678	19016.9
417.314	18982.9
417.952	19020.9
418.59	18722.9
419.227	18864.9
419.865	18769.9
420.501	18770.9
421.139	18917.9
421.776	18812.9
422.414	19193.9
423.049	19161.9
423.687	18920.9
424.324	18876.9
424.96	18911.9
425.597	18931.9
426.234	19058.9
426.87	18976.9
427.507	19052.9
428.144	19251.9
428.779	19076.9
429.416	19204.9
430.051	19275.9
430.688	19286.9
431.325	19309.9
431.96	19145.9
432.597	18980.9
433.232	19009.9
433.869	19020.9
434.503	19169.9
435.14	19104.9
435.775	19421.9
436.412	19324.9
437.046	19390.9
437.683	19185.9
438.317	19432.9
438.954	19418.9
439.588	19400.9
440.224	19614.9
440.858	19329.9
441.495	19360.9
442.129	19455.9
442.765	19186.9
443.399	19196.9
444.033	19279.9
444.669	19324.9
445.303	19753.9
445.939	19676.9
446.573	19382.9
447.207	19371.9
447.843	19432.9
448.477	19738.9
449.11	19592.9
449.746	19634.9
450.38	19720.9
451.013	19871.9
451.647	19806.9
452.282	19759.9
452.916	19574.9
453.549	19730.9
454.182	19725.9
454.818	19837.9
455.451	19856.9
456.084	19874.9
456.718	19782.9
457.353	19739.9
457.986	19996.9
458.619	20007.9
459.252	19832.9
459.885	19982.9
460.518	19794.9
461.153	19832.9
461.786	19787.9
462.418	19912.9
463.051	19921.9
463.684	20060.9
464.316	19994.9
464.949	20109.9
465.582	19871.9
466.214	19750.9
466.847	19705.9
467.479	20032.9
468.111	19942.9
468.746	19950.9
469.378	19920.9
470.011	19989.9
470.643	19903.9
471.275	20060.9
471.907	20000.9
472.537	20129.9
473.169	20185.9
473.801	20069.9
474.433	19976.9
475.065	20096.9
475.697	19979.9
476.329	20085.9
476.961	20184.9
477.592	20002.9
478.224	20133.9
478.856	20020.9
479.487	19906.9
480.117	19876.9
480.748	20207.9
481.38	20134.9
482.011	20184.9
482.643	20114.9
483.274	20065.9
483.903	20066.9
484.534	20158.9
485.166	20104.9
485.797	20259.9
486.426	20094.9
487.057	20449.9
487.688	20258.9
488.319	19976.9
488.948	20159.9
489.579	20071.9
490.21	20032.9
490.839	20527.9
491.469	20248.9
492.1	20284.9
492.729	20346.9
493.359	20188.9
493.99	20189.9
494.618	20141.9
495.249	20228.9
495.88	20406.9
496.508	20389.9
497.138	20139.9
497.767	20084.9
498.397	20282.9
499.027	20171.9
499.655	20168.9
500.286	20453.9
500.914	20453.9
501.544	20420.9
502.172	20262.9
502.802	20275.9
503.43	20182.9
504.06	20155.9
504.687	20130.9
505.317	20345.9
505.945	20637.9
506.575	20473.9
507.203	20279.9
507.83	20069.9
508.46	20035.9
509.087	20286.9
509.717	20282.9
510.344	20437.9
510.972	20539.9
511.601	20644.9
512.228	20584.9
512.858	20032.9
513.485	20160.9
514.112	20336.9
514.741	20308.9
515.368	20384.9
515.995	20676.9
516.622	20463.9
517.252	20594.9
517.878	20372.9
518.505	20161.9
519.134	20386.9
519.761	20305.9
520.388	20236.9
521.014	20069.9
521.643	19791.9
522.27	19638.9
522.896	19799.9
523.523	20034.9
524.149	20077.9
524.776	19922.9
525.404	20146.9
526.031	20157.9
526.657	19980.9
527.283	20163.9
527.91	19973.9
528.536	19941.9
529.162	20200.9
529.788	20157.9
530.416	20148.9
531.042	20041.9
531.668	19629.3
532.294	19818.4
532.92	19908
533.546	19812.7
534.172	20160.3
534.798	19979
535.423	19908.8
536.049	20024.5
536.675	20067.2
537.3	19792.4
537.926	20134
538.551	20249.6
539.177	19959.5
539.802	19883.3
540.428	19834.3
541.051	19698.6
541.676	19959.2
542.301	19819.3
542.927	19691.3
543.552	19578.6
544.177	19706.6
544.802	19860.3
545.427	19644.3
546.05	19500.2
546.675	19477.1
547.3	19616
547.925	19387.3
548.55	19609.9
549.174	19633.7
549.797	19568.5
550.422	19416.9
551.047	19327.7
551.671	19231.4
552.294	19456.1
552.918	19324.2
553.543	19135.7
554.167	19170
554.789	19134.4
555.414	18763.8
556.038	19208.5
556.66	18935
557.285	18944.7
557.909	18835.5
558.531	18978.8
559.155	18964.5
559.777	18747.7
560.401	18563.8
561.025	18633.2
561.647	18640.2
562.271	18648.8
562.893	18736.4
563.517	18599.8
564.14	18646.5
564.762	18416.9
565.386	18491.6
566.007	18411.4
566.631	18229.5
567.252	18316.4
567.876	18404.9
568.497	18174.2
569.121	18140.1
569.742	18223.5
570.366	18099.8
570.987	18183.5
571.61	18108.8
572.231	18015.4
572.852	18112.8
573.476	17909.2
574.097	17853.2
574.72	17949.7
575.341	18035.7
575.961	17936.2
576.584	17815.8
577.205	17954.2
577.826	17823.7
578.449	17572.7
579.07	17688.5
579.69	17675.9
580.313	17461.5
580.934	17779.9
581.554	17695.1
582.174	17653.5
582.797	17330.9
583.417	17327.4
584.038	17384.8
584.658	17405.2
585.281	17252.2
585.901	17429.4
586.521	17270.6
587.141	17281.4
587.763	17225.4
588.383	17066.5
589.003	17268.5
589.623	17112.2
590.243	17204.5
590.863	17064.7
591.483	16960.2
592.105	16934.4
592.725	16813
593.345	16743.8
593.964	16818.2
594.584	16863.5
595.204	16825.3
595.823	16893
596.443	16747.7
597.062	16481
597.682	16336.3
598.301	16592
598.92	16514
599.54	16366.4
600.159	16361.8
600.778	16271.6
601.397	16265.7
602.017	16123.3
602.636	16195.6
603.255	16199.1
603.874	16387.5
604.493	16161.5
605.112	16158.4
605.731	16038.4
606.347	15883.2
606.966	15916.5
607.585	15856.5
608.204	15909.2
608.823	15720.9
609.441	15799.2
610.06	15695.5
610.676	15562
611.295	15427.1
611.913	15490.3
612.532	15321.8
613.15	15326.8
613.766	15106.5
614.385	15217.4
615.003	15004.4
615.621	14909.9
616.237	14876.3
616.856	14761.3
617.474	14918.6
618.09	15020.6
618.708	14790.1
619.326	14828.2
619.944	14769.7
620.56	14651.9
621.177	14497.3
621.793	14544.1
622.411	14477.9
623.029	14470.5
623.644	14394.6
624.262	14177.1
624.88	13964.8
625.495	13790.5
626.113	13829.4
626.728	13633.3
627.346	13672.8
627.961	13595.9
628.578	13686.2
629.194	13597.5
629.811	13508.4
630.426	13628.6
631.043	13678.5
631.658	13826.1
632.276	13657.9
632.891	13595.3
633.508	13581.4
634.123	13555.5
634.74	13384.3
635.354	13305.9
635.971	13342.2
636.586	13340
637.201	13489
637.818	13359.5
638.432	13072.4
639.047	13105.4
639.663	13095.2
640.278	13038.8
640.892	13070
641.509	13025.7
642.123	12808.7
642.738	13058.3
643.354	12908.2
643.968	12479.6
644.583	12625.1
645.199	12549.1
645.813	12597.2
646.427	12588.5
647.041	12532.6
647.655	12655.4
648.271	12389.4
648.885	12535.4
649.499	12473.3
650.113	12487.7
650.727	12495
651.343	12405.6
651.956	12587.9
652.57	12546.6
653.184	12347.2
653.797	12381.8
654.411	12296.4
655.024	12206
655.638	12243.8
656.254	12248.4
656.867	12150.6
657.48	12092.4
658.094	12031.8
658.707	12061.2
659.32	12091.5
659.933	11930
660.547	11996.7
661.16	11981.8
661.773	11970.1
662.386	11896.4
662.999	11746.5
663.612	11709
664.225	11669.3
664.838	11677
665.451	11744.4
666.063	11739.5
666.674	11648.6
667.287	11461.4
667.899	11632.1
668.512	11622.5
669.125	11619.1
669.404	11308.1
670.023	11472.1
670.644	11685.1
671.265	11472.1
671.886	11363.1
672.507	11297.1
673.128	11599.1
673.749	11336.1
674.368	11540.1
674.989	11380.1
675.609	11502.1
676.23	11461.1
676.851	11270.1
677.469	11365.1
678.09	11214.1
678.711	11241.1
679.331	11035.1
679.949	11048.1
680.57	11168.1
681.19	11087.1
681.811	11122.1
682.429	11168.1
683.049	11161.1
683.669	10959.1
684.287	11107.1
684.908	11089.1
685.528	10854.1
686.146	10759.1
686.766	10804.1
687.386	10565.1
688.003	10833.1
688.623	10792.1
689.241	10632.1
689.861	10788.1
690.481	10579.1
691.098	10813.1
691.718	10771.1
692.336	10807.1
692.955	10769.1
693.573	10662.1
694.192	10545.1
694.81	10649.1
695.429	10587.1
696.046	10411.1
696.666	10628.1
697.283	10453.1
697.902	10536.1
698.519	10445.1
699.139	10512.1
699.756	10375.1
700.375	10423.1
700.992	10181.1
701.611	10157.1
702.228	10375.1
702.844	10321.1
703.463	10153.1
704.08	10016.1
704.699	9949.07
705.316	9965.07
705.932	10031.1
706.551	10024.1
707.168	10023.1
707.784	10043.1
708.403	10076.1
709.019	9832.07
709.635	9906.07
710.254	9937.07
710.87	9949.07
711.487	9991.07
712.103	9924.07
712.721	9993.07
713.337	9734.07
713.953	9703.07
714.569	9821.07
715.188	9550.07
715.804	9767.07
716.419	9644.07
717.035	9779.07
717.651	9499.07
718.269	9567.07
718.885	9565.07
719.501	9567.07
720.116	9330.07
720.732	9480.07
721.348	9472.07
721.963	9323.07
722.579	9535.07
723.196	9307.07
723.812	9191.07
724.427	9260.07
725.043	9288.07
725.658	9449.07
726.273	9131.07
726.889	9237.07
727.504	9184.07
728.119	9021.07
728.734	8929.07
729.349	8994.07
729.964	9068.07
730.579	9039.07
731.194	9010.07
731.809	9039.07
732.424	8977.07
733.039	8969.07
733.654	8753.07
734.268	8919.07
734.883	8696.07
735.498	8876.07
736.112	8841.07
736.725	8914.07
737.34	8721.07
737.954	8871.07
738.569	8784.07
739.183	8741.07
739.797	8701.07
740.412	8675.07
741.024	8707.07
741.638	8521.07
742.252	8497.07
742.867	8467.07
743.481	8626.07
744.093	8621.07
744.707	8652.07
745.321	8503.07
745.935	8442.07
746.549	8555.07
747.161	8544.07
747.775	8384.07
748.388	8496.07
749	8399.07
749.614	8425.07
750.228	8447.07
750.841	8476.07
751.453	8415.07
752.066	8384.07
752.68	8285.07
753.291	8285.07
753.905	8179.07
754.516	8396.07
755.129	8315.07
755.743	8266.07
756.354	8156.07
756.967	8220.07
757.578	8128.07
758.192	8211.07
758.805	8080.07
759.416	8248.07
760.029	8158.07
760.64	8109.07
761.253	8053.07
761.863	8125.07
762.476	8082.07
763.087	8043.07
763.7	8103.07
764.311	8069.07
764.923	8059.07
765.534	8018.07
766.147	7939.07
766.757	7900.07
767.368	7934.07
767.98	8041.07
768.591	7898.07
769.203	7953.07
769.813	7868.07
770.424	7846.07
771.036	7761.07
771.646	7793.07
772.258	7855.07
772.869	7740.07
773.479	7919.07
774.091	7872.07
774.701	7677.07
775.311	7547.07
775.923	7827.07
776.533	7668.07
777.142	7878.07
777.752	7713.07
778.364	7749.07
778.974	7683.07
779.583	7876.07
780.193	7635.07
780.805	7744.07
781.414	7524.07
782.024	7680.07
782.633	7612.07
783.243	7595.07
783.854	7395.07
784.464	7560.07
785.073	7525.07
785.682	7474.07
786.291	7483.07
786.901	7508.07
787.51	7464.07
788.121	7434.07
788.73	7400.07
789.339	7304.07
789.948	7208.07
790.557	7238.07
791.166	7125.07
791.775	7162.07
792.384	7229.07
792.992	7186.07
793.601	7157.07
794.21	7106.07
794.819	7156.07
795.427	7190.07
796.036	7217.07
796.644	7176.07
797.253	7071.07
797.861	6949.07
798.47	6981.07
799.078	7015.07
799.686	7000.07
800.295	6872.07
800.903	6979.07
801.511	6856.07
802.12	6826.07
802.726	6739.07
803.334	6765.07
803.942	6862.07
804.55	6617.07
805.158	6711.07
805.766	6610.07
806.374	6519.07
806.979	6560.07
807.587	6576.07
808.195	6515.07
808.803	6356.07
809.41	6540.07
810.016	6410.07
810.624	6285.07
811.231	6330.07
811.839	6254.07
812.444	6216.07
813.052	6229.07
813.659	6259.07
814.267	6133.07
814.872	6118.07
815.479	5950.07
816.086	6002.07
816.692	5904.07
817.299	6031.07
817.906	6004.07
818.511	5940.07
819.118	5905.07
819.725	5795.07
820.33	5749.07
820.937	5670.07
821.542	5533.07
822.149	5685.07
822.755	5633.07
823.36	5421.07
823.967	5561.07
824.572	5507.07
825.178	5455.07
825.783	5354.07
826.389	5275.07
826.994	5318.07
827.6	5330.07
828.205	5346.07
828.811	5236.07
829.416	5333.07
830.022	5296.07
830.626	5060.07
831.232	5125.07
831.837	5081.07
832.441	4984.07
833.047	5015.07
833.651	5046.07
834.257	5024.07
834.861	5022.07
835.465	4841.07
836.071	4973.07
836.675	4968.07
837.281	4818.07
837.884	5025.07
838.488	4940.07
839.094	4914.07
839.697	4946.07
840.301	4898.07
840.905	4866.07
841.51	4960.07
842.114	5016.07
842.717	5030.07
843.323	4987.07
843.926	4870.07
844.529	4832.07
845.133	5029.07
845.736	4807.07
846.341	4932.07
846.944	4984.07
847.547	5031.07
848.15	4963.07
848.754	5091.07
849.359	4989.07
849.962	5104.07
850.565	5013.07
851.167	5086.07
851.77	5243.07
852.373	5318.07
852.976	5193.07
853.579	5153.07
854.181	5080.07
854.786	5181.07
855.389	5193.07
855.991	5280.07
856.594	5441.07
857.196	5436.07
857.799	5508.07
858.401	5433.07
859.004	5437.07
859.606	5593.07
860.208	5675.07
860.81	5777.07
861.413	5745.07
862.015	5807.07
862.617	5837.07
863.219	5828.07
863.821	5980.07
864.421	6056.07
865.023	5998.07
865.625	6172.07
866.227	6096.07
866.829	6221.07
867.431	6374.07
868.032	6395.07
868.634	6343.07
869.234	6359.07
869.836	6387.07
870.437	6665.07
871.039	6625.07
871.64	6648.07
872.242	6680.07
872.841	6788.07
873.443	6713.07
874.044	6852.07
874.645	6971.07
875.245	7102.07
875.846	7070.07
876.447	7305.07
877.048	7296.07
877.647	7246.07
878.249	7420.07
878.85	7383.07
879.449	7603.07
880.05	7583.07
880.651	7691.07
881.249	7814.07
881.85	7864.07
882.451	7922.07
883.05	7898.07
883.651	7953.07
884.249	8200.07
884.85	8080.07
885.451	8245.07
886.049	8259.07
886.65	8414.07
887.248	8443.07
887.849	8553.07
888.447	8650.07
889.048	8693.07
889.646	8709.07
890.246	8823.07
890.844	8884.07
891.445	8991.07
892.043	8943.07
892.643	8993.07
893.241	9032.07
893.841	9263.07
894.439	9323.07
895.039	9419.07
895.637	9519.07
896.237	9539.07
896.835	9512.07
897.433	9666.07
898.033	9647.07
898.63	9826.07
899.228	9909.07
899.828	10019.1
900.425	10013.1
901.025	9973.07
901.623	10048.1
902.22	10198.1
902.818	10269.1
903.417	10327.1
904.014	10366.1
904.612	10453.1
905.211	10388.1
905.808	10387.1
906.406	10604.1
907.003	10830.1
907.602	10724.1
908.199	10989.1
908.796	10878.1
909.393	10990.1
909.99	11075.1
910.589	11078.1
911.186	11161.1
911.783	11106.1
912.38	11257.1
912.977	11284.1
913.573	11389.1
914.17	11569.1
914.769	11527.1
915.365	11497.1
915.962	11735.1
916.559	11625.1
917.155	11895.1
917.752	12049.1
918.348	12021.1
918.944	12023.1
919.541	11834.1
920.137	12055.1
920.733	12055.1
921.33	12227.1
921.926	12315.1
922.522	12442.1
923.118	12501.1
923.714	12442.1
924.31	12471.1
924.906	12491.1
925.502	12429.1
926.098	12670.1
926.694	12765.1
927.29	12737.1
927.886	12925.1
928.48	12841.1
929.075	12733.1
929.671	12736.1
930.267	12859.1
930.862	13088.1
931.458	12893.1
932.054	13298.1
932.647	13212.1
933.243	13504.1
933.838	13126.1
934.433	13446.1
935.029	13287.1
935.622	13408.1
936.217	13535.1
936.813	13480.1
937.408	13577.1
938.001	13721.1
938.596	13605.1
939.191	13616.1
939.786	13867.1
940.379	13871.1
940.974	13910.1
941.569	13795.1
942.162	13801.1
942.757	14003.1
943.352	13823.1
943.944	13804.1
944.539	13761.1
945.132	14128.1
945.726	14175.1
946.321	14047.1
946.914	14218.1
947.508	14123.1
948.101	14267.1
948.695	14127.1
949.289	14155.1
949.882	14381.1
950.476	14565.1
951.068	14416.1
951.663	14286.1
952.255	14434.1
952.849	14471.1
953.441	14338.1
954.035	14191.1
954.627	14430.1
955.219	14667.1
955.813	14803.1
956.405	14614.1
956.999	14846.1
957.591	14736.1
958.185	14622.1
958.777	14736.1
959.369	14790.1
959.962	15003.1
960.554	14997.1
961.146	14801.1
961.739	14679.1
962.331	14874.1
962.922	14817.1
963.516	14892.1
964.107	15171.1
964.699	15214.1
965.292	15373.1
965.883	15053.1
966.475	14992.1
967.066	15012.1
967.659	14967.1
968.25	14982.1
968.841	14973.1
969.432	15471.2
970.026	15338.5
970.617	15146.1
971.207	15111
971.798	14883.5
972.389	15036.9
972.982	15294.9
973.573	15442.8
974.164	15367.1
974.755	15446.9
975.345	15192.8
975.936	15325.5
976.526	15265.5
977.117	15268.6
977.708	15188.4
978.3	15321.4
978.891	15587.2
979.481	15463.3
980.072	15300.8
980.662	15429.6
981.252	15471
981.843	15351.5
982.433	15263.4
983.023	15470.9
983.613	15432.6
984.203	15249.5
984.793	15332.2
985.383	15145.4
985.973	14948.1
986.561	15185.2
987.151	15199.3
987.741	15298.6
988.331	15380.2
988.921	15364.5
989.511	15268.3
990.1	15413.1
990.69	15388.4
991.28	15559.2
991.867	15483.5
992.457	15462.5
993.047	15565.9
993.636	15548.6
994.226	15471.6
994.813	15443.1
995.402	15393.4
995.992	15491.7
996.581	15618.9
997.17	15708
997.758	15380.1
998.347	15565.2
998.936	15544.2
999.523	15460.3
1000.11	15232.2
1000.7	15430.4
1001.29	15522.8
1001.88	15467.8
1002.47	15675.3
1003.06	15586.2
1003.64	15523.4
1004.23	15368.1
1004.82	15421.5
1005.41	15456.8
1006	15279.9
1006.58	15524.5
1007.17	15510.1
1007.76	15474.4
1008.35	15429.3
1008.93	15325.4
1009.52	15387.9
1010.11	15132
1010.7	15272.7
1011.28	15530.9
1011.87	15384.2
1012.46	15432.8
1013.04	15313.3
1013.63	15033.7
1014.22	15220
1014.81	15220.4
1015.39	15260.6
1015.98	15332.2
1016.57	15296.5
1017.15	15319.4
1017.74	15099.1
1018.33	15082.2
1018.92	15111
1019.5	15004.8
1020.09	15013.3
1020.67	15103.5
1021.26	15114.4
1021.85	15056.5
1022.43	14991.1
1023.02	14754
1023.6	14861
1024.19	14806.8
1024.78	15061.7
1025.36	14938.3
1025.95	14876.3
1026.54	14693.9
1027.12	14653
1027.71	14380.1
1028.29	14477.2
1028.88	14573.8
1029.46	14468.6
1030.05	14659.5
1030.63	14471.4
1031.22	14417.6
1031.81	14429.8
1032.39	14417.9
1032.98	14128.5
1033.56	14245.3
1034.15	14331.3
1034.73	14321.5
1035.32	14320.6
1035.9	14266.8
1036.49	14197.5
1037.07	13992.6
1037.66	14075.6
1038.24	14053.6
1038.83	14054
1039.41	13873
1039.99	14038.1
1040.58	13992.1
1041.16	13897.9
1041.75	13858.7
1042.33	13755.5
1042.92	13707.6
1043.5	13635.4
1044.09	13605.5
1044.67	13616
1045.25	13540.2
1045.84	13471.1
1046.42	13350.4
1047.01	13273.2
1047.59	13247.2
1048.17	13265.1
1048.76	13118
1049.34	13262.2
1049.92	13101.2
1050.51	13053.3
1051.09	13066.6
1051.67	12905.7
1052.26	12864.6
1052.84	12893.1
1053.42	12949.8
1054.01	12936.4
1054.59	12870.4
1055.17	12729.3
1055.76	12591.9
1056.34	12386.5
1056.92	12353.1
1057.5	12153.9
1058.09	12370.4
1058.67	12136.8
1059.25	12083.4
1059.84	12033.3
1060.42	11844.8
1061	11735
1061.58	11928.1
1062.17	11968.1
1062.75	12080.2
1063.33	11920.6
1063.91	11955
1064.49	11819.7
1065.08	11819.1
1065.66	11697.8
1066.24	11675.8
1066.82	11648.3
1067.4	11712.2
1067.99	11473.3
1068.57	11486.1
1069.15	11383
1069.73	11400.5
1070.31	11168.4
1070.89	11253.9
1071.48	11293
1072.06	11083.7
1072.64	11036.3
1073.22	11083
1073.8	10941.3
1074.38	10886.4
1074.96	10792.8
1075.54	10689.6
1076.12	10652.1
1076.71	10520.1
1077.29	10423.2
1077.87	10421.2
1078.45	10385.6
1079.03	10253.2
1079.61	10301.8
1080.19	10216.8
1080.77	10116.2
1081.35	10102.2
1081.93	10340.2
1082.51	10080.5
1083.09	9927.74
1083.67	9984.54
1084.25	9816.17
1084.83	9722.9
1085.41	9774.86
1085.99	9805.73
1086.57	9721.11
1087.15	9669.12
1087.73	9598.38
1088.31	9483.03
1088.89	9377.96
1089.47	9365.87
1090.05	9443.64
1090.63	9256.85
1091.21	9262.03
1091.79	9227.31
1092.37	9248.98
1092.95	9103.37
1093.53	9125.39
1094.11	9078.52
1094.69	9017.39
1095.27	8929.06
1095.84	8941.83
1096.42	8917.65
1097	8762.93
1097.58	8733.44
1098.16	8611.19
1098.74	8528.98
1099.32	8483.86
1099.9	8518.44
1100.47	8466.54
1101.05	8455.08
1101.63	8397.59
1102.21	8267.3
1102.79	8210.62
1103.37	8205.63
1103.95	8190
1104.52	8218.33
1105.1	8159.58
1105.68	8170.25
1106.26	8053.36
1106.84	7954.32
1107.42	7800.03
1107.99	7739.32
1108.57	7711.26
1109.15	7720.21
1109.73	7723.26
1110.3	7707.76
1110.88	7587.62
1111.46	7585
1112.04	7513.15
1112.61	7413.73
1113.19	7389.65
1113.77	7447.22
1114.34	7483.54
1114.92	7409.15
1115.5	7314.21
1116.08	7314.71
1116.65	7033.38
1117.23	7201.61
1117.81	7052.86
1118.38	7144.84
1118.96	6983.01
1119.54	7031.1
1120.11	6921.45
1120.69	6883.56
1121.27	6844.1
1121.84	6763.39
1122.42	6819
1123	6747.58
1123.57	6754.88
1124.15	6788.75
1124.72	6609.85
1125.3	6681.36
1125.88	6564.58
1126.45	6526.44
1127.03	6566.14
1127.6	6507.7
1128.18	6547.58
1128.76	6519.07
1129.33	6476.99
1129.91	6379.85
1130.48	6345.31
1131.06	6243.84
1131.63	6268.92
1132.21	6273.29
1132.79	6186.73
1133.36	6177.82
1133.93	6210.63
1134.51	6107.32
1135.09	6023.57
1135.66	6086.41
1136.24	6022.5
1136.81	6073.48
1137.39	5972.96
1137.96	5978.07
1138.54	5919.08
1139.11	5972.58
1139.69	5917.72
1140.26	5869.9
1140.83	5813.67
1141.41	5701.34
1141.98	5795.01
1142.56	5700.85
1143.13	5793.24
1143.71	5873.81
1144.28	5755.01
1144.86	5692.16
1145.43	5485.75
1146	5441.71
1146.2	5485.71
1146.79	5561.71
1147.37	5518.71
1147.95	5417.71
1148.53	5462.71
1149.12	5260.71
1149.7	5265.71
1150.28	5210.71
1150.86	5283.71
1151.44	5273.71
1152.02	5221.71
1152.6	5259.71
1153.19	5144.71
1153.77	5180.71
1154.35	5145.71
1154.93	5121.71
1155.51	5066.71
1156.09	4977.71
1156.67	5044.71
1157.25	4960.71
1157.83	4966.71
1158.42	4883.71
1159	4951.71
1159.58	4829.71
1160.16	4912.71
1160.74	4842.71
1161.32	4847.71
1161.9	4802.71
1162.48	4751.71
1163.06	4704.71
1163.64	4604.71
1164.22	4751.71
1164.8	4619.71
1165.38	4611.71
1165.96	4640.71
1166.54	4499.71
1167.12	4535.71
1167.7	4423.71
1168.28	4399.71
1168.86	4361.71
1169.44	4400.71
1170.02	4460.71
1170.6	4414.71
1171.18	4388.71
1171.76	4373.71
1172.34	4404.71
1172.92	4267.71
1173.5	4337.71
1174.08	4295.71
1174.66	4299.71
1175.24	4228.71
1175.82	4286.71
1176.4	4221.71
1176.97	4153.71
1177.55	3991.71
1178.13	4074.71
1178.71	4048.71
1179.29	4082.71
1179.87	4015.71
1180.45	4060.71
1181.03	3911.71
1181.61	3939.71
1182.18	3850.71
1182.76	3952.71
1183.34	3811.71
1183.92	3831.71
1184.5	3889.71
1185.08	3797.71
1185.65	3794.71
1186.23	3747.71
1186.81	3684.71
1187.39	3739.71
1187.97	3716.71
1188.55	3682.71
1189.12	3621.71
1189.7	3660.71
1190.28	3655.71
1190.86	3613.71
1191.43	3611.71
1192.01	3490.71
1192.59	3571.71
1193.17	3557.71
1193.74	3535.71
1194.32	3459.71
1194.9	3530.71
1195.48	3457.71
1196.05	3404.71
1196.63	3337.71
1197.21	3168.71
1197.79	3264.71
1198.36	3302.71
1198.94	3228.71
1199.52	3250.71
1200.09	3311.71
1200.67	3267.71
1201.25	3210.71
1201.82	3207.71
1202.4	3182.71
1202.98	3174.71
1203.55	3176.71
1204.13	3102.71
1204.7	3050.71
1205.28	3121.71
1205.86	2955.71
1206.44	2939.71
1207.01	2987.71
1207.59	3068.71
1208.16	2919.71
1208.74	2955.71
1209.31	2946.71
1209.89	2837.71
1210.47	2834.71
1211.04	2815.71
1211.62	2732.71
1212.19	2725.71
1212.77	2771.71
1213.34	2678.71
1213.92	2686.71
1214.5	2704.71
1215.07	2591.71
1215.65	2622.71
1216.22	2574.71
1216.8	2674.71
1217.37	2595.71
1217.95	2759.71
1218.52	2563.71
1219.1	2575.71
1219.67	2598.71
1220.25	2462.71
1220.82	2514.71
1221.4	2446.71
1221.97	2524.71
1222.55	2424.71
1223.12	2502.71
1223.7	2433.71
1224.27	2497.71
1224.85	2443.71
1225.42	2422.71
1225.99	2356.71
1226.57	2255.71
1227.14	2289.71
1227.72	2348.71
1228.29	2219.71
1228.86	2310.71
1229.44	2265.71
1230.01	2258.71
1230.59	2158.71
1231.16	2266.71
1231.73	2233.71
1232.31	2206.71
1232.88	2232.71
1233.46	2147.71
1234.03	2208.71
1234.6	2148.71
1235.18	2116.71
1235.75	2072.71
1236.32	2056.71
1236.9	2126.71
1237.47	2092.71
1238.04	2059.71
1238.61	2026.71
1239.19	2020.71
1239.76	1988.71
1240.33	2106.71
1240.91	1974.71
1241.48	2068.71
1242.05	2031.71
1242.63	2004.71
1243.2	2000.71
1243.77	1927.71
1244.34	1970.71
1244.92	1986.71
1245.49	1937.71
1246.06	1969.71
1246.63	1963.71
1247.21	1938.71
1247.78	1900.71
1248.35	1925.71
1248.92	1895.71
1249.5	1928.71
1250.07	1933.71
1250.64	1935.71
1251.21	1892.71
1251.78	1940.71
1252.36	1919.71
1252.93	1838.71
1253.5	1875.71
1254.07	1868.71
1254.64	1906.71
1255.21	1912.71
1255.78	1932.71
1256.36	1943.71
1256.93	1904.71
1257.5	1786.71
1258.07	1905.71
1258.64	1805.71
1259.21	1875.71
1259.78	1879.71
1260.35	1838.71
1260.93	1883.71
1261.5	1827.71
1262.07	1793.71
1262.64	1851.71
1263.21	1822.71
1263.78	1856.71
1264.35	1817.71
1264.92	1781.71
1265.49	1839.71
1266.06	1722.71
1266.63	1788.71
1267.2	1849.71
1267.77	1828.71
1268.34	1831.71
1268.91	1804.71
1269.48	1744.71
1270.05	1740.71
1270.62	1846.71
1271.19	1780.71
1271.76	1836.71
1272.33	1817.71
1272.9	1815.71
1273.47	1813.71
1274.04	1858.71
1274.61	1795.12
1275.18	1827
1275.75	1877.71
1276.32	1770.71
1276.89	1763.71
1277.46	1818.71
1278.03	1732.71
1278.6	1742.71
1279.17	1836.71
1279.74	1771.71
1280.3	1747.71
1280.87	1694.71
1281.44	1832.71
1282.01	1767.71
1282.58	1823.71
1283.15	1763.71
1283.72	1734.71
1284.29	1749.71
1284.86	1713.71
1285.42	1787.71
1285.99	1735.71
1286.56	1748.71
1287.13	1765.71
1287.7	1814.71
1288.27	1772.71
1288.83	1766.71
1289.4	1786.71
1289.97	1692.71
1290.54	1731.71
1291.11	1739.71
1291.68	1764.71
1292.24	1808.71
1292.81	1755.71
1293.38	1745.71
1293.95	1731.71
1294.51	1685.71
1295.08	1858.71
1295.65	1806.71
1296.22	1800.71
1296.79	1700.71
1297.35	1750.71
1297.92	1746.71
1298.49	1812.71
1299.05	1726.71
1299.62	1790.71
1300.19	1716.71
1300.76	1706.71
1301.32	1692.71
1301.89	1759.71
1302.46	1749.71
1303.02	1787.71
1303.59	1672.71
1304.16	1769.71
1304.72	1768.71
1305.29	1713.71
1305.86	1706.71
1306.42	1771.71
1306.99	1752.71
1307.56	1691.71
1308.12	1770.71
1308.69	1675.71
1309.26	1724.71
1309.82	1794.71
1310.39	1717.71
1310.95	1746.71
1311.52	1707.71
1312.09	1760.71
1312.65	1651.71
1313.22	1716.71
1313.78	1718.71
1314.35	1752.71
1314.92	1756.71
1315.48	1685.71
1316.05	1791.71
1316.61	1759.71
1317.18	1724.71
1317.74	1679.71
1318.31	1690.71
1318.87	1655.71
1319.44	1782.71
1320.01	1729.71
1320.57	1732.71
1321.13	1797.71
1321.7	1734.71
1322.27	1747.71
1322.83	1664.71
1323.4	1771.71
1323.96	1670.71
1324.52	1723.71
1325.09	1675.71
1325.65	1663.71
1326.22	1710.71
1326.78	1689.71
1327.35	1757.71
1327.91	1777.71
1328.48	1670.71
1329.04	1707.71
1329.61	1777.71
1330.17	1656.71
1330.73	1724.71
1331.3	1718.71
1331.86	1700.71
1332.43	1724.71
1332.99	1708.71
1333.55	1729.71
1334.12	1680.71
1334.68	1751.71
1335.25	1715.71
1335.81	1707.71
1336.37	1746.71
1336.94	1711.71
1337.5	1781.71
1338.06	1678.71
1338.63	1646.71
1339.19	1652.71
1339.75	1695.71
1340.32	1763.71
1340.88	1719.71
1341.44	1747.71
1342.01	1758.71
1342.57	1732.71
1343.13	1742.71
1343.69	1749.71
1344.26	1753.71
1344.82	1739.71
1345.38	1685.71
1345.95	1648.71
1346.51	1736.71
1347.07	1718.71
1347.64	1730.71
1348.2	1683.71
1348.76	1798.71
1349.32	1765.71
1349.88	1749.71
1350.45	1764.71
1351.01	1767.71
1351.57	1768.71
1352.13	1763.71
1352.7	1700.71
1353.26	1793.71
1353.82	1732.71
1354.38	1775.71
1354.94	1753.71
1355.51	1704.71
1356.07	1693.71
1356.63	1730.71
1357.19	1731.71
1357.75	1711.71
1358.31	1723.71
1358.87	1733.71
1359.43	1754.71
1360	1752.71
1360.56	1740.71
1361.12	1767.71
1361.68	1679.71
1362.24	1744.71
1362.8	1714.71
1363.36	1733.71
1363.92	1690.71
1364.49	1691.71
1365.05	1768.71
1365.61	1674.71
1366.17	1699.71
1366.73	1742.71
1367.29	1643.71
1367.85	1791.71
1368.41	1738.71
1368.97	1772.71
1369.53	1711.71
1370.09	1673.71
1370.65	1734.71
1371.21	1756.71
1371.77	1729.71
1372.33	1852.71
1372.89	1772.71
1373.45	1773.71
1374.01	1791.71
1374.57	1737.71
1375.13	1706.71
1375.69	1708.71
1376.25	1783.71
1376.81	1719.71
1377.37	1728.71
1377.93	1720.71
1378.49	1748.71
1379.05	1723.71
1379.61	1655.71
1380.17	1700.71
1380.73	1784.71
1381.29	1795.71
1381.85	1810.71
1382.41	1734.71
1382.97	1824.71
1383.52	1776.71
1384.08	1729.71
1384.64	1732.71
1385.2	1785.71
1385.76	1761.71
1386.32	1724.71
1386.88	1786.71
1387.44	1751.71
1387.99	1740.71
1388.55	1686.71
1389.11	1744.71
1389.67	1758.71
1390.23	1816.71
1390.79	1744.71
1391.35	1749.71
1391.9	1782.71
1392.46	1744.71
1393.02	1707.71
1393.58	1747.71
1394.14	1831.71
1394.7	1755.71
1395.25	1842.71
1395.81	1811.71
1396.37	1813.71
1396.93	1798.71
1397.48	1805.71
1398.04	1704.71
1398.6	1778.71
1399.16	1734.71
1399.71	1757.71
1400.27	1798.71
