19.3994	12496.2
20.0758	13109.2
20.7522	13574.7
21.4285	14135.7
22.1048	14621.7
22.7811	14821.2
23.4573	15088.2
24.1334	15412.2
24.8095	15666.7
25.4855	16147.7
26.1615	16545.2
26.8375	16613.2
27.5134	16994.2
28.1893	16911.7
28.8651	17270.7
29.5408	17443.2
30.2166	17668.2
30.8922	17926.2
31.5679	18524.7
32.2434	18367.7
32.919	18317.2
33.5945	18828.2
34.2699	18918.2
34.9453	19341.2
35.6206	19463.2
36.2959	19541.2
36.9712	19144.2
37.6464	19423.7
38.3192	19446.2
38.9943	19374.2
39.6694	19919.7
40.3444	20188.2
41.0194	20298.2
41.6943	20097.2
42.3692	20086.2
43.0417	20011.7
43.7165	20385.7
44.3912	20483.7
45.0659	20327.2
45.7405	20290.2
46.4128	20349.7
47.0874	20250.2
47.7619	20366.7
48.4363	20111.2
49.1084	20353.2
49.7828	20540.7
50.4571	20448.7
51.1314	20372.7
51.8033	20101.2
52.4775	20229.2
53.1516	20088.7
53.8234	20096.2
54.4974	20183.2
55.1714	19926.2
55.843	20237.2
56.5169	20096.2
57.1908	20186.2
57.8623	20263.7
58.536	20519.7
59.2074	20247.2
59.8811	19690.7
60.5547	19886.8
61.2259	20011.7
61.8995	20402.2
62.5706	20232.2
63.2441	19746.1
63.9174	19724.5
64.5885	19693.3
65.2618	20092.2
65.9327	19587.3
66.6059	19459.2
67.2767	19329.2
67.9498	19392.7
68.6206	19148.2
69.2936	18966.2
69.9643	18934.2
70.6372	18881.2
71.3077	18753.2
71.9783	18897.2
72.651	19225.1
73.3215	19360.7
73.9941	19251
74.6645	19341
75.3371	19249.4
76.0073	18994.6
76.6775	18689.7
77.3499	18522.5
78.02	19069.2
78.6901	18791.7
79.3624	18411.7
80.0324	17999.2
80.7023	18055.2
81.3745	18064.7
82.0443	18231.7
82.7141	17900.2
83.3861	17782.2
84.0558	17496.2
84.7254	17351.2
85.3973	17448.2
86.0668	17542.7
86.7364	17400.2
87.4058	17649.7
88.0775	17568.7
88.7469	17255.7
89.4162	17210.2
90.0855	17221.7
90.7547	17284.2
91.4261	17381.2
92.0953	17232.7
92.7644	17287.2
93.4334	17072.7
94.1024	16819.2
94.7713	16751.2
95.4425	16625.2
96.1114	16795.2
96.7802	16892.7
97.449	16494.2
98.1177	16478.2
98.7863	16458.7
99.455	16385.7
100.124	16457.2
100.792	16329.7
101.461	16367.2
102.131	16456.7
102.8	16303.7
103.468	16025.2
104.136	16176.2
104.805	15876.2
105.473	15817.2
106.141	15723.2
106.809	15689.2
107.477	15528.2
108.145	15687.2
108.813	15551.2
109.481	15669.7
110.147	15612.7
110.814	15471.2
111.482	15846.2
112.15	15511
112.818	15432.7
113.485	15417.8
114.153	15313.4
114.821	15270.9
115.488	15077.7
116.156	15009.9
116.821	14971.2
117.488	14810.2
118.155	14488.2
118.823	14570.2
119.49	14616.7
120.157	14447.2
120.822	14294.2
121.489	14381.7
122.156	14336.2
122.823	14358.2
123.49	14434.2
124.155	14511.2
124.822	14547.2
125.488	14431.7
126.155	14314.2
126.82	14181.2
127.486	14125.2
128.153	14306.2
128.817	14216.7
129.484	14101.2
130.15	14221.7
130.817	13916.7
131.481	13799.2
132.147	13925.2
132.811	13942.2
133.478	13959.2
134.144	13897.2
134.808	13938.7
135.474	13936.7
136.14	13703.2
136.804	13704.2
137.47	13441.2
138.133	13749.7
138.799	13619.2
139.463	13642.2
140.129	13216.2
140.795	13440.2
141.458	13165.2
142.124	13260.2
142.787	13372.2
143.453	13276.2
144.116	13337.2
144.781	13232.2
145.445	13065.7
146.11	13108.2
146.773	13216.2
147.436	13250.2
148.101	13133.2
148.764	12996.7
149.429	12879.2
150.092	12826.7
150.757	12855.2
151.42	12824.7
152.083	12829.2
152.748	12917.2
153.41	12778.2
154.075	12717.7
154.738	12685.7
155.4	12777.2
156.065	12848.2
156.727	12769.2
157.39	12647.2
158.054	12559.7
158.717	12593.7
159.379	12454.2
160.041	12610.2
160.705	12755.2
161.367	12531.2
162.03	12472.7
162.692	12602.7
163.356	12556.2
164.018	12209.2
164.679	12201.2
165.341	12119.2
166.005	12353.2
166.667	12273.2
167.329	12067.2
167.99	12101.2
168.652	12261.2
169.313	12394.7
169.977	12287.2
170.639	12443.2
171.3	12561.2
171.961	12451.2
172.623	12277.2
173.284	12421.2
173.945	12289.7
174.606	12338.7
175.267	12176.2
175.931	12340.7
176.592	12379.2
177.253	12263.2
177.914	12283.7
178.575	12047.7
179.236	12071.2
179.896	12181.2
180.557	12325.2
181.218	12506.2
181.879	12383.2
182.539	12285.7
183.2	12281.2
183.86	12269.2
184.521	11843.2
185.181	11906.2
185.839	12352.7
186.5	12131.2
187.16	12248.2
187.82	11911.2
188.48	11742.2
189.141	12337.7
189.801	12102.2
190.461	12248.2
191.121	12224.2
191.779	12257.2
192.439	12385.7
193.098	12169.2
193.758	12467.7
194.418	12233.2
195.078	12482.2
195.735	12536.2
196.395	11972.2
197.055	12533.2
197.714	12539.2
198.374	12532.7
199.031	12251.2
199.691	12451.2
200.35	12588.2
201.009	12485.2
201.666	12205.2
202.326	12329.2
202.985	12487.7
203.642	12421.2
204.301	12533.7
204.96	12490.2
205.617	12598.7
206.276	12538.7
206.935	12429.2
207.591	12610.2
208.25	12625.2
208.909	12746.2
209.566	12569.2
210.224	12616.2
210.881	12698.2
211.539	12479.7
212.196	12673.2
212.854	12731.2
213.513	12772.7
214.169	12946.2
214.827	12666.7
215.483	12663.2
216.142	12721.2
216.798	12517.2
217.456	12852.2
218.112	12713.2
218.77	12711.7
219.426	12567.2
220.084	12704.2
220.74	12732.7
221.398	12781.7
222.053	12815.2
222.709	12825.7
223.367	13121.7
224.022	12975.7
224.68	12855.7
225.336	12828.2
225.991	12979.2
226.649	13020.2
227.304	12555.2
227.961	12871.2
228.617	12734.2
229.272	12785.2
229.929	12766.2
230.584	12763.7
231.239	13067.2
231.897	13164.2
232.551	12960.7
233.206	13383.7
233.861	13470.7
234.518	13229.2
235.173	13245.2
235.828	13560.2
236.482	13665.2
237.139	13496.2
237.794	13517.2
238.449	13576.7
239.103	13472.2
239.757	13688.2
240.414	13541.7
241.069	13652.7
241.723	13649.2
242.377	13661.2
243.031	13677.2
243.686	13518.2
244.342	13693.7
244.996	13690.2
245.65	13783.7
246.304	13737.2
246.958	14020.2
247.612	13942.2
248.266	13767.2
248.92	13831.2
249.573	13890.7
250.227	13919.7
250.881	14091.2
251.535	13984.2
252.188	14021.7
252.842	13939.2
253.495	14007.7
254.149	14089.7
254.802	14338.7
255.456	14214.2
256.109	14053.2
256.762	14192.2
257.415	14281.2
258.069	14118.2
258.722	14117.2
259.375	14276.7
260.028	14191.2
260.681	14376.2
261.334	14503.2
261.987	14416.7
262.64	14401.2
263.29	14425.7
263.943	14309.2
264.596	14439.7
265.249	14516.7
265.901	14675.2
266.554	14323.7
267.204	14436.2
267.857	14387.2
268.509	14501.2
269.162	14561.2
269.814	14594.2
270.464	14562.7
271.117	14292.2
271.769	14344.7
272.421	14434.2
273.071	14470.2
273.723	14761.7
274.375	14784.7
275.025	14640.7
275.677	14552.7
276.329	14601.2
276.979	14538.2
277.631	14612.7
278.283	14844.7
278.932	14853.2
279.584	15012.7
280.236	14832.7
280.885	14797.2
281.537	14901.2
282.188	14824.2
282.838	14895.7
283.489	15052.2
284.138	14943.2
284.79	14984.7
285.439	14940.2
286.09	15020.2
286.739	14807.2
287.39	15037.2
288.041	14969.7
288.69	15190.7
289.341	15150.7
289.99	14946.2
290.639	14902.2
291.29	14859.2
291.939	15005.7
292.589	15179.7
293.238	15194.7
293.889	14933.2
294.537	14992.6
295.188	15009.4
295.836	15018.6
296.485	15027.5
297.135	14933.2
297.784	14956.2
298.434	15247.7
299.082	14947.2
299.73	14893.2
300.381	15101.2
301.029	15219.7
301.677	15163.2
302.327	15163.2
302.975	15297.7
303.623	15398.7
304.271	15238.2
304.921	15101.2
305.568	15287.7
306.216	15248.2
306.866	15466.7
307.513	15413.7
308.161	15416.7
308.809	15294.2
309.456	15267.2
310.106	15288.7
310.753	15367.7
311.4	15363.7
312.048	15457.7
312.695	15290.7
313.344	15252.7
313.992	15419.7
314.639	15324.2
315.286	15391.2
315.933	15388.7
316.58	15533.7
317.227	15497.7
317.874	15438.2
318.521	15457.2
319.17	15490.2
319.816	15639.2
320.463	15740.2
321.11	15689.2
321.757	15660.7
322.403	15481.2
323.05	15555.2
323.696	15622.2
324.343	15562.7
324.989	15632.2
325.636	15776.2
326.282	15695.2
326.928	15758.2
327.574	15771.2
328.221	15772.7
328.867	15677.2
329.511	15813.2
330.157	15979.2
330.803	15933.7
331.449	15761.2
332.095	15727.2
332.741	15609.7
333.387	15473.2
334.032	15766.2
334.678	15607.2
335.322	16034.2
335.967	15901.2
336.613	15872.2
337.259	16059.2
337.904	15873.7
338.547	16070.7
339.193	16252.7
339.838	16541.2
340.484	16259.2
341.129	16242.2
341.772	16245.2
342.417	16104.2
343.062	16133.2
343.705	16103.2
344.351	16407.7
344.996	16537.2
345.641	16496.2
346.283	16235.2
346.928	16293.7
347.573	16508.2
348.216	16555.7
348.861	16659.2
349.505	16737.7
350.148	16753.2
350.793	16653.2
351.435	16724.2
352.08	16681.2
352.724	16789.7
353.367	16877.2
354.011	16722.7
354.653	16853.2
355.298	17016.2
355.94	16875.2
356.584	16727.2
357.226	17014.2
357.87	16847.2
358.512	16941.2
359.156	17294.7
359.798	17039.7
360.442	17093.2
361.084	16849.7
361.728	16958.2
362.37	17176.2
363.013	17129.2
363.655	17349.2
364.299	17283.2
364.94	17271.2
365.582	17065.2
366.225	17236.7
366.867	17232.2
367.51	17330.2
368.152	17572.2
368.793	17613.7
369.436	17314.2
370.078	17337.2
370.719	17569.2
371.362	17584.7
372.003	17695.2
372.644	17824.2
373.287	17813.2
373.928	17664.2
374.569	17611.7
375.21	17659.2
375.853	17846.2
376.493	18072.2
377.134	17936.7
377.775	17932.2
378.418	18014.7
379.058	17787.2
379.699	17752.7
380.339	17950.2
380.98	17883.2
381.62	18088.2
382.263	18212.2
382.903	18201.2
383.543	18064.7
384.183	18077.2
384.823	17879.2
385.464	18284.7
386.104	18303.2
386.744	18379.2
387.386	18290.2
388.026	18401.2
388.666	18330.2
389.306	18433.2
389.945	18396.7
390.585	18514.7
391.225	18790.2
391.865	18600.2
392.504	18716.7
393.144	18441.2
393.784	18441.7
394.423	18721.2
395.063	18638.2
395.702	18985.2
396.341	18803.2
396.981	18912.7
397.62	18784.2
398.259	18839.7
398.896	18982.7
399.536	18791.2
400.175	19031.2
400.814	19122.7
401.453	19148.2
402.092	18979.7
402.731	18918.7
403.37	18744.2
404.006	18959.2
404.645	19188.2
405.284	19193.2
405.923	19267.7
406.562	19256.7
407.2	19146.7
407.837	19453.2
408.475	19400.2
409.114	19381.7
409.752	19680.7
410.388	19607.2
411.027	19629.2
411.665	19375.7
412.301	19715.2
412.94	19486.2
413.578	19675.2
414.216	19674.2
414.852	19631.2
415.49	19821.2
416.128	19681.2
416.764	19755.7
417.402	19718.7
418.04	19756.2
418.676	19784.2
419.314	20143.7
419.949	20069.2
420.587	19943.2
421.225	20080.7
421.86	20056.2
422.498	20231.7
423.133	20286.2
423.771	19986.2
424.406	20159.2
425.043	20188.2
425.679	20370.8
426.316	20133.7
426.951	20069.2
427.589	20477.2
428.224	20686.7
428.861	20673.2
429.496	20938.7
430.133	20685.7
430.768	20641.2
431.405	20543.7
432.04	20766.7
432.674	21024.7
433.311	21017.2
433.946	21199.7
434.583	21287.2
435.217	21137.2
435.852	21095.2
436.489	21117.2
437.123	21200.2
437.758	21258.7
438.394	21285.2
439.028	21345.7
439.663	21381.2
440.299	21420.2
440.933	21438.2
441.568	21575.7
442.202	21776.7
442.838	21703.2
443.472	21701.2
444.106	21872.2
444.74	21418.2
445.376	21453.2
446.01	21677.7
446.644	21671.2
447.277	21699.2
447.911	22026.7
448.547	21774.2
449.181	21663.2
449.814	21739.2
450.448	21877.2
451.081	21762.2
451.715	22106.7
452.348	21868.2
452.984	21929.2
453.617	22119.2
454.251	21786.2
454.884	21770.2
455.517	21883.2
456.15	22105.2
456.784	22154.2
457.417	22375.7
458.05	22109.7
458.683	22052.2
459.316	22224.2
459.949	21974.2
460.582	22160.7
461.214	22449.7
461.847	22528.7
462.48	22423.2
463.113	22446.2
463.745	22341.2
464.378	22497.2
465.011	22708.2
465.643	22864.2
466.276	23066.7
466.906	22878.2
467.538	23074.2
468.171	22973.7
468.803	23110.7
469.435	23073.2
470.068	23300.2
470.7	23522.7
471.33	23599.2
471.962	23719.2
472.594	23696.2
473.226	23463.2
473.858	23675.7
474.488	23910.7
475.12	23982.2
475.752	24305.2
476.384	24327.7
477.013	24285.2
477.645	24106.7
478.277	24010.2
478.908	24183.2
479.538	24496.2
480.169	24714.7
480.801	24417.7
481.43	24628.7
482.062	23966.2
482.693	24141.2
483.322	24421.2
483.954	24401.2
484.585	24669.7
485.214	24559.2
485.845	24268.2
486.474	24273.2
487.105	23899.2
487.736	23878.7
488.365	23815.7
488.996	23872.2
489.625	23877.2
490.256	23708.2
490.885	23333.2
491.515	23261.2
492.144	22981.2
492.775	22821.7
493.403	22851.2
494.034	22863.7
494.662	22625.7
495.293	22370.2
495.921	21811.2
496.552	21704.2
497.18	21432.7
497.81	21321.2
498.439	21365.2
499.067	21243.2
499.697	20867.7
500.325	20742.2
500.955	20056.7
501.583	19649.2
502.211	19513.7
502.841	19108.7
503.469	18879.2
504.097	18560.2
504.727	18490.7
505.355	18262.2
505.982	17689.2
506.61	17497.2
507.24	17557.2
507.867	17383.2
508.495	17130.7
509.124	16791.2
509.752	16535.2
510.379	16157.2
511.007	15958.2
511.634	15834.7
512.263	15714.2
512.891	15354.2
513.518	15033.2
514.145	14752.2
514.772	14293.2
515.399	14123.2
516.028	14099.2
516.655	13791.2
517.282	13597.2
517.909	13324.7
518.536	13277.7
519.163	13071.7
519.789	12847.2
520.416	12821.2
521.043	12564.2
521.669	12327.2
522.298	12506.7
522.925	12082.2
523.551	11829.2
524.178	11770.2
524.804	11557.7
525.431	11436.7
526.057	11334.2
526.683	11341.7
527.31	11254.7
527.934	10947.2
528.56	10901.2
529.186	10813.2
529.812	10756.2
530.438	10626.7
531.064	10600.2
531.69	10548.2
532.316	10507.2
532.942	10375.7
533.568	10333.2
534.194	9988.23
534.817	9909.23
535.443	9897.23
536.069	10005.2
536.694	10073.7
537.32	9983.23
537.943	9711.23
538.569	9570.73
539.194	9588.23
539.82	9596.23
540.445	9676.23
541.068	9625.73
541.694	9523.73
542.319	9567.73
542.944	9436.23
543.567	9538.73
544.192	9408.23
544.817	9444.23
545.44	9445.63
546.065	9555.6
546.69	9561.18
547.313	9363.68
547.938	9343.46
548.563	9444.58
549.185	9372.32
549.81	9475.51
550.433	9522.54
551.057	9466.8
551.682	9390.62
552.305	9402.12
552.929	9360.32
553.551	9604.48
554.176	9618.08
554.798	9642.33
555.423	9743.58
556.047	9610.79
556.669	9781.48
557.293	9713.43
557.915	9833.94
558.537	9698.81
559.162	10017.1
559.784	9855.71
560.408	10107.4
561.03	10134.2
561.654	10370.8
562.275	10157.2
562.899	10281.2
563.521	10414.7
564.143	10416.9
564.766	10566.5
565.388	10696.3
566.009	10614.9
566.633	10755.7
567.255	10777.7
567.878	10731.3
568.5	10830
569.121	10814.5
569.742	10933.5
570.366	10845.9
570.987	10798.8
571.608	10854.9
572.231	10888.3
572.852	10921.6
573.473	10997.1
574.094	10908.2
574.717	10804.2
575.338	10815.3
575.959	10815.5
576.58	10717.7
577.201	10746.1
577.822	10784.9
578.445	10756.6
579.065	10635.8
579.686	10595.4
580.306	10510.9
580.927	10482.1
581.548	10578.9
582.168	10529.5
582.791	10361.8
583.411	10359.2
584.031	10374.1
584.652	10349.9
585.272	10210
585.892	10132.4
586.512	10169.3
587.132	10301.7
587.753	10206.2
588.373	10115.1
588.993	9939.83
589.613	10034.8
590.233	9895.23
590.852	9845.08
591.472	9859.86
592.092	9771.16
592.712	9817.08
593.332	9552.58
593.951	9574.81
594.569	9477.14
595.188	9376.87
595.808	9261.73
596.427	9440.23
597.047	9213.32
597.666	9096.37
598.286	8948
598.905	8900.25
599.522	8776.87
600.142	8652.87
600.761	8586.11
601.38	8587.82
601.999	8380.26
602.616	8390.95
603.235	8323.01
603.854	8187.83
604.473	8102.34
605.09	8040.18
605.709	7997.96
606.328	8004.19
606.947	7777.41
607.563	7675.64
608.182	7530.39
608.801	7474.58
609.417	7340.11
610.036	7303.01
610.655	7263.41
611.271	7244.43
611.89	7272.44
612.508	7119.09
613.124	6993.01
613.743	6904.7
614.359	6776.1
614.977	6785.89
615.595	6704.06
616.212	6575.04
616.83	6528.74
617.446	6522.51
618.064	6510.28
618.68	6304.13
619.298	6443.47
619.914	6269.36
620.532	6271.65
621.147	6168.62
621.765	6104.04
622.381	6082.8
622.999	6027.09
623.614	5935.1
624.23	5952.91
624.847	5875.18
625.463	5831.6
626.08	5710.29
626.696	5775.41
627.311	5663.09
627.929	5689.94
628.544	5533.05
629.161	5475.37
629.776	5489.21
630.392	5435.27
631.009	5476.08
631.624	5251.24
632.239	5220.04
632.854	5248.71
633.471	5241.98
634.086	5203.93
634.701	5203.37
635.318	5237.71
635.932	5202.44
636.547	5116.38
637.162	5098.06
637.777	4994.02
638.393	4871.98
639.008	4903.35
639.622	4857.12
640.237	4855.6
640.851	4778.37
641.468	4714.39
642.082	4684.65
642.697	4544.21
643.311	4618.55
643.925	4727.62
644.539	4718.27
645.154	4695.81
645.768	4671.64
646.382	4630.47
646.996	4579.35
647.612	4503.05
648.226	4523.48
648.84	4566.62
649.454	4504.37
650.068	4529.82
650.682	4486.82
651.295	4377.32
651.909	4476.86
652.523	4357.48
653.136	4343.64
653.75	4489.48
654.361	4416.89
654.975	4363.64
655.589	4371.59
656.202	4407.52
656.815	4169.29
657.429	4348.15
658.042	4248.56
658.655	4273.31
659.269	4191.57
659.882	4268.14
660.493	4192.61
661.106	4050.58
661.719	4147.98
662.332	4155.71
662.945	4094.15
663.556	4069.73
664.169	4051.9
664.782	4238.28
665.395	4094.33
666.007	4123.32
666.618	4070.18
667.231	4125.06
667.843	4127.72
668.454	4065.37
669.067	4036.02
669.679	3948.62
670.292	4040.76
670.902	3914.78
671.514	4043.4
672.125	4035.02
672.423	3981.02
673.044	3976.52
673.665	3927.02
674.286	3945.52
674.907	3906.02
675.528	3855.02
676.148	3893.02
676.769	3942.02
677.388	3992.02
678.008	3840.02
678.629	3931.52
679.249	3867.52
679.87	3843.52
680.49	3754.52
681.111	3897.02
681.731	3751.02
682.349	3852.02
682.97	3881.02
683.59	3769.02
684.21	3767.02
684.83	3712.02
685.448	3730.52
686.068	3747.52
686.688	3779.02
687.308	3834.52
687.926	3799.52
688.546	3738.52
689.166	3694.02
689.786	3712.02
690.404	3677.52
691.023	3783.02
691.643	3740.02
692.26	3757.02
692.88	3714.02
693.5	3751.02
694.117	3593.02
694.737	3627.52
695.356	3681.52
695.973	3746.02
696.593	3675.52
697.21	3765.02
697.829	3674.02
698.449	3620.02
699.066	3662.02
699.685	3661.02
700.302	3654.02
700.921	3715.02
701.538	3706.02
702.157	3721.52
702.774	3661.52
703.393	3568.02
704.009	3587.02
704.628	3618.02
705.245	3680.52
705.864	3678.02
706.48	3597.52
707.099	3684.02
707.716	3598.02
708.334	3604.52
708.951	3714.02
709.569	3703.02
710.185	3713.52
710.802	3705.02
711.42	3694.02
712.036	3634.52
712.653	3637.02
713.271	3681.02
713.887	3680.02
714.505	3642.02
715.121	3747.02
715.737	3524.02
716.355	3701.52
716.971	3718.02
717.587	3604.02
718.203	3534.52
718.821	3650.26
719.437	3678.02
720.052	3612.52
720.67	3695.02
721.286	3654.87
721.901	3652.37
722.517	3660.52
723.132	3687.02
723.75	3704.52
724.365	3697.02
724.981	3735.02
725.596	3763.52
726.211	3651.02
726.829	3680.02
727.444	3595.02
728.059	3705.02
728.674	3774.02
729.289	3660.02
729.904	3738.52
730.519	3609.02
731.134	3671.52
731.751	3673.02
732.366	3660.52
732.981	3665.02
733.596	3716.02
734.211	3645.02
734.826	3636.02
735.44	3643.52
736.055	3645.52
736.669	3687.02
737.284	3587.02
737.899	3625.02
738.513	3743.02
739.128	3578.52
739.742	3637.52
740.356	3593.02
740.971	3606.52
741.585	3604.02
742.199	3562.02
742.813	3652.52
743.427	3561.52
744.039	3512.02
744.654	3599.02
745.268	3610.02
745.882	3508.52
746.496	3612.52
747.109	3678.02
747.723	3631.52
748.337	3686.02
748.949	3651.52
749.563	3723.02
750.176	3727.02
750.79	3664.52
751.404	3699.52
752.015	3723.02
752.629	3720.02
753.242	3769.02
753.856	3623.02
754.467	3608.02
755.08	3703.02
755.694	3710.52
756.307	3774.02
756.918	3694.52
757.531	3645.02
758.145	3748.02
758.756	3637.02
759.369	3629.02
759.982	3719.52
760.593	3760.02
761.206	3816.02
761.819	3718.02
762.43	3838.02
763.042	3836.52
763.655	3779.02
764.266	3803.02
764.879	3829.02
765.489	3704.02
766.102	3796.02
766.713	3849.02
767.325	3843.02
767.938	3833.02
768.548	3788.02
769.161	3844.52
769.771	3853.02
770.383	3856.02
770.993	3907.52
771.606	3854.02
772.216	3934.52
772.828	3830.02
773.438	3845.02
774.048	3795.02
774.66	3857.02
775.27	3872.02
775.882	3959.02
776.492	3893.02
777.104	3942.52
777.714	3921.52
778.324	3877.02
778.936	4013.52
779.545	3860.02
780.155	3935.02
780.767	3905.02
781.376	3902.02
781.986	3961.52
782.597	3835.02
783.207	3862.52
783.816	3908.02
784.427	3914.02
785.037	3859.52
785.646	3963.02
786.257	3924.02
786.867	3720.02
787.476	3966.52
788.085	3737.02
788.694	3844.02
789.305	3834.02
789.914	3970.52
790.523	3821.02
791.132	3751.02
791.741	3806.02
792.352	3770.02
792.961	3844.02
793.569	3859.02
794.178	3810.02
794.787	3843.52
795.395	3733.02
796.004	3748.02
796.615	3875.52
797.223	3712.57
797.832	3754.02
798.44	3624.02
799.048	3577.02
799.657	3843.52
800.265	3714.02
800.873	3688.02
801.482	3658.52
802.09	3641.02
802.698	3613.02
803.306	3705.02
803.914	3612.02
804.522	3474.02
805.13	3504.52
805.738	3373.52
806.346	3348.02
806.954	3392.52
807.562	3386.02
808.17	3395.02
808.777	3404.52
809.385	3450.52
809.993	3405.02
810.598	3352.02
811.206	3421.52
811.813	3313.02
812.421	3362.02
813.028	3333.52
813.636	3279.02
814.243	3283.02
814.849	3199.02
815.456	3237.52
816.063	3123.52
816.67	3147.02
817.278	3113.02
817.883	3098.52
818.49	3117.52
819.097	3065.02
819.704	2989.02
820.309	2948.02
820.916	2891.02
821.523	2918.02
822.13	2888.52
822.734	2798.02
823.341	2846.02
823.948	2805.02
824.553	2710.02
825.159	2786.52
825.766	2721.02
826.37	2695.52
826.977	2634.02
827.583	2615.52
828.188	2618.02
828.794	2646.02
829.399	2558.52
830.005	2493.02
830.609	2494.02
831.216	2474.02
831.822	2437.02
832.426	2391.52
833.032	2433.02
833.636	2409.02
834.242	2330.02
834.846	2381.02
835.452	2330.02
836.056	2340.02
836.662	2326.02
837.266	2306.52
837.872	2263.02
838.475	2285.52
839.081	2191.52
839.685	2188.52
840.288	2152.02
840.894	2170.02
841.497	2233.52
842.103	2158.52
842.707	2157.52
843.31	2204.02
843.915	2110.02
844.519	2202.52
845.124	2044.52
845.727	2168.52
846.331	2133.02
846.936	2112.02
847.539	2072.02
848.142	2103.52
848.745	2057.52
849.35	2109.02
849.953	2089.02
850.556	2126.52
851.161	2031.52
851.764	2124.52
852.367	2061.02
852.97	2043.02
853.572	2005.52
854.177	2012.02
854.78	2080.02
855.382	2050.02
855.985	2038.02
856.587	2030.52
857.192	2014.52
857.794	1993.52
858.397	2073.52
858.999	2005.02
859.602	2063.52
860.204	2035.02
860.806	2084.52
861.408	2068.02
862.013	1981.02
862.615	2013.02
863.217	2042.02
863.819	2045.52
864.421	2061.52
865.023	2083.52
865.625	2065.52
866.227	2074.02
866.829	1991.02
867.431	2003.02
868.032	1983.52
868.634	2020.52
869.236	2075.02
869.838	2050.02
870.439	2062.02
871.041	2041.02
871.642	2033.02
872.244	1944.02
872.843	2019.52
873.445	2031.52
874.046	1989.02
874.648	1927.02
875.249	2048.02
875.85	1995.02
876.451	1992.02
877.053	2054.02
877.652	2025.02
878.253	2053.02
878.854	1979.02
879.455	2027.52
880.056	2000.02
880.655	2088.02
881.256	2029.02
881.857	1995.52
882.458	2018.52
883.056	2009.52
883.657	2031.02
884.258	2047.02
884.858	1988.52
885.457	2011.02
886.058	1996.52
886.658	2044.02
887.257	2042.02
887.857	2049.52
888.458	2020.02
889.056	2050.02
889.656	2011.02
890.257	2005.02
890.855	2019.02
891.455	2105.02
892.055	2080.52
892.654	2006.52
893.254	2098.52
893.852	2043.52
894.452	2061.02
895.052	2084.02
895.65	2012.52
896.25	1988.52
896.848	2043.52
897.448	2000.02
898.045	2076.52
898.645	2019.52
899.243	1995.52
899.842	2032.02
900.44	2023.02
901.04	1973.52
901.637	2049.52
902.235	2043.02
902.834	2062.02
903.432	2019.02
904.031	2030.02
904.628	2055.02
905.228	2090.02
905.825	2047.02
906.422	2038.02
907.022	2077.52
907.619	2020.02
908.216	2086.02
908.815	1987.02
909.412	2036.52
910.009	2062.02
910.608	2064.02
911.205	2041.02
911.802	2065.02
912.401	2093.02
912.997	2096.02
913.594	2120.02
914.191	2076.52
914.79	2089.02
915.386	2089.02
915.983	2077.02
916.58	2062.02
917.176	2147.52
917.775	2100.02
918.371	2119.52
918.967	2093.02
919.564	2090.02
920.16	2132.02
920.756	2065.52
921.355	2123.52
921.951	2111.02
922.547	2150.02
923.143	2124.02
923.739	2139.02
924.336	2131.02
924.932	2136.02
925.528	2161.02
926.123	2159.02
926.719	2101.02
927.315	2121.52
927.911	2167.02
928.507	2155.02
929.103	2167.02
929.698	2189.52
930.294	2211.02
930.89	2235.02
931.485	2232.02
932.081	2258.52
932.676	2272.52
933.272	2252.02
933.867	2248.52
934.463	2300.02
935.058	2310.52
935.653	2332.52
936.249	2300.02
936.844	2343.02
937.439	2321.52
938.032	2329.52
938.627	2313.02
939.222	2350.52
939.818	2391.02
940.413	2353.02
941.008	2308.02
941.6	2342.02
942.195	2402.02
942.79	2441.02
943.385	2429.02
943.98	2437.52
944.572	2542.52
945.167	2496.02
945.762	2563.52
946.357	2512.52
946.949	2492.02
947.544	2594.52
948.138	2597.52
948.73	2570.02
949.325	2555.52
949.919	2645.02
950.512	2653.02
951.106	2562.02
951.7	2679.52
952.292	2646.02
952.887	2691.02
953.481	2765.02
954.073	2768.02
954.667	2748.52
955.259	2774.02
955.853	2806.02
956.445	2806.02
957.039	2831.02
957.633	2882.52
958.225	2877.02
958.818	2844.52
959.41	2967.02
960.004	2929.52
960.596	2996.02
961.189	3044.02
961.781	2948.02
962.374	3072.52
962.966	3088.02
963.557	3082.52
964.151	3134.52
964.742	3086.02
965.336	3225.02
965.927	3143.02
966.52	3157.52
967.112	3092.02
967.703	3110.02
968.296	3321.02
968.887	3286.02
969.478	3367.02
970.071	3307.52
970.662	3222.02
971.253	3367.52
971.846	3263.52
972.437	3415.02
973.028	3392.51
973.621	3382.52
974.212	3196.02
974.802	3469.02
975.393	3584.02
975.986	3444.02
976.576	3449.02
977.167	3525.02
977.758	3629.02
978.348	3576.52
978.941	3730.02
979.531	3434.02
980.121	3618.52
980.712	3726.52
981.302	3657.52
981.892	3771.52
982.485	3786.52
983.075	3736.02
983.665	3692.02
984.255	3855.52
984.845	3933.02
985.435	3774.52
986.025	3883.52
986.615	3946.02
987.205	3892.52
987.795	3962.02
988.385	3908.02
988.975	3880.52
989.565	4002.02
990.154	4008.52
990.744	4101.02
991.334	4003.52
991.923	4044.02
992.513	4035.52
993.103	4109.02
993.692	4054.02
994.282	4074.02
994.871	4040.02
995.46	4151.52
996.05	4135.02
996.639	4210.02
997.229	4187.02
997.818	4151.02
998.405	4214.52
998.994	4210.52
999.583	4149.52
1000.17	4190.02
1000.76	4180.02
1001.35	4231.52
1001.94	4258.02
1002.53	4147.02
1003.12	4175.02
1003.7	4214.02
1004.29	4200.02
1004.88	4376.52
1005.47	4271.02
1006.06	4252.02
1006.65	4274.02
1007.23	4378.02
1007.82	4331.52
1008.41	4455.02
1009	4265.02
1009.58	4448.02
1010.17	4526.02
1010.76	4452.52
1011.35	4430.02
1011.94	4411.52
1012.52	4416.02
1013.11	4463.52
1013.7	4413.52
1014.29	4503.02
1014.87	4429.02
1015.46	4472.52
1016.05	4521.02
1016.63	4437.52
1017.22	4486.02
1017.81	4496.02
1018.4	4515.52
1018.98	4482.02
1019.57	4550.52
1020.16	4623.02
1020.74	4624.52
1021.33	4525.52
1021.92	4511.52
1022.5	4488.02
1023.09	4504.02
1023.67	4557.02
1024.26	4651.52
1024.85	4617.02
1025.44	4625.02
1026.02	4566.02
1026.61	4497.02
1027.19	4583.02
1027.78	4618.52
1028.37	4677.52
1028.95	4628.02
1029.54	4585.02
1030.12	4645.52
1030.71	4614.02
1031.29	4586.52
1031.88	4499.02
1032.47	4672.02
1033.05	4763.52
1033.64	4696.02
1034.22	4675.52
1034.81	4629.02
1035.39	4620.02
1035.98	4534.02
1036.56	4645.02
1037.15	4615.52
1037.73	4712.02
1038.32	4634.52
1038.9	4594.02
1039.49	4705.02
1040.07	4624.02
1040.66	4651.02
1041.24	4692.52
1041.83	4676.94
1042.41	4676.94
1043	4720.12
1043.58	4681.84
1044.17	4644.67
1044.75	4529.98
1045.33	4634.75
1045.92	4654.47
1046.5	4703.81
1047.09	4634.24
1047.67	4716.85
1048.25	4720.95
1048.84	4792.14
1049.42	4714.63
1050.01	4775.66
1050.59	4696.12
1051.17	4810.21
1051.76	4731.58
1052.34	4751.32
1052.93	4807.86
1053.51	4652.57
1054.09	4664.3
1054.68	4682.88
1055.26	4840.37
1055.84	4948.01
1056.42	4899.78
1057.01	4788.18
1057.59	4910.82
1058.17	4978.42
1058.76	4907.6
1059.34	4832
1059.92	4899.9
1060.51	4923.22
1061.09	4979.39
1061.67	5030.56
1062.25	5068.58
1062.84	5054.47
1063.42	4992.51
1064	5011.07
1064.58	5007.39
1065.17	5044.82
1065.75	5135.26
1066.33	5148.24
1066.91	5214.2
1067.49	5157.07
1068.08	5272.89
1068.66	5212.83
1069.24	5224.93
1069.82	5183.83
1070.41	5349.41
1070.99	5199.01
1071.57	5397.72
1072.15	5405.57
1072.73	5401.54
1073.31	5391.49
1073.89	5275.37
1074.48	5452.78
1075.06	5474.47
1075.64	5515.11
1076.22	5517.23
1076.8	5591.45
1077.38	5544.75
1077.96	5624.75
1078.55	5610.4
1079.13	5649.97
1079.71	5648.83
1080.29	5696.67
1080.87	5841.66
1081.45	5786.18
1082.03	5811.07
1082.61	5840.15
1083.19	5838.6
1083.77	5847.21
1084.35	5915.75
1084.93	5904.63
1085.51	6014.25
1086.09	5995.93
1086.67	6045.9
1087.25	5968.46
1087.83	6106.8
1088.41	6100.7
1088.99	6159.13
1089.57	6202.59
1090.15	6089.35
1090.73	6136.54
1091.31	6158.92
1091.89	6147.5
1092.47	6216.26
1093.05	6191.62
1093.63	6236.6
1094.21	6308.54
1094.79	6297.76
1095.37	6376.2
1095.95	6358.76
1096.53	6341.72
1097.11	6348.46
1097.69	6440.96
1098.27	6343.37
1098.85	6409.12
1099.42	6425.02
1100	6484.45
1100.58	6504.5
1101.16	6522.01
1101.74	6538.89
1102.32	6404.3
1102.9	6577.06
1103.48	6572.07
1104.05	6538.49
1104.63	6640.8
1105.21	6679.91
1105.79	6534.39
1106.37	6533.31
1106.95	6621.66
1107.52	6588.48
1108.1	6608.22
1108.68	6711.4
1109.26	6713.06
1109.84	6720.48
1110.41	6731.44
1110.99	6686.61
1111.57	6657.02
1112.15	6668.58
1112.73	6677.43
1113.3	6731.17
1113.88	6728.12
1114.46	6675.53
1115.03	6737.22
1115.61	6698.35
1116.19	6655.11
1116.77	6652.4
1117.34	6640.37
1117.92	6682.23
1118.5	6774.35
1119.08	6707.05
1119.65	6593.12
1120.23	6623.99
1120.81	6498.65
1121.38	6609.57
1121.96	6611.18
1122.54	6623.22
1123.11	6637.54
1123.69	6644.01
1124.27	6561.91
1124.84	6585.54
1125.42	6558.19
1126	6594.08
1126.57	6618.29
1127.15	6526.56
1127.72	6500.05
1128.3	6467.99
1128.88	6422.43
1129.45	6433.63
1130.03	6436.35
1130.6	6284.51
1131.18	6348.07
1131.76	6324.09
1132.33	6404.22
1132.91	6263.25
1133.48	6262.22
1134.06	6285.99
1134.63	6236.26
1135.21	6253.94
1135.78	6270.76
1136.36	6266.36
1136.94	6336.29
1137.51	6345.99
1138.09	6249.47
1138.66	6198.45
1139.24	6147.47
1139.81	6105.39
1140.39	6183.04
1140.96	6169.75
1141.53	6059.97
1142.11	6047.84
1142.68	6043.03
1143.26	6004.48
1143.83	6070.76
1144.41	6001.39
1144.98	6003.84
1145.56	6005.84
1146.13	5957.07
1146.71	5874.72
1147.28	5786.68
1147.85	5827.45
1148.43	5789.39
1149	5721.66
1149.58	5668.74
1150.15	5714.05
1150.73	5658.13
1151.3	5689.35
1151.87	5786.16
1152.45	5539.09
1153.02	5447.11
1153.59	5576.03
1154.17	5507.13
1154.74	5541.01
1155.31	5451.45
1155.89	5446.64
1156.46	5475.49
1157.03	5401.62
1157.61	5180.07
1158.18	5274.75
1158.75	5105.11
1158.97	5165.11
1159.55	5131.61
1160.14	5142.61
1160.72	5164.61
1161.3	5089.11
1161.88	5012.11
1162.46	5007.11
1163.05	4936.11
1163.63	4967.61
1164.21	4891.61
1164.79	4880.61
1165.37	4944.61
1165.95	4861.11
1166.53	4799.61
1167.11	4743.61
1167.7	4648.61
1168.28	4706.61
1168.86	4606.11
1169.44	4493.11
1170.02	4484.61
1170.6	4453.11
1171.18	4446.11
1171.76	4114.11
1172.35	4172.11
1172.93	4195.11
1173.51	4265.11
1174.09	4232.11
1174.67	4207.61
1175.25	4117.61
1175.83	4180.61
1176.41	4079.11
1176.99	4095.61
1177.57	4046.61
1178.15	3948.11
1178.73	3964.61
1179.31	3995.61
1179.89	3944.11
1180.47	3781.11
1181.05	3735.61
1181.63	3791.11
1182.21	3671.61
1182.79	3634.11
1183.37	3703.11
1183.95	3616.61
1184.53	3563.61
1185.11	3536.11
1185.69	3511.61
1186.27	3502.61
1186.85	3451.61
1187.43	3440.61
1188.01	3286.61
1188.58	3266.61
1189.16	3270.61
1189.74	3205.61
1190.32	3162.61
1190.9	3095.11
1191.48	3085.11
1192.06	3086.61
1192.64	3135.61
1193.22	3047.61
1193.8	2756.61
1194.37	3029.11
1194.95	3009.11
1195.53	2997.11
1196.11	2836.61
1196.69	2898.11
1197.27	2856.61
1197.85	2915.61
1198.42	2771.61
1199	2792.11
1199.58	2787.61
1200.16	2772.61
1200.74	2702.11
1201.31	2616.11
1201.89	2585.11
1202.47	2618.61
1203.05	2547.11
1203.63	2553.61
1204.2	2432.61
1204.78	2438.61
1205.36	2470.61
1205.94	2406.61
1206.51	2388.11
1207.09	2336.11
1207.67	2345.61
1208.25	2389.11
1208.82	2269.11
1209.4	2316.61
1209.98	2251.61
1210.56	2115.11
1211.13	2231.11
1211.71	2197.11
1212.29	2176.61
1212.86	2073.61
1213.44	2123.11
1214.02	2090.61
1214.59	2093.11
1215.17	2069.61
1215.75	1999.61
1216.32	2046.11
1216.9	2011.11
1217.48	1983.61
1218.05	1962.61
1218.63	1932.61
1219.21	1915.11
1219.78	1828.61
1220.36	1822.61
1220.93	1845.61
1221.51	1864.61
1222.09	1814.61
1222.66	1862.11
1223.24	1792.61
1223.81	1760.61
1224.39	1718.61
1224.97	1684.11
1225.54	1706.61
1226.12	1679.61
1226.69	1665.61
1227.27	1626.61
1227.84	1641.61
1228.42	1630.61
1228.99	1630.61
1229.57	1625.11
1230.15	1618.11
1230.72	1680.11
1231.3	1650.61
1231.87	1619.61
1232.44	1638.61
1233.02	1623.61
1233.6	1580.61
1234.17	1630.61
1234.75	1592.61
1235.32	1612.61
1235.89	1596.11
1236.47	1597.61
1237.04	1557.61
1237.62	1561.11
1238.19	1589.61
1238.77	1582.61
1239.34	1551.11
1239.92	1546.61
1240.49	1522.61
1241.06	1545.61
1241.64	1551.61
1242.21	1521.11
1242.79	1523.61
1243.36	1497.61
1243.93	1509.61
1244.51	1525.11
1245.08	1500.61
1245.66	1517.61
1246.23	1473.11
1246.8	1439.61
1247.38	1520.61
1247.95	1493.61
1248.52	1467.61
1249.1	1459.61
1249.67	1491.61
1250.24	1458.61
1250.82	1455.11
1251.39	1393.61
1251.96	1443.11
1252.54	1411.61
1253.11	1450.61
1253.68	1445.11
1254.26	1413.61
1254.83	1489.61
1255.4	1493.11
1255.97	1420.61
1256.55	1413.61
1257.12	1409.61
1257.69	1487.11
1258.27	1409.11
1258.84	1482.61
1259.41	1450.11
1259.98	1399.61
1260.55	1459.11
1261.13	1393.61
1261.7	1395.11
1262.27	1392.61
1262.84	1411.61
1263.41	1445.61
1263.99	1443.11
1264.56	1449.61
1265.13	1416.61
1265.7	1438.61
1266.27	1444.11
1266.85	1424.61
1267.42	1368.61
1267.99	1425.61
1268.56	1433.11
1269.13	1440.11
1269.7	1366.61
1270.28	1405.61
1270.85	1427.11
1271.42	1411.61
1271.99	1445.11
1272.56	1420.11
1273.13	1407.11
1273.7	1430.61
1274.27	1379.61
1274.85	1385.61
1275.41	1393.61
1275.99	1376.61
1276.56	1384.61
1277.13	1382.61
1277.7	1423.61
1278.27	1399.61
1278.84	1404.61
1279.41	1386.61
1279.98	1397.61
1280.55	1388.11
1281.12	1390.61
1281.69	1405.61
1282.26	1425.61
1282.83	1362.11
1283.4	1345.61
1283.97	1341.61
1284.54	1323.61
1285.11	1328.61
1285.68	1275.61
1286.25	1300.61
1286.82	1294.61
1287.39	1343.11
1287.96	1372.61
1288.53	1381.61
1289.1	1350.61
1289.67	1380.61
1290.24	1397.11
1290.81	1425.11
1291.38	1403.61
1291.95	1368.61
1292.52	1384.61
1293.09	1388.61
1293.65	1385.61
1294.22	1416.11
1294.79	1398.61
1295.36	1375.11
1295.93	1375.61
1296.5	1395.61
1297.07	1329.61
1297.64	1331.61
1298.21	1394.61
1298.78	1330.11
1299.34	1346.11
1299.91	1345.61
1300.48	1300.61
1301.05	1381.11
1301.62	1403.61
1302.19	1377.61
1302.75	1299.61
1303.32	1338.61
1303.89	1304.61
1304.46	1381.61
1305.03	1386.61
1305.59	1376.61
1306.16	1350.61
1306.73	1390.61
1307.3	1374.61
1307.87	1372.61
1308.43	1387.11
1309	1377.61
1309.57	1400.11
1310.14	1382.61
1310.7	1371.11
1311.27	1356.61
1311.84	1355.61
1312.4	1339.61
1312.97	1378.61
1313.54	1349.61
1314.11	1382.61
1314.67	1314.61
1315.24	1405.61
1315.81	1385.61
1316.38	1357.61
1316.94	1361.11
1317.51	1331.61
1318.08	1352.61
1318.64	1364.61
1319.21	1330.61
1319.77	1368.11
1320.34	1361.61
1320.91	1318.61
1321.48	1337.61
1322.04	1368.11
1322.61	1336.61
1323.18	1412.11
1323.74	1294.61
1324.31	1392.61
1324.87	1216.61
1325.44	1435.61
1326	1395.61
1326.57	1368.61
1327.14	1353.61
1327.7	1348.61
1328.27	1347.61
1328.83	1371.61
1329.4	1357.61
1329.97	1355.61
1330.53	1363.11
1331.1	1358.61
1331.66	1371.61
1332.23	1340.61
1332.79	1324.61
1333.36	1332.61
1333.92	1371.61
1334.49	1377.61
1335.05	1323.61
1335.62	1315.61
1336.18	1383.11
1336.75	1321.11
1337.31	1325.61
1337.88	1366.61
1338.44	1378.11
1339.01	1370.61
1339.57	1379.61
1340.14	1345.61
1340.7	1384.61
1341.27	1381.11
1341.83	1388.61
1342.39	1328.61
1342.96	1395.11
1343.52	1363.61
1344.09	1335.61
1344.65	1416.11
1345.22	1362.61
1345.78	1340.61
1346.35	1389.61
1346.91	1356.61
1347.47	1355.61
1348.04	1397.61
1348.6	1377.61
1349.16	1348.61
1349.73	1378.61
1350.29	1412.61
1350.86	1397.61
1351.42	1384.61
1351.98	1379.11
1352.55	1387.11
1353.11	1301.61
1353.67	1347.61
1354.23	1427.61
1354.8	1390.61
1355.36	1376.61
1355.92	1376.61
1356.49	1392.61
1357.05	1386.61
1357.61	1311.61
1358.18	1361.61
1358.74	1382.61
1359.3	1421.11
1359.87	1371.61
1360.43	1389.61
1360.99	1383.61
1361.55	1395.61
1362.11	1334.61
1362.68	1410.11
1363.24	1367.61
1363.8	1380.61
1364.36	1340.61
1364.93	1394.11
1365.49	1403.61
1366.05	1332.61
1366.61	1387.61
1367.17	1399.61
1367.74	1385.61
1368.3	1362.11
1368.86	1350.61
1369.42	1327.61
1369.98	1359.61
1370.55	1375.61
1371.11	1334.61
1371.67	1378.61
1372.23	1400.61
1372.79	1338.61
1373.35	1360.61
1373.91	1322.11
1374.48	1326.61
1375.04	1352.11
1375.6	1393.61
1376.16	1393.61
1376.72	1414.11
1377.28	1367.61
1377.84	1366.61
1378.4	1373.61
1378.96	1367.61
1379.53	1365.61
1380.09	1370.61
1380.65	1390.61
1381.21	1399.61
1381.77	1331.61
1382.33	1374.61
1382.89	1354.61
1383.45	1379.61
1384.01	1409.61
1384.57	1398.11
1385.13	1443.61
1385.69	1384.61
1386.25	1413.11
1386.81	1414.11
1387.37	1363.61
1387.93	1411.61
1388.49	1398.61
1389.05	1372.61
1389.61	1414.11
1390.17	1341.61
1390.73	1392.11
1391.29	1400.61
1391.85	1394.11
1392.41	1373.61
1392.97	1314.61
1393.53	1366.11
1394.09	1353.61
1394.65	1384.61
1395.21	1378.61
1395.77	1345.61
1396.33	1375.61
1396.88	1402.61
1397.44	1414.11
1398	1311.61
1398.56	1361.61
1399.12	1368.61
1399.68	1325.61
1400.24	1360.11
1400.8	1411.61
1401.36	1380.11
1401.91	1406.11
1402.47	1365.11
1403.03	1396.11
1403.59	1404.11
1404.15	1412.11
1404.71	1413.61
1405.26	1382.61
1405.82	1447.11
1406.38	1434.61
1406.94	1393.11
1407.5	1425.61
1408.06	1378.61
1408.61	1396.61
1409.17	1370.61
1409.73	1346.61
1410.29	1391.61
1410.85	1362.61
1411.4	1385.61
1411.96	1384.61
1412.52	1413.61
1413.08	1379.61
1413.63	1422.11
1414.19	1409.61
1414.75	1395.11
1415.31	1418.61
1415.86	1363.61
1416.42	1316.61
1416.98	1428.11
1417.53	1400.61
1418.09	1400.61
1418.65	1366.61
1419.21	1443.61
1419.76	1419.61
1420.32	1394.61
1420.88	1433.61
1421.43	1441.11
1421.99	1373.61
1422.55	1379.61
1423.1	1414.61
1423.66	1438.61
1424.22	1411.11
1424.77	1456.61
1425.33	1425.61
1425.89	1349.61
1426.44	1392.61
1427	1416.61
1427.55	1396.61
1428.11	1385.11
1428.67	1374.61
1429.22	1426.11
1429.78	1447.11
1430.33	1448.61
1430.89	1442.61
1431.44	1405.61
1432	1403.11
1432.56	1383.61
1433.11	1394.61
1433.67	1388.61
1434.22	1385.61
1434.78	1381.61
1435.34	1405.61
1435.89	1407.61
1436.44	1439.61
1437	1439.11
1437.56	1443.61
1438.11	1441.11
1438.67	1441.61
1439.22	1432.11
1439.78	1439.11
1440.33	1403.61
1440.89	1443.11
1441.44	1408.61
1441.99	1440.61
1442.55	1406.61
1443.11	1380.61
1443.66	1412.61
1444.21	1383.61
1444.77	1437.61
1445.32	1404.61
1445.88	1409.61
1446.43	1434.61
1446.98	1397.11
1447.54	1385.61
1448.09	1317.61
1448.65	1417.61
1449.2	1380.61
1449.76	1427.11
1450.31	1374.61
1450.86	1367.61
1451.42	1400.61
1451.97	1475.61
1452.52	1457.11
1453.08	1442.61
1453.63	1423.61
1454.19	1451.11
1454.74	1440.61
1455.29	1373.61
1455.85	1422.11
1456.4	1419.61
1456.95	1440.11
1457.51	1437.11
1458.06	1430.11
1458.61	1402.61
1459.17	1439.61
1459.72	1435.61
1460.27	1383.61
1460.82	1422.61
1461.38	1426.11
1461.93	1441.11
1462.48	1444.61
1463.04	1423.11
1463.59	1369.61
1464.14	1418.61
1464.69	1426.61
1465.25	1394.61
1465.8	1410.11
1466.35	1438.61
1466.9	1418.11
1467.46	1376.61
1468.01	1392.61
1468.56	1380.61
1469.11	1390.61
1469.66	1353.61
1470.22	1416.61
1470.77	1393.61
1471.32	1440.61
1471.87	1423.61
1472.42	1447.61
1472.98	1403.61
1473.53	1453.61
1474.08	1437.11
1474.63	1451.61
1475.18	1427.61
1475.73	1444.61
1476.28	1435.11
1476.84	1405.61
1477.39	1375.61
1477.94	1437.61
1478.49	1427.61
1479.04	1447.61
1479.59	1479.61
1480.14	1466.61
1480.7	1453.61
1481.25	1432.11
1481.8	1467.61
1482.35	1494.61
1482.9	1428.61
1483.45	1439.11
1484	1463.61
1484.55	1443.61
1485.1	1442.11
1485.65	1389.61
1486.2	1364.61
1486.75	1457.61
1487.3	1426.11
1487.85	1439.61
1488.4	1405.61
1488.95	1468.11
1489.5	1452.61
1490.05	1450.11
1490.6	1452.11
1491.15	1473.61
1491.7	1455.11
1492.25	1374.11
1492.8	1442.11
1493.35	1467.61
1493.9	1444.11
1494.45	1486.61
1495	1465.11
1495.55	1452.61
1496.1	1456.61
1496.65	1428.11
1497.2	1403.61
1497.75	1427.61
1498.3	1479.11
1498.85	1448.11
1499.4	1452.61
1499.95	1451.61
