19.3994	9592.62
20.0758	10062.6
20.7522	10397.1
21.4285	10795.6
22.1048	11312.6
22.7811	11701.6
23.4573	12122.1
24.1334	12531.1
24.8095	12819.6
25.4855	12985.6
26.1615	13294.6
26.8375	13611.1
27.5134	13657.6
28.1893	13990.6
28.8651	14142.6
29.5408	14361.6
30.2166	14471.1
30.8922	14503.6
31.5679	14883.6
32.2434	15114.6
32.919	15540.6
33.5945	15648.6
34.2699	15869.6
34.9453	15902.6
35.6206	16109.6
36.2959	16579.6
36.9712	16478.6
37.6464	16528.6
38.3192	16562.1
38.9943	16328.6
39.6694	16839.6
40.3444	17029.1
41.0194	17255.1
41.6943	17334.1
42.3692	17333.6
43.0417	17338.6
43.7165	17280.1
44.3912	17228.6
45.0659	17512.6
45.7405	17828.6
46.4128	17797.1
47.0874	17729.1
47.7619	17816.1
48.4363	17658.1
49.1084	17778.1
49.7828	17787.1
50.4571	17751.1
51.1314	17855.6
51.8033	17580.6
52.4775	17657.1
53.1516	17510.1
53.8234	17339.6
54.4974	17667.6
55.1714	17573.1
55.843	17722.1
56.5169	17858.1
57.1908	17477.6
57.8623	17704.6
58.536	17725.6
59.2074	17731.6
59.8811	17909.6
60.5547	17637.6
61.2259	17714.1
61.8995	17783.1
62.5706	17715.6
63.2441	17863.1
63.9174	17805.6
64.5885	17799.1
65.2618	17582.1
65.9327	17395.6
66.6059	17176.6
67.2767	16998.6
67.9498	17161.6
68.6206	17196.1
69.2936	17227.1
69.9643	16905.1
70.6372	16763.6
71.3077	16837.6
71.9783	16528.1
72.651	17230.1
73.3215	17902.1
73.9941	17880.6
74.6645	17881.6
75.3371	17864.6
76.0073	17451.1
76.6775	17199.1
77.3499	16901.6
78.02	16963.6
78.6901	16869.6
79.3624	16695.1
80.0324	16463.6
80.7023	16366.6
81.3745	15849.6
82.0443	16243.6
82.7141	16276.6
83.3861	16134.1
84.0558	15890.1
84.7254	15810.6
85.3973	15440.6
86.0668	15714.1
86.7364	15912.1
87.4058	15994.1
88.0775	15921.1
88.7469	15800.6
89.4162	15773.6
90.0855	15851.1
90.7547	15749.1
91.4261	15759.6
92.0953	15577.6
92.7644	15757.1
93.4334	15658.6
94.1024	15576.1
94.7713	15432.1
95.4425	15019.1
96.1114	15287.6
96.7802	15433.6
97.449	15365.6
98.1177	15169.6
98.7863	15016.6
99.455	14862.1
100.124	14903.1
100.792	15022.6
101.461	15003.6
102.131	15217.6
102.8	14988.1
103.468	15030.6
104.136	14720.1
104.805	14748.6
105.473	14757.1
106.141	14727.6
106.809	14663.1
107.477	14638.6
108.145	14566.6
108.813	14295.6
109.481	14292.1
110.147	14247.6
110.814	14516.6
111.482	14317.6
112.15	14635.6
112.818	14317.6
113.485	13945.6
114.153	14215.6
114.821	14218.6
115.488	14055.1
116.156	13950.6
116.821	13989.6
117.488	13767.1
118.155	13678.6
118.823	13689.6
119.49	13631.6
120.157	13596.6
120.822	13564.1
121.489	13680.1
122.156	13437.6
122.823	13418.6
123.49	13333.6
124.155	13573.6
124.822	13666.1
125.488	13334.6
126.155	13461.1
126.82	13421.6
127.486	13261.6
128.153	13317.1
128.817	13265.6
129.484	13322.6
130.15	13240.6
130.817	13251.6
131.481	13005.1
132.147	13139.1
132.811	12999.6
133.478	13106.1
134.144	13146.6
134.808	13220.6
135.474	13104.1
136.14	12856.6
136.804	12859.6
137.47	12759.1
138.133	12813.6
138.799	12851.1
139.463	12875.1
140.129	12836.6
140.795	12776.6
141.458	12510.6
142.124	12653.6
142.787	12450.6
143.453	12459.6
144.116	12373.6
144.781	12581.1
145.445	12485.1
146.11	12437.6
146.773	12369.6
147.436	12317.6
148.101	12539.1
148.764	12469.1
149.429	12248.6
150.092	12067.6
150.757	12107.6
151.42	12156.6
152.083	12229.6
152.748	12312.1
153.41	12178.6
154.075	12194.6
154.738	12166.6
155.4	12100.6
156.065	12079.6
156.727	12021.6
157.39	12009.6
158.054	11933.6
158.717	11981.6
159.379	11981.6
160.041	11909.1
160.705	11762.6
161.367	11821.6
162.03	11862.1
162.692	11762.6
163.356	11871.6
164.018	11753.1
164.679	11696.6
165.341	11538.6
166.005	11378.6
166.667	11638.6
167.329	11823.6
167.99	11656.1
168.652	11680.1
169.313	11575.6
169.977	11567.6
170.639	11645.1
171.3	11793.6
171.961	11724.1
172.623	11628.6
173.284	11728.1
173.945	11774.1
174.606	11604.1
175.267	11489.1
175.931	11595.6
176.592	11579.6
177.253	11756.6
177.914	11643.6
178.575	11644.6
179.236	11607.6
179.896	11325.6
180.557	11562.6
181.218	11702.6
181.879	11777.1
182.539	11614.1
183.2	11553.1
183.86	11466.6
184.521	11414.1
185.181	11421.6
185.839	11423.6
186.5	11541.6
187.16	11498.6
187.82	11406.6
188.48	11476.6
189.141	11352.1
189.801	11473.1
190.461	11670.6
191.121	11580.1
191.779	11786.6
192.439	11533.1
193.098	11587.1
193.758	11657.6
194.418	11670.6
195.078	11789.6
195.735	11822.6
196.395	11561.6
197.055	11752.1
197.714	11624.1
198.374	11780.6
199.031	11677.6
199.691	11646.6
200.35	11816.6
201.009	11866.1
201.666	11720.1
202.326	11669.1
202.985	11717.1
203.642	11594.6
204.301	11778.9
204.96	11853.6
205.617	11701.6
206.276	11736.6
206.935	11739.6
207.591	11699.1
208.25	11907.1
208.909	11901.6
209.566	11941.1
210.224	11885.6
210.881	11894.6
211.539	11754.6
212.196	11894.6
212.854	12007.6
213.513	11851.6
214.169	12026.6
214.827	12065.6
215.483	11948.6
216.142	11850.6
216.798	11852.6
217.456	11990.6
218.112	12037.6
218.77	12083.1
219.426	12031.6
220.084	12138.6
220.74	11583.1
221.398	11861.6
222.053	11927.1
222.709	12215.6
223.367	12184.6
224.022	12105.6
224.68	12204.1
225.336	12098.1
225.991	11835.6
226.649	11706.6
227.304	11997.6
227.961	11845.6
228.617	12051.1
229.272	11892.6
229.929	12030.1
230.584	11959.6
231.239	11955.6
231.897	12141.1
232.551	12382.6
233.206	12378.6
233.861	12478.6
234.518	12406.1
235.173	12439.1
235.828	12634.6
236.482	12579.6
237.139	12532.6
237.794	12658.1
238.449	12605.6
239.103	12654.6
239.757	12685.6
240.414	12628.6
241.069	12715.1
241.723	12771.6
242.377	12731.6
243.031	12833.6
243.686	12753.6
244.342	12530.6
244.996	12605.6
245.65	12972.6
246.304	12752.6
246.958	12959.1
247.612	12935.6
248.266	13045.1
248.92	12950.6
249.573	12982.1
250.227	12945.6
250.881	12958.6
251.535	13060.6
252.188	13233.6
252.842	13087.6
253.495	13065.1
254.149	12926.6
254.802	13071.6
255.456	13210.6
256.109	13404.1
256.762	13384.6
257.415	13223.1
258.069	13157.1
258.722	13223.1
259.375	13223.6
260.028	13403.6
260.681	13368.6
261.334	13526.6
261.987	13366.6
262.64	13380.1
263.29	13446.1
263.943	13188.6
264.596	13449.1
265.249	13534.6
265.901	13720.6
266.554	13532.1
267.204	13619.1
267.857	13455.1
268.509	13547.6
269.162	13501.6
269.814	13581.6
270.464	13657.6
271.117	13620.6
271.769	13698.6
272.421	13431.1
273.071	13657.6
273.723	13639.1
274.375	13851.6
275.025	13896.6
275.677	13907.1
276.329	13899.1
276.979	13655.6
277.631	13734.6
278.283	13755.6
278.932	13832.1
279.584	14041.6
280.236	14198.1
280.885	13978.6
281.537	13911.6
282.188	13979.6
282.838	13977.6
283.489	14071.6
284.138	14137.6
284.79	14149.6
285.439	14210.6
286.09	14136.1
286.739	14092.1
287.39	14091.6
288.041	14063.6
288.69	14202.6
289.341	14159.1
289.99	14352.6
290.639	14055.6
291.29	14045.6
291.939	14128.1
292.589	13966.6
293.238	14095.6
293.889	14106.2
294.537	14119.9
295.188	14135.3
295.836	14151.9
296.485	14149.6
297.135	13988.1
297.784	14093.6
298.434	14151.1
299.082	14088.6
299.73	14446.1
300.381	14199.6
301.029	14102.1
301.677	14401.1
302.327	14416.1
302.975	14639.6
303.623	14449.6
304.271	14491.6
304.921	14421.6
305.568	14349.6
306.216	14368.6
306.866	14707.6
307.513	14851.6
308.161	14718.6
308.809	14449.1
309.456	14369.6
310.106	14521.1
310.753	14376.6
311.4	14339.6
312.048	14472.6
312.695	14586.6
313.344	14534.6
313.992	14418.6
314.639	14570.6
315.286	14625.6
315.933	14490.6
316.58	14747.6
317.227	14819.6
317.874	14810.1
318.521	14778.6
319.17	14598.6
319.816	14624.1
320.463	14833.6
321.11	14770.6
321.757	14817.6
322.403	14903.6
323.05	14992.1
323.696	14774.1
324.343	14964.6
324.989	14894.1
325.636	15075.1
326.282	15145.1
326.928	14857.6
327.574	14978.1
328.221	14729.1
328.867	14940.6
329.511	15016.6
330.157	15121.1
330.803	15094.1
331.449	15236.1
332.095	15153.6
332.741	15070.6
333.387	14958.1
334.032	15111.1
334.678	15227.1
335.322	15291.1
335.967	15431.6
336.613	15232.6
337.259	15253.6
337.904	15232.1
338.547	15434.1
339.193	15263.6
339.838	15460.6
340.484	15638.6
341.129	15630.1
341.772	15669.6
342.417	15360.6
343.062	15457.6
343.705	15570.1
344.351	15669.6
344.996	15646.6
345.641	15686.6
346.283	15675.1
346.928	15655.1
347.573	15678.6
348.216	15742.6
348.861	15839.6
349.505	16054.6
350.148	16030.1
350.793	15895.1
351.435	15955.1
352.08	15811.6
352.724	15907.1
353.367	16015.1
354.011	16055.6
354.653	16108.6
355.298	15947.1
355.94	16110.6
356.584	16014.6
357.226	15950.6
357.87	16249.6
358.512	16198.6
359.156	16289.6
359.798	16433.1
360.442	16477.1
361.084	16168.1
361.728	16278.1
362.37	16161.6
363.013	16412.6
363.655	16207.6
364.299	16546.6
364.94	16577.1
365.582	16436.6
366.225	16442.1
366.867	16627.1
367.51	16649.6
368.152	16629.6
368.793	16804.6
369.436	16665.6
370.078	16731.6
370.719	16738.1
371.362	16672.6
372.003	16497.6
372.644	16940.6
373.287	16886.6
373.928	16891.6
374.569	16971.1
375.21	16647.6
375.853	16909.1
376.493	16870.1
377.134	16881.6
377.775	17201.1
378.418	17048.1
379.058	17119.6
379.699	17060.6
380.339	16916.6
380.98	16893.6
381.62	17337.1
382.263	17349.6
382.903	17347.1
383.543	17420.1
384.183	17046.6
384.823	17451.6
385.464	17336.6
386.104	17431.1
386.744	17403.1
387.386	17717.1
388.026	17558.1
388.666	17422.6
389.306	17408.6
389.945	17483.1
390.585	17533.6
391.225	17802.6
391.865	17831.6
392.504	17940.6
393.144	17795.6
393.784	17624.6
394.423	17747.1
395.063	17687.6
395.702	18028.6
396.341	17657.6
396.981	18116.1
397.62	18025.1
398.259	17965.6
398.896	17949.6
399.536	17895.1
400.175	18002.1
400.814	18226.6
401.453	18290.1
402.092	18136.1
402.731	18234.6
403.37	18038.6
404.006	18138.1
404.645	18095.6
405.284	18249.1
405.923	18515.1
406.562	18298.6
407.2	18237.1
407.837	18215.6
408.475	18298.1
409.114	18476.1
409.752	18700.6
410.388	18528.1
411.027	18724.6
411.665	18626.1
412.301	18700.1
412.94	18639.6
413.578	18593.6
414.216	18810.1
414.852	18628.6
415.49	18915.1
416.128	18701.6
416.764	18773.6
417.402	18810.1
418.04	18685.6
418.676	18931.6
419.314	19097.6
419.949	19240.6
420.587	19263.6
421.225	19147.6
421.86	19180.6
422.498	18868.6
423.133	18896.6
423.771	19194.6
424.406	18882.6
425.043	19163.1
425.679	19235.1
426.316	19220.6
426.951	19284.6
427.589	19454.1
428.224	19770.1
428.861	19755.6
429.496	19638.1
430.133	19921.6
430.768	19720.6
431.405	19625.6
432.04	19735.1
432.674	19968.6
433.311	19822.6
433.946	20236.1
434.583	20331.6
435.217	20168.1
435.852	19908.1
436.489	20160.6
437.123	19829.6
437.758	20155.1
438.394	20424.1
439.028	20405.1
439.663	20477.6
440.299	20398.1
440.933	20333.6
441.568	20414.6
442.202	20451.6
442.838	20710.1
443.472	20945.1
444.106	20662.6
444.74	20582.6
445.376	20452.6
446.01	20477.1
446.644	20586.1
447.277	20844.1
447.911	20958.6
448.547	20881.6
449.181	20812.1
449.814	20875.1
450.448	20921.6
451.081	20670.1
451.715	20911.1
452.348	21213.6
452.984	21213.6
453.617	21262.1
454.251	20967.1
454.884	20766.1
455.517	20876.1
456.15	21220.6
456.784	21097.6
457.417	21189.1
458.05	21293.1
458.683	21168.1
459.316	21334.1
459.949	21143.6
460.582	21181.1
461.214	21083.6
461.847	20989.6
462.48	21592.6
463.113	21524.1
463.745	21390.1
464.378	21123.6
465.011	21108.1
465.643	21667.6
466.276	21601.1
466.906	21629.6
467.538	21681.6
468.171	21397.6
468.803	21543.6
469.435	21316.6
470.068	21721.6
470.7	21969.6
471.33	22117.1
471.962	22117.1
472.594	22075.1
473.226	21777.6
473.858	21845.6
474.488	21967.1
475.12	22462.6
475.752	22563.6
476.384	22660.1
477.013	22627.6
477.645	22378.6
478.277	22329.6
478.908	22510.1
479.538	22629.1
480.169	22499.6
480.801	22790.6
481.43	22828.1
482.062	22590.1
482.693	22451.6
483.322	22505.6
483.954	22863.6
484.585	22656.6
485.214	22614.6
485.845	22904.6
486.474	22510.1
487.105	22228.6
487.736	22240.6
488.365	22382.6
488.996	22157.6
489.625	22253.1
490.256	22215.6
490.885	22032.1
491.515	21921.1
492.144	21632.6
492.775	21455.1
493.403	21297.6
494.034	21027.6
494.662	21349.1
495.293	21171.6
495.921	20859.6
496.552	20835.1
497.18	20361.1
497.81	20022.6
498.439	20126.1
499.067	19912.6
499.697	19629.6
500.325	19544.6
500.955	19258.6
501.583	18951.1
502.211	18369.6
502.841	18323.6
503.469	18304.6
504.097	18191.1
504.727	17778.1
505.355	17594.6
505.982	17184.1
506.61	17017.6
507.24	16913.6
507.867	16787.1
508.495	16490.6
509.124	16477.1
509.752	15957.6
510.379	15946.6
511.007	15566.1
511.634	15339.6
512.263	14925.6
512.891	14803.6
513.518	14717.1
514.145	14506.6
514.772	14110.6
515.399	14057.6
516.028	13661.1
516.655	13647.6
517.282	13483.6
517.909	13285.1
518.536	13197.1
519.163	12772.6
519.789	12631.6
520.416	12651.6
521.043	12349.1
521.669	12290.6
522.298	12135.6
522.925	12139.6
523.551	11837.6
524.178	11774.1
524.804	11664.6
525.431	11258.6
526.057	11383.1
526.683	11112.6
527.31	11105.1
527.934	10936.6
528.56	10960.6
529.186	10817.1
529.812	10687.1
530.438	10538.1
531.064	10499.6
531.69	10477.6
532.316	10254.6
532.942	10342.1
533.568	10220.6
534.194	10050.6
534.817	9890.12
535.443	9957.12
536.069	9889.12
536.694	9831.62
537.32	9940.12
537.943	9675.12
538.569	9750.12
539.194	9523.12
539.82	9406.62
540.445	9411.62
541.068	9487.12
541.694	9259.12
542.319	9384.62
542.944	9451.62
543.567	9234.62
544.192	9252.12
544.817	9250.62
545.44	9224.5
546.065	9094.09
546.69	9204.28
547.313	9247.23
547.938	8999.44
548.563	9109.37
549.185	9042.88
549.81	9084.46
550.433	9184.25
551.057	9218.3
551.682	9168.15
552.305	9098.73
552.929	9100.99
553.551	9102.43
554.176	9139.6
554.798	9208.29
555.423	9335.03
556.047	9271.49
556.669	9276.78
557.293	9326.44
557.915	9338.19
558.537	9378.32
559.162	9424.98
559.784	9474.22
560.408	9466.98
561.03	9673.47
561.654	9646.7
562.275	9749.42
562.899	9565.64
563.521	9685.27
564.143	9791.93
564.766	9971.79
565.388	9927.76
566.009	9873.08
566.633	9930.43
567.255	9921.22
567.878	9958.62
568.5	10036
569.121	10132.3
569.742	10056.5
570.366	10137.2
570.987	10131.4
571.608	10110.7
572.231	10034.7
572.852	9979.65
573.473	10101.6
574.094	9946.45
574.717	10205.5
575.338	10079.5
575.959	10090.5
576.58	10009.5
577.201	9954.43
577.822	9974.2
578.445	9946.68
579.065	9958.05
579.686	9965.49
580.306	9755.69
580.927	9774.54
581.548	9688.95
582.168	9616.23
582.791	9615.4
583.411	9622.13
584.031	9599.89
584.652	9534.36
585.272	9480.74
585.892	9471.27
586.512	9454.26
587.132	9505.33
587.753	9524.62
588.373	9556.81
588.993	9456.28
589.613	9454.61
590.233	9340.77
590.852	9178.96
591.472	9159.22
592.092	8984.67
592.712	9145.37
593.332	9056.08
593.951	8867.99
594.569	8938.25
595.188	8897.52
595.808	8744.03
596.427	8707.22
597.047	8667.01
597.666	8521.82
598.286	8411.73
598.905	8420.53
599.522	8234.43
600.142	8283.41
600.761	8122.97
601.38	8179.71
601.999	8084.36
602.616	8054.6
603.235	7952.89
603.854	7925.23
604.473	7884.95
605.09	7681.85
605.709	7723.1
606.328	7674.87
606.947	7489.11
607.563	7379.26
608.182	7386.8
608.801	7283.57
609.417	7259.48
610.036	7160.93
610.655	7143.26
611.271	7117.45
611.89	7034.07
612.508	6967.79
613.124	6878.53
613.743	6886.46
614.359	6733.5
614.977	6680.2
615.595	6596.89
616.212	6558.32
616.83	6637
617.446	6483.22
618.064	6434.6
618.68	6408.74
619.298	6334.48
619.914	6218.66
620.532	6207.76
621.147	6182.18
621.765	6106.87
622.381	6160.84
622.999	6074.73
623.614	5977.73
624.23	5993.61
624.847	5873.5
625.463	5889.8
626.08	5912.02
626.696	5791.99
627.311	5729.83
627.929	5712
628.544	5566.21
629.161	5626.27
629.776	5582.4
630.392	5623.63
631.009	5524.31
631.624	5500.86
632.239	5548.2
632.854	5412.67
633.471	5344.77
634.086	5390.12
634.701	5338.01
635.318	5289.84
635.932	5240.31
636.547	5360.93
637.162	5134.16
637.777	5148.18
638.393	5158.29
639.008	4899.27
639.622	4810.54
640.237	4993.96
640.851	5017.9
641.468	4937.77
642.082	4792.13
642.697	4817.5
643.311	4826.79
643.925	4866.93
644.539	4873.65
645.154	4782.14
645.768	4960.98
646.382	4771.33
646.996	4840.06
647.612	4768.13
648.226	4761.36
648.84	4738.88
649.454	4697.28
650.068	4788.28
650.682	4646.87
651.295	4650.55
651.909	4594.62
652.523	4601.87
653.136	4601.54
653.75	4683.16
654.361	4569.94
654.975	4614.38
655.589	4584.09
656.202	4561.04
656.815	4546.83
657.429	4521.59
658.042	4535.09
658.655	4387.2
659.269	4399.43
659.882	4499.33
660.493	4476.33
661.106	4402.81
661.719	4485.19
662.332	4326.34
662.945	4370.95
663.556	4372.58
664.169	4368.93
664.782	4320.44
665.395	4416.67
666.007	4278.92
666.618	4335.85
667.231	4317.53
667.843	4267.11
668.454	4290.32
669.067	4362.33
669.679	4301.38
670.292	4262.43
670.902	4202.07
671.514	4230.91
672.125	4296.88
672.423	4283.88
673.044	4083.88
673.665	4312.38
674.286	4266.88
674.907	4244.38
675.528	4340.38
676.148	4242.38
676.769	4055.88
677.388	4284.88
678.008	4194.38
678.629	4252.88
679.249	4151.88
679.87	4025.88
680.49	4085.38
681.111	4122.38
681.731	4149.88
682.349	4150.38
682.97	4120.88
683.59	4105.88
684.21	4002.88
684.83	4008.88
685.448	4061.38
686.068	4025.38
686.688	4136.38
687.308	4081.88
687.926	4174.38
688.546	4180.88
689.166	4115.38
689.786	4041.38
690.404	4102.38
691.023	4083.88
691.643	4133.38
692.26	4111.38
692.88	4158.38
693.5	4107.38
694.117	3951.88
694.737	3932.88
695.356	4063.88
695.973	4018.38
696.593	4088.38
697.21	4041.88
697.829	4051.88
698.449	3998.38
699.066	3981.88
699.685	3963.38
700.302	4073.88
700.921	4049.38
701.538	4026.88
702.157	4025.88
702.774	3954.88
703.393	3957.38
704.009	3921.88
704.628	3959.88
705.245	3981.88
705.864	4020.88
706.48	4058.88
707.099	4044.88
707.716	4024.38
708.334	3940.38
708.951	4043.88
709.569	4083.88
710.185	4078.88
710.802	3889.38
711.42	4118.88
712.036	3966.38
712.653	4051.88
713.271	4005.88
713.887	4028.38
714.505	3980.88
715.121	4046.38
715.737	3969.38
716.355	3831.88
716.971	4008.88
717.587	3877.88
718.203	3954.38
718.821	4043.88
719.437	4060.88
720.052	4032.38
720.67	4096.38
721.286	3963.38
721.901	3970.88
722.517	4064.38
723.132	3932.88
723.75	3950.88
724.365	3974.88
724.981	4078.88
725.596	4020.38
726.211	4021.38
726.829	4115.88
727.444	3992.38
728.059	4078.38
728.674	4081.88
729.289	4022.88
729.904	4013.88
730.519	4076.38
731.134	3997.88
731.751	4055.38
732.366	4015.88
732.981	4073.38
733.596	3989.88
734.211	3987.88
734.826	3999.88
735.44	4032.88
736.055	3949.88
736.669	4017.88
737.284	4040.88
737.899	3966.88
738.513	4047.88
739.128	4086.38
739.742	4054.88
740.356	3900.38
740.971	3988.38
741.585	3791.88
742.199	3932.88
742.813	3941.38
743.427	3882.88
744.039	3928.88
744.654	3925.38
745.268	3998.38
745.882	3934.88
746.496	3892.38
747.109	3970.38
747.723	4037.88
748.337	4121.38
748.949	4054.88
749.563	4087.38
750.176	4069.88
750.79	4039.38
751.404	4142.38
752.015	4137.88
752.629	4124.88
753.242	4101.88
753.856	4117.88
754.467	4121.88
755.08	4088.88
755.694	3992.88
756.307	4102.38
756.918	4176.88
757.531	4122.38
758.145	4121.88
758.756	4125.38
759.369	4128.88
759.982	4030.88
760.593	4157.88
761.206	4190.88
761.819	4103.38
762.43	4197.88
763.042	4231.38
763.655	4174.38
764.266	4208.88
764.879	4146.88
765.489	4177.88
766.102	4120.88
766.713	4097.88
767.325	4153.88
767.938	4136.88
768.548	4236.88
769.161	4174.88
769.771	4232.88
770.383	4215.88
770.993	4189.88
771.606	4246.38
772.216	4300.88
772.828	4341.38
773.438	4228.88
774.048	4258.88
774.66	4302.88
775.27	4150.88
775.882	4296.88
776.492	4321.38
777.104	4298.38
777.714	4310.88
778.324	4292.38
778.936	4347.88
779.545	4224.38
780.155	4293.38
780.767	4184.88
781.376	4355.88
781.986	4342.88
782.597	4282.88
783.207	4250.38
783.816	4239.88
784.427	4213.88
785.037	4350.88
785.646	4260.38
786.257	4273.38
786.867	4240.88
787.476	4239.88
788.085	4229.88
788.694	4293.88
789.305	4289.88
789.914	4175.38
790.523	4322.88
791.132	4228.88
791.741	4334.38
792.352	4205.38
792.961	4257.88
793.569	4231.88
794.178	4252.38
794.787	4230.88
795.395	4292.88
796.004	4302.88
796.615	4182.88
797.223	4134.88
797.832	4205.88
798.44	4151.88
799.048	4233.88
799.657	4128.88
800.265	4135.88
800.873	4147.88
801.482	4045.38
802.09	4043.88
802.698	4045.88
803.306	4002.88
803.914	3968.88
804.522	3969.88
805.13	3781.38
805.738	3842.88
806.346	3795.88
806.954	3803.38
807.562	3816.88
808.17	3784.88
808.777	3838.88
809.385	3902.88
809.993	3956.88
810.598	3936.38
811.206	3752.88
811.813	3826.88
812.421	3816.38
813.028	3756.88
813.636	3768.38
814.243	3731.38
814.849	3665.88
815.456	3659.88
816.063	3607.38
816.67	3565.88
817.278	3586.88
817.883	3593.88
818.49	3574.88
819.097	3495.88
819.704	3416.88
820.309	3464.88
820.916	3320.88
821.523	3290.38
822.13	3313.38
822.734	3292.38
823.341	3352.88
823.948	3307.38
824.553	3239.38
825.159	3168.38
825.766	3136.38
826.37	3073.88
826.977	3100.38
827.583	3157.88
828.188	3118.38
828.794	3126.38
829.399	3027.88
830.005	3011.38
830.609	3013.88
831.216	2882.88
831.822	2873.88
832.426	2839.88
833.032	2900.88
833.636	2847.38
834.242	2812.38
834.846	2797.88
835.452	2747.88
836.056	2736.38
836.662	2688.88
837.266	2735.88
837.872	2673.88
838.475	2639.88
839.081	2651.88
839.685	2593.88
840.288	2603.88
840.894	2520.88
841.497	2584.88
842.103	2592.88
842.707	2616.88
843.31	2582.88
843.915	2577.88
844.519	2615.88
845.124	2463.88
845.727	2440.88
846.331	2501.88
846.936	2517.38
847.539	2477.88
848.142	2547.88
848.745	2514.38
849.35	2528.88
849.953	2462.88
850.556	2414.88
851.161	2445.88
851.764	2491.88
852.367	2484.88
852.97	2446.88
853.572	2452.88
854.177	2445.88
854.78	2386.38
855.382	2433.88
855.985	2445.88
856.587	2487.38
857.192	2477.38
857.794	2471.88
858.397	2415.88
858.999	2377.88
859.602	2417.88
860.204	2422.88
860.806	2413.88
861.408	2437.88
862.013	2420.38
862.615	2435.88
863.217	2346.88
863.819	2379.88
864.421	2409.88
865.023	2455.88
865.625	2467.88
866.227	2414.88
866.829	2404.38
867.431	2365.88
868.032	2418.88
868.634	2438.88
869.236	2364.88
869.838	2458.38
870.439	2408.88
871.041	2429.88
871.642	2404.88
872.244	2447.88
872.843	2398.88
873.445	2380.88
874.046	2369.88
874.648	2424.88
875.249	2410.88
875.85	2316.88
876.451	2402.88
877.053	2397.38
877.652	2449.38
878.253	2428.88
878.854	2505.38
879.455	2420.88
880.056	2401.38
880.655	2453.38
881.256	2418.88
881.857	2366.88
882.458	2442.88
883.056	2430.38
883.657	2462.88
884.258	2420.38
884.858	2466.88
885.457	2477.88
886.058	2421.88
886.658	2484.38
887.257	2459.88
887.857	2430.88
888.458	2455.38
889.056	2448.38
889.656	2433.88
890.257	2412.88
890.855	2434.88
891.455	2403.88
892.055	2344.88
892.654	2466.88
893.254	2395.88
893.852	2481.38
894.452	2475.88
895.052	2478.38
895.65	2421.88
896.25	2394.88
896.848	2483.88
897.448	2467.88
898.045	2417.88
898.645	2482.88
899.243	2460.38
899.842	2471.88
900.44	2482.88
901.04	2444.88
901.637	2467.88
902.235	2534.88
902.834	2533.38
903.432	2512.88
904.031	2492.38
904.628	2462.88
905.228	2434.88
905.825	2458.88
906.422	2455.88
907.022	2493.88
907.619	2453.88
908.216	2538.88
908.815	2541.88
909.412	2501.88
910.009	2512.38
910.608	2497.88
911.205	2504.88
911.802	2528.88
912.401	2504.88
912.997	2559.38
913.594	2620.88
914.191	2594.38
914.79	2438.88
915.386	2557.88
915.983	2543.38
916.58	2517.38
917.176	2548.38
917.775	2589.88
918.371	2513.88
918.967	2572.88
919.564	2519.38
920.16	2575.88
920.756	2542.88
921.355	2604.88
921.951	2577.38
922.547	2637.88
923.143	2584.38
923.739	2562.88
924.336	2636.88
924.932	2574.38
925.528	2632.88
926.123	2593.88
926.719	2530.88
927.315	2628.88
927.911	2575.38
928.507	2671.88
929.103	2583.88
929.698	2678.88
930.294	2635.38
930.89	2743.88
931.485	2738.38
932.081	2694.38
932.676	2658.88
933.272	2752.88
933.867	2611.38
934.463	2792.88
935.058	2811.88
935.653	2816.88
936.249	2852.88
936.844	2811.88
937.439	2911.88
938.032	2834.88
938.627	2789.88
939.222	2881.38
939.818	2879.88
940.413	2931.38
941.008	2916.88
941.6	2956.88
942.195	2909.88
942.79	3024.88
943.385	2930.88
943.98	3037.88
944.572	3096.38
945.167	3089.88
945.762	3064.88
946.357	3078.88
946.949	3083.88
947.544	3164.88
948.138	3095.38
948.73	3209.88
949.325	3086.88
949.919	3202.88
950.512	3203.88
951.106	3166.88
951.7	3156.88
952.292	3258.38
952.887	3192.88
953.481	3189.88
954.073	3343.88
954.667	3326.88
955.259	3401.88
955.853	3486.38
956.445	3384.88
957.039	3434.88
957.633	3468.88
958.225	3444.88
958.818	3461.88
959.41	3590.38
960.004	3509.88
960.596	3557.88
961.189	3508.38
961.781	3571.88
962.374	3601.88
962.966	3630.88
963.557	3658.88
964.151	3696.38
964.742	3681.88
965.336	3813.38
965.927	3841.38
966.52	3746.88
967.112	3818.88
967.703	3811.88
968.296	3825.38
968.887	3932.88
969.478	3916.88
970.071	3886.88
970.662	3842.88
971.253	3905.38
971.846	3924.88
972.437	3976.88
973.028	4100.38
973.621	4073.88
974.212	3966.88
974.802	4076.88
975.393	4093.38
975.986	3965.38
976.576	4114.88
977.167	4122.38
977.758	4137.38
978.348	4209.88
978.941	4238.88
979.531	4212.88
980.121	4300.88
980.712	4262.88
981.302	4335.88
981.892	4276.88
982.485	4268.88
983.075	4366.88
983.665	4424.88
984.255	4364.88
984.845	4327.38
985.435	4401.38
986.025	4432.38
986.615	4429.88
987.205	4513.88
987.795	4520.88
988.385	4535.88
988.975	4503.88
989.565	4551.88
990.154	4502.88
990.744	4565.38
991.334	4665.88
991.923	4651.38
992.513	4615.38
993.103	4676.88
993.692	4635.88
994.282	4630.96
994.871	4675.88
995.46	4627.38
996.05	4616.88
996.639	4686.38
997.229	4737.88
997.818	4775.88
998.405	4832.38
998.994	4686.88
999.583	4713.88
1000.17	4687.38
1000.76	4718.88
1001.35	4688.88
1001.94	4875.88
1002.53	4819.88
1003.12	4670.38
1003.7	4844.88
1004.29	4774.88
1004.88	4638.38
1005.47	4877.88
1006.06	4899.88
1006.65	4816.38
1007.23	4948.88
1007.82	4895.38
1008.41	4927.88
1009	4969.88
1009.58	4982.88
1010.17	4873.38
1010.76	5018.88
1011.35	4890.38
1011.94	4975.88
1012.52	4954.5
1013.11	4854.88
1013.7	4980.88
1014.29	5072.88
1014.87	4969.88
1015.46	5129.38
1016.05	5082.88
1016.63	5038.88
1017.22	5066.88
1017.81	5039.38
1018.4	4907.88
1018.98	4999.88
1019.57	5047.38
1020.16	5088.88
1020.74	5072.88
1021.33	5012.88
1021.92	5172.38
1022.5	4941.88
1023.09	5100.88
1023.67	4933.88
1024.26	5163.88
1024.85	5133.88
1025.44	5151.88
1026.02	5227.38
1026.61	5068.38
1027.19	5120.38
1027.78	5178.88
1028.37	5096.38
1028.95	5103.88
1029.54	5212.38
1030.12	5140.88
1030.71	5162.38
1031.29	5131.38
1031.88	5192.38
1032.47	5047.38
1033.05	5185.88
1033.64	5261.38
1034.22	5188.38
1034.81	5215.88
1035.39	5258.88
1035.98	5253.38
1036.56	5096.38
1037.15	5256.38
1037.73	5088.88
1038.32	5241.38
1038.9	5243.38
1039.49	5268.38
1040.07	5103.88
1040.66	5245.88
1041.24	5169.38
1041.83	5239.6
1042.41	5123.44
1043	5176.64
1043.58	5229.51
1044.17	5269.91
1044.75	5281.33
1045.33	5272.48
1045.92	5157.46
1046.5	5266.28
1047.09	5174.87
1047.67	5343.33
1048.25	5308.24
1048.84	5302.36
1049.42	5288.11
1050.01	5198.68
1050.59	5232.58
1051.17	5261.65
1051.76	5350.21
1052.34	5342.35
1052.93	5399.86
1053.51	5400.43
1054.09	5320.89
1054.68	5451.51
1055.26	5337.11
1055.84	5440.83
1056.42	5346.01
1057.01	5373.68
1057.59	5484.33
1058.17	5531.49
1058.76	5445.85
1059.34	5423.57
1059.92	5458.05
1060.51	5494.65
1061.09	5549.46
1061.67	5570.2
1062.25	5498.02
1062.84	5569.26
1063.42	5507.15
1064	5602.78
1064.58	5637.72
1065.17	5627.07
1065.75	5589.38
1066.33	5680.1
1066.91	5720.21
1067.49	5747.26
1068.08	5684.49
1068.66	5726.06
1069.24	5665.34
1069.82	5812.18
1070.41	5665.5
1070.99	5855.42
1071.57	5760.88
1072.15	5765.9
1072.73	5880.3
1073.31	5944.53
1073.89	5842.86
1074.48	5886.7
1075.06	5880.84
1075.64	6008.64
1076.22	5995.27
1076.8	6038.21
1077.38	5927.36
1077.96	5976.8
1078.55	6144.91
1079.13	6055.6
1079.71	6063.08
1080.29	6142.06
1080.87	6158.16
1081.45	6301.73
1082.03	6341.97
1082.61	6233.88
1083.19	6229.62
1083.77	6383.52
1084.35	6346.61
1084.93	6350.03
1085.51	6421.87
1086.09	6472.09
1086.67	6519.47
1087.25	6445.78
1087.83	6456.42
1088.41	6496.37
1088.99	6360.03
1089.57	6564.39
1090.15	6513.53
1090.73	6547.15
1091.31	6603.56
1091.89	6550.88
1092.47	6570.67
1093.05	6547.85
1093.63	6547.55
1094.21	6686.83
1094.79	6627.58
1095.37	6737.73
1095.95	6818.36
1096.53	6735.18
1097.11	6826.52
1097.69	6737.16
1098.27	6735.98
1098.85	6769.46
1099.42	6865.46
1100	6817.44
1100.58	6802.34
1101.16	6805.19
1101.74	6795.86
1102.32	6775.04
1102.9	6928.19
1103.48	6912.01
1104.05	6951.23
1104.63	6924.73
1105.21	6988.04
1105.79	6934.84
1106.37	6881.78
1106.95	6961.52
1107.52	6852.62
1108.1	6882.28
1108.68	6964.48
1109.26	6933.31
1109.84	6983.48
1110.41	7021.37
1110.99	6944.34
1111.57	7029.4
1112.15	6889.69
1112.73	6909.93
1113.3	7028.35
1113.88	6979.48
1114.46	6993.56
1115.03	7116.61
1115.61	6758.72
1116.19	6924.84
1116.77	6994.92
1117.34	6953.98
1117.92	6923.12
1118.5	7021.86
1119.08	6990
1119.65	6902.36
1120.23	6883.54
1120.81	6832.5
1121.38	6838.2
1121.96	6943.54
1122.54	6915.92
1123.11	6933.66
1123.69	6865.78
1124.27	6904.49
1124.84	6922.72
1125.42	6900.55
1126	6839.37
1126.57	6774.09
1127.15	6853.17
1127.72	6822.72
1128.3	6827.5
1128.88	6698.87
1129.45	6694.42
1130.03	6629.27
1130.6	6678.79
1131.18	6618.94
1131.76	6610.63
1132.33	6559.9
1132.91	6599.4
1133.48	6584.63
1134.06	6652.25
1134.63	6481.79
1135.21	6641.23
1135.78	6554.21
1136.36	6561.08
1136.94	6437.83
1137.51	6666.62
1138.09	6484.36
1138.66	6516.54
1139.24	6460.56
1139.81	6368.78
1140.39	6460.8
1140.96	6488.22
1141.53	6455.19
1142.11	6455.94
1142.68	6500.28
1143.26	6471.47
1143.83	6393.95
1144.41	6402.92
1144.98	6355.57
1145.56	6349.78
1146.13	6284.05
1146.71	6211.14
1147.28	6185.47
1147.85	6234.79
1148.43	6066.38
1149	6072.16
1149.58	6050.56
1150.15	6143.77
1150.73	5891.3
1151.3	5983.01
1151.87	6009.03
1152.45	6095.7
1153.02	5893.03
1153.59	6048.08
1154.17	5956.49
1154.74	5939.46
1155.31	5971.48
1155.89	5892.59
1156.46	5870.19
1157.03	5757.41
1157.61	5765.6
1158.18	5499.88
1158.75	5768.61
1158.97	5581.61
1159.55	5644.61
1160.14	5535.61
1160.72	5567.61
1161.3	5588.61
1161.88	5639.11
1162.46	5465.61
1163.05	5469.61
1163.63	5230.61
1164.21	5258.61
1164.79	5330.61
1165.37	5396.61
1165.95	5231.61
1166.53	5328.61
1167.11	5192.61
1167.7	5185.61
1168.28	5042.61
1168.86	5100.11
1169.44	5025.61
1170.02	5085.61
1170.6	4954.61
1171.18	5059.61
1171.76	4786.61
1172.35	4846.61
1172.93	4777.61
1173.51	4717.61
1174.09	4707.61
1174.67	4842.11
1175.25	4724.61
1175.83	4804.61
1176.41	4716.11
1176.99	4716.11
1177.57	4680.61
1178.15	4543.61
1178.73	4514.61
1179.31	4526.61
1179.89	4476.61
1180.47	4511.11
1181.05	4326.61
1181.63	4405.61
1182.21	4339.61
1182.79	4303.61
1183.37	4248.61
1183.95	4270.61
1184.53	4285.61
1185.11	4272.61
1185.69	4167.11
1186.27	4146.61
1186.85	4150.61
1187.43	4016.11
1188.01	3866.61
1188.58	4003.11
1189.16	3967.61
1189.74	3885.61
1190.32	3863.61
1190.9	3940.11
1191.48	3793.11
1192.06	3708.11
1192.64	3830.61
1193.22	3761.61
1193.8	3807.11
1194.37	3676.61
1194.95	3720.11
1195.53	3574.61
1196.11	3534.11
1196.69	3576.17
1197.27	3564.11
1197.85	3607.11
1198.42	3452.61
1199	3465.61
1199.58	3440.61
1200.16	3445.61
1200.74	3326.61
1201.31	3377.61
1201.89	3360.61
1202.47	3276.61
1203.05	3305.61
1203.63	3178.61
1204.2	3282.11
1204.78	3126.11
1205.36	3129.61
1205.94	3149.61
1206.51	3078.11
1207.09	3078.61
1207.67	3121.61
1208.25	3064.61
1208.82	2981.61
1209.4	3051.11
1209.98	2934.61
1210.56	2911.61
1211.13	2941.11
1211.71	2972.11
1212.29	2911.11
1212.86	2915.11
1213.44	2912.11
1214.02	2899.11
1214.59	2827.11
1215.17	2733.61
1215.75	2812.61
1216.32	2728.61
1216.9	2723.11
1217.48	2720.61
1218.05	2724.61
1218.63	2684.11
1219.21	2700.11
1219.78	2585.61
1220.36	2645.61
1220.93	2638.61
1221.51	2556.11
1222.09	2585.61
1222.66	2530.61
1223.24	2572.61
1223.81	2477.61
1224.39	2457.61
1224.97	2466.61
1225.54	2421.11
1226.12	2456.61
1226.69	2433.11
1227.27	2322.11
1227.84	2377.11
1228.42	2377.61
1228.99	2319.11
1229.57	2316.61
1230.15	2320.11
1230.72	2310.11
1231.3	2385.61
1231.87	2371.61
1232.44	2344.61
1233.02	2358.11
1233.6	2362.11
1234.17	2350.61
1234.75	2312.11
1235.32	2359.61
1235.89	2383.61
1236.47	2338.61
1237.04	2236.61
1237.62	2245.61
1238.19	2316.61
1238.77	2240.61
1239.34	2273.11
1239.92	2281.11
1240.49	2299.61
1241.06	2306.61
1241.64	2320.11
1242.21	2278.11
1242.79	2246.61
1243.36	2262.61
1243.93	2239.11
1244.51	2226.61
1245.08	2228.61
1245.66	2299.11
1246.23	2246.61
1246.8	2231.11
1247.38	2205.61
1247.95	2203.61
1248.52	2174.11
1249.1	2207.61
1249.67	2204.61
1250.24	2222.11
1250.82	2193.61
1251.39	2206.11
1251.96	2185.61
1252.54	2188.61
1253.11	2173.61
1253.68	2215.11
1254.26	2225.61
1254.83	2265.61
1255.4	2262.11
1255.97	2170.61
1256.55	2087.11
1257.12	2205.61
1257.69	2174.61
1258.27	2117.11
1258.84	2239.11
1259.41	2138.11
1259.98	2181.11
1260.55	2174.61
1261.13	2212.61
1261.7	2162.61
1262.27	2165.61
1262.84	2138.61
1263.41	2066.61
1263.99	2212.61
1264.56	2128.61
1265.13	2192.11
1265.7	2191.61
1266.27	2189.11
1266.85	2163.61
1267.42	2156.11
1267.99	2206.61
1268.56	2208.61
1269.13	2150.61
1269.7	2175.61
1270.28	2159.11
1270.85	2222.61
1271.42	2185.61
1271.99	2131.11
1272.56	2200.61
1273.13	2182.61
1273.7	2144.61
1274.27	2163.61
1274.85	2154.11
1275.41	2174.61
1275.99	2141.61
1276.56	2111.61
1277.13	2171.61
1277.7	2168.11
1278.27	2179.61
1278.84	2138.11
1279.41	2165.61
1279.98	2192.61
1280.55	2161.11
1281.12	2160.61
1281.69	2196.11
1282.26	2105.11
1282.83	2129.61
1283.4	2141.61
1283.97	2060.61
1284.54	2137.61
1285.11	2078.61
1285.68	2000.61
1286.25	2020.61
1286.82	2040.11
1287.39	2031.61
1287.96	2130.61
1288.53	2156.61
1289.1	2134.61
1289.67	2181.61
1290.24	2105.11
1290.81	2100.61
1291.38	2131.11
1291.95	2186.61
1292.52	2187.61
1293.09	2122.61
1293.65	2130.11
1294.22	2152.11
1294.79	2126.61
1295.36	2136.61
1295.93	2186.11
1296.5	2191.11
1297.07	2236.11
1297.64	2160.61
1298.21	2214.11
1298.78	2139.61
1299.34	1995.61
1299.91	2122.11
1300.48	2119.61
1301.05	2067.11
1301.62	2121.61
1302.19	2096.61
1302.75	2142.11
1303.32	2125.61
1303.89	2080.11
1304.46	1955.61
1305.03	2148.11
1305.59	2151.11
1306.16	2116.11
1306.73	2091.61
1307.3	2163.61
1307.87	2164.11
1308.43	2161.61
1309	2130.11
1309.57	2070.61
1310.14	2132.11
1310.7	2161.61
1311.27	2126.61
1311.84	2163.61
1312.4	2140.61
1312.97	2128.61
1313.54	2143.61
1314.11	2169.61
1314.67	2131.61
1315.24	2132.61
1315.81	2147.61
1316.38	2212.11
1316.94	2143.61
1317.51	2147.61
1318.08	2078.61
1318.64	2120.61
1319.21	2069.61
1319.77	2163.61
1320.34	2188.61
1320.91	2149.61
1321.48	2181.61
1322.04	2102.61
1322.61	2161.11
1323.18	2108.11
1323.74	2123.61
1324.31	2154.61
1324.87	2178.61
1325.44	2218.11
1326	2110.61
1326.57	2121.61
1327.14	2189.61
1327.7	2138.11
1328.27	2142.61
1328.83	2199.61
1329.4	2097.61
1329.97	2179.11
1330.53	2120.61
1331.1	2190.61
1331.66	2161.61
1332.23	2205.11
1332.79	2175.11
1333.36	2132.61
1333.92	2092.61
1334.49	2141.61
1335.05	2235.11
1335.62	2124.61
1336.18	2142.11
1336.75	2139.61
1337.31	2166.61
1337.88	2191.11
1338.44	2136.11
1339.01	2210.11
1339.57	2136.61
1340.14	2212.61
1340.7	2161.61
1341.27	2177.11
1341.83	2166.61
1342.39	2163.11
1342.96	2115.11
1343.52	2155.61
1344.09	2098.11
1344.65	2044.61
1345.22	2181.11
1345.78	2179.61
1346.35	2137.61
1346.91	2051.61
1347.47	2090.61
1348.04	2165.61
1348.6	2224.11
1349.16	2216.11
1349.73	2180.11
1350.29	2197.11
1350.86	2242.11
1351.42	2176.61
1351.98	2167.11
1352.55	2129.61
1353.11	2177.61
1353.67	2227.61
1354.23	2184.11
1354.8	2175.11
1355.36	2217.61
1355.92	2221.11
1356.49	2168.11
1357.05	2230.61
1357.61	2171.11
1358.18	2198.11
1358.74	2229.61
1359.3	2151.61
1359.87	2199.61
1360.43	2189.61
1360.99	2184.61
1361.55	2224.11
1362.11	2178.61
1362.68	2029.61
1363.24	2206.61
1363.8	2255.11
1364.36	2174.61
1364.93	2213.61
1365.49	2184.61
1366.05	2190.61
1366.61	2225.61
1367.17	2222.61
1367.74	2217.61
1368.3	2211.61
1368.86	2171.61
1369.42	2150.61
1369.98	2231.61
1370.55	2182.61
1371.11	2214.11
1371.67	2223.61
1372.23	2179.11
1372.79	2217.11
1373.35	2267.61
1373.91	2232.11
1374.48	2206.61
1375.04	2196.61
1375.6	2175.11
1376.16	2204.61
1376.72	2260.11
1377.28	2159.61
1377.84	2269.61
1378.4	2203.61
1378.96	2194.61
1379.53	2165.11
1380.09	2229.61
1380.65	2190.61
1381.21	2199.61
1381.77	2200.61
1382.33	2185.11
1382.89	2234.11
1383.45	2245.61
1384.01	2210.61
1384.57	2277.61
1385.13	2185.61
1385.69	2244.11
1386.25	2225.11
1386.81	2177.61
1387.37	2223.11
1387.93	2218.11
1388.49	2215.61
1389.05	2178.11
1389.61	2254.61
1390.17	2242.61
1390.73	2254.11
1391.29	2246.11
1391.85	2218.61
1392.41	2210.11
1392.97	2225.11
1393.53	2172.11
1394.09	2195.11
1394.65	2233.11
1395.21	2220.11
1395.77	2219.11
1396.33	2211.61
1396.88	2236.61
1397.44	2243.61
1398	2141.11
1398.56	2210.61
1399.12	2159.11
1399.68	2184.61
1400.24	2206.11
1400.8	2255.61
1401.36	2218.11
1401.91	2238.61
1402.47	2257.11
1403.03	2237.61
1403.59	2222.11
1404.15	2222.61
1404.71	2268.61
1405.26	2246.11
1405.82	2184.61
1406.38	2250.61
1406.94	2236.11
1407.5	2252.11
1408.06	2235.61
1408.61	2245.61
1409.17	2256.11
1409.73	2267.11
1410.29	2258.11
1410.85	2266.61
1411.4	2208.61
1411.96	2294.61
1412.52	2225.61
1413.08	2256.11
1413.63	2319.61
1414.19	2172.61
1414.75	2287.61
1415.31	2293.61
1415.86	2249.11
1416.42	2248.61
1416.98	2248.11
1417.53	2282.61
1418.09	2198.61
1418.65	2201.61
1419.21	2289.61
1419.76	2293.11
1420.32	2278.11
1420.88	2241.61
1421.43	2249.11
1421.99	2226.11
1422.55	2247.61
1423.1	2269.11
1423.66	2320.61
1424.22	2272.11
1424.77	2286.61
1425.33	2282.61
1425.89	2293.11
1426.44	2283.11
1427	2233.61
1427.55	2286.61
1428.11	2311.11
1428.67	2268.61
1429.22	2305.61
1429.78	2311.11
1430.33	2212.11
1430.89	2230.61
1431.44	2295.11
1432	2308.11
1432.56	2240.61
1433.11	2282.61
1433.67	2296.11
1434.22	2350.11
1434.78	2206.61
1435.34	2314.61
1435.89	2317.61
1436.44	2334.11
1437	2348.61
1437.56	2308.61
1438.11	2324.61
1438.67	2247.61
1439.22	2288.11
1439.78	2310.11
1440.33	2314.61
1440.89	2304.61
1441.44	2341.61
1441.99	2276.11
1442.55	2337.61
1443.11	2293.61
1443.66	2321.61
1444.21	2179.61
1444.77	2288.61
1445.32	2331.61
1445.88	2303.61
1446.43	2352.61
1446.98	2341.61
1447.54	2307.11
1448.09	2303.11
1448.65	2304.11
1449.2	2320.61
1449.76	2334.11
1450.31	2289.61
1450.86	2359.61
1451.42	2312.11
1451.97	2316.61
1452.52	2347.11
1453.08	2356.11
1453.63	2266.61
1454.19	2328.61
1454.74	2275.11
1455.29	2295.61
1455.85	2308.11
1456.4	2368.11
1456.95	2329.61
1457.51	2330.61
1458.06	2373.11
1458.61	2328.61
1459.17	2348.11
1459.72	2323.61
1460.27	2357.61
1460.82	2331.11
1461.38	2266.61
1461.93	2371.11
1462.48	2344.11
1463.04	2319.11
1463.59	2369.61
1464.14	2341.61
1464.69	2343.61
1465.25	2376.11
1465.8	2318.11
1466.35	2312.61
1466.9	2347.61
1467.46	2332.11
1468.01	2322.61
1468.56	2304.61
1469.11	2345.61
1469.66	2307.11
1470.22	2391.11
1470.77	2326.11
1471.32	2308.61
1471.87	2335.61
1472.42	2334.11
1472.98	2286.61
1473.53	2379.61
1474.08	2320.11
1474.63	2344.11
1475.18	2320.61
1475.73	2378.61
1476.28	2339.11
1476.84	2334.61
1477.39	2317.61
1477.94	2366.11
1478.49	2364.61
1479.04	2355.11
1479.59	2381.61
1480.14	2344.11
1480.7	2450.11
1481.25	2155.61
1481.8	2350.61
1482.35	2349.11
1482.9	2233.61
1483.45	2404.11
1484	2338.61
1484.55	2349.61
1485.1	2299.61
1485.65	2404.11
1486.2	2316.61
1486.75	2404.11
1487.3	2259.61
1487.85	2392.11
1488.4	2345.61
1488.95	2387.11
1489.5	2378.61
1490.05	2362.61
1490.6	2406.61
1491.15	2374.11
1491.7	2365.11
1492.25	2354.11
1492.8	2437.11
1493.35	2378.11
1493.9	2385.11
1494.45	2332.61
1495	2393.61
1495.55	2388.11
1496.1	2335.61
1496.65	2400.11
1497.2	2331.11
1497.75	2335.11
1498.3	2438.61
1498.85	2406.61
1499.4	2384.61
1499.95	2367.61
