19.3994	7523.06
20.0758	7841.56
20.7522	8048.56
21.4285	8188.06
22.1048	8639.56
22.7811	8702.56
23.4573	9164.56
24.1334	9304.56
24.8095	9693.56
25.4855	9842.56
26.1615	10182.6
26.8375	10379.1
27.5134	10594.6
28.1893	10836.1
28.8651	10965.1
29.5408	11008.6
30.2166	11463.6
30.8922	11680.1
31.5679	11861.1
32.2434	12130.1
32.919	12378.1
33.5945	12791.6
34.2699	12975.6
34.9453	13087.6
35.6206	13532.6
36.2959	13677.1
36.9712	13637.6
37.6464	13535.6
38.3192	13957.1
38.9943	14094.6
39.6694	14309.6
40.3444	14623.6
41.0194	14854.6
41.6943	14676.1
42.3692	14698.1
43.0417	14899.1
43.7165	15125.1
44.3912	15204.6
45.0659	15358.1
45.7405	15497.1
46.4128	15706.6
47.0874	15587.1
47.7619	15733.1
48.4363	16034.6
49.1084	15856.6
49.7828	16098.6
50.4571	16211.1
51.1314	15958.6
51.8033	16073.6
52.4775	16199.6
53.1516	15764.6
53.8234	16116.1
54.4974	16148.1
55.1714	16151.6
55.843	16264.1
56.5169	16452.6
57.1908	16455.6
57.8623	16865.6
58.536	16541.6
59.2074	16566.6
59.8811	16609.6
60.5547	16356.6
61.2259	16591.6
61.8995	16710.1
62.5706	16987.6
63.2441	16797.6
63.9174	16859.6
64.5885	16841.1
65.2618	16729.6
65.9327	16477.6
66.6059	16419.6
67.2767	16403.1
67.9498	16671.1
68.6206	16355.6
69.2936	16375.6
69.9643	16165.6
70.6372	16221.1
71.3077	16370.6
71.9783	16174.1
72.651	16636.6
73.3215	16555.8
73.9941	16663.5
74.6645	16638.3
75.3371	16612.5
76.0073	16447.4
76.6775	16421.3
77.3499	16305.9
78.02	16661.6
78.6901	16665.1
79.3624	16388.6
80.0324	16368.6
80.7023	16059.6
81.3745	16249.6
82.0443	16285.6
82.7141	16097.1
83.3861	16095.1
84.0558	15881.1
84.7254	16051.6
85.3973	15681.6
86.0668	15830.6
86.7364	16100.6
87.4058	16059.6
88.0775	15821.6
88.7469	15857.1
89.4162	15835.6
90.0855	15976.1
90.7547	16174.6
91.4261	15875.6
92.0953	15746.6
92.7644	15796.6
93.4334	15936.1
94.1024	15686.1
94.7713	15602.1
95.4425	15631.6
96.1114	15695.6
96.7802	15696.1
97.449	15703.1
98.1177	15437.6
98.7863	15351.6
99.455	15077.6
100.124	15369.6
100.792	15289.1
101.461	15206.6
102.131	15329.6
102.8	14983.6
103.468	15113.6
104.136	15106.6
104.805	15199.6
105.473	15273.6
106.141	15072.6
106.809	14967.6
107.477	14755.6
108.145	14938.6
108.813	14798.6
109.481	14907.6
110.147	14790.6
110.814	14910.6
111.482	14749.1
112.15	15186.1
112.818	14723.8
113.485	14670.6
114.153	14628.8
114.821	14489.2
115.488	14915.6
116.156	14881.6
116.821	14698.6
117.488	14337.1
118.155	14085.6
118.823	14219.6
119.49	13867.6
120.157	13838.1
120.822	13623.6
121.489	13956.6
122.156	13662.6
122.823	13653.6
123.49	13921.1
124.155	13663.6
124.822	14238.1
125.488	13973.6
126.155	13399.6
126.82	13904.6
127.486	13691.6
128.153	13687.1
128.817	13905.1
129.484	13652.6
130.15	13683.6
130.817	13291.1
131.481	13534.1
132.147	13696.1
132.811	13430.1
133.478	13528.6
134.144	13478.6
134.808	13128.6
135.474	13306.1
136.14	12881.6
136.804	13111.1
137.47	13048.6
138.133	13253.1
138.799	12959.6
139.463	12948.6
140.129	13095.1
140.795	12829.6
141.458	12792.1
142.124	12787.6
142.787	12911.6
143.453	12741.6
144.116	12825.6
144.781	12450.6
145.445	12625.1
146.11	12620.6
146.773	12713.6
147.436	12750.1
148.101	12347.6
148.764	12450.6
149.429	12353.6
150.092	12093.6
150.757	12309.6
151.42	12477.6
152.083	12416.6
152.748	12327.6
153.41	11893.6
154.075	12231.6
154.738	12028.6
155.4	12166.6
156.065	11771.6
156.727	12034.6
157.39	11883.6
158.054	11974.1
158.717	12120.1
159.379	12131.6
160.041	11980.6
160.705	11888.1
161.367	12047.6
162.03	11895.6
162.692	11793.6
163.356	11668.6
164.018	11793.6
164.679	11724.1
165.341	11712.1
166.005	11680.1
166.667	11385.6
167.329	11459.1
167.99	11507.6
168.652	11709.6
169.313	11625.6
169.977	11699.1
170.639	11728.6
171.3	11960.1
171.961	11518.6
172.623	11588.6
173.284	11706.6
173.945	11438.6
174.606	11684.1
175.267	11631.6
175.931	11740.1
176.592	11578.6
177.253	11724.6
177.914	11409.6
178.575	11448.6
179.236	11520.6
179.896	11665.6
180.557	11544.1
181.218	11590.6
181.879	11539.1
182.539	11589.1
183.2	11315.6
183.86	11416.6
184.521	11465.6
185.181	11453.6
185.839	11503.1
186.5	11272.6
187.16	11363.1
187.82	11397.1
188.48	11387.1
189.141	11529.1
189.801	11458.6
190.461	11382.6
191.121	11479.6
191.779	11407.6
192.439	11455.6
193.098	11620.6
193.758	11587.6
194.418	11584.6
195.078	11569.1
195.735	11616.6
196.395	11684.6
197.055	11613.1
197.714	11666.6
198.374	11674.6
199.031	11670.1
199.691	11724.1
200.35	11572.6
201.009	11510.6
201.666	11410.1
202.326	11505.1
202.985	11548.6
203.642	11570.6
204.301	11655.6
204.96	11479.6
205.617	11501.6
206.276	11649.9
206.935	11509.6
207.591	11563.6
208.25	11840.6
208.909	11758.1
209.566	11699.6
210.224	11564.6
210.881	11578.6
211.539	11714.6
212.196	11821.6
212.854	11898.6
213.513	11953.6
214.169	11810.1
214.827	11828.6
215.483	11552.6
216.142	11726.6
216.798	11788.6
217.456	11813.1
218.112	11784.6
218.77	11849.6
219.426	11651.6
220.084	11766.6
220.74	11827.1
221.398	11889.6
222.053	11963.1
222.709	11958.6
223.367	11960.1
224.022	12202.6
224.68	12020.6
225.336	11941.6
225.991	11905.6
226.649	12052.6
227.304	11863.6
227.961	11872.6
228.617	11747.6
229.272	11893.6
229.929	11966.6
230.584	11965.1
231.239	11919.1
231.897	12084.6
232.551	12258.6
233.206	12271.1
233.861	12064.1
234.518	12211.6
235.173	12448.6
235.828	12615.6
236.482	12556.6
237.139	12327.6
237.794	12449.6
238.449	12504.6
239.103	12776.6
239.757	12331.6
240.414	12659.6
241.069	12619.6
241.723	12513.6
242.377	12677.6
243.031	12459.6
243.686	12630.6
244.342	12867.6
244.996	12900.1
245.65	12857.6
246.304	12823.1
246.958	12822.6
247.612	12760.1
248.266	12950.6
248.92	13030.6
249.573	13158.6
250.227	13234.1
250.881	13265.1
251.535	13078.6
252.188	13135.6
252.842	13214.6
253.495	13122.6
254.149	13207.6
254.802	13123.6
255.456	13384.6
256.109	13392.1
256.762	13241.1
257.415	13411.6
258.069	13624.1
258.722	13454.6
259.375	13592.6
260.028	13631.6
260.681	13673.1
261.334	13299.6
261.987	13728.6
262.64	13705.6
263.29	13786.1
263.943	13775.6
264.596	13147.6
265.249	13562.6
265.901	13546.6
266.554	13795.1
267.204	13285.6
267.857	13808.6
268.509	14025.6
269.162	13998.1
269.814	13955.6
270.464	13842.6
271.117	13942.1
271.769	13983.6
272.421	13954.6
273.071	13995.6
273.723	14357.6
274.375	14399.1
275.025	14083.6
275.677	14253.6
276.329	14168.6
276.979	14378.6
277.631	14439.6
278.283	14736.6
278.932	14565.6
279.584	14716.6
280.236	14616.6
280.885	14712.6
281.537	14635.1
282.188	14646.1
282.838	15066.6
283.489	14930.6
284.138	14905.6
284.79	14837.6
285.439	14712.6
286.09	14774.1
286.739	14958.1
287.39	15153.6
288.041	14838.1
288.69	15144.6
289.341	15201.6
289.99	14586.6
290.639	15185.1
291.29	15235.6
291.939	15098.6
292.589	15368.6
293.238	15218.6
293.889	15331.6
294.537	15210
295.188	15259.8
295.836	15291.3
296.485	15325.2
297.135	15091.6
297.784	15076.6
298.434	15360.6
299.082	15513.1
299.73	15302.6
300.381	15617.6
301.029	15766.6
301.677	15903.6
302.327	15811.6
302.975	15882.6
303.623	15649.1
304.271	15944.1
304.921	15752.6
305.568	15902.1
306.216	15908.6
306.866	16160.6
307.513	16173.6
308.161	16070.6
308.809	15914.1
309.456	16049.6
310.106	15903.6
310.753	16077.6
311.4	16195.6
312.048	16229.6
312.695	16279.6
313.344	16179.6
313.992	16331.6
314.639	16195.6
315.286	16458.6
315.933	16528.6
316.58	16241.6
317.227	16315.6
317.874	16598.1
318.521	16421.1
319.17	16563.6
319.816	16797.1
320.463	16857.1
321.11	16780.6
321.757	16553.6
322.403	16572.6
323.05	16758.6
323.696	16597.6
324.343	16870.1
324.989	16849.1
325.636	17088.1
326.282	17090.6
326.928	16903.6
327.574	16780.6
328.221	16885.6
328.867	17133.6
329.511	17239.6
330.157	17227.1
330.803	17219.6
331.449	17025.6
332.095	17103.6
332.741	17136.6
333.387	17075.6
334.032	17315.6
334.678	17082.6
335.322	17564.6
335.967	17776.6
336.613	17169.6
337.259	17445.6
337.904	17387.6
338.547	17655.6
339.193	17664.6
339.838	18003.1
340.484	17843.6
341.129	17627.6
341.772	17695.6
342.417	17879.6
343.062	17989.1
343.705	17802.6
344.351	18190.6
344.996	18017.6
345.641	18006.6
346.283	18142.1
346.928	17983.1
347.573	18244.6
348.216	18411.1
348.861	18286.1
349.505	18204.6
350.148	18447.1
350.793	18039.6
351.435	18395.1
352.08	18441.6
352.724	18590.1
353.367	18701.1
354.011	18641.6
354.653	18498.6
355.298	18578.6
355.94	18657.6
356.584	18782.1
357.226	18915.1
357.87	18803.6
358.512	19001.6
359.156	19020.1
359.798	18872.6
360.442	18950.6
361.084	19187.1
361.728	19047.6
362.37	19161.6
363.013	19308.1
363.655	19407.6
364.299	19195.6
364.94	19151.6
365.582	19298.1
366.225	19306.6
366.867	19648.6
367.51	19512.6
368.152	19479.1
368.793	19603.6
369.436	19534.1
370.078	19520.6
370.719	19492.6
371.362	19743.6
372.003	20000.1
372.644	20098.6
373.287	19620.6
373.928	19947.6
374.569	19915.6
375.21	19851.6
375.853	20151.1
376.493	20080.6
377.134	20157.6
377.775	20348.6
378.418	19989.6
379.058	20175.1
379.699	20178.6
380.339	20194.6
380.98	20535.6
381.62	20253.1
382.263	20569.6
382.903	19936.6
383.543	20444.6
384.183	20645.1
384.823	20334.6
385.464	20700.6
386.104	21004.6
386.744	20990.1
387.386	20986.1
388.026	20864.1
388.666	20842.1
389.306	21074.1
389.945	21036.6
390.585	21130.6
391.225	21306.1
391.865	21111.6
392.504	21306.6
393.144	21003.6
393.784	21299.1
394.423	21406.6
395.063	21489.1
395.702	21513.1
396.341	21366.6
396.981	21100.6
397.62	21237.6
398.259	21464.6
398.896	21590.6
399.536	21856.1
400.175	21700.6
400.814	21765.1
401.453	21686.1
402.092	21846.6
402.731	21742.1
403.37	21957.6
404.006	21724.6
404.645	22270.1
405.284	22238.6
405.923	22062.6
406.562	22130.6
407.2	21916.1
407.837	21976.6
408.475	22285.6
409.114	22525.6
409.752	22586.1
410.388	22322.6
411.027	22349.1
411.665	22238.6
412.301	22611.6
412.94	22461.6
413.578	22718.6
414.216	22986.6
414.852	22976.1
415.49	22926.6
416.128	22675.1
416.764	22876.6
417.402	23059.6
418.04	23090.1
418.676	23006.1
419.314	23358.6
419.949	23281.6
420.587	23219.6
421.225	23077.1
421.86	23241.6
422.498	23283.6
423.133	23305.1
423.771	23268.6
424.406	23349.6
425.043	23197.1
425.679	22994.6
426.316	23269.6
426.951	23702.1
427.589	23892.6
428.224	24003.6
428.861	23927.6
429.496	23544.6
430.133	23859.6
430.768	23976.6
431.405	24172.6
432.04	24414.6
432.674	24431.1
433.311	24527.6
433.946	24489.6
434.583	24780.6
435.217	24214.6
435.852	24621.6
436.489	24817.6
437.123	24947.1
437.758	24824.6
438.394	24856.6
439.028	24789.6
439.663	24823.1
440.299	25003.6
440.933	24809.1
441.568	25021.1
442.202	25167.6
442.838	25326.6
443.472	25379.1
444.106	25248.1
444.74	25099.6
445.376	25088.6
446.01	25383.1
446.644	25408.6
447.277	25538.6
447.911	25640.6
448.547	25357.6
449.181	25204.1
449.814	25260.6
450.448	25451.6
451.081	25544.1
451.715	25659.6
452.348	25705.6
452.984	25448.6
453.617	25414.1
454.251	25439.1
454.884	25471.6
455.517	25777.1
456.15	25756.6
456.784	25735.6
457.417	25904.1
458.05	25320.6
458.683	25130.6
459.316	25584.1
459.949	25819.6
460.582	25635.6
461.214	25760.1
461.847	25473.6
462.48	25351.6
463.113	25340.7
463.745	25041.1
464.378	25168.1
465.011	25544.6
465.643	25503.6
466.276	25282.1
466.906	25153.6
467.538	25076.6
468.171	25233.1
468.803	25022.1
469.435	24944.1
470.068	25144.6
470.7	25284.6
471.33	25052.1
471.962	24950.1
472.594	24645.6
473.226	24727.6
473.858	24902.1
474.488	25101.6
475.12	24933.1
475.752	24955.6
476.384	24913.6
477.013	24780.6
477.645	24754.6
478.277	24875.1
478.908	24907.6
479.538	25041.1
480.169	25113.1
480.801	25123.1
481.43	24816.1
482.062	24633.1
482.693	24249.6
483.322	24876.6
483.954	25136.6
484.585	24915.1
485.214	24908.6
485.845	24938.6
486.474	24611.6
487.105	24263.6
487.736	24368.1
488.365	24252.6
488.996	24327.6
489.625	24012.6
490.256	23799.6
490.885	23692.1
491.515	23425.6
492.144	23097.6
492.775	23419.6
493.403	23357.1
494.034	22952.6
494.662	22920.1
495.293	22419.6
495.921	22112.6
496.552	22011.6
497.18	21913.1
497.81	21739.6
498.439	21606.6
499.067	21304.6
499.697	20812.6
500.325	20704.6
500.955	20192.1
501.583	19771.6
502.211	19703.6
502.841	19347.6
503.469	19029.6
504.097	18568.6
504.727	18279.1
505.355	18351.1
505.982	17866.1
506.61	17767.6
507.24	17555.6
507.867	17492.6
508.495	16921.1
509.124	16889.6
509.752	16377.1
510.379	16310.6
511.007	15783.6
511.634	15789.1
512.263	15438.6
512.891	15336.6
513.518	14785.6
514.145	14556.6
514.772	14161.6
515.399	13979.6
516.028	13682.1
516.655	13373.6
517.282	13546.6
517.909	13142.6
518.536	13036.1
519.163	12563.6
519.789	12520.6
520.416	12440.6
521.043	12108.6
521.669	12035.1
522.298	11795.6
522.925	11859.1
523.551	11501.6
524.178	11193.6
524.804	11001.1
525.431	11108.1
526.057	10789.1
526.683	10730.6
527.31	10658.6
527.934	10335.6
528.56	10213.6
529.186	10065.6
529.812	10108.6
530.438	10061.6
531.064	10162.6
531.69	9773.56
532.316	9710.06
532.942	9687.56
533.568	9475.56
534.194	9424.56
534.817	9231.56
535.443	9300.56
536.069	9141.56
536.694	9111.56
537.32	8935.06
537.943	8879.56
538.569	8574.56
539.194	8667.06
539.82	8879.56
540.445	8816.56
541.068	8445.06
541.694	8516.56
542.319	8347.06
542.944	8412.56
543.567	8442.06
544.192	8248.56
544.817	8336.56
545.44	8188.14
546.065	8044.69
546.69	8113.48
547.313	7953.15
547.938	7931.76
548.563	7806.52
549.185	7687.03
549.81	7973.53
550.433	7953.84
551.057	7667.85
551.682	7743.37
552.305	7745.82
552.929	7618.14
553.551	7707.59
554.176	7711.77
554.798	7655.42
555.423	7743.39
556.047	7643.73
556.669	7604.39
557.293	7444.14
557.915	7556.7
558.537	7615.54
559.162	7556.63
559.784	7429.04
560.408	7374.75
561.03	7552.67
561.654	7539.64
562.275	7545.72
562.899	7529.72
563.521	7351.49
564.143	7538.91
564.766	7621.85
565.388	7492.91
566.009	7442.74
566.633	7460.96
567.255	7444.66
567.878	7540.73
568.5	7500.1
569.121	7567.91
569.742	7589.06
570.366	7470.65
570.987	7465.25
571.608	7406.37
572.231	7465.82
572.852	7545.8
573.473	7564.9
574.094	7431.8
574.717	7509.97
575.338	7458.87
575.959	7336.43
576.58	7380.06
577.201	7506.64
577.822	7411.66
578.445	7349.25
579.065	7367.17
579.686	7302.7
580.306	7249.12
580.927	7172.24
581.548	7170.16
582.168	7202.36
582.791	7308.34
583.411	7142.67
584.031	7233.79
584.652	7204.29
585.272	7208.13
585.892	7212.57
586.512	7095.27
587.132	7289.54
587.753	7165.08
588.373	7075.7
588.993	7183.71
589.613	7137.25
590.233	7023.59
590.852	7048.67
591.472	7125.56
592.092	7035.46
592.712	7067.58
593.332	7056.97
593.951	6932.95
594.569	7037.82
595.188	6941.02
595.808	6668.81
596.427	6954.36
597.047	6894.33
597.666	6769.21
598.286	6713.87
598.905	6723.36
599.522	6399.32
600.142	6520.51
600.761	6547.59
601.38	6351.34
601.999	6533.76
602.616	6386.97
603.235	6298.8
603.854	6168.15
604.473	6156.52
605.09	6144.65
605.709	6011.97
606.328	6090
606.947	6041.32
607.563	5919.38
608.182	5829.99
608.801	5837.19
609.417	5724.25
610.036	5742.9
610.655	5523.17
611.271	5481.89
611.89	5568.61
612.508	5450.46
613.124	5398.78
613.743	5294.41
614.359	5233.58
614.977	5226.29
615.595	5117.05
616.212	5020.18
616.83	5056.33
617.446	5039.3
618.064	4899.89
618.68	4898.16
619.298	4802.21
619.914	4810.37
620.532	4778.7
621.147	4779.77
621.765	4595.32
622.381	4602.93
622.999	4570.5
623.614	4478.32
624.23	4449.65
624.847	4438.57
625.463	4447.38
626.08	4313.46
626.696	4280.91
627.311	4265.58
627.929	4185.06
628.544	4147.65
629.161	4098.39
629.776	4007.43
630.392	4028.9
631.009	4025.59
631.624	4032.48
632.239	3913.03
632.854	3948.64
633.471	3941.58
634.086	3917.24
634.701	3898.99
635.318	3894.8
635.932	3845.02
636.547	3779.86
637.162	3713.96
637.777	3676.59
638.393	3746.67
639.008	3653.5
639.622	3694.51
640.237	3439.67
640.851	3550.28
641.468	3534.88
642.082	3446.13
642.697	3393.86
643.311	3390.91
643.925	3486.7
644.539	3461.13
645.154	3455.78
645.768	3384.41
646.382	3400.38
646.996	3336.53
647.612	3327.21
648.226	3344.78
648.84	3329.33
649.454	3316.81
650.068	3266.49
650.682	3176.59
651.295	3246.66
651.909	3231.28
652.523	3228.48
653.136	3228.19
653.75	3275.07
654.361	3191.14
654.975	3159.84
655.589	3209.81
656.202	3128.6
656.815	3154.37
657.429	3139.31
658.042	3216.25
658.655	3158.16
659.269	3081.37
659.882	3103.88
660.493	3123.14
661.106	2973.21
661.719	3033.93
662.332	3125.38
662.945	3007.54
663.556	2943.81
664.169	2981.02
664.782	3006.17
665.395	3002.29
666.007	2974.92
666.618	2988.19
667.231	2965.45
667.843	2995.14
668.454	2989.38
669.067	2967.46
669.679	2979.75
670.292	2838.3
670.902	2914.59
671.514	2859.36
672.125	2978.44
672.423	2855.44
673.044	3013.94
673.665	2888.94
674.286	2879.44
674.907	2913.44
675.528	2882.44
676.148	2863.44
676.769	2831.44
677.388	2886.44
678.008	2793.44
678.629	2916.44
679.249	2876.44
679.87	2846.94
680.49	2776.94
681.111	2824.44
681.731	2796.44
682.349	2890.44
682.97	2778.44
683.59	2819.44
684.21	2802.94
684.83	2782.44
685.448	2751.44
686.068	2744.94
686.688	2848.44
687.308	2819.44
687.926	2804.94
688.546	2757.44
689.166	2856.44
689.786	2853.44
690.404	2843.44
691.023	2865.94
691.643	2829.44
692.26	2827.44
692.88	2874.44
693.5	2761.94
694.117	2711.44
694.737	2774.44
695.356	2789.94
695.973	2842.44
696.593	2751.44
697.21	2815.44
697.829	2777.94
698.449	2826.94
699.066	2808.44
699.685	2810.94
700.302	2865.44
700.921	2804.44
701.538	2768.44
702.157	2839.94
702.774	2790.94
703.393	2813.44
704.009	2759.44
704.628	2779.44
705.245	2809.94
705.864	2775.44
706.48	2720.44
707.099	2813.94
707.716	2570.44
708.334	2642.44
708.951	2797.44
709.569	2822.44
710.185	2743.44
710.802	2809.44
711.42	2773.94
712.036	2765.44
712.653	2804.44
713.271	2808.94
713.887	2860.44
714.505	2906.94
715.121	2852.94
715.737	2859.44
716.355	2803.94
716.971	2810.44
717.587	2794.44
718.203	2825.94
718.821	2801.44
719.437	2822.44
720.052	2793.44
720.67	2832.94
721.286	2756.94
721.901	2866.44
722.517	2863.94
723.132	2793.44
723.75	2750.94
724.365	2843.44
724.981	2864.44
725.596	2723.44
726.211	2886.94
726.829	2892.94
727.444	2850.44
728.059	2928.44
728.674	2919.44
729.289	2847.94
729.904	2935.44
730.519	2887.94
731.134	2929.44
731.751	2852.94
732.366	2881.94
732.981	2940.94
733.596	2928.94
734.211	2913.94
734.826	2878.94
735.44	2851.44
736.055	2819.94
736.669	2888.44
737.284	2880.44
737.899	2928.94
738.513	2851.44
739.128	2918.44
739.742	2904.94
740.356	2861.94
740.971	2855.44
741.585	2813.44
742.199	2885.44
742.813	2829.44
743.427	2901.44
744.039	2902.44
744.654	2940.44
745.268	2877.94
745.882	2870.44
746.496	2935.44
747.109	2933.94
747.723	2961.44
748.337	3000.94
748.949	3000.44
749.563	2933.44
750.176	2944.94
750.79	3032.44
751.404	2976.94
752.015	3069.94
752.629	3071.44
753.242	3024.44
753.856	2949.44
754.467	3010.44
755.08	3053.44
755.694	3008.94
756.307	3067.44
756.918	3104.44
757.531	3100.94
758.145	3142.44
758.756	3112.44
759.369	3098.44
759.982	3107.44
760.593	3120.44
761.206	3214.94
761.819	3181.44
762.43	3181.44
763.042	3195.44
763.655	3192.44
764.266	3237.94
764.879	3199.44
765.489	3235.44
766.102	3359.94
766.713	3340.44
767.325	3225.44
767.938	3297.44
768.548	3310.44
769.161	3395.94
769.771	3383.94
770.383	3376.44
770.993	3418.44
771.606	3365.44
772.216	3388.44
772.828	3392.44
773.438	3464.44
774.048	3450.94
774.66	3588.94
775.27	3497.44
775.882	3554.94
776.492	3579.44
777.104	3550.44
777.714	3536.94
778.324	3513.44
778.936	3557.94
779.545	3572.44
780.155	3697.44
780.767	3639.94
781.376	3707.44
781.986	3663.44
782.597	3650.44
783.207	3652.94
783.816	3681.44
784.427	3656.44
785.037	3702.94
785.646	3708.44
786.257	3708.44
786.867	3725.94
787.476	3697.44
788.085	3676.44
788.694	3762.44
789.305	3764.94
789.914	3722.44
790.523	3814.94
791.132	3845.44
791.741	3790.44
792.352	3874.94
792.961	3751.94
793.569	3878.94
794.178	3930.94
794.787	3801.44
795.395	3787.44
796.004	3736.94
796.615	3781.44
797.223	3757.94
797.832	3790.94
798.44	3769.44
799.048	3835.44
799.657	3759.94
800.265	3802.44
800.873	3767.94
801.482	3807.94
802.09	3719.44
802.698	3751.94
803.306	3800.94
803.914	3713.44
804.522	3690.94
805.13	3571.44
805.738	3515.44
806.346	3528.44
806.954	3559.44
807.562	3629.94
808.17	3600.94
808.777	3647.44
809.385	3620.94
809.993	3635.44
810.598	3591.44
811.206	3617.44
811.813	3610.44
812.421	3574.44
813.028	3668.94
813.636	3524.44
814.243	3420.44
814.849	3538.44
815.456	3428.44
816.063	3461.44
816.67	3476.94
817.278	3489.94
817.883	3446.44
818.49	3376.44
819.097	3296.44
819.704	3325.94
820.309	3288.44
820.916	3339.44
821.523	3261.94
822.13	3118.44
822.734	3268.94
823.341	3239.94
823.948	3080.44
824.553	3222.44
825.159	3114.44
825.766	3113.44
826.37	2986.44
826.977	3057.44
827.583	3040.94
828.188	3003.94
828.794	2982.94
829.399	2884.44
830.005	2813.44
830.609	2845.44
831.216	2761.44
831.822	2825.44
832.426	2814.44
833.032	2755.44
833.636	2688.94
834.242	2493.94
834.846	2471.44
835.452	2627.44
836.056	2577.44
836.662	2563.94
837.266	2448.44
837.872	2502.44
838.475	2431.94
839.081	2387.44
839.685	2327.94
840.288	2286.94
840.894	2285.94
841.497	2217.44
842.103	2203.94
842.707	2204.94
843.31	2081.44
843.915	2150.44
844.519	2090.94
845.124	2082.44
845.727	2049.44
846.331	2078.44
846.936	2051.44
847.539	1972.44
848.142	2022.94
848.745	1988.94
849.35	1938.94
849.953	1912.94
850.556	1877.44
851.161	1863.94
851.764	1860.44
852.367	1833.94
852.97	1785.44
853.572	1824.94
854.177	1763.44
854.78	1754.44
855.382	1765.44
855.985	1752.44
856.587	1743.44
857.192	1704.94
857.794	1682.94
858.397	1748.44
858.999	1688.94
859.602	1722.44
860.204	1694.94
860.806	1671.94
861.408	1674.44
862.013	1707.44
862.615	1690.94
863.217	1668.44
863.819	1624.94
864.421	1669.94
865.023	1658.94
865.625	1657.44
866.227	1609.44
866.829	1653.94
867.431	1604.44
868.032	1655.44
868.634	1645.44
869.236	1632.44
869.838	1668.44
870.439	1599.94
871.041	1650.94
871.642	1682.94
872.244	1592.94
872.843	1576.44
873.445	1574.44
874.046	1625.44
874.648	1616.94
875.249	1600.94
875.85	1619.94
876.451	1573.44
877.053	1622.44
877.652	1655.94
878.253	1632.44
878.854	1601.94
879.455	1621.94
880.056	1591.94
880.655	1647.94
881.256	1568.44
881.857	1638.44
882.458	1620.44
883.056	1618.94
883.657	1620.44
884.258	1599.44
884.858	1610.44
885.457	1638.44
886.058	1589.44
886.658	1561.44
887.257	1617.44
887.857	1576.44
888.458	1681.44
889.056	1594.44
889.656	1593.44
890.257	1642.44
890.855	1481.44
891.455	1404.44
892.055	1640.44
892.654	1634.94
893.254	1602.44
893.852	1623.94
894.452	1624.44
895.052	1653.44
895.65	1606.44
896.25	1650.44
896.848	1666.44
897.448	1596.44
898.045	1620.94
898.645	1660.44
899.243	1587.44
899.842	1606.94
900.44	1508.44
901.04	1604.44
901.637	1702.44
902.235	1622.94
902.834	1624.44
903.432	1616.44
904.031	1641.94
904.628	1633.44
905.228	1678.94
905.825	1655.44
906.422	1649.94
907.022	1666.44
907.619	1680.44
908.216	1656.44
908.815	1641.94
909.412	1624.44
910.009	1639.44
910.608	1688.94
911.205	1677.94
911.802	1655.44
912.401	1658.44
912.997	1633.44
913.594	1701.94
914.191	1669.44
914.79	1609.44
915.386	1658.44
915.983	1681.44
916.58	1650.94
917.176	1737.94
917.775	1688.44
918.371	1690.94
918.967	1623.44
919.564	1654.44
920.16	1693.44
920.756	1702.44
921.355	1729.44
921.951	1709.44
922.547	1735.44
923.143	1710.94
923.739	1687.44
924.336	1642.44
924.932	1748.44
925.528	1683.44
926.123	1703.44
926.719	1686.94
927.315	1740.44
927.911	1710.44
928.507	1701.44
929.103	1714.44
929.698	1768.44
930.294	1735.94
930.89	1784.94
931.485	1773.44
932.081	1741.44
932.676	1769.44
933.272	1785.94
933.867	1848.44
934.463	1824.94
935.058	1791.94
935.653	1827.44
936.249	1829.44
936.844	1824.44
937.439	1856.44
938.032	1873.44
938.627	1861.44
939.222	1791.44
939.818	1875.94
940.413	1855.44
941.008	1890.44
941.6	1887.94
942.195	1867.44
942.79	1902.94
943.385	1923.94
943.98	1920.94
944.572	1963.94
945.167	2032.94
945.762	2006.44
946.357	1954.44
946.949	2001.94
947.544	1989.94
948.138	1986.94
948.73	2034.94
949.325	2041.44
949.919	2109.44
950.512	2068.94
951.106	2050.44
951.7	2034.44
952.292	2047.44
952.887	2110.44
953.481	2124.44
954.073	2175.44
954.667	2062.44
955.259	2123.44
955.853	2156.94
956.445	2110.94
957.039	2120.44
957.633	2194.44
958.225	2205.44
958.818	2192.44
959.41	2241.44
960.004	2218.44
960.596	2245.94
961.189	2238.44
961.781	2314.44
962.374	2301.44
962.966	2294.94
963.557	2280.94
964.151	2328.44
964.742	2356.94
965.336	2394.94
965.927	2277.44
966.52	2395.94
967.112	2435.44
967.703	2460.94
968.296	2366.44
968.887	2465.94
969.478	2529.44
970.071	2440.44
970.662	2444.94
971.253	2461.44
971.846	2534.94
972.437	2555.44
973.028	2618.44
973.621	2587.94
974.212	2550.94
974.802	2592.44
975.393	2579.94
975.986	2595.94
976.576	2610.44
977.167	2677.44
977.758	2710.94
978.348	2597.44
978.941	2696.44
979.531	2618.44
980.121	2707.44
980.712	2704.94
981.302	2786.44
981.892	2762.94
982.485	2738.44
983.075	2741.44
983.665	2817.94
984.255	2802.44
984.845	2795.44
985.435	2854.44
986.025	2862.94
986.615	2780.44
987.205	2894.94
987.795	2900.44
988.385	2887.44
988.975	2933.44
989.565	2944.44
990.154	2943.44
990.744	2960.94
991.334	2966.94
991.923	2965.44
992.513	2892.44
993.103	2923.94
993.692	2907.44
994.282	3037.44
994.871	3008.44
995.46	3030.94
996.05	3041.44
996.639	3088.94
997.229	3098.44
997.818	3099.44
998.405	3006.94
998.994	3069.44
999.583	3034.94
1000.17	3078.44
1000.76	3026.44
1001.35	3003.44
1001.94	3049.44
1002.53	3053.44
1003.12	3066.44
1003.7	3081.44
1004.29	3078.94
1004.88	3139.44
1005.47	3169.94
1006.06	3054.44
1006.65	3107.44
1007.23	3127.44
1007.82	3035.44
1008.41	3202.94
1009	3198.44
1009.58	3202.44
1010.17	3223.44
1010.76	3225.44
1011.35	3206.94
1011.94	3117.44
1012.52	3207.44
1013.11	3193.44
1013.7	3236.44
1014.29	3267.44
1014.87	3288.94
1015.46	3298.44
1016.05	3270.44
1016.63	3232.44
1017.22	3256.44
1017.81	3278.94
1018.4	3268.44
1018.98	3282.44
1019.57	3324.44
1020.16	3332.94
1020.74	3333.44
1021.33	3272.44
1021.92	3304.44
1022.5	3346.44
1023.09	3226.44
1023.67	3349.44
1024.26	3323.44
1024.85	3328.44
1025.44	3330.44
1026.02	3347.94
1026.61	3288.44
1027.19	3359.94
1027.78	3352.44
1028.37	3320.44
1028.95	3392.44
1029.54	3326.44
1030.12	3372.44
1030.71	3442.44
1031.29	3346.44
1031.88	3378.44
1032.47	3338.44
1033.05	3425.44
1033.64	3487.44
1034.22	3462.44
1034.81	3486.94
1035.39	3489.44
1035.98	3358.94
1036.56	3433.44
1037.15	3422.94
1037.73	3416.44
1038.32	3415.44
1038.9	3442.44
1039.49	3458.44
1040.07	3417.94
1040.66	3416.44
1041.24	3389.44
1041.83	3408.63
1042.41	3458.08
1043	3412.72
1043.58	3447.83
1044.17	3493.93
1044.75	3474.48
1045.33	3390.57
1045.92	3406.33
1046.5	3518.31
1047.09	3428.56
1047.67	3470.47
1048.25	3538.67
1048.84	3469.2
1049.42	3408.11
1050.01	3452.71
1050.59	3529.71
1051.17	3513.02
1051.76	3534.94
1052.34	3588.88
1052.93	3556.74
1053.51	3547.93
1054.09	3433.91
1054.68	3484.86
1055.26	3528.53
1055.84	3559.71
1056.42	3529.64
1057.01	3474.12
1057.59	3556.87
1058.17	3551.29
1058.76	3565.27
1059.34	3492.75
1059.92	3570.62
1060.51	3560.48
1061.09	3584.6
1061.67	3644.95
1062.25	3566.3
1062.84	3628.5
1063.42	3612.05
1064	3604.52
1064.58	3559.8
1065.17	3599.94
1065.75	3555.96
1066.33	3683.18
1066.91	3618.25
1067.49	3662.98
1068.08	3595.74
1068.66	3610.8
1069.24	3529.35
1069.82	3625.46
1070.41	3667.4
1070.99	3710.95
1071.57	3662.98
1072.15	3679.53
1072.73	3601.59
1073.31	3605.64
1073.89	3691.06
1074.48	3633.75
1075.06	3736.16
1075.64	3763.19
1076.22	3670.47
1076.8	3792.16
1077.38	3702.18
1077.96	3748.27
1078.55	3737.25
1079.13	3803.26
1079.71	3700.48
1080.29	3766.5
1080.87	3774.66
1081.45	3789.34
1082.03	3730.26
1082.61	3818.47
1083.19	3791.89
1083.77	3838.26
1084.35	3889.32
1084.93	3876.18
1085.51	3908.53
1086.09	3905.08
1086.67	3905.81
1087.25	3798.55
1087.83	3900.6
1088.41	3856.5
1088.99	3895.21
1089.57	4008.84
1090.15	3998.29
1090.73	4015.5
1091.31	3967.17
1091.89	3919.48
1092.47	3983.53
1093.05	3999.36
1093.63	3978.55
1094.21	4059.59
1094.79	4078.34
1095.37	4092.83
1095.95	4007.63
1096.53	4070.2
1097.11	4111.03
1097.69	4087.97
1098.27	4078.61
1098.85	4127.56
1099.42	4110.96
1100	4219.53
1100.58	4131.97
1101.16	4159.32
1101.74	4238.95
1102.32	4138.76
1102.9	4235.4
1103.48	4250.46
1104.05	4293.97
1104.63	4264.5
1105.21	4221.56
1105.79	4291.82
1106.37	4288.7
1106.95	4300.3
1107.52	4347.02
1108.1	4366.97
1108.68	4291.18
1109.26	4348.06
1109.84	4414.62
1110.41	4429.1
1110.99	4323.75
1111.57	4353.39
1112.15	4433.99
1112.73	4370.79
1113.3	4396.75
1113.88	4386.67
1114.46	4302.86
1115.03	4438.17
1115.61	4357.31
1116.19	4499.64
1116.77	4466.76
1117.34	4445.17
1117.92	4447.04
1118.5	4408.51
1119.08	4459.13
1119.65	4435.79
1120.23	4406.06
1120.81	4410.82
1121.38	4392.81
1121.96	4408.11
1122.54	4450.95
1123.11	4484.51
1123.69	4453.89
1124.27	4485.8
1124.84	4495.1
1125.42	4509.08
1126	4444.77
1126.57	4484.38
1127.15	4433.16
1127.72	4456.52
1128.3	4433.03
1128.88	4377.62
1129.45	4374.25
1130.03	4356.55
1130.6	4406.2
1131.18	4358.37
1131.76	4295.29
1132.33	4392.55
1132.91	4337.4
1133.48	4308.25
1134.06	4307.38
1134.63	4112.51
1135.21	4416.02
1135.78	4361.06
1136.36	4346.23
1136.94	4463.03
1137.51	4405.93
1138.09	4375.23
1138.66	4323.2
1139.24	4320.34
1139.81	4293.36
1140.39	4443.56
1140.96	4324.88
1141.53	4394.79
1142.11	4359.15
1142.68	4312.46
1143.26	4289.61
1143.83	4390.87
1144.41	4255.12
1144.98	4269.71
1145.56	4265.13
1146.13	4201.25
1146.71	4272.36
1147.28	4297.89
1147.85	4155.55
1148.43	4245.78
1149	4157.85
1149.58	4234.75
1150.15	4114.61
1150.73	4177.92
1151.3	4178.06
1151.87	4175.46
1152.45	4123.68
1153.02	4116.52
1153.59	4134.6
1154.17	4060.21
1154.74	4103.84
1155.31	4084.89
1155.89	4097.84
1156.46	4172.96
1157.03	4035.23
1157.61	4002.83
1158.18	4036.23
1158.75	3972.19
1158.97	3942.19
1159.55	3967.69
1160.14	3970.69
1160.72	3984.69
1161.3	3871.69
1161.88	3922.69
1162.46	3919.69
1163.05	3865.69
1163.63	3900.19
1164.21	3915.69
1164.79	3886.19
1165.37	3853.69
1165.95	3724.19
1166.53	3809.69
1167.11	3737.69
1167.7	3856.19
1168.28	3660.69
1168.86	3747.69
1169.44	3737.19
1170.02	3673.69
1170.6	3751.69
1171.18	3622.69
1171.76	3577.19
1172.35	3547.69
1172.93	3489.19
1173.51	3557.69
1174.09	3590.19
1174.67	3599.69
1175.25	3538.19
1175.83	3607.19
1176.41	3523.69
1176.99	3537.19
1177.57	3525.69
1178.15	3465.69
1178.73	3532.69
1179.31	3383.19
1179.89	3425.69
1180.47	3355.69
1181.05	3353.19
1181.63	3335.19
1182.21	3330.69
1182.79	3243.19
1183.37	3317.69
1183.95	3290.19
1184.53	3267.69
1185.11	3292.19
1185.69	3209.69
1186.27	3179.19
1186.85	3177.19
1187.43	2917.69
1188.01	3092.69
1188.58	3017.69
1189.16	3080.69
1189.74	3118.69
1190.32	3071.69
1190.9	3048.69
1191.48	3063.19
1192.06	3050.19
1192.64	3045.19
1193.22	3024.19
1193.8	3016.19
1194.37	2903.69
1194.95	2923.19
1195.53	2905.69
1196.11	2940.19
1196.69	2898.69
1197.27	2870.69
1197.85	2896.19
1198.42	2824.19
1199	2827.69
1199.58	2851.69
1200.16	2645.69
1200.74	2769.69
1201.31	2658.19
1201.89	2704.69
1202.47	2659.69
1203.05	2633.19
1203.63	2627.69
1204.2	2540.69
1204.78	2531.19
1205.36	2517.19
1205.94	2535.69
1206.51	2542.69
1207.09	2259.69
1207.67	2491.19
1208.25	2513.19
1208.82	2391.69
1209.4	2328.69
1209.98	2400.69
1210.56	2265.69
1211.13	2349.19
1211.71	2318.69
1212.29	2349.19
1212.86	2298.69
1213.44	2294.69
1214.02	2276.19
1214.59	2293.19
1215.17	2241.19
1215.75	2206.19
1216.32	2187.69
1216.9	2253.69
1217.48	2170.19
1218.05	2121.69
1218.63	2071.69
1219.21	2100.69
1219.78	2040.19
1220.36	2035.19
1220.93	2028.69
1221.51	2023.19
1222.09	2016.69
1222.66	1923.69
1223.24	1991.69
1223.81	1950.69
1224.39	1914.69
1224.97	1872.19
1225.54	1883.69
1226.12	1851.69
1226.69	1830.19
1227.27	1805.69
1227.84	1759.69
1228.42	1728.69
1228.99	1743.69
1229.57	1733.69
1230.15	1673.69
1230.72	1663.69
1231.3	1752.69
1231.87	1692.19
1232.44	1661.19
1233.02	1653.69
1233.6	1659.19
1234.17	1585.69
1234.75	1577.69
1235.32	1620.19
1235.89	1585.69
1236.47	1505.69
1237.04	1517.69
1237.62	1549.69
1238.19	1523.19
1238.77	1461.69
1239.34	1497.69
1239.92	1503.19
1240.49	1430.69
1241.06	1414.69
1241.64	1380.69
1242.21	1442.69
1242.79	1410.69
1243.36	1387.69
1243.93	1410.69
1244.51	1338.69
1245.08	1383.69
1245.66	1329.69
1246.23	1350.69
1246.8	1349.69
1247.38	1327.69
1247.95	1330.19
1248.52	1320.69
1249.1	1301.19
1249.67	1285.69
1250.24	1266.69
1250.82	1258.19
1251.39	1247.69
1251.96	1249.69
1252.54	1260.19
1253.11	1231.69
1253.68	1236.19
1254.26	1238.69
1254.83	1173.69
1255.4	1147.69
1255.97	1202.69
1256.55	1154.69
1257.12	1203.69
1257.69	1213.69
1258.27	1180.69
1258.84	1245.69
1259.41	1153.69
1259.98	1187.69
1260.55	1213.69
1261.13	1157.69
1261.7	1165.69
1262.27	1141.69
1262.84	1165.69
1263.41	1132.69
1263.99	1178.69
1264.56	1141.19
1265.13	1174.19
1265.7	1148.69
1266.27	1095.69
1266.85	1151.69
1267.42	1194.69
1267.99	1145.69
1268.56	1114.69
1269.13	1166.69
1269.7	1139.19
1270.28	1139.69
1270.85	1119.19
1271.42	1055.19
1271.99	1120.69
1272.56	1114.69
1273.13	1157.69
1273.7	1103.69
1274.27	1147.69
1274.85	1121.19
1275.41	1067.69
1275.99	1128.19
1276.56	1075.69
1277.13	1102.69
1277.7	1106.69
1278.27	1137.69
1278.84	1101.69
1279.41	1100.69
1279.98	1107.69
1280.55	1088.19
1281.12	1108.19
1281.69	1051.69
1282.26	1097.69
1282.83	1078.69
1283.4	1105.69
1283.97	1069.69
1284.54	1099.69
1285.11	1037.19
1285.68	1041.69
1286.25	1059.19
1286.82	1044.69
1287.39	1024.69
1287.96	1068.69
1288.53	1044.69
1289.1	1042.19
1289.67	1081.69
1290.24	1083.69
1290.81	1097.69
1291.38	1041.69
1291.95	1107.69
1292.52	1104.69
1293.09	1101.69
1293.65	1105.69
1294.22	1083.69
1294.79	1050.69
1295.36	1050.69
1295.93	1088.69
1296.5	1102.69
1297.07	1108.69
1297.64	1020.69
1298.21	1055.69
1298.78	1065.69
1299.34	1045.69
1299.91	1059.69
1300.48	1074.69
1301.05	1061.69
1301.62	1103.19
1302.19	1057.69
1302.75	1075.69
1303.32	1099.19
1303.89	1090.69
1304.46	1081.69
1305.03	1084.69
1305.59	1106.19
1306.16	1109.19
1306.73	1096.69
1307.3	1110.69
1307.87	1084.69
1308.43	1038.69
1309	1081.19
1309.57	1072.69
1310.14	1107.69
1310.7	1062.69
1311.27	1099.69
1311.84	1025.69
1312.4	1014.69
1312.97	1003.69
1313.54	1078.69
1314.11	1083.69
1314.67	1086.69
1315.24	1066.69
1315.81	1099.69
1316.38	1061.69
1316.94	1078.69
1317.51	1066.69
1318.08	1003.69
1318.64	1049.69
1319.21	1051.69
1319.77	1047.69
1320.34	1092.69
1320.91	1069.19
1321.48	1098.69
1322.04	1110.19
1322.61	1043.69
1323.18	1027.69
1323.74	1059.69
1324.31	1098.69
1324.87	1064.19
1325.44	1077.69
1326	1090.69
1326.57	1074.69
1327.14	1005.69
1327.7	1064.19
1328.27	1091.69
1328.83	1047.69
1329.4	1098.19
1329.97	1087.69
1330.53	1082.69
1331.1	1046.69
1331.66	1091.69
1332.23	1003.69
1332.79	1069.69
1333.36	1035.69
1333.92	999.69
1334.49	1085.69
1335.05	1084.19
1335.62	1092.19
1336.18	1100.69
1336.75	1064.19
1337.31	1080.69
1337.88	1055.69
1338.44	1084.69
1339.01	1115.69
1339.57	1086.19
1340.14	1089.69
1340.7	1028.19
1341.27	1047.19
1341.83	1083.19
1342.39	1026.69
1342.96	1074.19
1343.52	1069.69
1344.09	1019.69
1344.65	1066.19
1345.22	1039.69
1345.78	1055.69
1346.35	1090.69
1346.91	1059.69
1347.47	1062.69
1348.04	1069.69
1348.6	1064.19
1349.16	1052.69
1349.73	1075.19
1350.29	1034.69
1350.86	1043.69
1351.42	1006.69
1351.98	1082.19
1352.55	1053.69
1353.11	1060.69
1353.67	1062.19
1354.23	1062.69
1354.8	1086.69
1355.36	1065.69
1355.92	1036.69
1356.49	1065.69
1357.05	1107.19
1357.61	1070.69
1358.18	1083.69
1358.74	1089.19
1359.3	1072.69
1359.87	1059.69
1360.43	1063.69
1360.99	1079.69
1361.55	1089.69
1362.11	1058.69
1362.68	1051.69
1363.24	1066.19
1363.8	1080.19
1364.36	1114.69
1364.93	1066.69
1365.49	1058.19
1366.05	1073.69
1366.61	1066.69
1367.17	1079.19
1367.74	1067.69
1368.3	1081.19
1368.86	1097.69
1369.42	1055.19
1369.98	1105.69
1370.55	1073.69
1371.11	1090.69
1371.67	1068.69
1372.23	1096.19
1372.79	1086.19
1373.35	1102.69
1373.91	1093.69
1374.48	1092.69
1375.04	1057.69
1375.6	1090.69
1376.16	1083.69
1376.72	1109.69
1377.28	1063.19
1377.84	1072.69
1378.4	1064.69
1378.96	1089.19
1379.53	1092.19
1380.09	1071.69
1380.65	1051.69
1381.21	1069.19
1381.77	1087.69
1382.33	1090.69
1382.89	1067.69
1383.45	1077.69
1384.01	1050.69
1384.57	1063.69
1385.13	1093.19
1385.69	1079.69
1386.25	1108.19
1386.81	1111.69
1387.37	1071.69
1387.93	1072.69
1388.49	1082.69
1389.05	1115.69
1389.61	1133.69
1390.17	1073.69
1390.73	1099.19
1391.29	1112.19
1391.85	1078.69
1392.41	1065.69
1392.97	1088.69
1393.53	1057.69
1394.09	1103.69
1394.65	1105.19
1395.21	1042.19
1395.77	1083.69
1396.33	1115.19
1396.88	1075.19
1397.44	1073.19
1398	1080.69
1398.56	1025.69
1399.12	1036.69
1399.68	1045.19
1400.24	1062.69
1400.8	1052.69
1401.36	1079.69
1401.91	1075.19
1402.47	1096.69
1403.03	1075.69
1403.59	1090.69
1404.15	1042.69
1404.71	1094.69
1405.26	1087.69
1405.82	1114.69
1406.38	1088.69
1406.94	1053.69
1407.5	1093.19
1408.06	1086.19
1408.61	1099.69
1409.17	1111.69
1409.73	1081.69
1410.29	1077.69
1410.85	1100.19
1411.4	1080.69
1411.96	1082.69
1412.52	1075.69
1413.08	1106.69
1413.63	1113.69
1414.19	1103.19
1414.75	1105.69
1415.31	1086.69
1415.86	1045.69
1416.42	1110.69
1416.98	1106.69
1417.53	1118.69
1418.09	1057.69
1418.65	1102.69
1419.21	1085.69
1419.76	1130.69
1420.32	1097.69
1420.88	1105.69
1421.43	1101.19
1421.99	1101.19
1422.55	1070.19
1423.1	1101.69
1423.66	1130.69
1424.22	1097.19
1424.77	1101.69
1425.33	1076.19
1425.89	1086.69
1426.44	1096.19
1427	1109.19
1427.55	1134.69
1428.11	1131.19
1428.67	1110.69
1429.22	1092.19
1429.78	1109.69
1430.33	1091.69
1430.89	1082.69
1431.44	1105.69
1432	1130.69
1432.56	1114.69
1433.11	1092.69
1433.67	1114.19
1434.22	1128.19
1434.78	1122.19
1435.34	1111.69
1435.89	1121.19
1436.44	1147.69
1437	1109.69
1437.56	1107.69
1438.11	1182.19
1438.67	1086.69
1439.22	1105.69
1439.78	1144.69
1440.33	1147.19
1440.89	1079.19
1441.44	1121.69
1441.99	1128.69
1442.55	1147.69
1443.11	1116.69
1443.66	1125.69
1444.21	1114.69
1444.77	1139.19
1445.32	1142.19
1445.88	1130.69
1446.43	1180.69
1446.98	1104.69
1447.54	1132.69
1448.09	1081.69
1448.65	1147.69
1449.2	1143.69
1449.76	1073.69
1450.31	1089.69
1450.86	1133.69
1451.42	1154.69
1451.97	1141.69
1452.52	1133.69
1453.08	1145.69
1453.63	1171.69
1454.19	1135.19
1454.74	1075.19
1455.29	1148.19
1455.85	1170.69
1456.4	1162.69
1456.95	1119.69
1457.51	1138.69
1458.06	1116.69
1458.61	1092.69
1459.17	1134.69
1459.72	1130.69
1460.27	1129.69
1460.82	1113.69
1461.38	1167.69
1461.93	1152.19
1462.48	1152.69
1463.04	1116.69
1463.59	1131.69
1464.14	1154.19
1464.69	1147.69
1465.25	1155.69
1465.8	1160.69
1466.35	1179.19
1466.9	1134.19
1467.46	1126.69
1468.01	1125.19
1468.56	1123.19
1469.11	1132.19
1469.66	1137.69
1470.22	1124.19
1470.77	1130.69
1471.32	1124.69
1471.87	1173.69
1472.42	1146.19
1472.98	1148.69
1473.53	1141.69
1474.08	1137.19
1474.63	1162.69
1475.18	1165.69
1475.73	1141.69
1476.28	1128.69
1476.84	1144.69
1477.39	1147.69
1477.94	1118.19
1478.49	1144.19
1479.04	1136.19
1479.59	1109.69
1480.14	1100.69
1480.7	1171.69
1481.25	1144.19
1481.8	1155.69
1482.35	1144.69
1482.9	1152.69
1483.45	1173.69
1484	1161.69
1484.55	1135.69
1485.1	1177.69
1485.65	1113.69
1486.2	1164.19
1486.75	1164.69
1487.3	1141.69
1487.85	1147.69
1488.4	1185.69
1488.95	1148.69
1489.5	1159.69
1490.05	1162.19
1490.6	1087.69
1491.15	1087.69
1491.7	1154.19
1492.25	1163.69
1492.8	1196.69
1493.35	1144.69
1493.9	1194.69
1494.45	1204.69
1495	1173.69
1495.55	1168.69
1496.1	1155.69
1496.65	1193.69
1497.2	1163.69
1497.75	1202.19
1498.3	1178.19
1498.85	1155.19
1499.4	1136.69
1499.95	1119.69
