252.42298822141746, 0.2955530459610918
254.0750667815012, 0.2955530459610918
255.86481855492525, 0.29533694856988635
257.3792239016687, 0.296849630308325
259.03130246175243, 0.2974979224819416
260.68338102183617, 0.2974979224819416
262.3354595819199, 0.2974979224819416
263.98753814200364, 0.29879450682917474
265.6396167020874, 0.3004152372632162
267.2916952621711, 0.3013876755236411
268.9437738222549, 0.3020359676972577
270.59585238233865, 0.3007393833500245
272.3856041557627, 0.30052328595881905
273.9000095025061, 0.302360113784066
275.55208806258986, 0.30365669813129914
277.2041666226736, 0.30527742856534057
278.85624518275733, 0.3049532824785324
280.50832374284107, 0.30333255204449083
282.1604023029248, 0.30398084421810745
283.81248086300855, 0.30527742856534057
285.4645594230923, 0.3059257207389572
287.116637983176, 0.3056015746521489
288.76871654325976, 0.30803267030321113
290.42079510334355, 0.3107879120410816
292.0728736634273, 0.3107879120410816
293.724952223511, 0.3107879120410816
295.37703078359476, 0.3114362042146982
297.0291093436785, 0.3117603503015065
298.68118790376224, 0.3124086424751231
300.333266463846, 0.31370522682235624
301.9853450239297, 0.31500181116958936
303.6374235840135, 0.315650103343206
305.28950214409724, 0.3162983955168226
306.941580704181, 0.3169466876904392
308.5936592642647, 0.3169466876904392
310.24573782434845, 0.3169466876904392
311.8978163844322, 0.3169466876904392
313.5498949445159, 0.3175949798640557
315.20197350459966, 0.31856741812448064
316.8540520646834, 0.32018814855852207
318.50613062476714, 0.3214847329057553
320.1582091848509, 0.3214847329057553
321.8102877449346, 0.3208364407321387
323.46236630501835, 0.3214847329057553
325.1144448651021, 0.3221330250793718
326.7665234251858, 0.32310546333979673
328.4186019852696, 0.32375375551341334
330.07068054535335, 0.32472619377383816
331.7227591054371, 0.3253744859474548
333.37483766552083, 0.3253744859474548
335.02691622560457, 0.3263469242078797
336.67899478568836, 0.3269952163814962
338.3310733457721, 0.3276435085551128
339.98315190585583, 0.32991253116277086
341.63523046593957, 0.3305608233363875
343.2873090260233, 0.3318574076836206
344.93938758610705, 0.3328298459440455
346.5914661461908, 0.33315399203085383
348.2435447062745, 0.3325056998572372
349.89562326635826, 0.3318574076836206
351.547701826442, 0.33315399203085383
353.19978038652573, 0.3357471607253202
354.85185894660947, 0.33509886855170357
356.5039375066932, 0.3360713068121285
358.15601606677694, 0.3370437450725533
359.8080946268607, 0.3380161833329782
361.4601731869445, 0.33963691376701965
363.1122517470282, 0.34028520594063627
364.76433030711195, 0.34028520594063627
366.4164088671957, 0.3406093520274446
368.2061606406197, 0.3415817902878694
369.58289277402287, 0.34374276419992467
371.37264454744695, 0.34482325115595236
373.1623963208709, 0.34460715376474693
374.6768016676144, 0.3464439815899938
376.32888022769816, 0.3470922737636104
377.9809587877819, 0.3470922737636104
379.63303734786564, 0.35000958854488506
381.2851159079494, 0.35000958854488506
382.9371944680331, 0.3513061728921182
384.58927302811685, 0.3519544650657348
386.2413515882006, 0.35422348767339285
387.8934301482843, 0.35487177984700946
389.54550870836806, 0.3558442181074344
391.1975872684518, 0.3571408024546675
392.8496658285356, 0.35876153288870893
394.50174438861933, 0.36005811723594217
396.15382294870307, 0.361030555496367
397.8059015087868, 0.36005811723594217
399.45798006887054, 0.3603822633227505
401.2477318422946, 0.36211104245239467
402.6244639756977, 0.36362372419083333
404.4142157491218, 0.3658927467984914
406.20396752254584, 0.36664908766771076
407.7183728692893, 0.36881006157976604
409.50812464271337, 0.3692422563621771
410.8848567761164, 0.3696744511445882
412.6746085495405, 0.3717273763610407
414.32668710962423, 0.37399639896869874
415.97876566970797, 0.37561712940274017
417.6308442297917, 0.3759412754895485
419.28292278987544, 0.3759412754895485
420.9350013499592, 0.3762654215763568
422.5870799100429, 0.37885859027082314
424.376831683467, 0.3813437102696867
425.89123703021045, 0.3824241972257143
427.5433155902942, 0.38534151200698896
429.1953941503779, 0.3859898041806056
430.84747271046166, 0.386476023310818
432.4995512705454, 0.38890711896188024
434.2893030439695, 0.3899876059179078
435.6660351773726, 0.39171638504755213
437.45578695079666, 0.39409345635081294
439.1078655108804, 0.39539004069804606
440.89761728430443, 0.3962544302628682
442.4120226310479, 0.3983073554793207
444.0641011911316, 0.4009005241737871
445.71617975121535, 0.40381783895506174
447.3682583112991, 0.4057627154759115
449.0203368713828, 0.40900417634399433
450.67241543146656, 0.41062490677803587
452.3244939915503, 0.4128939293856939
453.9765725516341, 0.41419051373292703
455.62865111171783, 0.41564917112356436
457.28072967180157, 0.4187285589482431
458.9328082318853, 0.41905270503505143
460.4472135786287, 0.4219700198163261
462.2369653520528, 0.42423904242398414
463.8890439121365, 0.42893916068270443
465.54112247222025, 0.4318564754639791
467.193201032304, 0.43493586328865785
468.8452795923877, 0.43590830154908267
470.4973581524715, 0.4388256163303573
472.14943671255526, 0.44028427372099466
473.801515272639, 0.4435257345890776
475.591267046063, 0.44919829110822274
475.0405741927018, 0.44530853806652315
476.9679991794661, 0.4511431676290725
478.7577509528902, 0.45438462849715544
480.40982951297394, 0.45584328588779277
482.0619080730577, 0.45892267371247153
483.7139866331414, 0.4621641345805544
485.36606519322515, 0.46410901110140423
487.01814375330895, 0.46508144936182905
488.6702223133927, 0.4670263258826788
490.1846276601361, 0.47059193283757006
491.97437943356016, 0.47091607892437837
493.6264579936439, 0.4712402250111867
495.1408633403873, 0.47210461457600883
496.93061511381137, 0.4735092476188447
498.5826936738951, 0.473833393705653
500.23477223397884, 0.4735092476188447
501.7491775807223, 0.47167241979359764
502.8505632874448, 0.4686470563167203
504.36496863418824, 0.46897120240352863
505.87937398093163, 0.46886315370792586
506.84308647431385, 0.4663780337090623
508.4951650343976, 0.46540559544863724
510.2849168078217, 0.46302852414537643
511.6616489412247, 0.46129974501573223
512.6253614346069, 0.4585985276256631
514.1397667813503, 0.45740999197403265
515.2411524880729, 0.4541685311059498
516.7555578348163, 0.4530880441499221
516.7555578348163, 0.448549998934606
518.2699631815597, 0.44768560936978385
519.2336756749419, 0.4440119537192899
520.7480810216853, 0.44185097980723465
521.8494667284078, 0.4386095189391517
523.3638720751512, 0.4381773241567406
523.3638720751512, 0.4339634250282328
524.8782774218946, 0.43255879198539693
525.9796631286172, 0.42866903894369746
527.3563952620202, 0.4260758702492311
528.4577809687428, 0.42240221459873706
529.8345131021459, 0.4204573380778873
530.9358988088684, 0.41721587720980435
532.3126309422715, 0.4152710006889546
533.2763434356536, 0.4125697832988855
534.7907487823971, 0.41073295547363853
535.8921344891196, 0.40792368938796664
537.2688666225228, 0.40619491025832233
538.232579115905, 0.4034936928682533
539.7469844626484, 0.40165686504300624
540.7106969560306, 0.39960393982655373
542.3627755161143, 0.39992808591336204
544.014854076198, 0.39927979373974554
545.6669326362818, 0.3986315015661289
547.1813379830253, 0.39647052765407353
548.9710897564493, 0.39603833287166257
550.623168316533, 0.3963624789584709
552.2752468766168, 0.397659063305704
553.9273254367006, 0.3986315015661289
555.5794039967843, 0.39895564765293723
557.2314825568681, 0.39992808591336204
558.8835611169518, 0.4012246702605953
560.5356396770355, 0.403169546781445
562.1877182371193, 0.40414198504186993
563.7021235838627, 0.40468222851988367
565.4918753572867, 0.40576271547591136
567.1439539173705, 0.4077075919967611
568.7960324774542, 0.408680030257186
570.448111037538, 0.408680030257186
572.237862810962, 0.40727539721435
573.7522681577054, 0.40576271547591136
575.4043467177892, 0.40479027721548644
576.9187520645326, 0.40295344939023947
578.846177051297, 0.4007924754781842
580.2229091847, 0.3990636963485399
581.8749877447838, 0.39647052765407353
582.838700238166, 0.39441760243762114
584.6284520115901, 0.3927968720035796
586.0051841449931, 0.3906358980915243
587.9326091317575, 0.38782663200585243
589.3093412651606, 0.38609785287620824
590.2730537585428, 0.38404492765975573
592.0628055319669, 0.38264029461691984
593.43953766537, 0.38091151548727553
594.5409233720925, 0.3778861520103981
595.9176555054956, 0.37637347027195944
596.8813679988777, 0.3736722528818903
598.5334465589615, 0.3736722528818903
600.0478519057051, 0.3716193276654378
601.1492376124274, 0.3688100615797659
602.6636429591709, 0.3688100615797659
604.3157215192547, 0.3671893311457245
606.1054732926787, 0.3644881137556554
607.4822054260819, 0.36275933462601107
608.445917919464, 0.36070640940955856
610.235669692888, 0.3595178737579282
611.7500750396315, 0.3573028754980715
613.4021535997152, 0.35616836419424247
615.054232159799, 0.3558442181074343
616.7063107198828, 0.35519592593381766
618.3583892799666, 0.35487177984700935
620.0104678400503, 0.35422348767339273
621.662546400134, 0.3529269033261596
623.3146249602178, 0.3516303189789264
624.9667035203015, 0.3513061728921181
626.6187820803852, 0.3513061728921181
628.270860640469, 0.35065788071850157
629.9229392005527, 0.34968544245807665
631.5750177606365, 0.34936129637126834
633.2270963207202, 0.34936129637126834
634.8791748808039, 0.34936129637126834
636.5312534408877, 0.3483888581108435
638.1833320009714, 0.3480647120240352
639.8354105610551, 0.3477405659372269
641.3498159077985, 0.34590373811197994
643.1395676812226, 0.3461198355031855
644.7916462413064, 0.34579568941637717
646.4437248013901, 0.34482325115595225
648.0958033614738, 0.34482325115595225
649.7478819215576, 0.34482325115595225
651.3999604816413, 0.34482325115595225
653.1897122550654, 0.342662277243897
654.7041176018088, 0.3419059363746776
656.3561961618925, 0.3409334981142528
658.0082747219762, 0.34028520594063616
659.66035328206, 0.33996105985382785
661.3124318421437, 0.33898862159340293
662.9645104022275, 0.3370437450725532
664.6165889623112, 0.3370437450725532
666.268667522395, 0.3363954528989367
667.7830728691386, 0.3342344789868814
668.7467853625207, 0.3321815537704288
670.3988639226044, 0.3325056998572371
672.0509424826881, 0.3318574076836205
673.7030210427719, 0.3318574076836205
675.3550996028556, 0.33056082333638737
677.0071781629393, 0.32991253116277075
678.6592567230231, 0.32991253116277075
680.3113352831068, 0.3282918007287293
681.9634138431907, 0.3273193624683044
683.6154924032744, 0.3266710702946879
685.2675709633581, 0.3266710702946879
686.9196495234419, 0.32537448594745466
688.5717280835256, 0.32440204768702985
690.2238066436094, 0.32407790160022154
691.8758852036931, 0.3234296094266049
693.5279637637768, 0.3234296094266049
695.1800423238606, 0.3234296094266049
696.8321208839443, 0.3231054633397966
698.484199444028, 0.3221330250793717
700.1362780041118, 0.3221330250793717
701.7883565641955, 0.3218088789925635
703.4404351242792, 0.3214847329057552
705.092513684363, 0.3214847329057552
706.7445922444467, 0.3211605868189469
708.3966708045305, 0.32018814855852196
710.0487493646142, 0.32018814855852196
711.7008279246979, 0.32051229464533026
713.3529064847817, 0.3208364407321386
715.0049850448654, 0.3208364407321386
716.6570636049491, 0.32018814855852196
718.3091421650329, 0.32018814855852196
719.9612207251166, 0.32018814855852196
721.6132992852004, 0.32018814855852196
723.2653778452841, 0.32018814855852196
724.9174564053678, 0.32018814855852196
726.5695349654516, 0.32018814855852196
728.2216135255353, 0.32018814855852196
729.873692085619, 0.31986400247171365
731.5257706457028, 0.31921571029809714
733.1778492057865, 0.31953985638490545
734.8299277658703, 0.31889156421128884
736.482006325954, 0.31953985638490545
738.1340848860377, 0.31953985638490545
739.7861634461217, 0.31921571029809714
741.4382420062054, 0.31889156421128884
743.0903205662892, 0.31953985638490545
744.7423991263729, 0.31953985638490545
746.3944776864566, 0.31986400247171365
748.0465562465404, 0.32018814855852196
749.6986348066241, 0.31856741812448053
751.3507133667079, 0.3182432720376722
753.0027919267916, 0.31856741812448053
754.6548704868753, 0.3182432720376722
756.3069490469591, 0.3175949798640556
757.9590276070428, 0.3175949798640556
759.6111061671265, 0.3169466876904391
761.2631847272103, 0.3169466876904391
762.915263287294, 0.3169466876904391
764.5673418473777, 0.3169466876904391
766.2194204074615, 0.3169466876904391
767.8714989675452, 0.3166225416036308
769.523577527629, 0.3169466876904391
771.1756560877127, 0.3169466876904391
772.8277346477964, 0.31565010334320587
774.4798132078802, 0.3159742494300142
776.1318917679639, 0.31565010334320587
777.7839703280476, 0.31532595725639756
779.4360488881314, 0.31402937290916444
781.0881274482151, 0.31370522682235613
782.8778792216392, 0.31262473986632844
784.3922845683826, 0.3117603503015064
786.0443631284663, 0.3117603503015064
787.6964416885501, 0.31078791204108147
789.3485202486338, 0.30981547378065666
791.0005988087175, 0.3085188894334234
792.6526773688013, 0.3078705972598068
794.304755928885, 0.3072223050861903
796.0945077023091, 0.3061418181301626
797.6089130490525, 0.30560157465214877
799.2609916091362, 0.30398084421810734
800.91307016922, 0.3026842598708742
802.5651487293037, 0.3026842598708742
804.2172272893877, 0.301387675523641
805.8693058494714, 0.30073938335002437
807.5213844095551, 0.29879450682917463
809.1734629696389, 0.2978220685687498
810.8255415297226, 0.2974979224819415
812.4776200898064, 0.2974979224819415
814.1296986498901, 0.2971737763951332
815.7817772099738, 0.2958771920479
817.4338557700576, 0.29555304596109166
819.0859343301413, 0.29522889987428347
820.738012890225, 0.29425646161385854
822.3900914503088, 0.29458060770066685
824.0421700103925, 0.29458060770066685
825.6942485704762, 0.29425646161385854
827.34632713056, 0.29458060770066685
828.9984056906437, 0.29490475378747516
830.6504842507275, 0.29458060770066685
832.3025628108112, 0.29458060770066685
833.9546413708949, 0.29555304596109166
835.6067199309787, 0.29555304596109166
837.2587984910624, 0.29522889987428347
838.9108770511461, 0.29555304596109166
840.5629556112299, 0.2962013381347083
842.2150341713136, 0.29555304596109166
843.8671127313974, 0.29555304596109166
845.5191912914811, 0.2962013381347083
847.1712698515648, 0.2962013381347083
848.8233484116486, 0.2965254842215166
850.4754269717323, 0.2971737763951332
852.127505531816, 0.2974979224819415
853.7795840918998, 0.2974979224819415
855.4316626519835, 0.2974979224819415
857.0837412120673, 0.2978220685687498
858.735819772151, 0.2984703607423663
860.3878983322347, 0.29911865291598294
862.0399768923185, 0.29976694508959956
863.6920554524022, 0.30041523726321606
865.3441340124859, 0.30073938335002437
866.9962125725697, 0.30073938335002437
868.6482911326536, 0.301387675523641
870.3003696927374, 0.3023601137840659
871.9524482528211, 0.30365669813129903
873.6045268129049, 0.30398084421810734
875.2566053729886, 0.3030084059576824
876.9086839330723, 0.30365669813129903
878.5607624931561, 0.3059257207389571
880.2128410532398, 0.3059257207389571
881.8649196133235, 0.3065740129125737
883.5169981734073, 0.3072223050861903
885.169076733491, 0.30916718160704004
886.8211552935747, 0.31046376595427316
888.4732338536585, 0.31046376595427316
890.2629856270826, 0.31089596073668435
891.777390973826, 0.3130569346487395
893.56714274725, 0.3134891294311506
895.0815480939934, 0.31532595725639756
896.7336266540772, 0.3166225416036308
898.3857052141609, 0.3175949798640556
899.9001105609043, 0.31910766160249426
901.6898623343284, 0.32051229464533026
903.3419408944121, 0.3218088789925635
904.9940194544959, 0.3231054633397966
906.5084248012392, 0.3255905833386602
908.2981765746633, 0.3269952163814961
909.9502551347471, 0.32894009290234594
911.7400069081712, 0.33034472594518194
913.3920854682549, 0.3325056998572371
914.9064908149983, 0.33477472246489515
916.558569375082, 0.3360713068121284
918.2106479351658, 0.3370437450725532
919.8627264952495, 0.3385024024631905
921.5148050553332, 0.3412576442010611
923.166883615417, 0.34482325115595225
924.956635388841, 0.34590373811197994
926.4710407355844, 0.3477405659372269
928.1231192956682, 0.35065788071850157
929.7751978557519, 0.3516303189789264
931.4272764158356, 0.35422348767339273
933.0793549759194, 0.3571408024546674
934.7314335360034, 0.35908567897551713
936.3835120960871, 0.36005811723594205
938.173263869511, 0.3612466528875724
939.5499960029142, 0.36319152940842225
941.3397477763383, 0.36524445462487476
942.991826336422, 0.36621689288529957
944.7815781098459, 0.3664329902765051
946.1583102432492, 0.3681617694061493
947.9480620166732, 0.37075493810061566
949.600140576757, 0.3714032302742323
951.2522191368407, 0.3717273763610406
952.9042976969245, 0.3730239607082737
954.5563762570082, 0.37594127548954837
956.2084548170919, 0.3775620059235899
957.8605333771757, 0.378858590270823
959.5126119372594, 0.37918273635763133
961.1646904973431, 0.37950688244443964
962.8167690574269, 0.38080346679167276
964.3311744041703, 0.3813437102696866
966.1209261775944, 0.38436907374656404
967.7730047376781, 0.38598980418060547
969.4250832977618, 0.38923126504868844
971.0771618578456, 0.39020370330911325
972.7292404179293, 0.392148579829963
974.381318978013, 0.39409345635081283
976.1710707514371, 0.39582223548045703
977.6854760981805, 0.3981452824359164
979.3375546582643, 0.40138674330399937
980.989633218348, 0.40479027721548644
982.6417117784317, 0.40576271547591136
984.2937903385155, 0.4073834459099528
985.9458688985992, 0.408680030257186
987.5979474586829, 0.4117594180818648
989.2500260187667, 0.4138663676461186
990.7644313655103, 0.4167836824273933
992.416509925594, 0.41894465633944866
994.0685884856778, 0.4202412406866818
995.996013472442, 0.4232666041635592
997.5104188191854, 0.42521148068440895
999.1624973792693, 0.4281287954656836
1000.8145759393531, 0.4316944024205748
1002.4666544994368, 0.43461171720184943
1004.2564062728607, 0.43796122676553506
1005.7708116196043, 0.44028427372099455
1007.5605633930281, 0.44314756415446777
1009.0749687397717, 0.44595683024013966
1010.5893740865151, 0.44876609632581155
1012.5167990732793, 0.45330414154112764
1011.9661062199182, 0.4491982911082226
1014.1688776333631, 0.4569777971916217
1013.6181847800019, 0.4530880441499221
1015.6832829801067, 0.45957096588608803
1017.3353615401904, 0.4631365728409792
1018.9874401002742, 0.4667021797958705
1020.6395186603579, 0.469619494577145
1022.2915972204416, 0.4722126632716114
1023.9436757805254, 0.47594034326990675
1025.5957543406091, 0.4791818041379897
1027.2478329006929, 0.48177497283245607
1029.037584674117, 0.4870153345691901
1028.4868918207555, 0.4829094841362851
1030.5519900208603, 0.4889061867422385
1032.204068580944, 0.49198557456691727
1033.8561471410278, 0.4934442319575546
1035.645898914452, 0.49933288586790525
1035.0952060610907, 0.4945787432613836
1037.1603042611953, 0.5012237380409537
1038.6747096079387, 0.5036548336920158
1040.3267881680224, 0.5058158076040712
1041.9788667281061, 0.5071123919513043
1043.7686185015302, 0.5091653171677568
1045.420697061614, 0.5114343397754149
1047.0727756216977, 0.5133792162962645
1048.7248541817814, 0.5162965310775391
1050.3769327418652, 0.5169448232511558
1052.029011301949, 0.5175931154247724
1053.6810898620326, 0.5179172615115807
1055.3331684221164, 0.5185655536851972
1056.9852469822001, 0.5185655536851972
1058.6373255422839, 0.5172689693379641
1060.2894041023676, 0.5166206771643476
1061.9414826624513, 0.5166206771643476
1063.593561222535, 0.5162965310775391
1065.245639782619, 0.5153240928171143
1066.071679062661, 0.5124067780358397
1067.7237576227446, 0.5120826319490315
1069.3758361828284, 0.5117584858622231
1071.0279147429121, 0.5101377554281817
1072.8176665163362, 0.5071123919513043
1074.46974507642, 0.5055997102128655
1075.9841504231633, 0.5036548336920158
1077.636228983247, 0.5017099571711661
1078.5999414766293, 0.49760410673826105
1079.9766736100323, 0.4943626458701781
1081.078059316755, 0.4909050876108897
1082.454791450158, 0.489824600654862
1083.4185039435401, 0.4877716754384095
1084.9329092902835, 0.48615094500436806
1086.034294997006, 0.482477289353874
1087.5487003437495, 0.48096460761543536
1087.5487003437495, 0.47642656240011927
1089.2007789038332, 0.4770748545737358
1089.2007789038332, 0.472860955445228
1090.7151842505766, 0.47167241979359753
1091.8165699572992, 0.4679987641431036
1093.3309753040426, 0.467350471969487
1093.3309753040426, 0.4624882806673626
1094.9830538641263, 0.46151584240693777
1094.9830538641263, 0.4576260893652382
1096.4974592108697, 0.4571938945828272
1097.5988449175923, 0.4535202389323332
1098.9755770509953, 0.4502787780642502
1100.0769627577179, 0.4455246354577287
1101.5913681044613, 0.44466024589290654
1101.5913681044613, 0.44012220067759045
1103.243446664545, 0.44012220067759045
1103.243446664545, 0.43590830154908256
1104.8955252246287, 0.43558415546227425
1104.8955252246287, 0.43104611024695816
1106.5476037847125, 0.43039781807334165
1106.5476037847125, 0.42585977285802556
1108.0620091314559, 0.42477928590199787
1109.1633948381784, 0.4208895328602984
1110.6778001849218, 0.42002514329547624
1110.6778001849218, 0.41548709808016016
1112.1922055316652, 0.4139744163417214
1113.2935912383878, 0.4098685659088164
1114.8079965851311, 0.4083558841703777
1114.8079965851311, 0.40414198504186993
1116.3224019318745, 0.40273735199903393
1117.423787638597, 0.3984154041749234
1118.9381929853405, 0.3973349172188957
1118.9381929853405, 0.3931210180903879
1120.4525983320839, 0.39193248243875745
1121.5539840388064, 0.3882588267882635
1123.0683893855498, 0.3882588267882635
1123.0683893855498, 0.3837207815729474
1124.7204679456336, 0.3830724893993308
1124.3074483056128, 0.38047932070486445
1126.234873292377, 0.3789666389664258
1127.3362589990998, 0.37594127548954837
1128.8506643458431, 0.37464469114231524
1128.8506643458431, 0.37043079201380735
1130.3650696925863, 0.3698905485357935
1131.466455399309, 0.3653525033204774
1132.843187532712, 0.3640559189732443
1133.9445732394347, 0.36103055549636687
1135.3213053728375, 0.3588695815843116
1136.4226910795603, 0.3556281207162286
1137.7994232129633, 0.35454763376020104
1139.5891749863874, 0.3519544650657347
1141.1035803331308, 0.3497934911536794
1142.2049660398534, 0.3461198355031855
1143.5816981732564, 0.3439588615911302
1144.5454106666386, 0.34060935202744447
1146.059816013382, 0.3394208163758141
1147.0235285067643, 0.3370437450725532
1148.8132802801883, 0.3359632581165255
1150.3276856269317, 0.33509886855170345
1151.291398120314, 0.3314252129012094
1152.668130253717, 0.33034472594518194
1153.7695159604395, 0.32753545985950994
1155.283921307183, 0.3269952163814961
1156.9359998672667, 0.3260227781210713
1158.45040521401, 0.323861804209016
1159.4141177073923, 0.3218088789925635
1161.2038694808164, 0.3204042459497275
1162.5806016142194, 0.3180271746464668
1164.3703533876435, 0.3166225416036308
1166.0224319477272, 0.31565010334320587
1167.674510507811, 0.31532595725639756
1169.3265890678947, 0.31402937290916444
1170.9786676279784, 0.312408642475123
1172.6307461880622, 0.3111120581278898
1174.282824748146, 0.31046376595427316
1175.9349033082297, 0.30884303552023173
1177.5869818683134, 0.3072223050861903
1179.2390604283971, 0.3059257207389571
1180.8911389884809, 0.30527742856534046
1182.5432175485646, 0.30495328247853226
1184.1952961086483, 0.30365669813129903
1185.847374668732, 0.3026842598708741
1187.4994532288158, 0.3020359676972575
1189.1515317888995, 0.3020359676972575
1190.8036103489833, 0.3017118216104492
1192.455688909067, 0.30106352943683257
1194.107767469151, 0.30073938335002426
1195.7598460292347, 0.30009109117640775
1197.4119245893185, 0.29944279900279114
1199.0640031494022, 0.2987945068291745
1200.716081709486, 0.2987945068291745
1202.3681602695697, 0.2974979224819414
1204.0202388296534, 0.2981462146555579
1205.6723173897371, 0.2987945068291745
1207.3243959498209, 0.2981462146555579
1208.9764745099046, 0.2974979224819414
1210.6285530699884, 0.2974979224819414
1212.280631630072, 0.2974979224819414
1213.9327101901558, 0.2974979224819414
1215.5847887502396, 0.2974979224819414
1217.2368673103233, 0.2974979224819414
1218.888945870407, 0.2974979224819414
1220.5410244304908, 0.2974979224819414
1222.1931029905745, 0.2974979224819414
1223.8451815506583, 0.2974979224819414
1225.497260110742, 0.2974979224819414
1227.1493386708257, 0.2974979224819414
1228.8014172309095, 0.2971737763951331
1230.4534957909932, 0.2968496303083248
1232.105574351077, 0.2968496303083248
1233.7576529111607, 0.2971737763951331
1235.4097314712444, 0.2974979224819414
1237.0618100313282, 0.2971737763951331
1238.713888591412, 0.2971737763951331
1240.3659671514956, 0.2974979224819414
1242.0180457115794, 0.2974979224819414
1243.6701242716633, 0.2974979224819414
1245.322202831747, 0.2974979224819414
1246.9742813918308, 0.2971737763951331
1248.6263599519145, 0.2963634111781124
1249.8654188719772, 0.2965254842215165
