252.28531500807713, 0.405978812867117
254.07506678150116, 0.4070592998231446
255.7271453415849, 0.4070592998231446
257.37922390166864, 0.4070592998231446
259.0313024617524, 0.4077075919967612
260.68338102183617, 0.4080317380835695
262.3354595819199, 0.4083558841703778
263.98753814200364, 0.40900417634399433
265.6396167020874, 0.40965246851761095
267.4293684755114, 0.41138124764725514
269.08144703559515, 0.41246173460328284
270.5958523823386, 0.411921491125269
272.24793094242233, 0.4115973450384607
273.9000095025061, 0.411921491125269
275.55208806258986, 0.41354222155931053
277.2041666226736, 0.41354222155931053
278.85624518275733, 0.4138663676461187
280.50832374284107, 0.41483880590654365
282.1604023029248, 0.41516295199335196
283.81248086300855, 0.41548709808016027
285.4645594230923, 0.41516295199335196
287.116637983176, 0.41483880590654365
288.76871654325976, 0.41564917112356436
290.4207951033435, 0.4187285589482431
292.07287366342723, 0.41937685112185974
293.724952223511, 0.41937685112185974
295.37703078359476, 0.41970099720866805
296.8914361303382, 0.4202412406866819
298.68118790376224, 0.4216458737295178
300.333266463846, 0.4226183119899427
301.9853450239297, 0.4235907502503675
303.77509679735374, 0.4236987989459703
305.28950214409724, 0.42521148068440906
306.941580704181, 0.42521148068440906
308.5936592642647, 0.42521148068440906
310.24573782434845, 0.42521148068440906
311.76014317109184, 0.4254275780756146
313.5498949445159, 0.4271563572052588
315.20197350459966, 0.4278046493788754
316.8540520646834, 0.4284529415524919
318.6438038381075, 0.428885136334903
320.1582091848509, 0.43007367198653346
321.8102877449346, 0.43039781807334176
323.46236630501835, 0.43104611024695827
325.1144448651021, 0.43072196416014996
326.7665234251858, 0.43072196416014996
328.4186019852696, 0.4316944024205749
330.07068054535335, 0.4323426945941915
331.7227591054371, 0.4336392789414246
333.37483766552083, 0.43461171720184955
335.02691622560457, 0.43493586328865785
336.67899478568836, 0.43526000937546616
338.3310733457721, 0.4375290319831242
339.98315190585583, 0.4381773241567407
341.4975572525992, 0.43839342154794636
343.2873090260233, 0.43979805459078225
344.93938758610705, 0.44109463893801537
346.5914661461908, 0.4423912232852486
348.2435447062745, 0.4430395154588651
349.89562326635826, 0.4433636615456734
351.547701826442, 0.4433636615456734
353.19978038652573, 0.44401195371929003
354.85185894660947, 0.44466024589290665
356.5039375066932, 0.44530853806652315
358.15601606677694, 0.44530853806652315
359.94576784020103, 0.4444441485017011
361.3224999736042, 0.4461729276313453
363.1122517470282, 0.44919829110822274
364.90200352045224, 0.4496304858906337
366.4164088671957, 0.4511431676290725
367.93081421393913, 0.451359265020278
369.7205659873632, 0.4527638980631139
371.37264454744695, 0.4537363363235388
373.0247231075307, 0.4537363363235388
374.6768016676144, 0.45406048241034713
376.32888022769816, 0.4563295050180052
378.1186320011222, 0.45611340762679964
379.77071056120593, 0.45740999197403276
381.2851159079494, 0.45892267371247153
382.9371944680331, 0.45924681979927984
384.58927302811685, 0.45957096588608815
386.2413515882006, 0.45989511197289634
387.75575693494403, 0.4615158424069379
389.40783549502777, 0.46302852414537654
391.1975872684518, 0.46410901110140423
392.8496658285356, 0.46556766849204156
394.50174438861933, 0.4679987641431037
396.15382294870307, 0.4676746180562954
397.8059015087868, 0.4676746180562954
399.45798006887054, 0.4686470563167203
401.11005862895433, 0.46994364066395344
402.76213718903807, 0.4718885171848032
404.4142157491218, 0.4728609554452281
406.06629430920555, 0.473833393705653
407.7183728692893, 0.47480583196607784
409.370451429373, 0.47545412413969446
411.02252998945676, 0.4767507084869276
412.6746085495405, 0.4777231467473525
414.32668710962423, 0.4790197310945856
415.97876566970797, 0.47999216935501055
417.49317101645136, 0.4794519258769967
419.28292278987544, 0.47966802326820224
420.9350013499592, 0.4812887537022438
422.5870799100429, 0.4825853380494769
424.10148525678636, 0.48550265283075156
425.89123703021045, 0.4877716754384096
427.5433155902942, 0.4884199676120262
429.1953941503779, 0.48939240587245103
430.7097994971213, 0.4902567954372732
432.4995512705454, 0.492633866740534
434.2893030439695, 0.4937143536965616
435.6660351773726, 0.4954431328262059
437.45578695079666, 0.4974960580426584
439.1078655108804, 0.4984684963030832
440.75994407096414, 0.49992715369372054
442.4120226310479, 0.5020341032579745
444.0641011911316, 0.5057617832562699
445.578506537875, 0.5071123919513044
447.3682583112991, 0.5101377554281818
449.0203368713828, 0.5117584858622233
450.8100886448069, 0.5125148267314426
452.3244939915503, 0.5141895815132854
453.9765725516341, 0.5166206771643476
455.62865111171783, 0.5175931154247725
457.1430564584612, 0.5200782354236361
458.9328082318853, 0.5221311606400886
460.58488679196904, 0.5248864023779591
462.0992921387124, 0.5263450597685964
463.8890439121365, 0.5295865206366793
465.6787956855606, 0.5313152997663235
467.193201032304, 0.5331521275915705
468.8452795923877, 0.535745296286037
470.4973581524715, 0.5386626110673116
472.14943671255526, 0.5396350493277364
473.801515272639, 0.5422282180222028
475.591267046063, 0.5466582145419161
475.0405741927018, 0.5425523641090111
477.2433456061468, 0.55033187019241
476.69265275278553, 0.5464421171507106
478.7577509528902, 0.552438819756664
480.40982951297394, 0.5555182075813427
482.0619080730577, 0.5561664997549594
483.85165984648177, 0.557246986710987
485.22839197988486, 0.5589757658406312
487.15581696664924, 0.5611367397526865
488.6702223133927, 0.5629735675779335
490.3223008734764, 0.5658908823592081
491.97437943356016, 0.5675116127932496
493.6264579936439, 0.5684840510536745
495.27853655372763, 0.5704289275745242
496.93061511381137, 0.5704289275745242
498.72036688723546, 0.5702128301833187
500.09709902063855, 0.5702128301833187
501.8868507940626, 0.5704289275745242
503.67660256748667, 0.5693484406184967
505.05333470088976, 0.5676196614888523
506.84308647431385, 0.5671874667064414
508.4951650343976, 0.5671874667064414
510.2849168078217, 0.5643782006207694
511.6616489412247, 0.5630816162735363
513.5890739279891, 0.5602723501878644
514.9658060613922, 0.5585435710582202
516.0671917681148, 0.5557343049725483
517.4439239015178, 0.5546538180165206
518.5453096082404, 0.5518445519308488
519.9220417416434, 0.5507640649748211
521.5741203017271, 0.5494674806275879
522.6755060084497, 0.546226019759505
524.1899113551931, 0.5464421171507106
524.1899113551931, 0.5419040719353945
525.7043167019365, 0.5414718771529834
526.805702408659, 0.538446513676106
528.4577809687428, 0.5369338319376673
529.8345131021459, 0.535205052808023
530.9358988088684, 0.5321796893311457
532.3126309422715, 0.531099202375118
533.414016648994, 0.5278577415070351
534.7907487823971, 0.5259128649861854
535.8921344891196, 0.5222392093356913
537.2688666225228, 0.5209426249884581
538.9209451826065, 0.5183494562939919
540.5730237426902, 0.5170528719467586
542.3627755161143, 0.5162965310775394
543.8771808628577, 0.5144597032522923
545.6669326362818, 0.5133792162962647
547.3190111963655, 0.5120826319490315
548.833416543109, 0.512298729340237
550.623168316533, 0.5133792162962647
552.4129200899571, 0.5131631189050592
553.9273254367006, 0.5153240928171144
555.5794039967843, 0.5166206771643476
557.2314825568681, 0.516944823251156
558.8835611169518, 0.5179172615115808
560.5356396770355, 0.5185655536851974
562.1877182371193, 0.5185655536851974
563.839796797203, 0.5195379919456222
565.4918753572867, 0.5205104302060471
567.0062807040301, 0.5213748197708692
568.7960324774542, 0.5237518910741301
570.448111037538, 0.5237518910741301
572.1001895976217, 0.5237518910741301
573.7522681577054, 0.5234277449873217
575.2666735044488, 0.5222392093356913
577.0564252778729, 0.5211587223796637
578.7085038379566, 0.5205104302060471
580.2229091847, 0.5183494562939919
582.0126609581241, 0.5179172615115808
583.6647395182079, 0.5175931154247725
585.4544912916319, 0.5151079954259089
586.9688966383753, 0.5153240928171144
586.9688966383753, 0.5111101936886066
588.6209751984591, 0.5104619015149899
590.2730537585428, 0.5107860476017982
591.9251323186265, 0.5098136093413734
593.5772108787103, 0.5081928789073319
595.0916162254538, 0.5066801971688932
596.8813679988777, 0.504951418039249
598.6711197723018, 0.5019260545623716
600.0478519057051, 0.5014938597799605
601.1492376124274, 0.49868459369428875
602.6636429591709, 0.4987926423898914
604.3157215192547, 0.4978202041294666
606.1054732926787, 0.49522703543500024
607.4822054260819, 0.49371435369656147
609.2719571995059, 0.4926338667405339
611.0617089729299, 0.4902567954372731
612.4384411063331, 0.48852801630762877
614.2281928797571, 0.4887441136988343
616.0179446531811, 0.4876636267428067
617.3946767865843, 0.48723143196039564
618.3583892799666, 0.4845302145703265
620.0104678400503, 0.4842060684835182
621.8002196134743, 0.482477289353874
623.452298173558, 0.48096460761543536
624.8290303069612, 0.4794519258769966
626.6187820803852, 0.4796680232682021
628.270860640469, 0.4790197310945855
629.9229392005527, 0.4777231467473524
631.5750177606365, 0.4770748545737358
633.2270963207202, 0.47545412413969435
634.8791748808039, 0.4744816858792694
636.5312534408877, 0.4741575397924611
638.1833320009714, 0.4735092476188446
639.8354105610551, 0.472860955445228
641.6251623344792, 0.4708080302287755
643.0018944678823, 0.4690792510991312
644.7916462413064, 0.4683229102299119
646.3060515880499, 0.4664860824046648
648.0958033614738, 0.46637803370906217
649.7478819215576, 0.46540559544863724
651.3999604816413, 0.4623262076239585
652.9143658283848, 0.46129974501573223
654.8417908151491, 0.45913877110367696
656.2185229485523, 0.45740999197403265
658.0082747219762, 0.4576260893652382
659.7980264954003, 0.4554651154531829
661.3124318421437, 0.45470877458396364
662.9645104022275, 0.4537363363235387
664.7542621756515, 0.4513592650202779
666.1309943090548, 0.4496304858906336
667.2323800157772, 0.44768560936978385
668.6091121491804, 0.44703731719616735
669.5728246425625, 0.44466024589290654
671.2249032026463, 0.44498439197971484
673.0146549760702, 0.44357975893687884
674.5290603228137, 0.4433636615456733
676.1811388828975, 0.44141878502482357
677.8332174429812, 0.44044634676439864
679.485296003065, 0.43947390850397383
681.1373745631488, 0.4388256163303572
682.7894531232325, 0.4381773241567406
684.4415316833163, 0.4378531780699324
686.0936102434, 0.4368807398095075
687.6080155901434, 0.4353680580710687
689.2600941502271, 0.43385537633263005
691.0498459236512, 0.4336392789414245
692.701924483735, 0.4333151328546162
694.3540030438187, 0.432990986767808
696.1437548172428, 0.4319104998117803
697.5204869506458, 0.430181720682136
699.3102387240699, 0.43007367198653335
700.9623172841536, 0.43007367198653335
702.6143958442374, 0.43007367198653335
704.2664744043211, 0.42942537981291673
705.9185529644049, 0.4287770876393001
707.5706315244886, 0.4284529415524918
709.2227100845723, 0.4291012337261084
710.8747886446561, 0.4287770876393001
712.5268672047398, 0.42942537981291673
714.1789457648235, 0.42942537981291673
715.8310243249073, 0.4287770876393001
717.483102884991, 0.4281287954656836
719.1351814450747, 0.4281287954656836
720.7872600051585, 0.4284529415524918
722.4393385652422, 0.4284529415524918
724.091417125326, 0.4281287954656836
725.7434956854097, 0.4271563572052587
727.3955742454934, 0.4271563572052587
729.0476528055772, 0.4278046493788753
730.6997313656609, 0.4284529415524918
732.3518099257446, 0.4278046493788753
734.0038884858284, 0.4278046493788753
735.6559670459121, 0.4278046493788753
737.3080456059959, 0.4281287954656836
738.9601241660798, 0.4281287954656836
740.6122027261636, 0.4278046493788753
742.2642812862473, 0.4281287954656836
743.916359846331, 0.4271563572052587
745.5684384064148, 0.4268322111184504
747.2205169664985, 0.4278046493788753
748.8725955265822, 0.4284529415524918
750.524674086666, 0.4284529415524918
752.1767526467497, 0.4284529415524918
753.8288312068335, 0.42942537981291673
755.4809097669172, 0.4287770876393001
757.1329883270009, 0.4287770876393001
758.7850668870847, 0.4284529415524918
760.4371454471684, 0.4278046493788753
762.0892240072521, 0.4278046493788753
763.7413025673359, 0.4278046493788753
765.3933811274196, 0.4278046493788753
767.0454596875034, 0.4284529415524918
768.6975382475871, 0.4278046493788753
770.3496168076708, 0.427480503292067
772.0016953677546, 0.4278046493788753
773.6537739278383, 0.427480503292067
775.305852487922, 0.42650806503164207
776.9579310480058, 0.42521148068440895
778.7476828214299, 0.4249953832932034
780.2620881681732, 0.42650806503164207
781.914166728257, 0.42521148068440895
783.5662452883407, 0.42521148068440895
785.2183238484245, 0.424239042423984
786.8704024085082, 0.4239148963371757
788.5224809685919, 0.4232666041635592
790.1745595286757, 0.4229424580767509
791.8266380887594, 0.421970019816326
793.4787166488431, 0.42034928938228455
795.2684684222672, 0.41894465633944866
796.7828737690106, 0.418728558948243
798.4349523290944, 0.4180802667746265
800.0870308891781, 0.41645953634058497
801.7391094492618, 0.41483880590654354
803.3911880093458, 0.41451465981973523
805.0432665694295, 0.4135422215593104
806.8330183428534, 0.4111651502560496
808.347423689597, 0.41062490677803576
809.9995022496807, 0.41030076069122745
811.6515808097645, 0.40965246851761083
813.3036593698482, 0.40965246851761083
814.955737929932, 0.4083558841703777
816.6078164900157, 0.4083558841703777
818.2598950500994, 0.4077075919967611
819.9119736101832, 0.406411007649528
821.5640521702669, 0.4070592998231445
823.2161307303506, 0.4067351537363362
824.8682092904344, 0.40576271547591136
826.5202878505181, 0.40576271547591136
828.1723664106019, 0.40576271547591136
829.8244449706856, 0.40576271547591136
831.4765235307693, 0.40543856938910305
833.1286020908531, 0.40511442330229475
834.7806806509368, 0.40576271547591136
836.4327592110205, 0.40576271547591136
838.0848377711043, 0.40511442330229475
839.736916331188, 0.40511442330229475
841.3889948912718, 0.40576271547591136
843.0410734513555, 0.40608686156271967
844.6931520114392, 0.40576271547591136
846.345230571523, 0.40576271547591136
847.9973091316067, 0.40576271547591136
849.6493876916904, 0.40576271547591136
851.3014662517742, 0.40608686156271967
852.9535448118579, 0.4073834459099528
854.6056233719416, 0.4077075919967611
856.2577019320254, 0.4080317380835694
857.9097804921091, 0.4083558841703777
859.5618590521929, 0.4090041763439942
861.2139376122766, 0.4090041763439942
862.8660161723603, 0.4090041763439942
864.5180947324441, 0.40965246851761083
866.1701732925278, 0.40997661460441914
867.8222518526115, 0.41030076069122745
869.4743304126955, 0.41030076069122745
871.1264089727792, 0.41094905286484407
872.778487532863, 0.41159734503846057
874.4305660929467, 0.41094905286484407
876.0826446530305, 0.4122456372120772
877.7347232131142, 0.4122456372120772
879.2491285598576, 0.4124617346032827
881.0388803332817, 0.4135422215593104
882.6909588933654, 0.41483880590654354
884.3430374534491, 0.41516295199335185
885.9951160135329, 0.41581124416696846
887.6471945736166, 0.4167836824273933
889.2992731337004, 0.4177561206878182
890.9513516937841, 0.418728558948243
892.6034302538678, 0.418728558948243
894.2555088139516, 0.42002514329547624
895.9075873740353, 0.42034928938228455
897.4219927207787, 0.42283440938114814
899.2117444942028, 0.4239148963371757
900.8638230542865, 0.424239042423984
902.5159016143703, 0.42488733459760064
904.167980174454, 0.42553562677121726
905.8200587345377, 0.4284529415524918
907.4721372946215, 0.43007367198653335
909.1242158547052, 0.43039781807334165
910.7762944147889, 0.4323426945941914
912.566046188213, 0.43277488937660236
914.2181247482968, 0.4340714737238356
915.7325300950401, 0.4370428128529116
917.2469354417838, 0.43839342154794625
919.0366872152076, 0.44044634676439864
920.6887657752914, 0.4423912232852485
922.3408443353751, 0.4436878076324816
923.9929228954588, 0.44628097632694796
925.6450014555426, 0.4491982911082226
927.2970800156263, 0.44984658328183924
929.0868317890504, 0.4509270702378668
930.6012371357938, 0.4530880441499221
932.2533156958775, 0.45454670154055943
933.9053942559615, 0.4566536511048134
935.6951460293853, 0.4587065763212659
937.0718781627886, 0.46086755023332115
938.8616299362127, 0.4628124267541709
940.5137084962964, 0.4631365728409792
942.1657870563802, 0.4641090111014041
943.8178656164639, 0.46605388762225386
945.4699441765476, 0.467350471969487
947.1220227366314, 0.4686470563167202
948.7741012967151, 0.4692953484903368
950.4261798567989, 0.47091607892437826
952.0782584168826, 0.47124022501118656
953.7303369769663, 0.47091607892437826
955.3824155370501, 0.47156437109799487
957.0344940971338, 0.4722126632716114
958.6865726572175, 0.4725368093584197
960.3386512173013, 0.4735092476188446
961.990729777385, 0.4744816858792694
963.6428083374688, 0.47512997805288604
965.2948868975525, 0.47642656240011927
966.9469654576362, 0.4777231467473524
968.59904401772, 0.4793438771813938
970.2511225778037, 0.47999216935501043
972.0408743512278, 0.48204509457146294
973.5552796979712, 0.4838819223967099
975.2073582580549, 0.48679923717798457
976.8594368181386, 0.4874475293516012
978.6491885915627, 0.48852801630762877
980.1635939383061, 0.49198557456691727
981.6779992850497, 0.4928499641317394
983.4677510584736, 0.4945787432613836
985.2575028318977, 0.4963075223910278
986.7719081786411, 0.4986305693464873
988.4239867387248, 0.5017099571711661
990.0760652988085, 0.502682395431591
991.7281438588923, 0.50381690673542
993.380222418976, 0.5059238562996738
995.0323009790598, 0.5088411710809485
996.6843795391435, 0.5102998284715858
998.1987848858871, 0.512298729340237
999.8508634459708, 0.5140275084698812
1001.6406152193949, 0.5179172615115808
1003.4303669928188, 0.5220231119444858
1002.8796741394576, 0.5179172615115808
1004.807099126222, 0.52375189107413
1006.7345241129863, 0.5248323780301576
1008.2489294597299, 0.5271554249856171
1009.9010080198136, 0.5303968858537
1011.5530865798974, 0.5344487119388037
1013.3428383533212, 0.538878708458517
1012.79214549996, 0.5347728580256119
1014.8572437000648, 0.5412557797617779
1016.5093222601486, 0.5444972406298607
1018.1614008202323, 0.5477387014979436
1019.9511525936564, 0.5511962597572322
1019.400459740295, 0.5477387014979436
1021.6032311537401, 0.5548699154077261
1023.2553097138239, 0.5604884475790698
1022.9799632871432, 0.554437720625315
1024.9073882739076, 0.5641621032295638
1024.3566954205462, 0.5607045449702753
1026.421793620651, 0.5665391745328245
1028.211545394075, 0.5719416093129628
1027.6608525407137, 0.5671874667064412
1029.8636239541588, 0.5745347780074292
1029.3129311007974, 0.5710772197481407
1031.3780293009022, 0.5773980684409024
1033.030107860986, 0.5817740406128145
1034.81985963441, 0.5881489136533775
1034.6821864210697, 0.5827464788732393
1036.4719381944938, 0.5931191536511047
1035.9212453411326, 0.5869603780017472
1038.1240167545775, 0.5972250040840097
1037.5733239012163, 0.5931191536511047
1039.6384221013209, 0.6002503675608871
1041.428173874745, 0.6056528023410253
1040.8774810213838, 0.6008986597345036
1042.9425792214884, 0.6068953623404572
1044.594657781572, 0.61013682320854
1046.2467363416558, 0.6132162110332189
1047.8988149017396, 0.6171059640749184
1049.5508934618233, 0.6198612058127888
1051.3406452352474, 0.6220762040726455
1052.8550505819908, 0.6242371779847008
1054.5071291420745, 0.6263441275489547
1056.2968809154986, 0.6294235153736334
1057.811286262242, 0.6315304649378874
1059.4633648223257, 0.6346098527625661
1061.1154433824095, 0.6362305831966076
1062.9051951558338, 0.6363386318922104
1064.4196005025772, 0.6378513136306491
1066.071679062661, 0.6381754597174574
1067.7237576227446, 0.6391478979778822
1069.3758361828284, 0.6397961901514988
1071.0279147429121, 0.6401203362383071
1072.6799933029959, 0.6417410666723486
1074.3320718630796, 0.641092774498732
1076.1218236365037, 0.6393639953690878
1077.636228983247, 0.6375271675438408
1079.1506343299905, 0.6356903397185938
1080.9403861034145, 0.6339615605889496
1082.7301378768386, 0.6313683918944832
1084.1068700102417, 0.629639612764839
1085.0705825036239, 0.6271544927659753
1086.5849878503673, 0.625965957114345
1087.6863735570898, 0.622724496246262
1089.2007789038332, 0.6229405936374677
1089.2007789038332, 0.6184025484221515
1090.852857463917, 0.6184025484221515
1090.852857463917, 0.6141886492936437
1092.3672628106603, 0.6127840162508078
1093.3309753040426, 0.6102988962519442
1094.9830538641263, 0.6093264579915193
1095.8090931441682, 0.6044642666893949
1096.63513242421, 0.6073815814706696
1097.5988449175923, 0.6013308545169147
1099.1132502643356, 0.6002503675608871
1098.9755770509953, 0.5944157379983378
1099.9392895443775, 0.5905259849566383
1100.7653288244194, 0.5944157379983378
1101.7290413178016, 0.5887972058269941
1103.243446664545, 0.5872845240885554
1103.243446664545, 0.5820981866996227
1104.2071591579272, 0.5775601414843066
1104.8955252246287, 0.5827464788732393
1105.859237718011, 0.5751830701810459
1107.235969851414, 0.5725899014865794
1108.3373555581366, 0.5687001484448799
1109.85176090488, 0.5678357588800578
1109.85176090488, 0.5632977136647417
1111.5038394649637, 0.5626494214911251
1111.3661662516233, 0.5568147919285759
1112.467551958346, 0.5529250388868763
1113.1559180250474, 0.558111376275809
1113.9819573050893, 0.5500077241056016
1114.9456697984715, 0.5453616301946829
1116.460075145215, 0.5444972406298607
1116.460075145215, 0.5399591954145446
1118.1121537052986, 0.5406074875881612
1118.1121537052986, 0.5354211501992285
1119.7642322653824, 0.5354211501992285
1119.7642322653824, 0.5302348128102958
1120.7279447587646, 0.5250484754213631
1121.416310825466, 0.5302348128102958
1122.242350105508, 0.5224553067268968
1123.8944286655917, 0.5218070145532803
1123.8944286655917, 0.5172689693379641
1125.5465072256754, 0.5179172615115807
1125.5465072256754, 0.512730924122648
1127.1985857857592, 0.5133792162962645
1127.1985857857592, 0.5081928789073319
1128.8506643458431, 0.5081928789073319
1128.8506643458431, 0.5030065415183993
1130.5027429059269, 0.5030065415183993
1130.5027429059269, 0.4981443502162749
1132.01714825267, 0.49695581456464444
1133.1185339593928, 0.493930451087767
1134.4952660927956, 0.4922016719581228
1135.5966517995184, 0.48852801630762877
1137.1110571462618, 0.4874475293516012
1137.1110571462618, 0.4829094841362851
1138.7631357063456, 0.4829094841362851
1138.7631357063456, 0.4780472928341607
1140.277541053089, 0.4766426597913248
1141.2412535464712, 0.4738333937056529
1142.7556588932146, 0.4721046145760087
1143.8570445999371, 0.4692953484903368
1145.3714499466805, 0.4686470563167202
1145.3714499466805, 0.4641090111014041
1146.885855293424, 0.46259632936296535
1148.5379338535076, 0.46129974501573223
1149.6393195602302, 0.45740999197403265
1151.0160516936332, 0.45676169980041603
1152.1174374003558, 0.45330414154112764
1153.4941695337588, 0.45222365458509994
1154.5955552404814, 0.44941438849942816
1155.9722873738845, 0.44811780415219504
1157.073673080607, 0.4455246354577287
1158.5880784273504, 0.44466024589290654
1160.1024837740938, 0.44314756415446777
1161.2038694808164, 0.43947390850397383
1162.8559480409, 0.43839342154794625
1164.5080266009838, 0.437096837200713
1165.8847587343869, 0.4351519606798633
1166.848471227769, 0.4323426945941914
1168.6382230011932, 0.4308300128557526
1170.0149551345962, 0.4295334285085195
1171.8047069080203, 0.4284529415524918
1173.3191122547637, 0.42629196764043653
1174.282824748146, 0.424239042423984
1175.9349033082297, 0.42521148068440895
1177.7246550816537, 0.42283440938114814
1179.1013872150568, 0.4211056302515038
1180.065099708439, 0.4190527050350513
1181.7171782685227, 0.42002514329547624
1183.3692568286065, 0.41937685112185963
1185.0213353886902, 0.418728558948243
1186.673413948774, 0.4180802667746264
1188.3254925088577, 0.41645953634058486
1189.9775710689414, 0.41548709808016004
1191.6296496290252, 0.41516295199335174
1193.2817281891091, 0.41483880590654343
1194.9338067491929, 0.4138663676461185
1196.5858853092766, 0.4135422215593103
1198.2379638693603, 0.4128939293856937
1199.890042429444, 0.41192149112526877
1201.5421209895278, 0.41159734503846046
1203.1941995496115, 0.41159734503846046
1204.8462781096953, 0.4122456372120771
1206.498356669779, 0.41127319895165226
1208.1504352298628, 0.41062490677803565
1209.8025137899465, 0.41062490677803565
1211.4545923500302, 0.41094905286484396
1213.106670910114, 0.41094905286484396
1214.7587494701977, 0.41094905286484396
1216.4108280302814, 0.41030076069122734
1218.0629065903652, 0.41030076069122734
1219.714985150449, 0.40997661460441903
1221.3670637105326, 0.4093283224308024
1223.0191422706164, 0.4096524685176107
1224.6712208307001, 0.4093283224308024
1226.3232993907839, 0.4093283224308024
1227.9753779508676, 0.4096524685176107
1229.6274565109513, 0.4093283224308024
1231.279535071035, 0.4090041763439941
1232.9316136311188, 0.4090041763439941
1234.5836921912025, 0.4096524685176107
1236.2357707512863, 0.4093283224308024
1237.88784931137, 0.4090041763439941
1239.5399278714538, 0.4096524685176107
1241.1920064315375, 0.41030076069122734
1242.8440849916215, 0.4093283224308024
1244.4961635517052, 0.4090041763439941
1246.148242111789, 0.4090041763439941
1247.8003206718727, 0.4080317380835693
1249.4523992319564, 0.4093283224308024
