250.7709096613337, 0.18242606166499753
252.56066143475778, 0.18404679209903907
252.0099685813965, 0.1808053312309561
254.0750667815012, 0.18339849992542245
255.72714534158493, 0.18356057296882655
257.3792239016687, 0.18501923035946388
259.03130246175243, 0.1863158147066971
260.5457078084959, 0.18815264253194408
262.4731327952602, 0.18901703209676624
263.98753814200364, 0.18955727557477997
265.7772899154277, 0.1916102007912326
267.1540220488308, 0.19333897992087667
268.9437738222549, 0.19409532079009617
270.59585238233865, 0.1953919051373293
272.2479309424224, 0.19701263557137072
273.9000095025061, 0.19863336600541226
275.4144148492495, 0.1998219016570426
277.3418398360139, 0.20068629122186477
278.85624518275733, 0.2012265346998786
280.50832374284107, 0.20300933817732414
282.1604023029248, 0.2054404338283864
283.81248086300855, 0.2057645799151947
285.326886209752, 0.20565653121959182
286.29059870313415, 0.20317141122072835
287.25431119651637, 0.20695311556682505
288.9063897566001, 0.21041067382611356
288.3556969032388, 0.206088726002003
290.55846831668384, 0.21278774512937426
290.0077754633226, 0.20933018687008587
292.0728736634273, 0.21224750165136053
293.724952223511, 0.21257164773816883
295.37703078359476, 0.21224750165136053
297.0291093436785, 0.2151648164326352
298.68118790376224, 0.21727176599688902
300.333266463846, 0.21905456947433466
302.12301823727, 0.217541887735896
303.6374235840135, 0.21808213121390985
305.1518289307569, 0.21948676425674574
306.941580704181, 0.2206752999083762
308.5936592642647, 0.22002700773475958
310.38341103768875, 0.22143164077759558
312.0354895977725, 0.2227282251248287
313.5498949445159, 0.22262017642922594
315.20197350459966, 0.22262017642922594
316.7163788513431, 0.22316041990723967
318.50613062476714, 0.22456505295007567
320.1582091848509, 0.22683407555773372
321.94796095827496, 0.22575358860170602
323.46236630501835, 0.2252133451236923
325.25211807844244, 0.22532139381929506
326.7665234251858, 0.2263478564275213
328.4186019852696, 0.2265099294709254
330.07068054535335, 0.22683407555773372
331.8604323187774, 0.22661797816652818
333.37483766552083, 0.2265099294709254
335.02691622560457, 0.22845480599177515
336.541321572348, 0.23093992599063873
338.3310733457721, 0.23234455903347473
339.98315190585583, 0.23299285120709123
341.77290367927986, 0.23374919207631073
343.2873090260233, 0.2354239468581535
344.93938758610705, 0.23720675033559913
346.7291393595311, 0.2369906529443936
348.2435447062745, 0.23850333468283225
350.0332964796986, 0.23893552946524332
351.547701826442, 0.23996199207346958
353.19978038652573, 0.24239308772453183
354.7141857332692, 0.2421769903333263
356.64161072003355, 0.2421769903333263
358.15601606677694, 0.24320345294155254
359.8080946268607, 0.24514832946240228
361.59784640028477, 0.247363327722259
363.1122517470282, 0.24887600946069766
364.90200352045224, 0.24865991206949212
366.4164088671957, 0.24984844772112247
367.93081421393913, 0.25168527554636944
369.7205659873632, 0.25308990858920544
371.2349713341066, 0.2553589311968635
373.0247231075307, 0.2569796616309049
374.6768016676144, 0.25827624597813814
376.46655344103846, 0.26032917119459076
377.9809587877819, 0.2615177068462211
379.63303734786564, 0.26330051032366664
381.4227891212897, 0.26551550858352335
383.07486768137346, 0.2668120929307566
384.58927302811685, 0.26848684771259934
386.2413515882006, 0.26994550510323667
387.8934301482843, 0.2712420894504699
389.54550870836806, 0.27383525814493614
391.1975872684518, 0.2761042807525943
392.8496658285356, 0.27885952249046475
394.6394176019596, 0.28107452075032147
396.29149616204336, 0.2823711050975546
397.8059015087868, 0.28404585987939746
399.45798006887054, 0.2859907364002472
401.11005862895433, 0.28890805118152185
402.76213718903807, 0.2911770737891799
404.4142157491218, 0.29328402335343373
406.20396752254584, 0.29533694856988635
407.85604608262963, 0.29663353291711947
409.370451429373, 0.29814621465555813
411.02252998945676, 0.29847036074236644
412.6746085495405, 0.3017118216104494
414.32668710962423, 0.3072223050861904
414.32668710962423, 0.302360113784066
415.8410924563676, 0.3061418181301627
417.76851744313205, 0.3070062076949849
419.28292278987544, 0.30884303552023185
420.9350013499592, 0.311274131171294
422.5870799100429, 0.31370522682235624
424.23915847012665, 0.316784614647035
426.02891024355074, 0.32018814855852207
425.4782173901895, 0.3169466876904392
427.5433155902942, 0.3214847329057553
429.1953941503779, 0.3214847329057553
430.84747271046166, 0.3221330250793718
432.63722448388575, 0.3262388755122768
432.08653163052446, 0.3221330250793718
434.2893030439695, 0.32991253116277086
433.7386101906082, 0.3253744859474548
435.80370839071287, 0.3308849694231958
437.45578695079666, 0.33347813811766214
439.1078655108804, 0.33477472246489526
440.75994407096414, 0.3372058181159575
442.4120226310479, 0.33866447550659484
444.0641011911316, 0.34044727898404037
445.8538529645557, 0.34352666680871924
445.3031601111944, 0.34028520594063627
447.3682583112991, 0.34514739724276067
449.0203368713828, 0.3479026389806311
450.67241543146656, 0.35000958854488506
452.18682077821, 0.35152227028332383
453.9765725516341, 0.3524406841959472
455.7663243250581, 0.3558442181074344
455.2156314716969, 0.3519544650657348
457.28072967180157, 0.3577890946282841
458.9328082318853, 0.36005811723594217
460.7225600053094, 0.36146275027877806
462.2369653520528, 0.36362372419083333
464.02671712547686, 0.36945835375338265
463.4760242721156, 0.36427201636444995
465.6787956855606, 0.3726998146214656
465.1281028321993, 0.3681617694061494
467.193201032304, 0.37367225288189043
468.8452795923877, 0.3761033485329527
470.4973581524715, 0.37853444418401483
472.28710992589555, 0.38372078157294753
472.14943671255526, 0.37853444418401483
473.9391884859793, 0.38890711896188024
473.66384205929864, 0.3824241972257143
475.591267046063, 0.3921485798299631
475.0405741927018, 0.387610534614647
477.2433456061468, 0.3960383328716627
476.69265275278553, 0.3921485798299631
478.89542416623055, 0.39819930678371795
478.34473131286927, 0.39474174852442945
480.40982951297394, 0.39992808591336215
482.0619080730577, 0.4057627154759115
482.0619080730577, 0.4009005241737871
483.85165984648177, 0.4077075919967612
483.3009669931205, 0.40381783895506174
485.36606519322515, 0.40868003025718613
487.01814375330895, 0.4112731989516525
488.6702223133927, 0.41354222155931053
490.3223008734764, 0.41354222155931053
491.97437943356016, 0.41483880590654365
493.76413120698425, 0.4146227085153381
495.27853655372763, 0.41451465981973534
496.93061511381137, 0.41564917112356436
498.4450204605548, 0.41591929286257123
499.408732953937, 0.4138663676461187
500.9231383006804, 0.41311002677689945
501.8868507940626, 0.40868003025718613
502.7128900741045, 0.4122456372120773
503.67660256748667, 0.40619491025832244
505.1910079142301, 0.4057627154759115
505.3286811275704, 0.39927979373974565
506.84308647431385, 0.4012246702605954
506.7054132609735, 0.39582223548045714
508.4951650343976, 0.39603833287166257
508.4951650343976, 0.39117614156953817
509.4588775277798, 0.3876105346146469
510.1472435944813, 0.39409345635081283
511.11095608786354, 0.38674614504982474
510.9732828745232, 0.3814517589652894
512.6253614346069, 0.38501736592018054
512.6253614346069, 0.37983102853124795
512.6253614346069, 0.37529298331593175
514.2774399946907, 0.3778861520103981
514.2774399946907, 0.3726998146214655
514.2774399946907, 0.3684859154929576
515.9295185547744, 0.3714032302742323
515.9295185547744, 0.36621689288529957
515.9295185547744, 0.3616788476699835
517.5815971148581, 0.36556860071168296
517.5815971148581, 0.36038226332275036
517.5815971148581, 0.35552007202062597
519.2336756749419, 0.3584373868019005
519.2336756749419, 0.3532510494129679
519.2336756749419, 0.34903715028446003
520.8857542350256, 0.3519544650657347
520.7480810216853, 0.3461198355031855
521.8494667284078, 0.3411495955054582
522.5378327951094, 0.346768127676802
523.5015452884916, 0.33963691376701954
523.3638720751512, 0.33380228420447033
525.015950635235, 0.3370437450725532
524.8782774218946, 0.33099301811879844
525.9796631286172, 0.32537448594745466
526.6680291953187, 0.331209115510004
527.6317416887009, 0.3245100963826326
527.4940684753606, 0.31921571029809714
529.1461470354443, 0.3221330250793717
529.1461470354443, 0.3169466876904391
529.1461470354443, 0.3127327885619312
530.798225595528, 0.3162983955168225
530.6605523821878, 0.3106798633454787
532.4503041556118, 0.30932925465044414
533.9647095023553, 0.30808669465101235
535.0660952090777, 0.30462913639172395
536.5805005558212, 0.3059257207389571
536.5805005558212, 0.3010635294368327
538.0949059025646, 0.30052328595881894
539.1962916092871, 0.29836231204676356
540.5730237426902, 0.29771401987314694
541.6744094494128, 0.2951208511786806
543.1888147961562, 0.2963634111781125
544.8408933562399, 0.2965254842215166
546.3552987029834, 0.29533694856988624
548.1450504764074, 0.29555304596109166
549.9348022498315, 0.29447255900506397
551.449207596575, 0.29539097291768757
553.238959369999, 0.29879450682917463
552.6882665166377, 0.29425646161385854
554.6156915034021, 0.2996588963939967
556.4054432768262, 0.30073938335002437
558.0575218369099, 0.30041523726321606
559.7096003969937, 0.3020359676972576
561.3616789570774, 0.3017118216104493
563.0137575171611, 0.3020359676972576
564.6658360772449, 0.3017118216104493
566.1802414239883, 0.30181987030605206
567.832319984072, 0.3009554807412299
568.7960324774542, 0.2971737763951332
569.6220717574961, 0.30073938335002437
570.5857842508783, 0.2951208511786806
571.9625163842813, 0.29382426683144747
573.0639020910039, 0.29036670857215907
574.440634224407, 0.2882057346601038
575.5420199311295, 0.2847481764008153
577.0564252778729, 0.28518037118322637
577.0564252778729, 0.2806423259679103
578.5708306246163, 0.2802101311854991
579.6722163313389, 0.27696867031741623
581.1866216780822, 0.2767525729262107
581.1866216780822, 0.2718903816240863
582.838700238166, 0.2728628198845112
582.838700238166, 0.2676764824955785
583.8024127315482, 0.26335453467146785
584.4907787982497, 0.26962135901642825
585.4544912916319, 0.2622740477154404
585.3168180782916, 0.2566555155440966
586.9688966383753, 0.25924868423856295
586.831223425035, 0.25341405467601363
587.7949359184172, 0.24920015554750585
588.6209751984591, 0.25341405467601363
589.5846876918413, 0.24844381467828647
590.4107269718832, 0.24239308772453172
591.0990930385847, 0.2475794251134643
592.0628055319669, 0.24152869815970957
593.5772108787103, 0.2410965033772985
593.5772108787103, 0.23591016598836578
594.5409233720925, 0.23158821816425523
595.229289438794, 0.23720675033559901
596.1930019321762, 0.23007553642581657
597.5697340655795, 0.22813065990496673
598.6711197723018, 0.22467310164567833
600.1855251190453, 0.22488919903688387
600.1855251190453, 0.21970286164795116
601.6999304657888, 0.21862237469192347
602.8013161725112, 0.21559701121504615
604.1780483059144, 0.21365213469419642
605.2794340126368, 0.21149116078214103
606.65616614604, 0.2112750633909355
607.7575518527624, 0.20738531034923602
609.2719571995059, 0.20803360252285263
609.2719571995059, 0.20317141122072824
610.7863625462494, 0.20306336252512536
611.8877482529717, 0.19938970687463153
613.4021535997152, 0.19960580426583696
614.9165589464587, 0.19787702513619276
616.0179446531811, 0.19549995383293195
617.5323499999247, 0.1957160512241375
617.5323499999247, 0.1918262981824379
619.1844285600084, 0.19312288252967114
620.8365071200922, 0.1915021520956297
622.3509124668356, 0.19161020079123248
623.3146249602178, 0.18955727557477986
624.8290303069612, 0.18901703209676612
626.4811088670449, 0.187720447749533
627.4448213604271, 0.1856675225330804
628.9592267071705, 0.18555947383747762
630.8866516939348, 0.18555947383747762
632.4010570406783, 0.18534337644627208
634.0531356007621, 0.18534337644627208
635.7052141608458, 0.18534337644627208
637.3572927209295, 0.18534337644627208
639.0093712810133, 0.18534337644627208
640.661449841097, 0.1866399607935053
642.3135284011807, 0.1866399607935053
643.9656069612645, 0.186315814706697
645.480012308008, 0.18685605818471074
647.269764081432, 0.18728825296712182
648.9218426415157, 0.1866399607935053
650.5739212015994, 0.1866399607935053
652.2259997616832, 0.1866399607935053
653.8780783217669, 0.18728825296712182
655.5301568818506, 0.18761239905393012
657.0445622285941, 0.18815264253194397
658.8343140020181, 0.18923312948797166
660.4863925621019, 0.18923312948797166
662.2761443355259, 0.18901703209676612
663.7905496822693, 0.19020556774839648
665.4426282423532, 0.1915021520956297
666.9570335890967, 0.19161020079123248
668.7467853625207, 0.1915021520956297
670.2611907092642, 0.19333897992087656
672.0509424826881, 0.19441946687690426
673.7030210427719, 0.19474361296371256
675.3550996028556, 0.1958781242675416
677.0071781629393, 0.19733678165817892
678.5215835096828, 0.19852531730980927
680.3113352831068, 0.19960580426583696
681.9634138431907, 0.19960580426583696
683.6154924032744, 0.19992995035264527
685.2675709633581, 0.2017127538300909
686.9196495234419, 0.201874826873495
688.5717280835256, 0.20300933817732403
690.2238066436094, 0.20284726513391993
691.8758852036931, 0.20463006861136557
693.3902905504365, 0.2060887260020029
695.1800423238606, 0.20738531034923602
696.8321208839443, 0.20738531034923602
698.484199444028, 0.20738531034923602
699.9986047907714, 0.20760140774044145
701.6506833508552, 0.20889799208767468
703.4404351242792, 0.20997847904370237
705.092513684363, 0.210626771217319
706.6069190311064, 0.21149116078214103
708.3966708045305, 0.21257164773816872
710.0487493646142, 0.2109509173041273
711.7008279246979, 0.2109509173041273
713.2152332714413, 0.21278774512937415
715.0049850448654, 0.21386823208540184
716.6570636049491, 0.21386823208540184
718.3091421650329, 0.21386823208540184
720.098893938457, 0.21365213469419642
721.6132992852004, 0.21354408599859354
723.2653778452841, 0.21386823208540184
724.9174564053678, 0.21386823208540184
726.5695349654516, 0.21386823208540184
728.2216135255353, 0.21386823208540184
729.873692085619, 0.21386823208540184
731.3880974323627, 0.21408432947660738
733.0401759924464, 0.21494871904142954
734.1415616991687, 0.2130038425205798
735.6559670459121, 0.21386823208540184
737.3080456059959, 0.21386823208540184
738.9601241660798, 0.21386823208540184
740.6122027261636, 0.21386823208540184
742.126608072907, 0.21235555034696318
743.916359846331, 0.21257164773816872
745.5684384064148, 0.21257164773816872
747.2205169664985, 0.21257164773816872
748.8725955265822, 0.21257164773816872
750.524674086666, 0.2115992094777438
752.1767526467497, 0.210626771217319
753.8288312068335, 0.20997847904370237
755.4809097669172, 0.20835774860966094
757.1329883270009, 0.20868189469646914
758.7850668870847, 0.20868189469646914
760.4371454471684, 0.20770945643604433
762.2268972205925, 0.20630482339320833
763.7413025673359, 0.2057645799151946
765.2557079140793, 0.20630482339320833
767.1831329008437, 0.2060887260020029
768.5598650342467, 0.20457604426356424
769.6612507409693, 0.20176677817789224
771.0379828743723, 0.20198287556909789
772.8277346477964, 0.2015506807866867
774.4798132078802, 0.20057824252626189
776.1318917679639, 0.20057824252626189
777.6462971147073, 0.19938970687463153
779.298375674791, 0.1980931225273983
780.3997613815136, 0.19614824600654857
781.914166728257, 0.19522983209392508
783.4285720750004, 0.19398727209449318
784.5299577817229, 0.1922584929648491
786.0443631284663, 0.19279873644286283
787.6964416885501, 0.19279873644286283
789.2108470352937, 0.19161020079123248
791.0005988087175, 0.1911780060088214
792.7903505821416, 0.1894492268791771
794.1670827155449, 0.18880093470556047
795.2684684222672, 0.1859916686198887
796.7828737690106, 0.186315814706697
798.4349523290944, 0.186315814706697
800.0870308891781, 0.18501923035946377
801.8767826626022, 0.18426288949024439
803.2535147960054, 0.18383069470783342
805.0432665694295, 0.18404679209903896
806.6953451295133, 0.18404679209903896
808.347423689597, 0.18307435383861403
809.9995022496807, 0.18275020775180573
811.6515808097645, 0.1821019155781891
813.3036593698482, 0.18242606166499742
814.955737929932, 0.18275020775180573
816.6078164900157, 0.18275020775180573
818.1222218367591, 0.18296630514301127
819.9119736101832, 0.18404679209903896
821.5640521702669, 0.18404679209903896
823.2161307303506, 0.18372264601223065
825.0058825037747, 0.18426288949024439
826.3826146371778, 0.18383069470783342
828.1723664106019, 0.18534337644627208
829.8244449706856, 0.18534337644627208
831.4765235307693, 0.18501923035946377
833.1286020908531, 0.18501923035946377
834.9183538642772, 0.18512727905506665
836.4327592110205, 0.18501923035946377
838.0848377711043, 0.18501923035946377
839.5992431178477, 0.18555947383747762
841.3889948912718, 0.1866399607935053
843.0410734513555, 0.1866399607935053
844.6931520114392, 0.18728825296712182
846.345230571523, 0.18793654514073843
847.9973091316067, 0.18761239905393012
849.7870609050308, 0.187720447749533
851.3014662517742, 0.18923312948797166
852.9535448118579, 0.18890898340116336
854.6056233719416, 0.19020556774839648
856.2577019320254, 0.1918262981824379
857.9097804921091, 0.1918262981824379
859.5618590521929, 0.1918262981824379
861.351610825617, 0.19161020079123248
863.0036893857007, 0.1929067851384656
864.5180947324441, 0.19441946687690426
866.1701732925278, 0.19506775905052087
867.9599250659519, 0.19549995383293195
869.4743304126955, 0.1965264164411582
871.2640821861194, 0.1980931225273983
872.778487532863, 0.19960580426583696
874.5682393062868, 0.19938970687463153
876.0826446530305, 0.20041616948285768
877.7347232131142, 0.2021989729603033
879.3868017731979, 0.201874826873495
881.1765535466218, 0.203279459916331
882.6909588933654, 0.20479214165476967
884.4807106667893, 0.20544043382838628
885.9951160135329, 0.2064128720888111
887.6471945736166, 0.20835774860966094
889.2992731337004, 0.21014055208710647
890.9513516937841, 0.2115992094777438
892.6034302538678, 0.21289579382497703
894.2555088139516, 0.2159751816496558
895.9075873740353, 0.21743383904029312
897.6973391474594, 0.21883847208312912
899.2117444942028, 0.22035115382156778
900.8638230542865, 0.22294432251603413
902.5159016143703, 0.22553749121050037
904.167980174454, 0.22764444077475432
905.8200587345377, 0.23072382859943308
907.6098105079618, 0.23396528946751605
907.0591176546006, 0.23007553642581657
908.9865426413648, 0.23591016598836578
910.7762944147889, 0.23834126163942804
912.566046188213, 0.24239308772453172
912.0153533348519, 0.23850333468283214
914.0804515349564, 0.24368967207176484
915.7325300950401, 0.24579662163601879
917.3846086551239, 0.24871393641729334
919.174360428548, 0.25298185989360256
918.6236675751868, 0.24822771728708093
920.8264389886317, 0.25600722337048
920.2757461352705, 0.2521174703287804
922.4785175487154, 0.25989697641217946
921.9278246953543, 0.25600722337048
923.9929228954588, 0.2613556338028168
925.6450014555426, 0.26427294858409145
927.2970800156263, 0.2660557520615371
928.94915857571, 0.26848684771259923
930.6012371357938, 0.2709179433636615
932.3909889092179, 0.2754559885789776
931.8402960558567, 0.271566235537278
934.0430674693016, 0.27869744944706043
933.4923746159404, 0.27415940423174434
935.5574728160452, 0.2806423259679103
937.3472245894691, 0.28453207900960975
936.7965317361079, 0.2806423259679103
938.8616299362127, 0.2855045172700347
940.5137084962964, 0.28890805118152174
942.1657870563802, 0.29052878161556317
943.8178656164639, 0.29409438857045445
945.4699441765476, 0.2968496303083249
947.1220227366314, 0.29944279900279125
948.7741012967151, 0.3020359676972576
950.2885066434585, 0.3048452337829294
952.0782584168826, 0.3070602320427861
953.8680101903067, 0.31046376595427316
953.3173173369453, 0.3065740129125737
955.3824155370501, 0.312408642475123
957.1721673104742, 0.3165144929080279
956.6214744571128, 0.3117603503015064
958.8242458705579, 0.31889156421128884
958.2735530171965, 0.31565010334320587
960.3386512173013, 0.32018814855852196
961.990729777385, 0.32035022160192617
963.7804815508091, 0.32429399899142697
963.2297886974477, 0.3208364407321386
965.2948868975525, 0.3266710702946879
967.0846386709766, 0.331209115510004
966.5339458176154, 0.3266710702946879
968.59904401772, 0.3331539920308537
970.2511225778037, 0.33526094159510766
971.9032011378874, 0.3373678911593615
973.5552796979712, 0.34077142507084857
975.2073582580549, 0.3417438633312735
976.8594368181386, 0.3436887398521232
978.5115153782224, 0.34563361637297296
980.1635939383061, 0.3477405659372269
981.8156724983899, 0.35017166158828905
983.4677510584736, 0.3521165381091389
984.9821564052172, 0.35411543897778996
986.7719081786411, 0.35552007202062597
988.4239867387248, 0.35616836419424247
990.2137385121489, 0.35692470506346186
991.7281438588923, 0.3581132407150923
993.2425492056359, 0.35930177636672267
995.1699741924001, 0.3601661659315447
996.8220527524838, 0.36211104245239456
998.4741313125676, 0.36492030853806645
997.9234384592064, 0.36103055549636687
999.9885366593112, 0.3668651850589162
999.9885366593112, 0.3623271398436001
1001.5029420060546, 0.36383982158203876
1002.4666544994368, 0.3616788476699835
1003.2926937794787, 0.36556860071168296
1004.9447723395624, 0.36556860071168296
1006.5968508996461, 0.36556860071168296
1008.2489294597299, 0.36556860071168296
1009.9010080198136, 0.36556860071168296
1011.5530865798974, 0.3668651850589162
1013.3428383533212, 0.3657846981028886
1014.9949169134052, 0.3644881137556554
1016.5093222601486, 0.36427201636444984
1018.2990740335727, 0.3629754320172167
1019.6758061669757, 0.36146275027877794
1021.3278847270594, 0.3601661659315447
1023.2553097138239, 0.3601661659315447
1024.632041847227, 0.3601661659315447
1025.7334275539495, 0.35800519201948955
1027.1101596873525, 0.35735689984587293
1028.0738721807347, 0.35552007202062597
1029.7259507408185, 0.35470970680360514
1031.2403560875618, 0.35346714680417346
1032.3417417942844, 0.35065788071850157
1033.9938203543682, 0.3502256859360905
1035.3705524877712, 0.3497934911536794
1036.4719381944938, 0.3478486146328297
1037.8486703278968, 0.3472003224592132
1038.9500560346194, 0.34439105637354117
1040.4644613813628, 0.34547154332956886
1040.4644613813628, 0.3409334981142528
1041.9788667281061, 0.3405013033318416
1043.0802524348287, 0.3374759398549644
1044.4569845682317, 0.3366115502901421
1045.5583702749543, 0.33401838159567576
1047.0727756216977, 0.33509886855170345
1047.0727756216977, 0.33056082333638737
1048.587180968441, 0.33099301811879844
1049.6885666751637, 0.327967654641921
1051.202972021907, 0.327967654641921
1051.202972021907, 0.3234296094266049
1052.8550505819908, 0.32472619377383805
1052.8550505819908, 0.32051229464533026
1054.3694559287342, 0.32126863551454965
1055.4708416354567, 0.31781107725526114
1056.9852469822001, 0.31889156421128884
1056.9852469822001, 0.31467766508278106
1058.6373255422839, 0.31565010334320587
1058.6373255422839, 0.3111120581278898
1060.2894041023676, 0.312408642475123
1060.2894041023676, 0.3078705972598068
1061.803809449111, 0.30700620769498477
1063.4558880091947, 0.30570962334775165
1064.5572737159175, 0.3031164546532853
1065.9340058493203, 0.3016037729148465
1067.0353915560431, 0.29836231204676356
1068.5497969027865, 0.298146214655558
1068.5497969027865, 0.29393231552705024
1070.0642022495297, 0.29382426683144747
1071.1655879562525, 0.2912310981369811
1072.6799933029959, 0.28988048944194655
1074.1943986497392, 0.28907012422492584
1075.2957843564618, 0.2860447607480484
1076.6725164898648, 0.28496427379202083
1077.7739021965874, 0.2819389103151434
1079.1506343299905, 0.28215500770634894
1080.252020036713, 0.27869744944706043
1081.7664253834564, 0.2780491572734439
1081.7664253834564, 0.27351111205812784
1083.4185039435401, 0.27480769640536096
1083.4185039435401, 0.2709179433636615
1084.9329092902835, 0.27070184597245595
1086.860334277048, 0.26962135901642825
1088.237066410451, 0.26789257988678405
1089.3384521171736, 0.2646511190187011
1090.7151842505766, 0.2635706320626735
1091.8165699572992, 0.260113073803385
1093.1933020907022, 0.25968087902097403
1094.845380650786, 0.2577360025001243
1095.9467663575085, 0.2555750285880689
1097.3234984909116, 0.2549267364144523
1098.4248841976341, 0.2521174703287804
1099.9392895443775, 0.2511450320683556
1101.7290413178016, 0.25017259380793067
1103.3811198778853, 0.24779552250466985
1104.8955252246287, 0.24595869467942288
1106.4099305713721, 0.24477015902779253
1107.5113162780947, 0.2428252825069428
1108.8880484114977, 0.24239308772453172
1109.9894341182203, 0.23979991903006537
1111.641512678304, 0.23742284772680444
1113.018244811707, 0.23699065294439348
1114.1196305184296, 0.23439748424992712
1115.4963626518327, 0.23288480251148835
1116.5977483585552, 0.23050773120822765
1117.9744804919583, 0.22985943903461103
1118.9381929853405, 0.2271582216445419
1120.7279447587646, 0.22705017294893903
1122.242350105508, 0.2268340755577336
1123.8944286655917, 0.22586163729730868
1125.408834012335, 0.22402480947206183
1126.510219719058, 0.22186383556000644
1128.024625065801, 0.22229603034241752
1128.024625065801, 0.21808213121390974
1129.8143768392254, 0.21797408251830686
1131.3287821859687, 0.21775798512710143
1132.843187532712, 0.21624530338866277
1133.9445732394347, 0.21343603730299077
1135.458978586178, 0.2119233555645521
1136.9733839329215, 0.21041067382611345
1138.6254624930052, 0.2084657973052637
1140.4152142664293, 0.20868189469646914
1142.067292826513, 0.2070611642624277
1143.7193713865968, 0.20560250687179038
1145.2337767333402, 0.20457604426356424
1146.1974892267224, 0.20252311904711162
1147.8495677868061, 0.201874826873495
1149.5016463468899, 0.2021989729603033
1151.291398120314, 0.20003799904824804
1152.8058034670573, 0.19911958513562455
1154.5955552404814, 0.19722873296257615
1156.1099605872248, 0.1965264164411582
1157.7620391473085, 0.19539190513732918
1159.4141177073923, 0.19539190513732918
1160.9285230541357, 0.19549995383293195
1161.8922355475179, 0.19344702861647944
1163.5443141076016, 0.19279873644286283
1165.1963926676854, 0.19312288252967114
1166.9861444411094, 0.19204239557364344
1168.5005497878528, 0.1918262981824379
1170.1526283479366, 0.1918262981824379
1171.8047069080203, 0.1908538599220131
1173.5944586814444, 0.1894492268791771
1174.9711908148474, 0.18901703209676612
1176.7609425882715, 0.18923312948797166
1178.4130211483553, 0.18923312948797166
1180.065099708439, 0.18923312948797166
1181.7171782685227, 0.18858483731435505
1183.3692568286065, 0.18793654514073843
1185.0213353886902, 0.18858483731435505
1186.8110871621145, 0.18685605818471063
1188.3254925088577, 0.1866399607935052
1189.9775710689414, 0.1866399607935052
1191.6296496290252, 0.1866399607935052
1193.2817281891091, 0.1866399607935052
1194.9338067491929, 0.18501923035946366
1196.4482120959362, 0.1855594738374775
1198.2379638693603, 0.1866399607935052
1199.7523692161037, 0.18512727905506654
1201.5421209895278, 0.18534337644627197
1203.331872762952, 0.18512727905506654
1204.8462781096953, 0.18501923035946366
1206.6360298831194, 0.18512727905506654
1208.1504352298628, 0.1866399607935052
1209.8025137899465, 0.1866399607935052
1211.4545923500302, 0.1866399607935052
1213.2443441234543, 0.1855594738374775
1214.7587494701977, 0.18501923035946366
1216.273154816941, 0.1855594738374775
1218.2005798037055, 0.1855594738374775
1219.5773119371086, 0.1855594738374775
1221.3670637105326, 0.1866399607935052
1223.0191422706164, 0.1866399607935052
1224.8088940440405, 0.1855594738374775
1226.1856261774435, 0.1855594738374775
1227.9753779508676, 0.1866399607935052
1229.6274565109513, 0.1866399607935052
1231.279535071035, 0.1863158147066969
1232.7939404177785, 0.18642386340229966
1234.5836921912025, 0.1866399607935052
1236.2357707512863, 0.1866399607935052
1237.88784931137, 0.1872882529671217
1239.5399278714538, 0.18793654514073832
1241.1920064315375, 0.18761239905393
1242.8440849916215, 0.1872882529671217
1244.4961635517052, 0.1872882529671217
1245.7352224717679, 0.1872882529671217
