250.08254359463217, 0.0734049278018083
251.59694894137556, 0.07448541475783599
251.18392930135462, 0.07124395388975302
253.111354288119, 0.07232444084578071
254.2127399948415, 0.07016346693372533
255.72714534158493, 0.07075773475954061
257.24155068832835, 0.07275663562819168
259.03130246175243, 0.07383712258421937
260.68338102183617, 0.07643029127868572
262.3354595819199, 0.07545785301826091
264.12521135534394, 0.0762141938874803
265.6396167020874, 0.07902345997315208
267.1540220488308, 0.08096833649400181
268.9437738222549, 0.08323735910165986
270.59585238233865, 0.08615467388293452
272.2479309424224, 0.08809955040378425
273.9000095025061, 0.08680296605655113
275.55208806258986, 0.08745125823016775
277.2041666226736, 0.08874784257740087
278.85624518275733, 0.0903685730114423
280.50832374284107, 0.09166515735867553
282.1604023029248, 0.09263759561910045
283.67480764966825, 0.0935019851839225
285.4645594230923, 0.0952307643135667
286.9789647698357, 0.09609515387838885
288.76871654325976, 0.09879637126845797
290.42079510334355, 0.10171368604973263
292.0728736634273, 0.10333441648377406
293.724952223511, 0.10430685474419898
295.37703078359476, 0.10333441648377406
297.0291093436785, 0.10625173126504872
298.68118790376224, 0.10722416952547353
300.333266463846, 0.10819660778589846
301.9853450239297, 0.1104656303935565
303.77509679735374, 0.11122197126277589
305.28950214409724, 0.11305879908802285
306.941580704181, 0.11370709126163947
308.5936592642647, 0.11273465300121455
310.24573782434845, 0.11273465300121455
311.8978163844322, 0.11273465300121455
313.5498949445159, 0.11467952952206428
315.20197350459966, 0.11597611386929751
316.8540520646834, 0.11597611386929751
318.50613062476714, 0.11662440604291413
320.1582091848509, 0.11694855212972233
321.8102877449346, 0.11630025995610582
323.46236630501835, 0.11694855212972233
325.1144448651021, 0.11662440604291413
326.7665234251858, 0.11662440604291413
328.4186019852696, 0.11727269821653064
330.20835375869365, 0.11770489299894182
331.5850858920968, 0.11943367212858591
333.37483766552083, 0.12116245125823022
334.8892430122643, 0.12202684082305226
336.8166679990286, 0.12418781473510765
338.3310733457721, 0.12472805821312138
339.98315190585583, 0.12732122690758774
341.63523046593957, 0.12861781125482097
343.2873090260233, 0.12959024951524578
345.07706079944734, 0.13067073647127347
346.5914661461908, 0.13218341820971213
348.2435447062745, 0.13412829473056187
349.89562326635826, 0.1354248790777951
351.547701826442, 0.1354248790777951
353.19978038652573, 0.1354248790777951
354.85185894660947, 0.13672146342502822
356.5039375066932, 0.13736975559864484
358.15601606677694, 0.13736975559864484
359.94576784020103, 0.13780195038105592
361.3224999736042, 0.14017902168431662
363.1122517470282, 0.14223194690076923
364.76433030711195, 0.14288023907438585
366.4164088671957, 0.1457975538556605
368.0684874272794, 0.14822864950672265
369.58289277402287, 0.15055169646218203
371.37264454744695, 0.15325291385225115
373.0247231075307, 0.1555219364599092
374.5391284542741, 0.15573803385111473
376.32888022769816, 0.15811510515437555
377.9809587877819, 0.1600599816752254
379.63303734786564, 0.1610324199356502
381.2851159079494, 0.16459802689054148
382.9371944680331, 0.165246319064158
384.58927302811685, 0.165246319064158
386.37902480154094, 0.16654290341139122
388.0311033616247, 0.17000046167067961
387.4804105082634, 0.16654290341139122
389.40783549502777, 0.17129704601791285
391.1975872684518, 0.17399826340798197
392.8496658285356, 0.17788801644968144
394.6394176019596, 0.18231801296939476
394.0887247485984, 0.17821216253648975
396.15382294870307, 0.18404679209903907
397.8059015087868, 0.18404679209903907
399.45798006887054, 0.18437093818584738
401.11005862895433, 0.18793654514073854
402.76213718903807, 0.1908538599220132
404.5518889624621, 0.1957160512241376
404.0011961091009, 0.19247459035605463
406.06629430920555, 0.1960401973109459
407.7183728692893, 0.19766092774498734
409.23277821603267, 0.2009023886130703
411.02252998945676, 0.20284726513392004
412.81228176288084, 0.20414384948115316
414.32668710962423, 0.206088726002003
415.97876566970797, 0.20868189469646925
417.6308442297917, 0.20884396773987346
419.28292278987544, 0.2115992094777439
420.9350013499592, 0.21257164773816883
422.5870799100429, 0.21338201295518955
424.376831683467, 0.217541887735896
423.8261388301057, 0.21321993991178545
426.02891024355074, 0.21948676425674574
427.5433155902942, 0.22180981121220522
429.33306736371827, 0.22402480947206194
430.985145923802, 0.22769846512255576
430.4344530704407, 0.22359261468965075
432.3618780572051, 0.22877895207858345
434.2893030439695, 0.23180431555546088
435.9413816040532, 0.23223651033787185
437.45578695079666, 0.23218248599007052
439.2455387242207, 0.2369906529443936
438.69484587085947, 0.23266870512028304
440.75994407096414, 0.23979991903006548
442.2743494177075, 0.24260918511573726
444.0641011911316, 0.24368967207176495
445.8538529645557, 0.24412186685417603
447.3682583112991, 0.2464449138096354
449.0203368713828, 0.24968637467771837
450.53474221812627, 0.25168527554636944
452.3244939915503, 0.25341405467601374
453.9765725516341, 0.25373820076282205
455.62865111171783, 0.25438649293643867
457.28072967180157, 0.2566555155440967
458.9328082318853, 0.2563313694572884
460.58488679196904, 0.25795209989132983
462.3746385653931, 0.2577360025001244
463.8890439121365, 0.2600590494555838
464.85275640551873, 0.26616380075713997
466.2294885389218, 0.26659599553955093
468.01924031234586, 0.2678385555389827
469.6713188724296, 0.2715662355372781
471.3233974325134, 0.27318696597131964
472.9754759925971, 0.27383525814493614
474.62755455268086, 0.2767525729262108
476.41730632610495, 0.2812906181415269
475.86661347274367, 0.2774008650998274
477.93171167284834, 0.28291134857556843
479.5837902329321, 0.28323549466237674
481.37354200635616, 0.28453207900960986
482.88794735309955, 0.2871252477040762
484.5400259131833, 0.28923219726833016
486.1921044732671, 0.2916632929193923
487.8441830333508, 0.2916632929193923
489.49626159343455, 0.2923115850930089
491.1483401535183, 0.2926357311798172
492.800418713602, 0.29295987726662553
494.5901704870261, 0.29187939031059784
496.1045758337695, 0.2910150007457757
497.75665439385324, 0.28971841639854257
498.72036688723546, 0.2860447607480485
500.09709902063855, 0.28496427379202094
501.19848472736106, 0.2812906181415269
502.7128900741045, 0.2812906181415269
502.7128900741045, 0.2774008650998274
504.50264184752854, 0.2761042807525943
506.017047194272, 0.2754559885789777
506.017047194272, 0.2705937972768533
507.6691257543557, 0.26962135901642836
507.6691257543557, 0.2657316059747289
509.1835311010991, 0.26508331380111216
510.9732828745232, 0.2631384372802624
510.9732828745232, 0.2579520998913297
511.79932215456506, 0.2530899085892053
512.6253614346069, 0.2566555155440966
513.5890739279891, 0.24930820424310862
515.1034792747325, 0.2475794251134643
514.9658060613922, 0.2417447955509151
515.9295185547744, 0.23720675033559901
516.3425381947953, 0.24239308772453172
517.4439239015178, 0.23504577642354374
518.5453096082404, 0.230291633817022
520.0597149549837, 0.22942724425219996
520.0597149549837, 0.22488919903688387
521.7117935150675, 0.22553749121050037
521.7117935150675, 0.22099944599518428
523.3638720751512, 0.22035115382156778
523.3638720751512, 0.21516481643263508
524.1899113551931, 0.2109509173041273
525.015950635235, 0.21516481643263508
525.9796631286172, 0.20824969991405806
527.3563952620202, 0.2056565312195917
528.4577809687428, 0.20198287556909789
529.8345131021459, 0.20003799904824804
530.798225595528, 0.19733678165817892
532.4503041556118, 0.1970126355713706
534.2400559290359, 0.1957160512241375
535.7544612757794, 0.19506775905052087
535.7544612757794, 0.1908538599220131
537.2688666225228, 0.19204239557364344
539.0586183959468, 0.19312288252967114
540.7106969560306, 0.1915021520956297
542.5004487294547, 0.19161020079123248
544.014854076198, 0.19377117470328775
545.6669326362818, 0.19441946687690426
547.3190111963655, 0.19441946687690426
548.9710897564493, 0.19506775905052087
550.623168316533, 0.1963643433977541
552.2752468766168, 0.19766092774498722
553.9273254367006, 0.19911958513562455
555.5794039967843, 0.2021989729603033
557.2314825568681, 0.2021989729603033
558.8835611169518, 0.20284726513391993
560.5356396770355, 0.2021989729603033
562.1877182371193, 0.20057824252626189
563.839796797203, 0.19960580426583696
565.4918753572867, 0.19895751209222035
567.0062807040301, 0.19679653818016518
567.9699931974124, 0.19409532079009606
569.6220717574961, 0.19377117470328775
571.2741503175798, 0.1911780060088214
572.237862810962, 0.18793654514073843
573.6145949443651, 0.1870721555759164
574.7159806510876, 0.18339849992542234
576.230385997831, 0.18339849992542234
576.0927127844907, 0.1773477729716676
577.1940984912133, 0.17367411732117355
577.8824645579148, 0.17821216253648964
578.846177051297, 0.17064875384429612
580.2229091847, 0.16913607210585746
581.3242948914226, 0.16546241645536341
582.838700238166, 0.16524631906415788
582.838700238166, 0.1607082738488418
584.4907787982497, 0.1607082738488418
584.4907787982497, 0.1561702286335257
586.1428573583335, 0.1561702286335257
586.1428573583335, 0.1513080373314013
587.7949359184172, 0.150983891244593
587.7949359184172, 0.1457975538556604
589.4470144785009, 0.14514926168204378
589.4470144785009, 0.140935362553536
590.9614198252443, 0.13974682690190554
592.0628055319669, 0.13650536603382268
593.43953766537, 0.1343443921217673
594.4032501587521, 0.1308868338624789
595.9176555054956, 0.12937415212404024
597.0190412122181, 0.1263487886471628
598.5334465589615, 0.1263487886471628
598.5334465589615, 0.12148659734503842
600.0478519057051, 0.12008196430220242
601.1492376124274, 0.11619221126050283
602.6636429591709, 0.11467952952206417
603.627355452553, 0.11100587387157013
605.0040875859563, 0.10992538691554266
605.9678000793384, 0.10690002343866523
607.6198786394222, 0.10625173126504861
609.2719571995059, 0.10430685474419887
610.7863625462494, 0.10192978344093795
611.8877482529717, 0.09868832257285509
613.4021535997152, 0.09782393300803294
615.1919053731392, 0.09479856953115551
616.5686375065425, 0.09306979040151142
617.6700232132648, 0.09026052431583942
619.1844285600084, 0.09036857301144219
620.8365071200922, 0.09036857301144219
622.3509124668356, 0.08874784257740076
624.1406642402596, 0.08777540431697595
625.7927428003434, 0.08647881996974272
627.3071481470868, 0.08420979736208467
628.4085338538092, 0.0809683364940017
629.7852659872124, 0.08053614171159063
631.5750177606365, 0.08161662866761832
633.2270963207202, 0.08226492084123493
634.8791748808039, 0.08226492084123493
636.5312534408877, 0.08161662866761832
638.1833320009714, 0.07999589823357689
639.8354105610551, 0.07967175214676858
641.4874891211389, 0.07837516779953535
643.1395676812226, 0.07837516779953535
644.7916462413064, 0.07869931388634366
646.4437248013901, 0.07837516779953535
648.0958033614738, 0.07805102171272715
649.7478819215576, 0.07675443736549392
651.3999604816413, 0.0754578530182608
653.052039041725, 0.07513370693145249
654.7041176018088, 0.07675443736549392
656.3561961618925, 0.07675443736549392
658.0082747219762, 0.0761061451918773
659.66035328206, 0.07643029127868561
661.3124318421437, 0.07837516779953535
662.9645104022275, 0.07934760605996027
664.6165889623112, 0.07934760605996027
666.268667522395, 0.07902345997315197
667.9207460824788, 0.07967175214676858
669.5728246425625, 0.07999589823357689
671.2249032026463, 0.0809683364940017
672.87698176273, 0.07999589823357689
674.666733536154, 0.08140053127641289
676.1811388828975, 0.08323735910165975
677.8332174429812, 0.08680296605655102
679.3476227897247, 0.08529028431811236
681.1373745631488, 0.08615467388293441
682.7894531232325, 0.08647881996974272
684.4415316833163, 0.08615467388293441
686.0936102434, 0.08745125823016764
687.7456888034837, 0.08842369649059245
689.3977673635675, 0.09004442692463399
691.0498459236512, 0.0906927190982505
692.701924483735, 0.0906927190982505
694.491676257159, 0.09177320605427819
696.1437548172428, 0.09306979040151142
697.6581601639862, 0.09328588779271685
699.3102387240699, 0.09296174170590854
700.9623172841536, 0.09328588779271685
702.6143958442374, 0.09425832605314177
704.1288011909808, 0.09609515387838874
705.7808797510645, 0.0969595434432109
707.4329583111482, 0.0958790564871832
709.2227100845723, 0.09717564083441643
710.8747886446561, 0.09685149474760812
712.5268672047398, 0.09685149474760812
714.3166189781639, 0.0969595434432109
715.9686975382476, 0.09825612779044413
717.483102884991, 0.09814807909484125
719.1351814450747, 0.09782393300803294
720.7872600051585, 0.09782393300803294
722.4393385652422, 0.09814807909484125
724.091417125326, 0.09814807909484125
725.7434956854097, 0.09782393300803294
727.3955742454934, 0.09814807909484125
729.0476528055772, 0.09847222518164955
730.6997313656609, 0.09782393300803294
732.3518099257446, 0.09782393300803294
734.0038884858284, 0.09749978692122474
735.6559670459121, 0.09425832605314177
737.3080456059959, 0.09490661822675839
738.9601241660798, 0.09749978692122474
740.6122027261636, 0.09782393300803294
742.2642812862473, 0.09847222518164955
743.916359846331, 0.09782393300803294
745.5684384064148, 0.09717564083441643
747.2205169664985, 0.09847222518164955
748.8725955265822, 0.09749978692122474
750.524674086666, 0.09652734866079982
752.1767526467497, 0.09717564083441643
753.6911579934931, 0.09566295909597777
755.4809097669172, 0.09490661822675839
757.1329883270009, 0.0958790564871832
758.7850668870847, 0.09523076431356658
760.4371454471684, 0.09328588779271685
762.0892240072521, 0.09263759561910034
763.7413025673359, 0.09231344953229204
765.3933811274196, 0.09198930344548373
767.0454596875034, 0.09134101127186711
768.0091721808856, 0.08831564779498968
769.523577527629, 0.08809955040378414
771.1756560877127, 0.08842369649059245
772.8277346477964, 0.08874784257740076
774.4798132078802, 0.08842369649059245
776.2695649813043, 0.08701906344775645
777.7839703280476, 0.08647881996974272
779.4360488881314, 0.08550638170931779
781.0881274482151, 0.0851822356225096
782.7402060082989, 0.08453394344889298
784.5299577817229, 0.08183272605882386
786.0443631284663, 0.08161662866761832
787.6964416885501, 0.08161662866761832
789.4861934619742, 0.07945565475556304
790.8629255953774, 0.0775107782347133
791.8266380887594, 0.0754578530182608
793.6163898621835, 0.07621419388748019
795.2684684222672, 0.07534980432265792
796.7828737690106, 0.0754578530182608
798.4349523290944, 0.07643029127868561
799.949357675838, 0.07470151214904142
800.91307016922, 0.07254053823698614
802.5651487293037, 0.07318883041060276
804.2172272893877, 0.07383712258421926
805.731632636131, 0.0723244408457806
807.5213844095551, 0.07156809997656122
809.1734629696389, 0.07189224606336952
810.8255415297226, 0.07189224606336952
812.4776200898064, 0.07189224606336952
814.1296986498901, 0.07189224606336952
815.7817772099738, 0.07221639215017783
817.4338557700576, 0.07318883041060276
819.0859343301413, 0.07318883041060276
820.738012890225, 0.07318883041060276
822.5277646636489, 0.07362102519301383
823.9044967970522, 0.07534980432265792
825.6942485704762, 0.07643029127868561
827.34632713056, 0.0754578530182608
828.9984056906437, 0.07578199910506911
830.6504842507275, 0.07707858345230223
832.3025628108112, 0.07805102171272715
833.9546413708949, 0.07740272953911054
835.6067199309787, 0.07707858345230223
837.2587984910624, 0.07740272953911054
838.9108770511461, 0.07837516779953535
840.5629556112299, 0.07837516779953535
842.2150341713136, 0.07837516779953535
843.8671127313974, 0.07772687562591885
845.5191912914811, 0.07772687562591885
847.3089430649052, 0.07534980432265792
848.8233484116486, 0.07578199910506911
850.4754269717323, 0.07675443736549392
852.127505531816, 0.0809683364940017
853.7795840918998, 0.08161662866761832
855.4316626519835, 0.08226492084123493
857.0837412120673, 0.08291321301485155
858.735819772151, 0.08291321301485155
860.3878983322347, 0.08258906692804324
862.0399768923185, 0.08291321301485155
863.5543822390621, 0.08312931040605698
865.3441340124859, 0.0858305277961261
866.9962125725697, 0.08680296605655102
868.6482911326536, 0.08745125823016764
870.3003696927374, 0.08745125823016764
871.9524482528211, 0.08745125823016764
873.6045268129049, 0.08874784257740076
875.2566053729886, 0.09134101127186711
876.9086839330723, 0.09328588779271685
878.5607624931561, 0.09328588779271685
880.3505142665799, 0.09371808257512804
881.8649196133235, 0.0958790564871832
883.6546713867474, 0.09566295909597777
885.169076733491, 0.09847222518164955
886.8211552935747, 0.10171368604973252
888.4732338536585, 0.10301027039696564
890.1253124137422, 0.105603439091432
891.6397177604856, 0.10646782865625404
893.56714274725, 0.10949319213313158
895.0815480939934, 0.11224843387100203
896.7336266540772, 0.11532782169568079
898.3857052141609, 0.1159761138692974
900.175456987585, 0.11640830865170848
901.6898623343284, 0.11824513647695545
903.3419408944121, 0.1208383051714218
904.9940194544959, 0.12456598516971717
906.6460980145796, 0.12764537299439593
908.2981765746633, 0.1315351260360954
909.9502551347471, 0.135424879077795
911.7400069081712, 0.1371536582074393
913.3920854682549, 0.14212389820516635
912.8413926148937, 0.1367214634250281
914.9064908149983, 0.14401475037821476
916.558569375082, 0.14725621124629762
918.2106479351658, 0.14984937994076397
919.8627264952495, 0.15292876776544284
921.5148050553332, 0.15941168950160867
921.5148050553332, 0.15454949819948427
923.166883615417, 0.15973583558841697
924.956635388841, 0.1613565660224584
926.6087139489248, 0.1658946112377745
926.0580210955636, 0.1613565660224584
928.2607925090085, 0.17129704601791274
927.7100996556474, 0.1658946112377745
929.7751978557519, 0.17497070166840667
929.3621782157311, 0.17043265645309058
931.4272764158356, 0.1762672860156399
933.2170281892597, 0.1773477729716676
934.7314335360034, 0.17918460079691456
936.3835120960871, 0.1821019155781891
938.0355906561708, 0.18518130340286798
939.6876692162546, 0.18923312948797166
939.2746495762335, 0.18469508427265546
941.3397477763383, 0.19020556774839648
942.991826336422, 0.1919883712258421
944.6439048965058, 0.19522983209392508
946.4336566699296, 0.19852531730980927
945.8829638165685, 0.19506775905052087
948.0857352300134, 0.20003799904824804
949.7378137900971, 0.20522433643718074
949.1871209367359, 0.19928165817902865
951.1145459235004, 0.20630482339320833
953.0419709102646, 0.20824969991405806
954.5563762570082, 0.2112750633909355
956.0707816037516, 0.21408432947660738
957.8605333771757, 0.21516481643263508
959.6502851505998, 0.21494871904142954
961.1646904973431, 0.21775798512710143
962.9544422707672, 0.22013505643036224
964.4688476175106, 0.2218098112122051
966.2585993909347, 0.22488919903688387
967.7730047376781, 0.2271582216445419
969.2874100844215, 0.23007553642581657
971.0771618578456, 0.2320204129466663
972.7292404179293, 0.23234455903347462
974.381318978013, 0.23331699729389943
976.0333975380968, 0.23461358164113266
977.6854760981805, 0.23526187381474917
979.4752278716046, 0.23569406859716036
980.989633218348, 0.23753089642240732
982.6417117784317, 0.2412585764207026
984.2937903385155, 0.24368967207176484
985.9458688985992, 0.24401381815857315
987.5979474586829, 0.24466211033218976
989.2500260187667, 0.24498625641899796
990.9021045788504, 0.24563454859261458
992.5541831389341, 0.24563454859261458
994.2062616990179, 0.2462828407662312
995.996013472442, 0.24477015902779253
997.5104188191854, 0.2466069868530395
999.1624973792693, 0.2469311329398478
1000.8145759393531, 0.24595869467942288
1002.4666544994368, 0.24433796424538146
1004.1187330595205, 0.24368967207176484
1005.7708116196043, 0.24433796424538146
1007.422890179688, 0.24433796424538146
1009.0749687397717, 0.24271723381133992
1010.7270472998555, 0.2414206494641068
1012.3791258599392, 0.24012406511687356
1013.8935312066826, 0.2382872372916267
1014.8572437000648, 0.2362343120751741
1016.6469954734889, 0.23504577642354374
1018.1614008202323, 0.23396528946751605
1019.9511525936564, 0.23093992599063862
1021.3278847270594, 0.22985943903461103
1023.1176365004835, 0.22845480599177503
1024.632041847227, 0.2268340755577336
1025.5957543406091, 0.22391676077645895
1027.2478329006929, 0.22424090686326725
1028.8999114607766, 0.22359261468965064
1029.8636239541588, 0.2205672512127732
1031.2403560875618, 0.21948676425674563
1033.030107860986, 0.21905456947433455
1034.81985963441, 0.21667749817107373
1036.196591767813, 0.21430042686781303
1037.2979774745356, 0.21041067382611345
1038.6747096079387, 0.20976238165249683
1040.3267881680224, 0.2084657973052637
1041.428173874745, 0.2056565312195917
1043.0802524348287, 0.20371165469874197
1044.4569845682317, 0.20198287556909789
1045.5583702749543, 0.19917360948342588
1047.0727756216977, 0.19960580426583696
1048.587180968441, 0.1980931225273983
1049.6885666751637, 0.19485166165931544
1051.0652988085667, 0.19269068774726006
1052.1666845152893, 0.18901703209676612
1053.5434166486923, 0.187720447749533
1054.5071291420745, 0.1856675225330804
1056.1592077021583, 0.18469508427265546
1057.811286262242, 0.18339849992542234
1058.7749987556244, 0.17950874688372287
1060.1517308890272, 0.17842825992769518
1061.1154433824095, 0.17561899384202329
1062.7675219424932, 0.17529484775521498
1064.2819272892366, 0.17345801992996812
1065.9340058493203, 0.17086485123550177
1067.0353915560431, 0.16805558514982977
1068.412123689446, 0.16697509819380218
1069.5135093961687, 0.16416583210813018
1071.0279147429121, 0.16394973471692476
1072.6799933029959, 0.16265315036969163
1074.3320718630796, 0.1616807121092667
1076.1218236365037, 0.1596277868928141
1077.4985557699067, 0.15768291037196436
1078.5999414766293, 0.15400925472147053
1079.9766736100323, 0.15228047559182623
1081.7664253834564, 0.150983891244593
1083.2808307301998, 0.14903901472374326
1084.3822164369224, 0.14493316429083825
1085.7589485703254, 0.1453653590732492
1087.5487003437495, 0.1464458460292769
1088.5124128371317, 0.14255609298757743
1090.026818183875, 0.14190780081396082
1090.026818183875, 0.13801804777226134
1091.6788967439588, 0.13931463211949446
1093.3309753040426, 0.13866633994587785
1094.9830538641263, 0.13736975559864473
1096.63513242421, 0.1367214634250281
1098.1495377709534, 0.13456048951297295
1099.250923477676, 0.13067073647127336
1100.7653288244194, 0.1308868338624789
1102.4174073845031, 0.12991439560205398
1104.0694859445869, 0.12796951908120424
1105.7215645046706, 0.1263487886471628
1107.3736430647543, 0.1257004964735462
1109.1633948381784, 0.1246200095175185
1110.5401269715815, 0.12353952256149092
1112.1922055316652, 0.12029806169340806
1113.2935912383878, 0.11813708778135268
1114.8079965851311, 0.11630025995610571
1116.460075145215, 0.11500367560887248
1117.9744804919583, 0.11251855561000901
1119.7642322653824, 0.11143806865398131
1121.416310825466, 0.1107897764803647
1123.0683893855498, 0.10949319213313158
1124.5827947322932, 0.1073322182210763
1125.5465072256754, 0.10527929300462369
1127.1985857857592, 0.10430685474419887
1128.8506643458431, 0.10268612431015733
1130.5027429059269, 0.10203783213654083
1132.1548214660106, 0.10138953996292421
1133.9445732394347, 0.09976880952888278
1135.458978586178, 0.09847222518164955
1135.458978586178, 0.09458247213995008
1136.9733839329215, 0.09544686170477212
1138.074769639644, 0.09371808257512804
1139.451501773047, 0.09371808257512804
1141.2412535464712, 0.09198930344548373
1142.893332106555, 0.0910168651850588
1144.5454106666386, 0.08907198866420907
1146.1974892267224, 0.08907198866420907
1147.8495677868061, 0.08907198866420907
1149.3639731335495, 0.08788345301257872
1151.1537249069736, 0.08680296605655102
1152.8058034670573, 0.08680296605655102
1154.457882027141, 0.08680296605655102
1156.2476338005652, 0.08464199214449575
1157.6243659339682, 0.08269711562364601
1158.5880784273504, 0.0806441904071935
1160.2401569874341, 0.08161662866761832
1161.8922355475179, 0.08161662866761832
1163.5443141076016, 0.08161662866761832
1165.1963926676854, 0.08161662866761832
1166.848471227769, 0.08161662866761832
1168.5005497878528, 0.07999589823357689
1170.1526283479366, 0.07869931388634366
1171.8047069080203, 0.07837516779953535
1173.456785468104, 0.07902345997315197
1175.1088640281878, 0.07869931388634366
1176.7609425882715, 0.07772687562591885
1178.4130211483553, 0.07772687562591885
1180.065099708439, 0.0761061451918773
1181.5795050551824, 0.07534980432265792
1183.2315836152661, 0.07664638866989115
1185.0213353886902, 0.07772687562591885
1186.673413948774, 0.075781999105069
1188.3254925088577, 0.07513370693145238
1189.839897855601, 0.07491760954024684
1190.8036103489833, 0.07286468432379434
1192.455688909067, 0.07448541475783577
1194.107767469151, 0.0764302912786855
1195.7598460292347, 0.075781999105069
1197.4119245893185, 0.075781999105069
1199.0640031494022, 0.07513370693145238
1200.716081709486, 0.07513370693145238
1202.3681602695697, 0.0764302912786855
1204.0202388296534, 0.0764302912786855
1205.6723173897371, 0.0764302912786855
1207.1867227364805, 0.07664638866989104
1208.9764745099046, 0.07707858345230212
1210.6285530699884, 0.0761061451918772
1212.280631630072, 0.07448541475783577
1213.9327101901558, 0.07448541475783577
1215.5847887502396, 0.07480956084464407
1217.2368673103233, 0.07448541475783577
1218.7512726570667, 0.07534980432265781
1220.5410244304908, 0.07772687562591873
1222.3307762039149, 0.07664638866989104
1223.8451815506583, 0.0764302912786855
1225.497260110742, 0.07805102171272704
1227.1493386708257, 0.07837516779953524
1228.8014172309095, 0.07837516779953524
1230.4534957909932, 0.07837516779953524
1232.105574351077, 0.07837516779953524
1233.7576529111607, 0.07837516779953524
1235.4097314712444, 0.07837516779953524
1237.1994832446687, 0.07880736258194643
1238.5762153780715, 0.08010394692917955
1240.3659671514956, 0.07869931388634355
1242.0180457115794, 0.07967175214676847
1243.5324510583227, 0.07859126519074078
1245.322202831747, 0.07837516779953524
