199.90177570568554, 0.5617428116100075
199.90177570568554, 0.5576896525094719
202.88641566625796, 0.5637693911602754
202.88641566625796, 0.5607295218348736
205.87105562683038, 0.5607295218348736
205.12489563668728, 0.5587029422846057
208.8556955874028, 0.5597162320597397
208.8556955874028, 0.555663072959204
210.348015567689, 0.5536364934089362
211.84033554797523, 0.5566763627343378
214.82497550854765, 0.555156428071637
217.8096154691201, 0.5536364934089362
217.06345547897698, 0.5505966240835345
221.04297542640688, 0.5576896525094719
220.0480954395494, 0.5546497831840701
223.03273540012182, 0.5597162320597397
223.7788953902649, 0.5546497831840701
223.03273540012182, 0.5526232036338022
226.76353535083734, 0.5546497831840701
226.01737536069425, 0.5516099138586683
226.01737536069425, 0.5475567547581327
229.74817531140974, 0.555663072959204
229.74817531140974, 0.5526232036338022
232.7328152719822, 0.555663072959204
232.7328152719822, 0.5521165587462353
235.71745523255458, 0.5546497831840701
235.71745523255458, 0.5511032689711014
238.70209519312704, 0.5516099138586683
237.95593520298394, 0.5475567547581327
241.6867351536995, 0.5516099138586683
243.17905513398568, 0.5485700445332666
244.67137511427188, 0.5516099138586683
246.16369509455808, 0.5485700445332666
247.65601507484433, 0.5516099138586683
248.40217506498743, 0.555663072959204
249.14833505513053, 0.5475567547581327
249.89449504527363, 0.5516099138586683
252.3816950124173, 0.5478945180165107
255.11761497627538, 0.5475567547581327
258.10225493684777, 0.5490766894208335
257.3560949467047, 0.5465434649829988
261.0868948974202, 0.5480633996456996
262.5792148777064, 0.5435035956575971
265.56385483827887, 0.5470501098705658
264.8176948481358, 0.5445168854327309
268.79721479556565, 0.5455301752078648
271.7818547561381, 0.5475567547581327
270.7869747692806, 0.5435035956575971
274.5177747199961, 0.5465434649829988
274.5177747199961, 0.542490305882463
277.50241468056856, 0.5475567547581327
277.50241468056856, 0.5435035956575971
280.73577463785534, 0.5455301752078648
279.74089465099786, 0.542490305882463
283.4716946017134, 0.5465434649829988
283.4716946017134, 0.5429969507700301
286.4563345622858, 0.5455301752078648
286.4563345622858, 0.5414770161073292
289.44097452285826, 0.5414770161073292
292.42561448343065, 0.5414770161073292
292.42561448343065, 0.5374238570067935
293.17177447357375, 0.5343839876813918
295.65897444071743, 0.5377616202651715
298.3948944045755, 0.5394504365570614
297.6487344144324, 0.5364105672316597
301.37953436514795, 0.5394504365570614
301.37953436514795, 0.5353972774565257
302.87185434543414, 0.5333706979062578
304.36417432572034, 0.5364105672316597
307.3488142862928, 0.5374238570067935
306.6026542961497, 0.5333706979062578
309.5872942567221, 0.5414770161073292
310.3334542468652, 0.5364105672316597
310.3334542468652, 0.5328640530186909
313.56681420415197, 0.5357350407149036
312.57193421729454, 0.53134411835599
316.30273416801003, 0.5353972774565257
317.0488941581532, 0.5394504365570614
319.5360941252968, 0.5353972774565257
318.5412141384394, 0.532357408131124
322.2720140891549, 0.5364105672316597
321.5258540990118, 0.5343839876813918
325.25665404972733, 0.5353972774565257
324.51049405958423, 0.532357408131124
328.2412940102997, 0.5364105672316597
327.4951340201566, 0.532357408131124
331.2259339708722, 0.5374238570067935
332.96697394787276, 0.5340462244230137
335.7028939117308, 0.5348906325689587
338.9362538690176, 0.5353972774565257
337.9413738821601, 0.532357408131124
341.92089382959, 0.5357350407149036
340.9260138427326, 0.532357408131124
344.65681379344807, 0.5384371467819274
343.91065380330497, 0.5364105672316597
346.39785377044865, 0.5337084611646359
349.1337737343067, 0.5364105672316597
349.1337737343067, 0.5333706979062578
352.1184136948791, 0.5348906325689587
355.10305365545156, 0.5333706979062578
354.35689366530846, 0.5303308285808561
358.08769361602396, 0.5353972774565257
359.5800135963102, 0.5384371467819274
358.8338536061671, 0.53134411835599
361.32105357331073, 0.5340462244230137
364.3056935338832, 0.5337084611646359
367.04161349774125, 0.5333706979062578
370.02625345831365, 0.5343839876813918
369.28009346817055, 0.532357408131124
373.0108934188861, 0.5333706979062578
376.2442533761729, 0.5357350407149036
375.2493733893154, 0.532357408131124
378.98017334003094, 0.5364105672316597
378.98017334003094, 0.532357408131124
382.2135332973177, 0.53134411835599
384.9494532611758, 0.5333706979062578
386.441773241462, 0.53134411835599
387.93409322174824, 0.5353972774565257
389.42641320203444, 0.531850763243557
390.91873318232064, 0.5343839876813918
394.1520931396074, 0.5333706979062578
393.15721315274993, 0.5303308285808561
396.8880131034655, 0.5333706979062578
396.8880131034655, 0.5293175388057222
399.87265306403793, 0.5308374734684231
403.1060130213247, 0.5333706979062578
402.11113303446723, 0.5303308285808561
405.0957729950396, 0.5394504365570614
405.8419329851828, 0.5353972774565257
405.8419329851828, 0.531850763243557
405.0957729950396, 0.5283042490305883
408.8265729457552, 0.53134411835599
410.31889292604137, 0.5293175388057222
412.05993290304195, 0.5337084611646359
414.7958528669, 0.5333706979062578
416.2881728471862, 0.5303308285808561
417.7804928274725, 0.5333706979062578
418.52665281761557, 0.5303308285808561
420.76513278804487, 0.5333706979062578
422.25745276833106, 0.53134411835599
423.7497727486173, 0.5353972774565257
424.4959327387604, 0.53134411835599
426.7344127091897, 0.5353972774565257
428.2267326894759, 0.532357408131124
429.71905266976216, 0.5353972774565257
431.21137265004836, 0.5333706979062578
432.70369263033456, 0.5374238570067935
434.1960126106208, 0.5333706979062578
435.688332590907, 0.5374238570067935
438.6729725514794, 0.5394504365570614
438.6729725514794, 0.5359039223440927
441.9063325087662, 0.5414770161073292
440.91145252190876, 0.5374238570067935
440.91145252190876, 0.5343839876813918
444.64225247262425, 0.5414770161073292
444.64225247262425, 0.5374238570067935
447.6268924331967, 0.5414770161073292
447.6268924331967, 0.5379305018943605
450.6115323937691, 0.5435035956575971
450.6115323937691, 0.5394504365570614
453.59617235434155, 0.5414770161073292
453.59617235434155, 0.5379305018943605
455.83465232477084, 0.5455301752078648
456.58081231491394, 0.5414770161073292
459.8141722722007, 0.5455301752078648
459.5654522754864, 0.5409703712197622
462.5500922360588, 0.5435035956575971
462.5500922360588, 0.5399570814446284
463.29625222620194, 0.5364105672316597
465.53473219663124, 0.5455301752078648
465.53473219663124, 0.542490305882463
468.768092153918, 0.5455301752078648
468.51937215720363, 0.5409703712197622
471.5040121177761, 0.5485700445332666
471.5040121177761, 0.5445168854327309
474.4886520783485, 0.5455301752078648
477.7220120356353, 0.5478945180165107
480.4579319994934, 0.5475567547581327
479.7117720093502, 0.5435035956575971
483.4425719600658, 0.5480633996456996
485.18361193706636, 0.5516099138586683
486.42721192063823, 0.5475567547581327
487.9195319009244, 0.5516099138586683
489.4118518812106, 0.5546497831840701
490.9041718614968, 0.5516099138586683
492.64521183849746, 0.555663072959204
495.38113180235547, 0.5566763627343378
495.38113180235547, 0.5531298485213691
498.3657717629279, 0.5566763627343378
500.6042517333572, 0.5597162320597397
502.8427317037865, 0.5657959707105431
502.8427317037865, 0.5627561013851414
505.82737166435896, 0.5637693911602754
507.31969164464516, 0.5617428116100075
508.81201162493136, 0.5657959707105431
510.3043316052176, 0.5627561013851414
511.7966515855038, 0.5657959707105431
515.0300115427907, 0.5661337339689212
517.7659315066487, 0.5708624195862128
517.0197715165056, 0.5688358400359449
520.9992914639355, 0.5701868930694568
523.7352114277935, 0.5739022889116145
523.7352114277935, 0.5703557746986458
526.9685713850804, 0.5759288684618824
525.9736913982229, 0.5728889991364805
529.7044913489384, 0.5739022889116145
528.9583313587952, 0.5708624195862128
531.445531325939, 0.5779554480121502
534.4301712865114, 0.580319790820796
533.435291299654, 0.5769421582370162
537.1660912503694, 0.5850484764380876
536.4199312602263, 0.5809953173375519
540.1507312109419, 0.5880883457634893
539.4045712207987, 0.5840351866629536
539.4045712207987, 0.5809953173375519
541.6430511912281, 0.591128215088891
542.3892111813711, 0.5860617662132215
544.8764111485149, 0.5904526885721351
547.8610511090873, 0.5901149253137572
546.8661711222298, 0.5870750559883554
550.5969710729454, 0.5972079537396946
549.8508110828022, 0.5941680844142928
553.5816110335178, 0.5961946639645607
553.5816110335178, 0.5931547946391589
555.3226510105184, 0.6002478230650963
555.8200910039471, 0.6063275617158999
556.5662509940902, 0.5961946639645607
558.0585709743764, 0.6002478230650963
560.2970509448057, 0.6083541412661677
561.0432109349488, 0.604300982165632
560.2970509448057, 0.6012611128402302
564.0278508955213, 0.6022744026153641
564.0278508955213, 0.5992345332899625
565.5201708758075, 0.6053142719407658
567.0124908560937, 0.6002478230650963
568.5048108363799, 0.604300982165632
569.9971308166661, 0.6002478230650963
569.9971308166661, 0.5972079537396946
572.9817707772385, 0.6002478230650963
572.9817707772385, 0.5961946639645607
574.4740907575248, 0.5931547946391589
575.966410737811, 0.6002478230650963
575.966410737811, 0.5967013088521276
578.9510506983834, 0.5961946639645607
578.9510506983834, 0.5921415048640251
578.2048907082402, 0.5891016355386232
581.9356906589558, 0.591128215088891
581.1895306688127, 0.5891016355386232
583.428010639242, 0.5850484764380876
586.4126505998145, 0.5830218968878198
586.4126505998145, 0.5794753826748511
588.6511305702437, 0.5840351866629536
589.3972905603869, 0.579982027562418
591.1383305373874, 0.5766043949786384
593.1280905111024, 0.5739022889116145
593.8742505012455, 0.5688358400359449
596.1127304716748, 0.5657959707105431
596.858890461818, 0.5617428116100075
598.3512104421042, 0.5592095871721727
599.8435304223904, 0.555663072959204
602.0820103928197, 0.555663072959204
602.8281703829628, 0.5516099138586683
604.320490363249, 0.5480633996456996
606.0615303402495, 0.544179122174353
608.0512903139645, 0.5435035956575971
608.7974503041075, 0.5399570814446284
611.78209026468, 0.5364105672316597
611.0359302745369, 0.5343839876813918
613.2744102449662, 0.532357408131124
615.5128902153955, 0.5333706979062578
616.2590502055386, 0.5293175388057222
619.243690166111, 0.5262776694803204
619.243690166111, 0.5232378001549187
622.2283301266835, 0.5232378001549187
622.2283301266835, 0.51969128594195
625.2129700872559, 0.5171580615041151
628.1976100478283, 0.5151314819538474
628.1976100478283, 0.5115849677408787
629.6899300281145, 0.50803845352791
631.1822500084007, 0.5110783228533118
632.6745699886869, 0.50803845352791
634.1668899689732, 0.5110783228533118
634.9130499591163, 0.5070251637527761
636.4053699394025, 0.5131049024035795
637.1515299295456, 0.5095583881906108
640.136169890118, 0.5060118739776421
641.6284898704042, 0.5019587148771065
643.1208098506904, 0.5039852944273744
646.1054498112629, 0.5039852944273744
646.1054498112629, 0.5004387802144056
649.0900897718353, 0.5029720046522403
649.0900897718353, 0.49942549043927165
652.0747297324077, 0.49993213532683867
652.0747297324077, 0.49638562111386997
655.0593696929801, 0.49891884555170474
658.292729650267, 0.4968922660014369
661.028649614125, 0.49587897622630295
660.2824896239819, 0.49283910690090127
664.0132895746974, 0.494865686451169
663.2671295845544, 0.49182581712576734
666.9979295352698, 0.494865686451169
666.9979295352698, 0.49182581712576734
669.2364095056992, 0.494865686451169
669.9825694958423, 0.4908125273506334
669.9825694958423, 0.4872660131376647
672.9672094564147, 0.48878594780036555
676.2005694137015, 0.48878594780036555
678.9364893775595, 0.4867593682500977
680.6775293545602, 0.48304397240794006
683.6621693151326, 0.4827062091495621
686.3980892789906, 0.483719498924696
686.3980892789906, 0.4801729847117273
688.63656924942, 0.4827062091495621
689.382729239563, 0.4791596949365934
692.3673692001355, 0.4806796295992942
692.3673692001355, 0.4771331153863255
695.3520091607079, 0.4766264704987586
698.3366491212803, 0.4766264704987586
698.3366491212803, 0.4735866011733568
701.3212890818527, 0.4756131807236247
700.5751290917096, 0.4735866011733568
704.3059290424252, 0.47156002162308897
707.2905690029976, 0.47156002162308897
710.27520896357, 0.4700400869603881
713.2598489241424, 0.4685201522976873
716.2444888847149, 0.4664935727474194
717.7368088650011, 0.46345370342201764
719.2291288452873, 0.4664935727474194
722.2137688058597, 0.46446699319715157
725.1984087664321, 0.46446699319715157
726.6907287467184, 0.4619337687593168
729.6753687072908, 0.4624404136468838
731.167688687577, 0.45990718920904894
734.1523286481494, 0.46041383409661596
734.1523286481494, 0.45737396477121417
737.1369686087218, 0.4583872545463481
738.6292885890081, 0.4553473852209463
740.1216085692943, 0.4583872545463481
741.6139285495805, 0.45585403010851333
744.5985685101529, 0.45636067499608024
743.8524085200098, 0.45332080567067856
747.5832084707253, 0.4543340954458125
749.0755284510115, 0.4507875812328437
750.5678484312978, 0.45332080567067856
752.060168411584, 0.45028093634527677
753.5524883918702, 0.45332080567067856
756.5371283524426, 0.4512942261204107
756.5371283524426, 0.4482543567950089
759.521768313015, 0.4482543567950089
762.5064082735875, 0.4482543567950089
762.5064082735875, 0.44521448746960723
764.7448882440167, 0.4482543567950089
765.4910482341598, 0.44521448746960723
768.7244081914466, 0.4425123814025834
771.4603281553046, 0.44217461814420544
774.4449681158771, 0.44166797325663854
777.4296080764495, 0.4401480385939376
780.4142480370219, 0.4411613283690715
780.4142480370219, 0.43812145904366984
783.3988879975943, 0.4401480385939376
786.3835279581668, 0.43913474881880366
789.3681679187392, 0.43812145904366984
792.3528078793116, 0.4371081692685359
791.6066478891686, 0.43508158971826805
795.337447839884, 0.43812145904366984
798.3220878004565, 0.4401480385939376
798.3220878004565, 0.4371081692685359
801.3067277610289, 0.4376148141561028
804.2913677216013, 0.43812145904366984
807.2760076821737, 0.4401480385939376
807.2760076821737, 0.4371081692685359
810.2606476427462, 0.4401480385939376
809.5144876526031, 0.4371081692685359
813.2452876033186, 0.4411613283690715
816.229927563891, 0.44217461814420544
819.2145675244635, 0.4431879079193394
822.1992074850359, 0.44622777724474116
821.4530474948928, 0.4431879079193394
825.1838474456083, 0.447241067019875
824.4376874554652, 0.4431879079193394
828.1684874061807, 0.4512942261204107
831.1531273667532, 0.4543340954458125
830.40696737661, 0.4512942261204107
834.1377673273256, 0.45737396477121417
833.3916073371824, 0.45332080567067856
837.122407287898, 0.45940054432148203
840.1070472484704, 0.46345370342201764
839.3608872583274, 0.45940054432148203
843.3404072057573, 0.4664935727474194
842.3455272188997, 0.4624404136468838
846.3250471663297, 0.472911074656601
845.3301671794721, 0.4685201522976873
849.3096871269021, 0.47899081330740445
848.3148071400446, 0.4756131807236247
852.0456070907601, 0.48473278869982994
851.299447100617, 0.4806796295992942
851.299447100617, 0.47763976027389254
855.0302470513326, 0.48574607847496387
856.5225670316188, 0.4897992375754995
859.5072069921912, 0.49891884555170474
858.761047002048, 0.494865686451169
862.740566949478, 0.5033097679106183
861.7456869626205, 0.49993213532683867
864.2328869297642, 0.5090517433030439
866.9688068936223, 0.5161447717289813
866.2226469034791, 0.5110783228533118
866.2226469034791, 0.5070251637527761
870.202166850909, 0.5232378001549187
869.9534468541947, 0.5186779961668161
869.2072868640515, 0.5161447717289813
872.9380868147671, 0.5272909592554544
872.9380868147671, 0.5237444450424857
872.191926824624, 0.520197930829517
875.9227267753395, 0.5364105672316597
875.1765667851964, 0.53134411835599
878.907366735912, 0.5404637263321953
880.6484067129124, 0.5458679384662428
883.3843266767706, 0.5495833343084005
882.6381666866274, 0.5455301752078648
884.8766466570568, 0.5566763627343378
884.1304866669137, 0.5536364934089362
887.8612866176292, 0.556169717846771
889.6023265946297, 0.5641071544186533
888.6074466077723, 0.5597162320597397
890.8459265782017, 0.5698491298110788
891.5920865683447, 0.5657959707105431
894.0792865354883, 0.5718757093613467
893.0844065486309, 0.5688358400359449
895.3228865190603, 0.5779554480121502
896.8152064993465, 0.5744089337991815
898.3075264796327, 0.5789687377872841
901.2921664402052, 0.5820086071126858
904.2768064007776, 0.5860617662132215
903.5306464106344, 0.5820086071126858
906.017846377778, 0.5901149253137572
906.5152863712069, 0.5840351866629536
908.7537663416362, 0.5921415048640251
910.4948063186367, 0.5880883457634893
910.2460863219223, 0.5835285417753867
913.4794462792091, 0.5901149253137572
912.4845662923517, 0.5860617662132215
912.4845662923517, 0.5830218968878198
916.2153662430673, 0.591128215088891
916.2153662430673, 0.5875817008759223
919.448726200354, 0.5924792681224029
918.4538462134966, 0.5891016355386232
922.184646164212, 0.591128215088891
923.6769661444984, 0.5875817008759223
926.6616061050707, 0.5870750559883554
929.6462460656431, 0.5860617662132215
929.6462460656431, 0.5830218968878198
932.8796060229299, 0.5820086071126858
932.6308860262155, 0.5769421582370162
935.615525986788, 0.5830218968878198
937.1078459670742, 0.5784620928997171
938.6001659473604, 0.5754222235743154
940.0924859276466, 0.5708624195862128
943.3258458849334, 0.5698491298110788
944.5694458685052, 0.5652893258229762
947.5540858290777, 0.5657959707105431
947.5540858290777, 0.5622494564975744
950.5387257896501, 0.5587029422846057
949.792565799507, 0.5566763627343378
953.5233657502225, 0.5576896525094719
955.0156857305087, 0.555156428071637
956.5080057107949, 0.5516099138586683
957.2541657009381, 0.555663072959204
958.2490456877955, 0.5482322812748887
960.2388056615105, 0.5495833343084005
960.9849656516536, 0.5445168854327309
963.969605612226, 0.5485700445332666
963.969605612226, 0.5445168854327309
963.969605612226, 0.5404637263321953
965.7106455892266, 0.5360728039732816
968.4465655530846, 0.5384371467819274
968.4465655530846, 0.5343839876813918
971.4312055136571, 0.532357408131124
970.685045523514, 0.5303308285808561
974.4158454742295, 0.5293175388057222
973.6696854840864, 0.5262776694803204
977.4004854348019, 0.5283042490305883
977.4004854348019, 0.5252643797051866
980.3851253953743, 0.5252643797051866
980.3851253953743, 0.5217178654922179
982.1261653723749, 0.5178335880208712
984.862085336233, 0.5171580615041151
984.862085336233, 0.5136115472911464
987.8467252968054, 0.5141181921787135
987.8467252968054, 0.5105716779657448
990.8313652573778, 0.5100650330781777
990.0852052672348, 0.50803845352791
993.0698452278071, 0.5090517433030439
993.8160052179503, 0.5055052290900752
995.3083251982365, 0.5024653597646734
998.2929651588089, 0.5029720046522403
998.2929651588089, 0.49942549043927165
1001.2776051193813, 0.4979055557765708
1000.5314451292383, 0.49587897622630295
1004.2622450799538, 0.4968922660014369
1006.500725050383, 0.4968922660014369
1007.2468850405262, 0.49283910690090127
1008.7392050208124, 0.48929259268793257
1009.4853650109554, 0.49283910690090127
1011.7238449813848, 0.4877726580252316
1010.9776849912417, 0.48574607847496387
1014.7084849419572, 0.48574607847496387
1013.9623249518141, 0.483719498924696
1016.2008049222435, 0.4806796295992942
1019.1854448828159, 0.4827062091495621
1019.1854448828159, 0.4796663398241603
1022.1700848433883, 0.4796663398241603
1022.1700848433883, 0.4756131807236247
1021.4239248532451, 0.4735866011733568
1025.1547248039608, 0.47510653583605766
1028.1393647645332, 0.4735866011733568
1028.1393647645332, 0.47054673184795515
1031.1240047251056, 0.4735866011733568
1031.1240047251056, 0.4695334420728212
1030.3778447349625, 0.46750686252255336
1034.108644685678, 0.46750686252255336
1037.3420046429649, 0.46480475645552966
1036.3471246561073, 0.4614271238717499
1040.077924606823, 0.46345370342201764
1041.570244587109, 0.45940054432148203
1042.3164045772521, 0.4624404136468838
1044.5548845476815, 0.4583872545463481
1047.5395245082539, 0.45940054432148203
1047.5395245082539, 0.45636067499608024
1050.5241644688263, 0.45636067499608024
1052.2652044458268, 0.4529830424123005
1055.001124409685, 0.45230751589554463
1055.001124409685, 0.44926764657014284
1057.9857643702574, 0.4512942261204107
1057.9857643702574, 0.4482543567950089
1060.9704043308298, 0.45028093634527677
1063.208884301259, 0.45028093634527677
1063.9550442914024, 0.44622777724474116
1063.9550442914024, 0.44268126303177247
1066.9396842519748, 0.44521448746960723
1068.4320042322609, 0.4411613283690715
1069.9243242125472, 0.4431879079193394
1073.1576841698338, 0.4404858018523157
1075.147444143549, 0.44217461814420544
1075.893604133692, 0.43812145904366984
1077.3859241139783, 0.43508158971826805
1078.8782440942643, 0.4371081692685359
1081.8628840548367, 0.436094879493402
1081.1167240646937, 0.4330550101680002
1084.8475240154091, 0.43508158971826805
1084.101364025266, 0.4330550101680002
1087.8321639759818, 0.4330550101680002
1090.8168039365542, 0.4310284306177323
1093.8014438971265, 0.4305217857301654
1096.786083857699, 0.4300151408425985
1098.2784038379853, 0.4269752715171967
1099.7707238182713, 0.4300151408425985
1101.2630437985576, 0.4264686266296298
1104.24768375913, 0.42444204707936195
1107.4810437164167, 0.424273165450173
1110.2169636802748, 0.42393540219179493
1111.7092836605611, 0.42140217775396016
1114.6939236211335, 0.42393540219179493
1113.9477636309903, 0.42089553286639325
1117.9272835784202, 0.42224658589990516
1116.932403591563, 0.4188689533161254
1120.6632035422783, 0.4219088226415272
1123.6478435028507, 0.4219088226415272
1122.9016835127077, 0.4188689533161254
1126.6324834634231, 0.42089553286639325
1125.88632347328, 0.4188689533161254
1129.6171234239955, 0.4198822430912593
1132.601763384568, 0.4188689533161254
1135.5864033451403, 0.4198822430912593
1138.571043305713, 0.4193755982036923
1141.5556832662853, 0.4193755982036923
1144.5403232268577, 0.41785566354099146
1147.52496318743, 0.4183623084285585
1150.5096031480025, 0.4188689533161254
1149.7634431578595, 0.41684237376585753
1153.494243108575, 0.4193755982036923
1152.7480831184319, 0.41684237376585753
1156.4788830691473, 0.41785566354099146
1159.4635230297197, 0.41785566354099146
1162.4481629902923, 0.41785566354099146
1165.4328029508647, 0.41785566354099146
1168.417442911437, 0.4183623084285585
1171.4020828720095, 0.4183623084285585
1174.3867228325819, 0.41785566354099146
1177.3713627931543, 0.41785566354099146
1180.3560027537267, 0.4188689533161254
1183.340642714299, 0.4188689533161254
1186.3252826748717, 0.4188689533161254
1186.3252826748717, 0.4158290839907236
1189.309922635444, 0.4198822430912593
1189.309922635444, 0.4163357288782906
1192.2945625960165, 0.4198822430912593
1191.5484026058734, 0.41684237376585753
1195.2792025565889, 0.4198822430912593
