15.028447	131
15.638814	478.09726
16.24918	1090.7123
16.859547	1816.9475
17.469913	2686.2715
18.08028	3632.4202
18.690645	4521.5723
19.301012	5199.1211
19.911379	5561.3467
20.521746	5676.4453
21.132113	5762.9077
21.742477	5867.5537
22.352844	6020.2002
22.963211	6063.0986
23.573578	6144.1167
24.183945	6227.2212
24.79431	6303.5264
25.404676	6417.832
26.015043	6546.937
26.62541	6615.8179
27.235777	6731.4531
27.846144	6681.8052
28.456509	6815.0698
29.066875	6843.7329
29.677242	6921.6304
30.287609	7093.7207
30.897976	7228.6177
31.508341	7264.481
32.11871	7306.7778
32.729076	7432.1509
33.339439	7530.7432
33.949806	7574.9141
34.560173	7642.4102
35.17054	7848.7642
35.780907	8014.2886
36.391273	8171.4248
37.00164	8251.9424
37.612007	8312.1953
38.222374	8338.9209
38.832741	8179.3184
39.443104	8302.0117
40.053471	8301.1084
40.663837	8601.2979
41.274204	8521.4766
41.884571	8611.2637
42.494938	8754.6299
43.105305	8834.9219
43.715672	8906.7754
44.326038	9025.0186
44.936405	9111.0293
45.546772	9074.3672
46.157135	8989.0596
46.767502	8988.0674
47.377869	8864.8877
47.988235	9091.7646
48.598602	9298.002
49.208969	9304.5605
49.819336	9278.8799
50.429703	9337.2725
51.04007	9371.8408
51.650436	9357.8691
52.260803	9578.6475
52.871166	9510.7715
53.481533	9405.3105
54.0919	9548.1826
54.702267	9547.4492
55.312634	9628.0088
55.923	9598.168
56.533367	9499.6123
57.143734	9494.9385
57.754101	9531.4717
58.364468	9565.0762
58.974831	9658.5254
59.585197	9957.3867
60.195564	9986.6523
60.805931	9968.2236
61.416298	9830.1621
62.026665	9673.9434
62.637032	9605.5811
63.247398	9609.2031
63.857765	9668.6309
64.468132	9817.0684
65.078499	9919.3799
65.688866	9838.7666
66.299232	9794.3594
66.909599	9848.2441
67.519966	9825.3848
68.130333	9904.3154
68.740692	9890.1787
69.351059	9815.2305
69.961426	9816.8418
70.571793	9857.2275
71.182159	9835.7539
71.792526	9871.7461
72.402893	9906.749
73.01326	10044.599
73.623627	9967.6426
74.233994	9807.9248
74.84436	9847.8945
75.454727	9920.7158
76.065094	10117.544
76.675461	10239.416
77.285828	10093.543
77.896194	10065.312
78.506561	9882.6465
79.116928	9804.1855
79.727295	9852.5381
80.337662	9781.3936
80.948029	9712.2871
81.558388	9817.083
82.168755	9892.0713
82.779121	9951.0137
83.389488	10024.448
83.999855	10000.302
84.610222	9857.8164
85.220589	9703.2637
85.830956	9660.5654
86.441322	9796.3418
87.051689	9871.1465
87.662056	9926.2275
88.272423	9780.5508
88.88279	9683.9229
89.493156	9629.3291
90.103523	9619.0264
90.71389	9778.5273
91.324257	9994.9307
91.934624	9962.5205
92.544991	9893.0625
93.155357	9773.6045
93.765724	9779.4971
94.376091	9690.9434
94.98645	9674.0381
95.596817	9744.9912
96.207184	9839.8164
96.817551	9807.6924
97.427917	9699.2402
98.038284	9704.0088
98.648651	9634.5615
99.259018	9670.8271
99.869385	9595.0889
100.47975	9699.3887
101.09012	9719.7285
101.70049	9691.7822
102.31085	9670.5576
102.92122	9607.0615
103.53159	9573.5957
104.14195	9613.5332
104.75232	9684.9912
105.36269	9796.3545
105.97305	9735.9639
106.58342	9854.6719
107.19379	9799.4473
107.80415	9759.3936
108.41451	9610.2568
109.02488	9610.8799
109.63525	9611.0068
110.24561	9534.0381
110.85598	9577.3701
111.46635	9650.0771
112.07671	9441.3008
112.68708	9466.8008
113.29745	9535.2227
113.90781	9580.8252
114.51818	9555.1494
115.12855	9559.627
115.73891	9547.4033
116.34928	9541.71
116.95965	9506.7686
117.57001	9440.1826
118.18038	9421.2031
118.79075	9429.0586
119.40112	9340.2383
120.01148	9408.2852
120.62184	9455.8369
121.23221	9443.9473
121.84258	9387.5313
122.45294	9518.5332
123.06331	9524.4404
123.67368	9505.6455
124.28404	9536.3418
124.89441	9530.0684
125.50478	9471.0498
126.11514	9417.4326
126.72551	9321.7383
127.33588	9366.7012
127.94624	9200.0488
128.55661	9292.6768
129.16698	9342.6328
129.77734	9394.1504
130.38771	9396.5439
130.99808	9359.0791
131.60844	9320.9092
132.21881	9308.7197
132.82918	9288.7158
133.43954	9212.5527
134.04991	9180.376
134.66028	9388.9199
135.27065	9131.6006
135.88101	9195.2217
136.49138	9096.6543
137.10175	9119.8213
137.71211	9231.9805
138.32248	9246.998
138.93285	9299.6475
139.54321	9323.8516
140.15356	9268.1396
140.76393	9281.4111
141.3743	9144.7012
141.98466	9115.1221
142.59503	9031.3398
143.2054	9105.9473
143.81577	9073.9736
144.42613	9123.7539
145.0365	9059.7471
145.64687	8985.9004
146.25723	8937.3584
146.8676	8977.4727
147.47797	9059.9004
148.08833	9050.3896
148.6987	9053.5156
149.30907	9006.6982
149.91943	8982.4473
150.5298	8868.2207
151.14017	8882.2188
151.75053	8950.126
152.3609	8943.5791
152.97127	8938.7412
153.58163	8981.0869
154.192	8933.168
154.80237	8855.4932
155.41273	8863.7295
156.0231	8782.2734
156.63347	8795.6465
157.24384	8909.5566
157.8542	8858.1475
158.46457	8727.8477
159.07494	8803.3672
159.6853	8724.0322
160.29567	8668.3262
160.90604	8708.7256
161.5164	8774.1377
162.12677	8812.7539
162.73714	8810.5547
163.3475	8749.2529
163.95787	8679.7266
164.56824	8734.1348
165.1786	8638.7188
165.78897	8595.2998
166.39932	8690.5713
167.00969	8660.249
167.62006	8616.2168
168.23042	8618.9297
168.84079	8548.4287
169.45116	8529.9668
170.06152	8564.4873
170.67189	8540.0967
171.28226	8580.3389
171.89262	8540.7568
172.50299	8499.8213
173.11336	8367.418
173.72372	8286.2314
174.33409	8288.0488
174.94446	8349.5088
175.55482	8411.4053
176.16519	8467.126
176.77556	8505.584
177.38593	8482.5459
177.99629	8414.2539
178.60666	8376.2861
179.21703	8369.0742
179.82739	8349.9873
180.43776	8426.8535
181.04813	8492.3232
181.65849	8345.623
182.26886	8320.7842
182.87923	8196.5918
183.48959	8197.9414
184.09996	8161.3701
184.71033	8140.6934
185.32069	8149.7349
185.93106	8138.0112
186.54143	8145.793
187.15179	8145.0371
187.76216	8054.9829
188.37253	8078.0659
188.98289	8045.7207
189.59326	8098.5747
190.20363	8135.6621
190.814	8115.6001
191.42436	7954.8926
192.03471	7895.1143
192.64508	7952.6567
193.25545	7949.499
193.86581	7927.5752
194.47618	7968.2451
195.08655	7929.041
195.69691	7921.5981
196.30728	7845.5322
196.91765	7899.8208
197.52802	7846.1738
198.13838	7777.9072
198.74875	7890.2144
199.35912	7901.0317
199.96948	7853.252
200.57985	7813.8799
201.19022	7710.1978
201.80058	7617.5801
202.41095	7617.0303
203.02132	7601.2021
203.63168	7621.1895
204.24205	7740.3853
204.85242	7809.8013
205.46278	7678.2583
206.07315	7588.2749
206.68352	7479.915
207.29388	7574.1533
207.90425	7601.3042
208.51462	7576.4624
209.12498	7565.1021
209.73535	7576.0322
210.34572	7531.811
210.95609	7435.7417
211.56645	7430.6694
212.17682	7457.335
212.78719	7543.2275
213.39755	7439.77
214.00792	7416.5269
214.61829	7451.5366
215.22865	7352.687
215.83902	7343.4829
216.44939	7313.4536
217.05975	7252.293
217.67012	7327.8584
218.28047	7432.187
218.89084	7353.4683
219.50121	7215.5674
220.11157	7203.0088
220.72194	7126.8369
221.33231	7123.0332
221.94267	7227.1338
222.55304	7231.7866
223.16341	7161.0503
223.77377	7211.2632
224.38414	7145.9976
224.99451	7133.4014
225.60487	7130.2817
226.21524	7044.043
226.82561	7015.3745
227.43597	7093.0059
228.04634	7105.2559
228.65671	7056.5981
229.26707	7033.9609
229.87744	6883.915
230.48781	7015.0933
231.09818	6972.3955
231.70854	6899.752
232.31891	7002.3965
232.92928	7018.6821
233.53964	6955.6011
234.15001	6938.6699
234.76038	6958.7671
235.37074	6931.2803
235.98111	6891.3359
236.59148	6883.9531
237.20184	6891.2363
237.81221	6992.3115
238.42258	6933.1348
239.03294	6807.1528
239.64331	6744.6943
240.25368	6841.2095
240.86404	6881.1807
241.47441	6760.7617
242.08478	6772.9243
242.69514	6825.7705
243.30551	6801.0903
243.91586	6708.522
244.52623	6688.8672
245.1366	6720.2627
245.74696	6684.4058
246.35733	6718.5571
246.9677	6788.1597
247.57806	6715.001
248.18843	6620.4717
248.7988	6514.3687
249.40916	6597.6807
250.01953	6594.353
250.6299	6673.7925
251.24026	6644.0796
251.85063	6631.063
252.461	6571.9058
253.07137	6532.0151
253.68173	6520.1479
254.2921	6545.4893
254.90247	6678.1455
255.51283	6704.1191
256.1232	6659.3569
256.73355	6547.8208
257.34393	6532.6382
257.95428	6460.9663
258.56467	6518.8677
259.17502	6509.8267
259.7854	6551.189
260.39575	6568.0884
261.00613	6516.3213
261.61649	6439.103
262.22687	6463.1748
262.83722	6486.5972
263.4476	6419.064
264.05795	6414.8599
264.66833	6459.7681
265.27869	6442.8262
265.88907	6437.501
266.49942	6348.3496
267.1098	6355.7363
267.72015	6382.1465
268.33054	6446.9102
268.94089	6433.4473
269.55127	6448.0176
270.16162	6431.1821
270.772	6371.126
271.38235	6284.853
271.99274	6254.4521
272.60309	6314.4541
273.21347	6376.9316
273.82382	6381.3813
274.4342	6376.0415
275.04456	6407.9683
275.65494	6328.6929
276.26529	6419.9287
276.87567	6380.5327
277.48602	6341.3042
278.09641	6384.1533
278.70676	6419.813
279.31714	6447.3101
279.92749	6376.9272
280.53787	6304.3911
281.14822	6284.0986
281.75861	6263.4531
282.36896	6274.8608
282.97931	6358.1411
283.58969	6411.0581
284.20004	6397.4814
284.81042	6264.1934
285.42078	6302.1787
286.03116	6212.1611
286.64151	6288.771
287.25189	6255.7305
287.86224	6318.2817
288.47263	6282.3945
289.08298	6382.8672
289.69336	6315.1094
290.30371	6212.02
290.91409	6239.856
291.52444	6259.7197
292.13483	6262.3066
292.74518	6346.0776
293.35556	6366.2485
293.96591	6316.2212
294.57629	6251.4082
295.18665	6252.2241
295.79703	6231.5728
296.40738	6331.0664
297.01776	6336.0977
297.62811	6447.4678
298.23849	6359.562
298.84885	6332.0464
299.45923	6305.4385
300.06958	6313.6665
300.67996	6340.1343
301.29031	6366.9766
301.9007	6385.8271
302.51105	6399.0747
303.12143	6436.3076
303.73178	6424.6689
304.34216	6316.6304
304.95251	6350.5767
305.5629	6362.7231
306.17325	6356.1519
306.78363	6290.6113
307.39398	6334.1167
308.00436	6363.1025
308.61472	6443.7378
309.22507	6387.2178
309.83545	6305.4419
310.4458	6384.6719
311.05618	6496.4448
311.66653	6476.3677
312.27692	6423.96
312.88727	6446.0308
313.49765	6406.3813
314.108	6268.5127
314.71838	6277.0933
315.32874	6276.8184
315.93912	6389.9468
316.54947	6510.6489
317.15985	6486.645
317.7702	6424.9424
318.38058	6376.6401
318.99094	6386.3906
319.60132	6470.7563
320.21167	6437.0605
320.82205	6543.9697
321.4324	6625.5229
322.04279	6518.9688
322.65314	6454.252
323.26352	6491.4224
323.87387	6457.7793
324.48425	6446.0361
325.0946	6473.916
325.70499	6458.563
326.31534	6469.8857
326.92572	6488.5952
327.53607	6438.6538
328.14645	6481.9189
328.75681	6490.3076
329.36719	6509.4717
329.97754	6575.2871
330.58792	6560.7212
331.19827	6485.8369
331.80865	6501.9932
332.41901	6517.0898
333.02939	6490.1118
333.63974	6491.4585
334.25012	6522.2251
334.86047	6582.9126
335.47083	6642.3184
336.08121	6602.9365
336.69156	6609.6274
337.30194	6595.6616
337.91229	6535.6929
338.52267	6522.3687
339.13303	6593.6831
339.74341	6648.4004
340.35376	6696.5605
340.96414	6592.3813
341.57449	6586.3359
342.18488	6542.5996
342.79523	6517.9888
343.40561	6595.0278
344.01596	6629.8198
344.62634	6610.1143
345.23669	6651.251
345.84708	6681.6948
346.45743	6626.96
347.06781	6581.9341
347.67816	6617.4575
348.28854	6687.1973
348.8989	6669.1411
349.50928	6747.5381
350.11963	6807.1538
350.73001	6646.3647
351.34036	6628.8638
351.95074	6664.895
352.5611	6727.5557
353.17148	6805.9805
353.78183	6724.6157
354.39221	6722.7983
355.00256	6796.4258
355.61295	6774.9712
356.2233	6676.5376
356.83368	6701.2065
357.44403	6807.9189
358.05441	6766.1714
358.66476	6820.0698
359.27515	6755.4932
359.8855	6845.7856
360.49585	6920.0728
361.10623	6946.5527
361.71658	6774.3794
362.32697	6820.0063
362.93732	6840.5332
363.5477	6748.9199
364.15805	6885.4307
364.76843	6876.1074
365.37878	6804.7095
365.98917	6827.4355
366.59952	6825.1963
367.2099	6862.3799
367.82025	6940.8872
368.43063	6975.6523
369.04099	6909.1377
369.65137	6810.8706
370.26172	6953.1948
370.8721	6961.5903
371.48245	6951.6221
372.09283	6972.2876
372.70319	6977.9951
373.31357	6910.3057
373.92392	6943.5088
374.5343	6914.0854
375.14465	6889.6255
375.75504	6991.3159
376.36539	6904.8008
376.97577	6940.5083
377.58612	6963.6943
378.1965	7022.0015
378.80685	7035.7026
379.41724	6983.9097
380.02759	7006.1079
380.63797	7031.1777
381.24832	7058.0762
381.8587	7164.9395
382.46906	7113.6904
383.07944	7057.7983
383.68979	6969.1943
384.30017	7050.2476
384.91052	7041.3237
385.5209	7078.251
386.13126	7137.2529
386.74161	7151.2681
387.35199	7152.0977
387.96234	7021.9111
388.57272	7057.1069
389.18307	7075.1021
389.79346	7042.272
390.40381	7121.5083
391.01419	7166.9404
391.62454	7206.7661
392.23492	7198.8057
392.84528	7122.0557
393.45566	7123.4268
394.06601	7136.0117
394.67639	7148.6084
395.28674	7305.6758
395.89713	7218.6826
396.50748	7204.9961
397.11786	7242.9121
397.72821	7169.6064
398.33859	7337.2725
398.94894	7165.6328
399.55933	7242.085
400.16968	7244.0918
400.78006	7359.9194
401.39041	7325.7729
402.00079	7276.8091
402.61115	7243.9531
403.22153	7253.957
403.83188	7288.5317
404.44226	7250.1885
405.05261	7392.855
405.66299	7475.3408
406.27335	7459.5176
406.88373	7426.751
407.49408	7314.4014
408.10446	7316.0342
408.71481	7323.0874
409.3252	7328.7939
409.93555	7402.9658
410.54593	7498.6714
411.15628	7571.5132
411.76666	7436.1675
412.37701	7360.5068
412.98737	7497.6616
413.59775	7358.1182
414.2081	7435.0669
414.81848	7566.7964
415.42883	7523.4624
416.03922	7583.9077
416.64957	7573.064
417.25995	7500.9551
417.8703	7512.4761
418.48068	7593.0698
419.09103	7581.8188
419.70142	7585.3486
420.31177	7618.8027
420.92215	7529.5654
421.5325	7490.6299
422.14288	7594.0278
422.75323	7607.3794
423.36362	7670.2046
423.97397	7709.7231
424.58435	7714.5845
425.1947	7679.7427
425.80508	7720.4365
426.41544	7675.9893
427.02582	7758.0635
427.63617	7768.5947
428.24655	7739.5425
428.8569	7781.9331
429.46729	7849.2446
430.07764	7717.6265
430.68802	7731.7031
431.29837	7690.7769
431.90875	7774.0356
432.5191	7850.4336
433.12949	7854.4019
433.73984	7851.4722
434.35022	7882.771
434.96057	7954.9854
435.57095	7990.5215
436.1813	7971.2759
436.79169	7942.7656
437.40204	7846.3657
438.01242	7769.6147
438.62277	7847.8257
439.23312	7980.1978
439.84351	7940.8804
440.45386	8046.0723
441.06424	7876.542
441.67459	7828.7681
442.28497	8058.9722
442.89532	8095.4307
443.50571	8119.0859
444.11606	8084.9912
444.72644	7993.3853
445.33679	8010.625
445.94717	8019.7627
446.55753	8106.9932
447.16791	8199.6113
447.77826	8183.667
448.38864	8158.8403
448.99899	8149.4873
449.60938	8185.5361
450.21973	8242.834
450.83011	8264.4707
451.44046	8220.7813
452.05084	8234.4805
452.66119	8308.6045
453.27158	8213.2949
453.88193	8221.3818
454.49231	8263.6133
455.10266	8367.873
455.71304	8400.3916
456.32339	8318.5596
456.93378	8367.9854
457.54413	8318.7568
458.15451	8464.4785
458.76486	8400.8682
459.37524	8513.1357
459.9856	8331.2998
460.59598	8474.0674
461.20633	8472.7871
461.81671	8523.8232
462.42706	8542.7861
463.03745	8473.8496
463.6478	8343.293
464.25815	8443.4219
464.86853	8425.0293
465.47888	8493.0313
466.08926	8619.0596
466.69962	8584.7266
467.31	8615.9902
467.92035	8612.3721
468.53073	8497.291
469.14108	8579.5996
469.75146	8694.1475
470.36182	8790.9043
470.9722	8839.958
471.58255	8730.001
472.19293	8755.7031
472.80328	8768.3145
473.41367	8724.2607
474.02402	8725.6572
474.6344	8809.0801
475.24475	8792.9063
475.85513	8916.4941
476.46548	8960.7412
477.07587	8872.4756
477.68622	8938.8076
478.2966	8800.209
478.90695	8820.9883
479.51733	8921.4482
480.12769	9055.5654
480.73807	9031.8301
481.34842	9060.0078
481.9588	9048.8604
482.56915	8947.7207
483.17953	8972.9502
483.78989	9068.959
484.40027	9148.875
485.01062	9231.9717
485.621	9301.2705
486.23135	9288.9658
486.84174	9201.8398
487.45209	9159.4043
488.06247	9193.1924
488.67282	9304.75
489.2832	9362.5615
489.89355	9429.6699
490.50391	9410.2256
491.11429	9467.083
491.72464	9374.9463
492.33502	9372.6846
492.94537	9495.4834
493.55576	9576.9072
494.16611	9662.8711
494.77649	9568.9355
495.38684	9568.9033
495.99722	9567.1934
496.60757	9623.1494
497.21796	9711.4473
497.82831	9844.9873
498.43869	9884.6455
499.04904	9915.2471
499.65942	9881.2725
500.26978	9800.4922
500.88016	9770.0078
501.49051	9915.3643
502.10089	9962.6133
502.71124	10061.255
503.32162	10186.153
503.93198	10280.753
504.54236	10357.105
505.15271	10303.914
505.76309	10296.45
506.37344	10320.324
506.98383	10278.48
507.59418	10471.745
508.20456	10618.006
508.81491	10678.054
509.42529	10701.557
510.03564	10664.622
510.64603	10658.289
511.25638	10731.812
511.86676	10844.176
512.47711	10997.961
513.08746	11131.543
513.69788	11126.338
514.30823	11157.29
514.91858	11359.738
515.52893	11258.044
516.13928	11498.309
516.74969	11629.542
517.36005	12023.071
517.9704	12090.295
518.58075	11984.17
519.19116	12128.725
519.80151	12282.169
520.41187	12485.029
521.02222	12699.934
521.63263	12873.008
522.24298	13153.069
522.85333	13459.695
523.46368	13619.257
524.0741	13768.459
524.68445	13971.813
525.2948	14230.24
525.90515	14456.454
526.51556	14783.013
527.12592	15159.013
527.73627	15474.637
528.34662	15767.38
528.95703	15819.781
529.56738	16049.623
530.17773	16601.186
530.78809	16877.463
531.3985	17069.822
532.00885	17215.834
532.6192	17641.752
533.22955	17898.994
533.83997	18050.178
534.45032	18080.953
535.06067	18189.996
535.67102	18564.613
536.28143	18627.922
536.89178	18742.592
537.50214	18841.645
538.11249	18732.418
538.7229	18518.236
539.33325	18508.305
539.9436	18510.865
540.55396	18752.588
541.16437	18511.873
541.77472	18535.949
542.38507	18424.168
542.99542	18209.83
543.60577	18035.955
544.21619	17996.977
544.82654	18026.82
545.43689	17817.855
546.04724	17780.402
546.65765	17469
547.26801	17253.189
547.87836	17037.59
548.48871	16820.043
549.09912	16725.975
549.70947	16609.602
550.31982	16400.777
550.93018	16228.735
551.54059	16089.019
552.15094	15962.933
552.76129	15805.017
553.37164	15659.798
553.98206	15516.954
554.59241	15376.959
555.20276	15344.648
555.81311	15243.728
556.42352	15082.072
557.03387	14799.324
557.64423	14587.558
558.25458	14518.539
558.86499	14491.38
559.47534	14385.824
560.08569	14140.591
560.69604	14033.438
561.30646	13964.989
561.91681	13776.599
562.52716	13602.068
563.13751	13424.289
563.74792	13502.154
564.35828	13378.125
564.96863	13335.597
565.57898	13114.037
566.18939	12835.492
566.79974	12816.158
567.4101	12687.496
568.02045	12707.162
568.6308	12623.833
569.24121	12403.711
569.85156	12453.897
570.46191	12293.982
571.07227	12047.456
571.68268	12033.239
572.29303	11961.491
572.90338	11816.13
573.51373	11846.521
574.12415	11841.798
574.7345	11826.661
575.34485	11663.365
575.9552	11395.829
576.56561	11380.754
577.17596	11314.91
577.78632	11324.398
578.39667	11293.813
579.00708	11224.053
579.61743	11163.414
580.22778	11011.724
580.83813	10885.476
581.44855	10918.235
582.0589	10999.575
582.66925	11020.714
583.2796	10969.359
583.89001	10920.792
584.50037	10891.219
585.11072	10761.139
585.72107	10630.476
586.33148	10650.372
586.94183	10719.121
587.55219	10769.089
588.16254	10717.07
588.77295	10629.641
589.3833	10555.775
589.99365	10518.761
590.604	10437.771
591.21442	10415.791
591.82477	10483.983
592.43512	10598.365
593.04547	10538.474
593.65588	10490.266
594.26624	10377.992
594.87659	10295.263
595.48694	10241.6
596.09729	10232.547
596.7077	10315.596
597.31805	10275.071
597.92841	10191.442
598.53876	10082.222
599.14917	10002.564
599.75952	9977.8037
600.36987	9823.8232
600.98022	9767.6436
601.59064	9837.6582
602.20099	9820.8213
602.81134	9837.9355
603.42169	9712.208
604.0321	9524.8545
604.64246	9432.1152
605.25281	9306.0684
605.86316	9292.2109
606.47357	9291.9805
607.08392	9270.4512
607.69427	9106.1953
608.30463	8910.6621
608.91504	8852.3711
609.52539	8834.9355
610.13574	8714.1084
610.74609	8864.6309
611.35651	8641.1475
611.96686	8715.1855
612.57721	8566.8193
613.18756	8428.2324
613.79797	8372.4756
614.40833	8260.584
615.01868	8178.9858
615.62903	8180.6685
616.23944	8192.3154
616.84979	8075.4722
617.46014	7993.7656
618.0705	7845.8696
618.68091	7748.918
619.29126	7708.9795
619.90161	7729.875
620.51196	7713.458
621.12231	7602.4336
621.73273	7522.4497
622.34308	7452.2358
622.95343	7371.4771
623.56378	7281.73
624.17419	7219.1582
624.78455	7241.1475
625.3949	7222.0288
626.00525	7129.0298
626.61566	7037.1636
627.22601	6949.1738
627.83636	6859.4673
628.44672	6857.7666
629.05713	6781.7197
629.66748	6830.8071
630.27783	6795.6675
630.88818	6679.6089
631.4986	6601.2124
632.10895	6532.3823
632.7193	6438.3862
633.32965	6414.7944
633.94006	6439.8779
634.55042	6266.71
635.16077	6324.8076
635.77112	6288.0234
636.38153	6150.8662
636.99188	6040.2495
637.60223	6045.6455
638.21259	6047.3369
638.823	5994.3325
639.43335	5957.7949
640.0437	5936.314
640.65405	5774.6484
641.26447	5726.4316
641.87482	5629.2124
642.48517	5674.1094
643.09552	5631.5464
643.70593	5552.9692
644.31628	5585.2642
644.92664	5562.3848
645.53699	5463.5308
646.14734	5401.9556
646.75775	5282.7471
647.3681	5236.1123
647.97845	5243.7236
648.58881	5211.5972
649.19922	5189.8198
649.80957	5142.7368
650.41992	5071.8198
651.03027	5027.0811
651.64069	4965.7529
652.25104	4922.2256
652.86139	4927.877
653.47174	4905.2476
654.08215	4840.6494
654.6925	4781.23
655.30286	4714.5767
655.91321	4656.8521
656.52362	4633.2266
657.13397	4582.8135
657.74432	4605.9712
658.35468	4540.3755
658.96509	4503.4678
659.57544	4399.1353
660.18579	4390.7544
660.79614	4340.7002
661.40656	4386.0884
662.01691	4215.3384
662.62726	4221.7783
663.23761	4298.0942
663.84802	4140.7344
664.45837	4086.3411
665.06873	4058.9314
665.67908	4059.7905
666.28949	4046.1309
666.89984	4034.0813
667.51019	4013.8518
668.12054	3974.3755
668.73096	3965.8748
669.34131	3966.7048
669.95166	3839.2319
670.56201	3808.4243
671.17242	3744.9443
671.78278	3812.9856
672.39313	3771.8345
673.00348	3736.0298
673.61383	3653.3196
674.22424	3653.7168
674.83459	3577.5378
675.44495	3542.0847
676.0553	3558.0317
676.66571	3553.6506
677.27606	3531.0168
677.88641	3500.426
678.49677	3502.2671
679.10718	3451.0554
679.71753	3390.396
680.32788	3385.4839
680.93823	3348.9573
681.54865	3307.7629
682.159	3279.5625
682.76935	3265.8374
683.3797	3286.656
683.99011	3270.8091
684.60046	3211.7175
685.21082	3156.873
685.82117	3158.8396
686.43158	3140.3425
687.04193	3118.0393
687.65228	3065.5984
688.26263	3043.4055
688.87305	3085.8274
689.4834	3005.459
690.09375	2987.3308
690.7041	2975.355
691.31451	2943.6682
691.92487	2963.812
692.53522	2921.4783
693.14557	2870.7639
693.75598	2841.2344
694.36633	2838.5256
694.97668	2819.6611
695.58704	2783.3914
696.19745	2814.9661
696.8078	2638.7629
697.41815	2691.1147
698.0285	2685.7458
698.63885	2650.2566
699.24927	2673.468
699.85962	2633.9897
700.46997	2725.8462
701.08032	2605.6855
701.69073	2557.9197
702.30109	2588.7268
702.91144	2572.7356
703.52179	2550.0503
704.1322	2532.8323
704.74255	2480.324
705.35291	2504.5571
705.96326	2531.949
706.57367	2399.4617
707.18402	2451.2209
707.79437	2464.3511
708.40472	2423.2871
709.01514	2411.1448
709.62549	2419.9285
710.23584	2448.3301
710.84619	2393.5654
711.4566	2318.1306
712.06696	2365.696
712.67731	2307.3958
713.28766	2276.4392
713.89807	2330.5425
714.50842	2320.0281
715.11877	2253.9102
715.72913	2236.0208
716.33954	2261.1873
716.94989	2215.6829
717.56024	2229.0752
718.17059	2212.8699
718.78101	2214.3347
719.39136	2236.4451
720.00171	2183.1987
720.61206	2122.7556
721.22247	2168.2356
721.83282	2167.8748
722.44318	2153.365
723.05353	2159.5928
723.66388	2155.1006
724.27429	2158.1697
724.88464	2190.3032
725.495	2169.6528
726.10535	2150.0701
726.71576	2133.8643
727.32611	2101.1035
727.93646	2106.8618
728.54681	2072.0537
729.15723	2065.8875
729.76758	2077.7722
730.37793	2075.7742
730.98828	2115.2009
731.59869	2108.9724
732.20905	2084.6047
732.8194	2094.3984
733.42975	2117.8499
734.04016	2135.2217
734.65051	2088.9453
735.26086	2064.7954
735.87122	2127.6484
736.48163	2155.7231
737.09198	2141.1038
737.70233	2108.3979
738.31268	2084.4255
738.9231	2071.8677
739.53345	2084.6604
740.1438	2088.4548
740.75415	2097.8845
741.36456	2077.1707
741.97491	2106.7791
742.58527	2128.74
743.19562	2155.4551
743.80603	2136.2107
744.41638	2133.8369
745.02673	2114.6169
745.63708	2137.1289
746.2475	2182.0959
746.85785	2173.9246
747.4682	2201.0288
748.07855	2221.6887
748.68896	2219.5266
749.29932	2293.4048
749.90967	2187.7654
750.52002	2280.2231
751.13037	2251.8831
751.74078	2293.7446
752.35114	2284.947
752.96149	2315.5762
753.57184	2302.9619
754.18225	2333.6738
754.7926	2345.9014
755.40295	2331.54
756.01331	2363.1489
756.62372	2393.1248
757.23407	2458.4258
757.84442	2361.8208
758.45477	2462.8762
759.06519	2410.2517
759.67554	2402.4714
760.28589	2406.584
760.89624	2434.7822
761.50665	2462.48
762.117	2468.3108
762.72736	2511.2461
763.33771	2511.8948
763.94812	2445.4617
764.55847	2506.1963
765.16882	2506.0427
765.77917	2519.4082
766.38959	2492.3169
766.99994	2563.2776
767.61029	2558.4558
768.22064	2509.8606
768.83105	2556.2629
769.44141	2544.0427
770.05176	2592.1953
770.66211	2513.501
771.27252	2535.4456
771.88287	2587.4661
772.49323	2605.615
773.10358	2570.1399
773.71399	2524.8926
774.32434	2530.6609
774.93469	2513.9619
775.54504	2599.5315
776.1554	2554.0537
776.76581	2514.2771
777.37616	2511.1284
777.98651	2478.8755
778.59686	2557.7207
779.20728	2561.9756
779.81763	2550.3535
780.42798	2581.4158
781.03833	2511.7097
781.64874	2524.4573
782.25909	2530.3577
782.86945	2596.1721
783.4798	2547.7866
784.09021	2557.1155
784.70056	2588.6755
785.31091	2519.8284
785.92126	2540.6072
786.53168	2498.9978
787.14203	2481.1033
787.75238	2426.7371
788.36273	2442.8728
788.97314	2456.3511
789.5835	2455.6914
790.19385	2425.9705
790.8042	2408.7378
791.41461	2347.5688
792.02496	2356.1677
792.63531	2350.8459
793.24567	2401.865
793.85608	2383.1826
794.46643	2345.5444
795.07678	2380.842
795.68713	2330.272
796.29755	2262.4915
796.9079	2263.0896
797.51825	2173.6414
798.1286	2233.5493
798.73901	2237.9712
799.34937	2229.9761
799.95972	2243.2815
800.57007	2215.9824
801.18048	2128.9548
801.79083	2144.2085
802.40118	2214.4243
803.01154	2159.8682
803.62189	2114.2419
804.2323	2047.2996
804.84265	2016.7491
805.453	2059.3792
806.06335	2028.0646
806.67377	2024.3077
807.28412	2052.7654
807.89447	1952.1842
808.50482	2002.705
809.11523	1977.5199
809.72559	1919.9985
810.33594	1866.5055
810.94629	1869.8785
811.5567	1799.3615
812.16705	1787.2795
812.7774	1768.0111
813.38776	1824.4487
813.99817	1713.2992
814.60852	1684.1569
815.21887	1635.9316
815.82922	1625.1575
816.43964	1657.7504
817.04999	1622.6335
817.66034	1624.675
818.27069	1628.8334
818.8811	1634.2201
819.49146	1572.0266
820.10181	1457.6897
820.71216	1468.5983
821.32257	1501.0298
821.93292	1437.371
822.54327	1388.7124
823.15363	1406.3511
823.76404	1402.776
824.37439	1367.1786
824.98474	1286.2605
825.59509	1282.2203
826.20551	1257.2589
826.81586	1264.5912
827.42621	1273.5076
828.03656	1239.1995
828.64691	1195.3403
829.25732	1205.2977
829.86768	1131.489
830.47803	1120.3418
831.08838	1103.5051
831.69879	1099.6217
832.30914	1094.7618
832.91949	1096.0699
833.52985	1090.911
834.14026	1051.2096
834.75061	1025.2305
835.36096	1036.6884
835.97131	1014.7893
836.58173	960.71594
837.19208	954.08472
837.80243	940.97321
838.41278	922.85162
839.02319	970.05872
839.63354	976.77026
840.2439	940.2265
840.85425	917.18518
841.46466	938.61066
842.07501	907.81506
842.68536	867.02698
843.29572	873.13293
843.90613	864.75983
844.51648	865.23944
845.12683	859.86609
845.73718	880.16638
846.3476	862.31104
846.95795	847.37085
847.5683	871.08978
848.17865	847.95203
848.78906	830.4046
849.39941	835.22754
850.00977	848.09973
850.62012	840.27039
851.23053	818.62451
851.84088	841.52155
852.45123	845.33405
853.06158	831.43793
853.67194	851.59399
854.28235	831.19019
854.8927	818.34491
855.50305	826.87933
856.1134	816.86688
856.72382	829.06647
857.33417	813.30164
857.94452	788.97479
858.55487	800.92578
859.16528	847.71753
859.77563	831.40295
860.38599	820.25061
860.99634	845.3548
861.60675	785.39691
862.2171	771.32233
862.82745	818.20953
863.43781	840.75421
864.04822	812.4339
864.65857	800.40613
865.26892	806.04706
865.87927	812.64001
866.48969	814.4339
867.10004	831.93286
867.71039	838.98773
868.32074	794.2793
868.93115	815.90771
869.5415	798.82849
870.15186	817.16736
870.76221	761.84491
871.37262	837.09753
871.98297	781.17517
872.59332	816.23578
873.20367	820.64209
873.81409	845.94135
874.42444	830.07086
875.03479	824.16907
875.64514	837.60541
876.25555	825.30505
876.86591	801.73145
877.47626	814.75781
878.08661	830.84821
878.69702	816.79034
879.30737	840.34467
879.91772	819.67261
880.52808	801.34918
881.13843	816.0813
881.74884	800.65924
882.35919	779.88251
882.96954	793.32782
883.5799	839.67639
884.19031	829.31989
884.80066	803.81995
885.41101	825.03101
886.02136	824.70953
886.63177	847.89697
887.24213	858.0481
887.85248	860.09222
888.46283	874.69971
889.07324	863.85913
889.68359	852.44904
890.29395	854.17822
890.9043	865.06348
891.51471	870.65466
892.12506	876.86383
892.73541	859.93146
893.34576	871.96069
893.95618	877.3598
894.56653	877.14923
895.17688	856.80078
895.78723	869.90131
896.39764	893.97052
897.008	895.62817
897.61835	905.03351
898.2287	883.81183
898.83911	912.96442
899.44946	883.10345
900.05981	899.8645
900.67017	900.03192
901.28058	882.35736
901.89093	927.79401
902.50128	916.56641
903.11163	928.50598
903.72205	949.17438
904.3324	933.57855
904.94275	898.69196
905.5531	958.33453
906.16345	974.54633
906.77386	946.39148
907.38422	967.37714
907.99457	994.73743
908.60492	984.36243
909.21533	977.90356
909.82568	1008.9294
910.43604	1000.1138
911.04639	1027.2582
911.6568	1048.4873
912.26715	1040.7845
912.8775	1040.1045
913.48785	1023.6597
914.09827	1016.5978
914.70862	1056.8176
915.31897	1076.5985
915.92932	1101.2806
916.53973	1133.4701
917.15009	1092.8619
917.76044	1136.3021
918.37079	1171.101
918.9812	1187.9514
919.59155	1158.4711
920.2019	1159.3867
920.81226	1160.5057
921.42267	1191.3068
922.03302	1192.9918
922.64337	1197.047
923.25372	1277.5701
923.86414	1295.5804
924.47449	1278.162
925.08484	1316.1471
925.69519	1366.0442
926.3056	1384.108
926.91595	1374.458
927.52631	1390.7637
928.13666	1429.7758
928.74707	1458.8269
929.35742	1486.0065
929.96777	1502.4932
930.57813	1553.132
931.18848	1528.6078
931.79889	1557.8036
932.40924	1569.8479
933.01959	1591.5007
933.62994	1635.0597
934.24036	1622.6249
934.85071	1616.598
935.46106	1660.2371
936.07141	1745.3508
936.68182	1742.749
937.29218	1760.8064
937.90253	1810.7
938.51288	1848.9509
939.12329	1845.8518
939.73364	1863.3391
940.34399	1939.1891
940.95435	1917.9626
941.56476	1895.6908
942.17511	1913.2108
942.78546	1939.1211
943.39581	1958.0511
944.00623	1972.3698
944.61658	1996.4502
945.22693	2023.829
945.83728	2016.9697
946.44769	2020.9835
947.05804	2034.0067
947.6684	2033.8391
948.27875	2054.9194
948.88916	2066.3618
949.49951	2024.8727
950.10986	2019.833
950.72021	2060.5916
951.33063	2076.428
951.94098	2072.2937
952.55133	2054.8892
953.16168	2098.8506
953.77209	2099.2515
954.38245	2047.7672
954.9928	2019.0779
955.60315	2004.4235
956.21356	1957.2317
956.82391	2036.7502
957.43427	1941.7832
958.04462	2033.3903
958.65497	1995.2273
959.26538	1989.0077
959.87573	1940.2239
960.48608	1977.1166
961.09644	1917.5543
961.70685	1945.48
962.3172	1938.3529
962.92755	1963.3
963.5379	1932.0458
964.14832	1934.3596
964.75867	1875.3687
965.36902	1867.4167
965.97937	1865.1809
966.58978	1853.9435
967.20013	1853.4283
967.81049	1857.0267
968.42084	1839.0189
969.03125	1829.8732
969.6416	1849.9465
970.25195	1832.8853
970.8623	1815.0494
971.47272	1840.9707
972.08307	1829.6473
972.69342	1842.6831
973.30377	1789.891
973.91418	1793.2064
974.52454	1831.8
975.13489	1801.7148
975.74524	1801.9912
976.35565	1811.3434
976.966	1794.7642
977.57635	1797.8308
978.18671	1793.8263
978.79712	1786.5227
979.40747	1816.7783
980.01782	1755.2954
980.62817	1751.8353
981.23859	1797.6886
981.84894	1818.9329
982.45929	1742.8711
983.06964	1791.1539
983.67999	1770.3455
984.29041	1744.4788
984.90076	1766.1779
985.51111	1802.7446
986.12146	1805.9447
986.73187	1826.0439
987.34222	1831.2659
987.95258	1849.2192
988.56293	1845.4557
989.17334	1831.9886
989.78369	1835.9502
990.39404	1902.4744
991.00439	1897.4551
991.61481	1865.0011
992.22516	1863.8639
992.83551	1827.7461
993.44586	1865.3119
994.05627	1864.2095
994.66663	1934.454
995.27698	1993.2738
995.88733	1965.9381
996.49774	1947.2617
997.10809	1994.3247
997.71844	2015.3223
998.3288	2000.7911
998.93921	2042.7484
999.54956	2002.6508
1000.1599	2067.8484
1000.7703	2072.5962
1001.3807	2135.4587
1001.991	2097.8406
1002.6014	2114.4692
1003.2117	2112.1421
1003.8221	2174.146
1004.4325	2218.4041
1005.0428	2265.7288
1005.6532	2283.9949
1006.2636	2276.0408
1006.874	2302.439
1007.4843	2346.7583
1008.0947	2432.8582
1008.7051	2467.0935
1009.3154	2468.457
1009.9258	2530.8252
1010.5361	2521.3831
1011.1465	2560.2769
1011.7569	2493.9919
1012.3672	2602.2607
1012.9776	2660.9065
1013.588	2707.9302
1014.1984	2690.6907
1014.8087	2813.6846
1015.4191	2846.4058
1016.0294	2865.8115
1016.6398	2849.8804
1017.2502	2951.1987
1017.8605	2947.2646
1018.4709	2978.8098
1019.0813	3068.4841
1019.6917	3045.595
1020.302	3121.0313
1020.9124	3151.8259
1021.5228	3201.3137
1022.1331	3282.3049
1022.7435	3340.5991
1023.3538	3403.0608
1023.9642	3472.2969
1024.5746	3532.2234
1025.1849	3563.2991
1025.7953	3575.9526
1026.4056	3619.135
1027.016	3725.4021
1027.6265	3827.4829
1028.2368	3883.1353
1028.8472	3967.9175
1029.4575	4066.8315
1030.0679	3994.3406
1030.6782	4033.249
1031.2886	4086.2607
1031.8989	4207.1528
1032.5094	4342.0063
1033.1198	4384.0557
1033.7301	4477.4902
1034.3405	4511.3892
1034.9508	4572.5996
1035.5612	4615.0151
1036.1715	4663.5542
1036.7819	4774.5884
1037.3922	4913.4497
1038.0027	5020.688
1038.613	5074.0264
1039.2234	5123.0112
1039.8337	5215.5493
1040.4441	5316.2129
1041.0544	5374.792
1041.6648	5559.5215
1042.2751	5649.9956
1042.8856	5748.2554
1043.496	5776.5776
1044.1063	5828.8833
1044.7167	5954.2231
1045.327	5933.2969
1045.9374	6129.2178
1046.5477	6234.3071
1047.1581	6361.5176
1047.7686	6440.8979
1048.3789	6491.1855
1048.9893	6663.0957
1049.5996	6687.6416
1050.21	6775.5649
1050.8203	6964.4756
1051.4307	7115.083
1052.041	7307.5078
1052.6515	7414.1812
1053.2618	7435.3799
1053.8722	7625.106
1054.4825	7753.7603
1055.0929	7800.3379
1055.7032	8001.4634
1056.3136	8146.1577
1056.924	8384.7764
1057.5344	8398.3496
1058.1448	8450.9707
1058.7551	8567.1797
1059.3655	8718.3828
1059.9758	8945.4873
1060.5862	9101.3965
1061.1965	9306.6494
1061.8069	9509.2803
1062.4172	9646.876
1063.0277	9598.8408
1063.6381	9705.6992
1064.2484	9882.2793
1064.8588	10105.81
1065.4691	10351.716
1066.0795	10514.022
1066.6898	10607.1
1067.3002	10766.371
1067.9106	10906.209
1068.521	10965.246
1069.1313	11166.042
1069.7417	11486.627
1070.3521	11689.602
1070.9624	11778.922
1071.5728	11968.515
1072.1831	12085.659
1072.7936	12058.678
1073.4039	12401.423
1074.0143	12621.354
1074.6246	12950.156
1075.235	13087.816
1075.8453	13299.676
1076.4557	13414.871
1077.066	13506.484
1077.6765	13723.338
1078.2869	13993.215
1078.8972	14409.359
1079.5076	14705.542
1080.1179	14907.402
1080.7283	14935.128
1081.3386	15039.739
1081.949	15148.875
1082.5594	15181.246
1083.1698	15425.719
1083.7802	15819.565
1084.3905	15921.794
1085.0009	16095.769
1085.6112	16225.185
1086.2216	16242.059
1086.8319	16342.471
1087.4423	16484.027
1088.0527	16618.139
1088.6631	16939.949
1089.2734	17148.58
1089.8838	17206.922
1090.4941	17251.615
1091.1045	17243.584
1091.7148	17358.42
1092.3252	17550.699
1092.9357	17689.58
1093.546	17859.902
1094.1564	18083.16
1094.7667	18032.939
1095.3771	18008.09
1095.9874	18043.74
1096.5978	18123.955
1097.2081	18193.391
1097.8186	18306.779
1098.429	18452.029
1099.0393	18455.473
1099.6497	18307.668
1100.26	18295.465
1100.8704	18209.969
1101.4807	18177.305
1102.0911	18278.416
1102.7015	18405.217
1103.3119	18392.553
1103.9222	18254.445
1104.5326	18038.34
1105.1429	17898.693
1105.7533	17920.561
1106.3636	17683.127
1106.974	17910.939
1107.5845	17898.611
1108.1948	17745.494
1108.8052	17579.176
1109.4155	17403.584
1110.0259	17301.758
1110.6362	17177.16
1111.2466	17180.398
1111.8569	17072.316
1112.4674	16912.688
1113.0778	16792.965
1113.6881	16467.107
1114.2985	16354.121
1114.9088	16092.441
1115.5192	16009.229
1116.1295	16003.043
1116.7399	16032.087
1117.3502	15843.373
1117.9607	15883.142
1118.571	15599.849
1119.1814	15127.971
1119.7917	15077.344
1120.4021	14972.776
1121.0125	14946.992
1121.6228	14863.786
1122.2332	14726.029
1122.8436	14510.482
1123.454	14277.961
1124.0643	14073.024
1124.6747	13976.432
1125.285	13778.673
1125.8954	13787.934
1126.5057	13726.991
1127.1161	13608.167
1127.7266	13427.851
1128.3369	13076.344
1128.9473	12944.012
1129.5576	12917.842
1130.168	12766.871
1130.7783	12706.428
1131.3887	12653.563
1131.999	12354.608
1132.6095	12210.112
1133.2198	12119.205
1133.8302	11929.798
1134.4406	11893.289
1135.0509	11668.876
1135.6613	11754.855
1136.2716	11679.059
1136.882	11469.364
1137.4924	11305.229
1138.1028	11070.122
1138.7131	11028.093
1139.3235	10949.219
1139.9338	10817.563
1140.5442	10755.014
1141.1545	10679.717
1141.7649	10511.911
1142.3752	10340.024
1142.9857	10153.11
1143.5961	10025.647
1144.2064	10169.166
1144.8168	9924.5635
1145.4271	9801.5947
1146.0375	9713.4248
1146.6478	9591.5283
1147.2582	9457.0703
1147.8687	9199.0537
1148.479	9157.6064
1149.0894	9137.499
1149.6997	9045.7891
1150.3101	8973.4531
1150.9204	8840.2969
1151.5308	8588.2402
1152.1411	8461.5313
1152.7516	8407.167
1153.3619	8318.3672
1153.9723	8247.7969
1154.5826	8189.0977
1155.193	8024.6177
1155.8033	7902.9834
1156.4137	7779.5986
1157.024	7627.4561
1157.6345	7479.5063
1158.2449	7459.1484
1158.8552	7360.5996
1159.4656	7362.5513
1160.0759	7297.3564
1160.6863	7123.5581
1161.2966	6861.9746
1161.907	6815.4707
1162.5175	6679.2354
1163.1278	6548.8081
1163.7382	6624.9595
1164.3485	6495.3013
1164.9589	6362.2607
1165.5692	6165.1338
1166.1796	6049.8311
1166.7899	5991.8477
1167.4003	5914.7495
1168.0107	5852.1152
1168.6211	5757.4419
1169.2314	5664.3633
1169.8418	5499.5054
1170.4521	5359.1812
1171.0625	5353.4053
1171.6729	5261.1582
1172.2832	5180.896
1172.8937	5113.519
1173.504	4947.1162
1174.1144	4868.8945
1174.7247	4804.5454
1175.3351	4693.146
1175.9454	4590.0444
1176.5558	4536.75
1177.1661	4432.4526
1177.7766	4355.5576
1178.387	4234.3433
1178.9973	4181.2363
1179.6077	4081.4255
1180.218	3952.1189
1180.8284	3868.9856
1181.4387	3875.6938
1182.0491	3780.7556
1182.6595	3806.9871
1183.2699	3724.7429
1183.8802	3573.219
1184.4906	3535.7214
1185.101	3442.7412
1185.7113	3333.2988
1186.3217	3314.8374
1186.932	3213.3936
1187.5425	3132.8494
1188.1528	3075.1951
1188.7632	3009.8298
1189.3735	2898.6362
1189.9839	2855.7607
1190.5942	2869.7119
1191.2046	2801.3127
1191.8149	2711.8088
1192.4253	2656.6118
1193.0358	2571.2368
1193.6461	2537.5735
1194.2565	2502.3811
1194.8668	2377.3325
1195.4772	2358.1558
1196.0875	2287.5623
1196.6979	2263.5815
1197.3082	2249.6628
1197.9187	2155.8816
1198.5291	2093.2974
1199.1394	2056.2949
1199.7498	2044.2313
1200.3601	2018.5765
1200.9705	1958.5155
1201.5808	1885.3842
1202.1912	1859.2263
1202.8016	1786.9761
1203.412	1755.1238
1204.0223	1721.0342
1204.6327	1656.9722
1205.243	1616.3157
1205.8534	1612.3716
1206.4637	1521.3093
1207.0741	1515.8761
1207.6846	1427.6813
1208.2949	1370.7786
1208.9053	1368.5963
1209.5156	1356.2097
1210.126	1344.2238
1210.7363	1281.1688
1211.3467	1279.4291
1211.957	1232.4597
1212.5675	1184.0906
1213.1779	1162.0308
1213.7882	1121.4468
1214.3986	1125.0496
1215.0089	1093.8494
1215.6193	1046.8457
1216.2296	1055.678
1216.84	1062.3829
1217.4503	1001.7454
1218.0608	985.20142
1218.6711	949.84454
1219.2815	940.85883
1219.8918	889.2926
1220.5022	841.71326
1221.1125	811.72162
1221.7229	836.54425
1222.3333	805.99762
1222.9437	788.04822
1223.5541	782.70569
1224.1644	762.41107
1224.7748	761.40393
1225.3851	758.26263
1225.9955	729.05054
1226.6058	726.23682
1227.2162	681.2395
1227.8267	671.24109
1228.437	639.46497
1229.0474	648.38513
1229.6577	640.01141
1230.2681	646.29999
1230.8784	620.39264
1231.4888	573.01215
1232.0991	564.37555
1232.7096	558.04437
1233.3199	539.42194
1233.9303	547.78754
1234.5406	551.40314
1235.151	532.94568
1235.7614	516.51697
1236.3717	499.76691
1236.9821	501.60294
1237.5925	502.138
1238.2029	479.1329
1238.8132	526.44287
1239.4236	478.00568
1240.0339	475.96671
1240.6443	464.16232
1241.2546	464.57831
1241.865	451.55447
1242.4753	436.59509
1243.0858	434.47693
1243.6962	427.05493
1244.3065	443.47119
1244.9169	455.9389
1245.5272	425.91586
1246.1376	411.59018
1246.7479	420.11536
1247.3583	400.08078
1247.9688	407.11523
1248.5791	410.99411
1249.1895	397.47812
1249.7998	389.65149
1250.4102	385.5733
1251.0205	375.79501
1251.6309	378.77545
1252.2412	365.99377
1252.8517	363.52887
1253.462	368.73746
1254.0724	362.49207
1254.6827	342.18378
1255.2931	346.17084
1255.9034	322.91849
1256.5138	340.7861
1257.1241	350.28418
1257.7346	364.47089
1258.345	340.80499
1258.9553	337.37704
1259.5657	299.09656
1260.176	331.28217
1260.7864	341.57257
1261.3967	338.73676
1262.0071	341.28482
1262.6176	325.86392
1263.2279	322.73636
1263.8383	342.57455
1264.4486	329.49091
1265.059	326.66467
1265.6693	320.91388
1266.2797	332.17703
1266.89	315.86987
1267.5005	322.69257
1268.1108	288.797
1268.7212	288.45325
1269.3315	287.68533
1269.9419	290.34473
1270.5522	283.21567
1271.1626	306.5098
1271.7729	298.7103
1272.3833	293.20587
1272.9938	303.6012
1273.6041	308.85669
1274.2145	288.04962
1274.8248	288.17468
1275.4352	263.23694
1276.0455	271.43472
1276.6559	269.28372
1277.2662	293.78708
1277.8767	281.28067
1278.4871	284.86923
1279.0974	284.33331
1279.7078	274.49176
1280.3181	273.17358
1280.9285	282.89755
1281.5388	285.23956
1282.1492	286.58997
1282.7596	276.35629
1283.37	276.20779
1283.9803	256.8898
1284.5907	272.93555
1285.201	251.16289
1285.8114	248.93523
1286.4218	264.677
1287.0321	233.64738
1287.6426	253.95856
1288.2529	251.10774
1288.8633	252.34259
1289.4736	260.00671
1290.084	262.26303
1290.6943	264.64212
1291.3047	250.92003
1291.915	243.32289
1292.5255	251.87975
1293.1359	256.47833
1293.7462	255.07597
1294.3566	262.28824
1294.9669	246.70613
1295.5773	253.0517
1296.1876	244.94148
1296.798	229.51288
1297.4083	229.56433
1298.0188	241.4796
1298.6292	244.91026
1299.2395	233.50322
1299.8499	240.43941
1300.4602	250.88167
1301.0706	228.47328
1301.6809	240.98616
1302.2913	228.37038
1302.9017	237.68982
1303.5121	233.65797
1304.1224	217.36649
1304.7328	224.45262
1305.3431	235.31348
1305.9535	230.62233
1306.5638	228.05617
1307.1742	237.93483
1307.7847	235.95903
1308.395	226.95216
1309.0054	207.9614
1309.6157	228.73676
1310.2261	217.86896
1310.8364	212.78839
1311.4468	213.4218
1312.0571	208.79243
1312.6676	219.37395
1313.278	213.36148
1313.8883	202.4903
1314.4987	203.84367
1315.109	210.78392
1315.7194	234.37611
1316.3297	215.54398
1316.9401	205.31772
1317.5505	199.48943
1318.1609	211.64977
1318.7712	215.72696
1319.3816	193.63838
1319.9919	205.91455
1320.6023	226.076
1321.2126	240.90616
1321.823	216.60205
1322.4333	217.17186
1323.0438	216.19766
1323.6542	206.91498
1324.2645	209.46449
1324.8749	208.04755
1325.4852	197.92578
1326.0956	191.30197
1326.7059	211.53659
1327.3163	213.12318
1327.9268	184.98575
1328.5371	213.02722
1329.1475	199.8848
1329.7578	206.93398
1330.3682	198.46527
1330.9785	198.89516
1331.5889	192.18091
1332.1992	200.13707
1332.8097	217.92117
1333.42	217.61334
1334.0304	199.69409
1334.6407	168.25143
1335.2511	214.51193
1335.8615	206.14188
1336.4718	196.60699
1337.0822	198.39818
1337.6926	206.87518
1338.303	208.05423
1338.9133	202.14659
1339.5237	195.94931
1340.134	192.14713
1340.7444	175.32603
1341.3547	181.12529
1341.9651	185.84251
1342.5756	215.71321
1343.1859	211.76079
1343.7963	199.48203
1344.4066	191.39836
1345.017	185.8132
1345.6273	188.6315
1346.2377	191.80197
1346.848	179.82425
1347.4584	193.4166
1348.0688	186.32162
1348.6792	183.34515
1349.2896	193.1319
1349.8999	185.82555
1350.5103	180.87361
1351.1206	180.71843
1351.731	192.22157
1352.3413	190.70494
1352.9518	181.46114
1353.5621	188.68616
1354.1725	191.22935
1354.7828	182.51866
1355.3932	174.48787
1356.0035	186.42131
1356.6139	180.72191
1357.2242	191.52583
1357.8347	180.91759
1358.4451	192.85989
1359.0554	167.71889
1359.6658	184.67317
1360.2761	190.50215
1360.8865	184.1497
1361.4968	180.46062
1362.1072	185.19952
1362.7177	181.27734
1363.328	189.55956
1363.9384	182.13176
1364.5487	178.07939
1365.1591	183.47484
1365.7694	167.72942
1366.3798	198.21143
1366.9901	188.70273
1367.6006	181.53101
1368.2109	172.88272
1368.8213	173.34471
1369.4316	192.65651
1370.042	185.80533
1370.6523	181.68073
1371.2627	177.22583
1371.873	170.02733
1372.4834	176.437
1373.0939	190.99753
1373.7042	179.59448
1374.3146	178.94115
1374.9249	182.39809
1375.5353	188.98602
1376.1456	176.41914
1376.756	172.40204
1377.3663	186.51294
1377.9768	151.9151
1378.5872	173.3688
1379.1975	161.16618
1379.8079	190.73148
1380.4182	173.29799
1381.0286	171.55977
1381.6389	189.18188
1382.2493	183.13495
1382.8597	190.53413
1383.4701	192.19867
1384.0804	176.52814
1384.6908	166.06264
1385.3011	177.74968
1385.9115	177.78026
1386.5219	183.25197
1387.1322	163.66603
1387.7427	187.0463
1388.353	185.37943
1388.9634	189.9467
1389.5737	180.27425
1390.1841	177.82263
1390.7944	192.44756
1391.4048	175.02452
1392.0151	181.23062
1392.6256	169.08229
1393.236	173.55232
1393.8463	170.41823
1394.4567	189.27023
1395.067	187.06454
1395.6774	179.02917
1396.2877	187.18454
1396.8981	179.52499
1397.5085	178.62708
1398.1189	173.51791
1398.7292	183.30273
1399.3396	166.59061
1399.95	179.52338
1400.5603	195.96385
1401.1707	164.04128
1401.781	182.61626
1402.3914	175.29643
1403.0018	178.64616
1403.6122	172.50012
1404.2225	178.71475
1404.8329	190.52672
1405.4432	187.47423
1406.0536	195.78935
1406.6639	185.4337
1407.2743	166.32393
1407.8848	183.76765
1408.4951	178.30145
1409.1055	174.04295
1409.7158	170.13138
1410.3262	165.28799
1410.9365	170.3878
1411.5469	176.25792
1412.1572	213.7321
1412.7677	178.20316
1413.3781	174.62993
1413.9884	163.1088
1414.5988	184.69466
1415.2091	188.73895
1415.8195	171.03877
1416.4298	181.2162
1417.0402	176.68663
1417.6506	182.28712
1418.261	177.24263
1418.8713	186.2662
1419.4817	189.73108
1420.092	180.50496
1420.7024	186.42944
1421.3127	181.98825
1421.9231	170.17027
1422.5336	179.79982
1423.1439	188.35649
1423.7543	193.71272
1424.3646	174.53748
1424.975	172.56033
1425.5853	151.51709
1426.1957	204.48502
1426.806	194.91283
1427.4164	181.02263
1428.0269	180.20677
1428.6372	174.76538
1429.2476	175.02188
1429.8579	171.68329
1430.4683	185.21117
1431.0786	176.41278
1431.689	185.07272
1432.2993	179.2823
1432.9098	165.95322
1433.5201	190.18777
1434.1305	166.2507
1434.7408	186.04243
1435.3512	194.69801
1435.9615	189.49507
1436.5719	189.23199
1437.1823	190.46417
1437.7927	180.66768
1438.4031	185.47339
1439.0134	165.6844
1439.6238	179.51532
1440.2341	179.50377
1440.8445	185.91252
1441.4548	181.42697
1442.0652	180.95364
1442.6757	175.0022
1443.286	165.57307
1443.8964	190.91687
1444.5067	190.92363
1445.1171	165.28201
1445.7274	186.43443
1446.3378	193.15291
1446.9481	183.82582
1447.5586	162.37816
1448.1689	179.86667
1448.7793	186.22844
1449.3896	179.81644
1450	183.52873
