300.02197	-164.11084
300.6178	-166.84999
301.21362	-175.34453
301.80942	-176.00694
302.40524	-163.31847
303.00107	-127.54011
303.59689	-41.092842
304.19269	-25.099983
304.78851	-123.3073
305.38434	-143.80202
305.98016	-142.19417
306.57599	-138.93295
307.17178	-133.45081
307.76761	-119.87145
308.36343	-117.99457
308.95926	-50.191643
309.55505	-13.676714
310.15088	-54.521294
310.7467	-96.146477
311.34253	-98.57251
311.93832	-98.070442
312.53415	-71.776085
313.12997	-87.670746
313.7258	-75.327812
314.32162	-63.432899
314.91742	-62.11084
315.51324	-39.311577
316.10907	-32.206718
316.7049	-27.875792
317.30069	-15.720172
317.89651	-12.293877
318.49234	-14.416532
319.08817	7.6674008
319.68399	26.248857
320.27979	29.23752
320.87561	38.387718
321.47144	37.159328
322.06726	78.088982
322.66306	77.437416
323.25888	89.491669
323.85471	114.99036
324.45053	128.97945
325.04633	128.81606
325.64215	135.03307
326.23798	164.09024
326.8338	183.29126
327.42963	206.37495
328.02542	244.37677
328.62125	221.34045
329.21707	274.94183
329.8129	311.68057
330.40869	313.3418
331.00452	338.08078
331.60034	373.04938
332.19617	384.07489
332.79199	396.54987
333.38779	423.43936
333.98361	469.07813
334.57944	503.89706
335.17526	535.51111
335.77106	562.46393
336.36688	602.08228
336.96271	651.98938
337.55853	676.3125
338.15436	698.9801
338.75015	727.05292
339.34598	758.16089
339.9418	807.58966
340.53763	850.12262
341.13342	892.91119
341.72925	900.96655
342.32507	925.4754
342.9209	1015.5836
343.51669	1056.5809
344.11252	1109.3578
344.70834	1170.4894
345.30417	1232.3025
345.89999	1291.7898
346.49579	1340.7888
347.09161	1372.4509
347.68744	1399.032
348.28326	1467.3816
348.87906	1533.0637
349.47488	1578.7526
350.07071	1634.7577
350.66653	1717.1484
351.26236	1797.774
351.85815	1849.2958
352.45398	1937.131
353.0498	2001.7086
353.64563	2032.0269
354.24142	2132.2275
354.83725	2260.6121
355.43307	2349.3359
356.0289	2419.4028
356.62469	2451.9216
357.22052	2527.5332
357.81635	2562.291
358.41217	2687.7061
359.008	2772.8394
359.60379	2901.1538
360.19962	3028.4976
360.79544	3068.0427
361.39127	3111.2046
361.98706	3254.7766
362.58289	3341.4265
363.17871	3342.1584
363.77454	3522.7278
364.37036	3641.7742
364.96616	3818.1484
365.56198	3847.9644
366.15781	3999.2688
366.75363	4045.8804
367.34943	4095.7668
367.94525	4244.8755
368.54108	4405.5386
369.1369	4538.6602
369.73273	4648.7754
370.32852	4717.3931
370.92435	4864.0352
371.52017	4893.7339
372.116	5082.4453
372.71179	5243.4546
373.30762	5375.0327
373.90344	5467.0967
374.49927	5614.3833
375.09506	5724.187
375.69089	5821.8672
376.28671	5986.5083
376.88254	6123.3315
377.47836	6249.6523
378.07416	6472.7837
378.66998	6577.7471
379.26581	6776.4058
379.86163	6885.7427
380.45743	6978.1021
381.05325	7114.2515
381.64908	7305.5044
382.2449	7435.3213
382.84073	7614.6479
383.43652	7790.9956
384.03235	7902.437
384.62817	8082.8843
385.224	8147.9697
385.81979	8274.2393
386.41562	8385.4922
387.01144	8668.7891
387.60727	8854.3018
388.20306	8955.0166
388.79889	9161.7266
389.39471	9285.916
389.99054	9402.291
390.58636	9562.4414
391.18216	9719.835
391.77798	9879.2207
392.37381	10042.791
392.96964	10135.319
393.56543	10305.336
394.16125	10534.067
394.75708	10652.77
395.35291	10817.112
395.94873	11052.75
396.54453	11171.653
397.14035	11317.408
397.73618	11488.241
398.332	11610.178
398.9278	11826.804
399.52362	12050.249
400.11945	12049.919
400.71527	12174.137
401.3111	12508.502
401.90689	12511.393
402.50272	12734.824
403.09854	12759.562
403.69437	12901.902
404.29016	13082.008
404.88599	13163.664
405.48181	13387.275
406.07764	13619.737
406.67343	13730.238
407.26926	13884.563
407.86508	14101.301
408.46091	14170.631
409.05673	14309.803
409.65253	14556.933
410.24835	14622.643
410.84418	14749.71
411.44	15062.618
412.0358	14910.799
412.63162	14977.106
413.22745	15156.478
413.82327	15346.156
414.4191	15498.598
415.01489	15633.538
415.61072	15786.574
416.20654	15952.428
416.80237	16107.694
417.39816	16172.653
417.99399	16145.111
418.58981	16315.306
419.18564	16479.129
419.78143	16624.025
420.37726	16711.172
420.97308	16807.709
421.56891	16953.781
422.16473	17074.98
422.76053	17123.574
423.35635	17218.193
423.95218	17391.084
424.548	17532.242
425.1438	17676.041
425.73962	17778.58
426.33545	17718.949
426.93127	17820.24
427.5271	17834.363
428.12289	18081.012
428.71872	18302.559
429.31454	18269.273
429.91037	18425.625
430.50616	18584.113
431.10199	18520.439
431.69781	18473.475
432.29364	18591.738
432.88947	18744.918
433.48526	18965.578
434.08109	19164.311
434.67691	19227.994
435.27274	19259.121
435.86853	19270.611
436.46436	19375.52
437.06018	19404.813
437.65601	19589.115
438.2518	19701.424
438.84763	19716.107
439.44345	19820.869
440.03928	19873.85
440.6351	19876.896
441.2309	19935.145
441.82672	19936.506
442.42255	20129.479
443.01837	20205.236
443.61417	20117.674
444.20999	20479.996
444.80582	20487.787
445.40164	20262.193
445.99747	20403.146
446.59326	20645.758
447.18909	20734.879
447.78491	20782.326
448.38074	20931.906
448.97653	20996.918
449.57236	20897.697
450.16818	20883.516
450.76401	21020.201
451.3598	21166.588
451.95563	21283.676
452.55145	21423.285
453.14728	21455.744
453.7431	21357.219
454.3389	21472.982
454.93472	21406.559
455.53055	21420.949
456.12637	21568.129
456.72217	21767.338
457.31799	21823.764
457.91382	21831.594
458.50964	21823.369
459.10547	21811.412
459.70126	22029.533
460.29709	21886.289
460.89291	22054.729
461.48874	22244.324
462.08453	22302.836
462.68036	22303.91
463.27618	22496.723
463.87201	22508.514
464.46783	22509.268
465.06363	22602.445
465.65945	22651.834
466.25528	22765.318
466.8511	22980.133
467.4469	23112.479
468.04272	23104.787
468.63855	23087.869
469.23438	23089.041
469.83017	23068.818
470.42599	23294.049
471.02182	23469.809
471.61765	23468.148
472.21347	23669.168
472.80927	23705.238
473.40509	23762.939
474.00092	23787.305
474.59674	23874.336
475.19254	24062.508
475.78836	24180.207
476.38419	24232.012
476.98001	24365.717
477.57584	24392.5
478.17163	24207.295
478.76746	24428.906
479.36328	24414.279
479.95911	24427.672
480.5549	24624.148
481.15073	24815.283
481.74655	24808.189
482.34238	24757.814
482.93817	24846.029
483.534	24877.807
484.12982	24843.998
484.72565	24812.416
485.32147	24952.219
485.91727	25190.398
486.51309	25263.451
487.10892	25175.305
487.70474	25058.266
488.30054	25039.398
488.89636	25199.725
489.49219	25245.293
490.08801	25125.301
490.68384	25245.32
491.27963	25171.393
491.87546	24998.094
492.47128	24859.879
493.06711	24860.914
493.6629	24974.102
494.25873	25045.582
494.85455	25042.955
495.45038	25028.098
496.0462	24899.162
496.642	24634.305
497.23782	24539.654
497.83365	24525.654
498.42947	24496.242
499.02527	24493.127
499.62109	24247.178
500.21692	24291.443
500.81274	23964.516
501.40854	23870.406
502.00436	23802.566
502.60019	23655.486
503.19601	23497.77
503.79184	23537.227
504.38763	23479.707
504.98346	23282.027
505.57928	23052.879
506.17511	22856.924
506.7709	22821.932
507.36673	22515.129
507.96255	22286.01
508.55838	22201.787
509.15421	22229.398
509.75	22061.561
510.34583	21758.592
510.94165	21454.518
511.53748	21332.559
512.1333	21038.543
512.72913	20918.055
513.32489	20904.525
513.92072	20791.039
514.51654	20631.811
515.11237	20418.771
515.70819	20140.172
516.30402	19928.639
516.89984	19782.846
517.49567	19647.23
518.09149	19563.639
518.68726	19345.227
519.28308	19034.73
519.87891	19054.109
520.47473	18898.131
521.07056	18568.512
521.66638	18565.383
522.26221	18336.809
522.85803	18323.234
523.45386	18021.662
524.04962	17952.1
524.64545	17903.383
525.24127	17663.461
525.8371	17480.816
526.43292	17373.107
527.02875	17341.318
527.62457	17423.652
528.2204	17265.254
528.81622	17102.998
529.41199	16749.6
530.00781	16774.207
530.60364	16695.012
531.19946	16582.051
531.79529	16623.002
532.39111	16503.168
532.98694	16371.48
533.58276	16212.077
534.17859	16138.826
534.77435	16053.417
535.37018	16002.008
535.966	16004.042
536.56183	16008.865
537.15765	15957.199
537.75348	15869.42
538.3493	15880.483
538.94513	15733.72
539.54089	15646.389
540.13672	15728.873
540.73254	15715.432
541.32837	15731.318
541.92419	15720.466
542.52002	15670.005
543.11584	15674.305
543.71167	15579.943
544.3075	15519.163
544.90326	15483.115
545.49908	15567.721
546.09491	15642.544
546.69073	15574.495
547.28656	15614.604
547.88239	15687.325
548.47821	15541.466
549.07404	15556.021
549.66986	15692.686
550.26563	15722.366
550.86145	15797.509
551.45728	15895.319
552.0531	15849.358
552.64893	15815.354
553.24475	15816.505
553.84058	15701.845
554.4364	15926.71
555.03223	16106.599
555.62799	16268.087
556.22382	16208.501
556.81964	16255.413
557.41547	16339.013
558.01129	16397.273
558.60712	16398.738
559.20294	16446.801
559.79877	16653.73
560.39459	16775.842
560.99036	16945.707
561.58618	16938.152
562.18201	16946.855
562.77783	17073.963
563.37366	17020.961
563.96948	17320.738
564.56531	17340.344
565.16113	17372.467
565.75696	17420.092
566.35272	17446.193
566.94855	17425.172
567.54437	17428.008
568.1402	17470.521
568.73602	17558.936
569.33185	17526.119
569.92767	17560.688
570.5235	17661.715
571.11926	17552.461
571.71509	17438.119
572.31091	17468.203
572.90674	17486.301
573.50256	17609.775
574.09839	17515.094
574.69421	17462.158
575.29004	17442.711
575.88586	17501.67
576.48163	17240.721
577.07745	17090.182
577.67328	17108.244
578.2691	17004.609
578.86493	16978.17
579.46075	16910.771
580.05658	16791.402
580.6524	16630.875
581.24823	16484.186
581.84399	16388.604
582.43982	16222.18
583.03564	16112.918
583.63147	16171.902
584.22729	16039.203
584.82312	15786.644
585.41895	15653.539
586.01477	15560.499
586.6106	15359.592
587.20636	15279.354
587.80219	15178.982
588.39801	15104.058
588.99384	15054.422
589.58966	14922.818
590.18549	14707.182
590.78131	14461.878
591.37714	14281.97
591.97296	14203.013
592.56873	14125.502
593.16455	13974.153
593.76038	13878.581
594.3562	13825.971
594.95203	13710.235
595.54785	13506.713
596.14368	13339.916
596.7395	13287.296
597.33533	13157.817
597.93109	13069.278
598.52692	12934.823
599.12274	12850.016
599.71857	12644.525
600.31439	12524.944
600.91022	12519.214
601.50604	12403.572
602.10187	12325.129
602.69763	12306.424
603.29346	12172.096
603.88928	12059.951
604.48511	11892.868
605.08093	11703.913
605.67676	11647.007
606.27258	11612.399
606.86841	11569.672
607.46423	11536.037
608.06	11416.913
608.65582	11304.376
609.25165	11226.289
609.84747	11071.148
610.4433	11067.707
611.03912	11058.446
611.63495	10949.255
612.23077	10984.599
612.8266	10973.235
613.42236	10704.31
614.01819	10556.355
614.61401	10655.937
615.20984	10609.106
615.80566	10357.452
616.40149	10493.285
616.99731	10460.167
617.59314	10385.951
618.18896	10218.284
618.78473	10188.804
619.38055	10199.763
619.97638	10106.876
620.5722	10038.943
621.16803	10057.493
621.76385	10034.77
622.35968	9898.54
622.95551	9772.2529
623.55133	9740.3213
624.14709	9726.7305
624.74292	9768.5703
625.33875	9740.0498
625.93457	9690.25
626.5304	9771.1602
627.12622	9683.2725
627.72205	9514.6865
628.31787	9396.9541
628.9137	9429.043
629.50946	9444.877
630.10529	9381.4912
630.70111	9354.5078
631.29694	9456.0352
631.89276	9326.0352
632.48859	9299.2939
633.08441	9177.4111
633.68024	9120.3418
634.276	9112.71
634.87183	9081.3877
635.46765	9082.5107
636.06348	9051.1768
636.6593	8987.8057
637.25513	8969.9844
637.85095	8903.4424
638.44678	8812.4844
639.0426	8818.6455
639.63837	8788.5488
640.23419	8765.3438
640.83002	8731.5078
641.42584	8674.4258
642.02167	8623.9414
642.61749	8573.4102
643.21332	8575.1309
643.80914	8542.0127
644.40497	8653.7969
645.00073	8568.998
645.59656	8533.5
646.19238	8432.75
646.78821	8417.5254
647.38403	8319.5371
647.97986	8333.6582
648.57568	8324.8662
649.17151	8342.4111
649.76733	8291.8486
650.3631	8272.0439
650.95892	8318.1318
651.55475	8260.6074
652.15057	8226.2832
652.7464	8210.3076
653.34222	8130.2051
653.93805	8243.8301
654.53387	8247.6133
655.1297	8178.4717
655.72546	8103.4956
656.32129	8075.0474
656.91711	8058.9517
657.51294	8063.6899
658.10876	7937.2803
658.70459	8172.9082
659.30042	8041.001
659.89624	8144.6958
660.49207	8038.021
661.08783	7986.0918
661.68365	7940.1606
662.27948	8017.1279
662.87531	8019.8403
663.47113	8025.9194
664.06696	8039.5571
664.66278	7977.272
665.25861	8026.8682
665.85437	8069.3018
666.4502	8024.4741
667.04602	8018.2979
667.64185	8050.1377
668.23767	8060.437
668.8335	8009.5532
669.42932	7986.3276
670.02515	7998.2319
670.62097	7907.8662
671.21674	8047.8301
671.81256	8101.1543
672.40839	8115.2026
673.00421	8138.4292
673.60004	8140.5156
674.19586	8124.2451
674.79169	8155.2949
675.38751	8116.7764
675.98334	8265.9121
676.5791	8076.1484
677.17493	8162.6768
677.77075	8219.001
678.36658	8143.7563
678.9624	8091.3262
679.55823	8119.625
680.15405	8166.687
680.74988	8129.395
681.3457	8251.5166
681.94147	8326.7715
682.53729	8304.2197
683.13312	8218.9863
683.72894	8184.3735
684.32477	8229.8604
684.92059	8188.6982
685.51642	8121.0073
686.11224	8194.2764
686.70807	8314.7676
687.30383	8343.5293
687.89966	8292.3086
688.49548	8264.4521
689.09131	8274.752
689.68713	8291.6162
690.28296	8315.8779
690.87878	8377.1416
691.47461	8470.6162
692.07043	8430.0645
692.6662	8200.8125
693.26202	8429.4834
693.85785	8400.0498
694.45367	8271.5342
695.0495	8332.5068
695.64532	8494.3955
696.24115	8384.4658
696.83698	8443.6162
697.43274	8328.6084
698.02856	8340.4063
698.62439	8399.1436
699.22021	8432.1982
699.81604	8404.9395
700.41187	8406.9033
701.00769	8496.2441
701.60352	8519.4287
702.19934	8475.6953
702.7951	8456.1553
703.39093	8417.9248
703.98676	8419.6006
704.58258	8436.874
705.17841	8400.0654
705.77423	8355.3467
706.37006	8370.9268
706.96588	8399.6621
707.56171	8321.8115
708.15747	8348.3369
708.7533	8445.6963
709.34912	8456.2705
709.94495	8368.9854
710.54077	8372.5469
711.1366	8379.7949
711.73242	8354.6699
712.32825	8392.8037
712.92407	8417.9883
713.51984	8367.3662
714.11566	8465.8838
714.71149	8274
715.30731	8511.9395
715.90314	8459.417
716.49896	8198.1279
717.09479	8270.4219
717.69061	8177.4751
718.28644	8220.2949
718.8822	8339.7549
719.47803	8377.9131
720.07385	8301.4521
720.66968	8228.0361
721.2655	8274.4961
721.86133	8249.2578
722.45715	8252.9258
723.05298	8238.8018
723.6488	8293.9688
724.24457	8221.6172
724.84039	8235.3887
725.43622	8237.7695
726.03204	8135.5313
726.62787	8125.5474
727.22369	8144.2373
727.81952	8160.9497
728.41534	8130.0654
729.01111	8154.062
729.60693	8251.6416
730.20276	8109.3892
730.79858	7964.291
731.39441	8120.5313
731.99023	8205.0313
732.58606	8043.7012
733.18188	8114.1499
733.77771	8153.2847
734.37347	8027.4932
734.9693	8079.1392
735.56512	7966.7891
736.16095	8009.4312
736.75677	8047.3467
737.3526	8091.8545
737.94843	8083.3584
738.54425	7996.6333
739.14008	8059.3613
739.73584	7980.2793
740.33167	7996.7793
740.92749	7955.5874
741.52332	8020.7402
742.11914	7958.3081
742.71497	7843.4287
743.31079	7928.7339
743.90662	7952.4668
744.50244	7934.9541
745.09821	7900.6152
745.69403	7879.209
746.28986	7833.2856
746.88568	7860.9473
747.48151	7852.0894
748.07733	7816.1162
748.67316	7707.9019
749.26898	7690.4082
749.86481	7626.3477
750.46057	7645.1377
751.0564	7701.0479
751.65222	7683.667
752.24805	7775.5693
752.84387	7806.5439
753.4397	7750.0518
754.03552	7637.0854
754.63135	7619.7544
755.22717	7618.3735
755.82294	7611.8145
756.41876	7620.6138
757.01459	7634.0308
757.61041	7698.8779
758.20624	7630.2485
758.80206	7569.1685
759.39789	7452.0205
759.99371	7425.6597
760.58948	7511.9727
761.1853	7509.2676
761.78113	7585.7065
762.37695	7507.0889
762.97278	7533.1001
763.5686	7403.3745
764.16443	7407.3096
764.76025	7358.9663
765.35608	7369.3218
765.95184	7323.7417
766.54767	7322.9263
767.14349	7219.561
767.73932	7315.3267
768.33514	7354.6455
768.93097	7218.873
769.52679	7191.4849
770.12262	7211.415
770.71844	7203.8706
771.31421	7203.6206
771.91003	7244.7485
772.50586	7144.1172
773.10168	7056.3833
773.69751	7061.7153
774.29333	7069.4204
774.88916	7128.4131
775.48499	7112.7334
776.08081	7086.6895
776.67657	7025.5371
777.2724	6971.5005
777.86823	6962.6841
778.46405	6943.731
779.05988	6919.1685
779.6557	6965.3931
780.25153	6922.0693
780.84735	6819.1724
781.44318	6834.1016
782.03894	6845.4531
782.63477	6789.168
783.23059	6752.6294
783.82642	6792.1128
784.42224	6820.9097
785.01807	6763.3594
785.61389	6713.2075
786.20972	6674.3394
786.80554	6602.5615
787.40131	6509.9512
787.99713	6579.4331
788.59296	6516.1084
789.18878	6482.8438
789.78461	6471.2217
790.38043	6520.6602
790.97626	6403.0659
791.57208	6422.1416
792.16785	6299.6646
792.76367	6312.9648
793.3595	6392.6714
793.95532	6320.0039
794.55115	6341.6294
795.14697	6240.1372
795.7428	6192.1187
796.33862	6178.1992
796.93445	6121.856
797.53021	6058.562
798.12604	6139.4136
798.72186	6095.0718
799.31769	6060.2139
799.91351	6074.0107
800.50934	5938.7236
801.10516	5880.936
801.70099	5838.8984
802.29681	5824.7417
802.89258	5716.6118
803.4884	5866.8579
804.08423	5859.7104
804.68005	5795.8564
805.27588	5663.5605
805.8717	5766.7915
806.46753	5684.3774
807.06335	5681.4741
807.65918	5619.1558
808.25494	5683.6855
808.85077	5645.2476
809.44659	5577.1733
810.04242	5563.6611
810.63824	5491.2749
811.23407	5491.2915
811.8299	5524.8081
812.42572	5517.5151
813.02155	5474.7451
813.61731	5413.9858
814.21313	5432.854
814.80896	5371.7339
815.40479	5384.0576
816.00061	5361.4834
816.59644	5317.8525
817.19226	5339.6519
817.78809	5332.6938
818.38391	5342.5894
818.97968	5339.0562
819.5755	5349.6011
820.17133	5319.5718
820.76715	5293.4253
821.36298	5333.4209
821.9588	5287.8062
822.55463	5256.7402
823.15045	5282.9092
823.74622	5241.3926
824.34204	5177.9756
824.93787	5217.9243
825.53369	5215.2505
826.12952	5183.2261
826.72534	5208.334
827.32117	5132.1196
827.91699	5138.606
828.51282	5215.0039
829.10858	5156.7344
829.70441	5129.1821
830.30023	5188.0479
830.89606	5170.6108
831.49188	5154.686
832.08771	5144.6904
832.68353	5157.2881
833.27936	5166.373
833.87518	5138.3267
834.47095	5110.9878
835.06677	5106.0513
835.6626	5129.4492
836.25842	5196.1611
836.85425	5150.0952
837.45007	5155.7153
838.0459	5108.7046
838.64172	5102.0054
839.23755	5105.3208
839.83331	5081.4175
840.42914	5089.6479
841.02496	5153.8511
841.62079	5149.4312
842.21661	5195.4731
842.81244	5127.2354
843.40826	5117.1309
844.00409	5155.8662
844.59991	5159.6494
845.19568	5167.1787
845.7915	5075.0034
846.38733	5143.1108
846.98315	5151.2788
847.57898	5193.6255
848.1748	5177.7266
848.77063	5104.8687
849.36646	5141.3389
849.96228	5111.915
850.55804	5226.1367
851.15387	5181.729
851.74969	5143.2842
852.34552	5190.3394
852.94135	5129.3105
853.53717	5133.5479
854.133	5237.5386
854.72882	5205.5859
855.32458	5217.4414
855.92041	5213.5347
856.51624	5153.2065
857.11206	5131.3311
857.70789	5180.7485
858.30371	5183.6475
858.89954	5200.4463
859.49536	5249.1602
860.09119	5155.1152
860.68695	5206.8423
861.28278	5158.2974
861.8786	5268.2471
862.47443	5188.6655
863.07025	5202.4829
863.66608	5251.4033
864.2619	5257.0713
864.85773	5287.29
865.45355	5231.8789
866.04932	5235.6289
866.64514	5272.6177
867.24097	5222.6782
867.83679	5227.6328
868.43262	5282.353
869.02844	5304.9194
869.62427	5312.7178
870.22009	5311.9365
870.81592	5244.3931
871.41168	5263.4009
872.00751	5278.3296
872.60333	5313.6313
873.19916	5315.2446
873.79498	5337.8569
874.39081	5350.1265
874.98663	5338.5981
875.58246	5321.5239
876.17828	5281.6719
876.77405	5279.6719
877.36987	5369.2485
877.9657	5398.728
878.56152	5391.3755
879.15735	5344.3271
879.75317	5380.4038
880.349	5408.1123
880.94482	5390.1904
881.54065	5349.4512
882.13641	5397.6538
882.73224	5419.6289
883.32806	5421.6387
883.92389	5345.3052
884.51971	5445.1328
885.11554	5385.208
885.71136	5390.4043
886.30719	5450.5073
886.90295	5401.9277
887.49878	5472.8188
888.0946	5543.2607
888.69043	5472.4307
889.28625	5524.2925
889.88208	5518.3379
890.47791	5492.271
891.07373	5473.3071
891.66956	5585.8384
892.26532	5621.1777
892.86115	5610.9058
893.45697	5598.6895
894.0528	5625.8975
894.64862	5586.7749
895.24445	5610.9863
895.84027	5576.7764
896.4361	5709.2842
897.03192	5726.7173
897.62769	5780.3188
898.22351	5782.0977
898.81934	5783.3618
899.41516	5798.5947
900.01099	5822.3213
900.60681	5813.1484
901.20264	5867.7168
901.79846	5879.98
902.39429	5890.9512
902.99005	5913.2554
903.58588	5886.542
904.1817	5919.3872
904.77753	5964.9473
905.37335	5926.5449
905.96918	5997.2324
906.565	6051.8145
907.16083	6055.5342
907.75665	6109.5918
908.35242	6113.2881
908.94824	6042.4595
909.54407	6138.0791
910.13989	6252.7471
910.73572	6263.9175
911.33154	6292.0908
911.92737	6312.8008
912.52319	6335.3955
913.11902	6367.9971
913.71478	6369.9067
914.31061	6477.9644
914.90643	6529.4473
915.50226	6500.7241
916.09808	6489.5508
916.69391	6599.0449
917.28973	6618.8584
917.88556	6652.7993
918.48132	6660.7168
919.07715	6683.6265
919.67297	6662.9175
920.2688	6784.8491
920.86462	6830.5728
921.46045	6839.2134
922.05627	6921.7886
922.6521	6915.5952
923.24792	6916.5181
923.84369	6993.981
924.43951	7083.2935
925.03534	7112.5757
925.63116	7140.7773
926.22699	7235.8911
926.82281	7174.5703
927.41864	7279.1895
928.01447	7342.4741
928.61029	7313.7661
929.20605	7435.9575
929.80188	7514.0093
930.39771	7571.8833
930.99353	7592.7651
931.58936	7549.4175
932.18518	7499.3403
932.78101	7533.123
933.37683	7628.6401
933.97266	7752.8208
934.56842	7779.5576
935.16425	7989.7119
935.76007	7924.8071
936.3559	7881.6831
936.95172	7833.9028
937.54755	7925.4795
938.14337	7889.4307
938.7392	8186.1406
939.33502	8127.4521
939.93079	8182.915
940.52661	8333.2705
941.12244	8232.2813
941.71826	8283.7432
942.31409	8240.8584
942.90991	8337.4385
943.50574	8452.1748
944.10156	8444.5117
944.69739	8482.7764
945.29315	8462.8398
945.88898	8513.959
946.4848	8588.2051
947.08063	8621.7686
947.67645	8715.0459
948.27228	8824.209
948.8681	8860.7988
949.46393	8817.9297
950.05969	8860.8545
950.65552	8912.5098
951.25134	8940.0693
951.84717	8887.2803
952.44299	9019.4199
953.03882	9007.5068
953.63464	9181.8145
954.23047	9103.4951
954.82629	9052.2334
955.42206	9113.6611
956.01788	9163.2813
956.61371	9288.1729
957.20953	9248.2422
957.80536	9330.917
958.40118	9309.3105
958.99701	9411.6602
959.59283	9547.3438
960.18866	9510.2119
960.78442	9564.5791
961.38025	9548.4551
961.97607	9532.9004
962.5719	9658.9668
963.16772	9669.3691
963.76355	9646.6982
964.35938	9656.1641
964.9552	9700.5371
965.55103	9680.1641
966.14679	9723.373
966.74261	9859.5869
967.33844	9739.0664
967.93427	10006.664
968.53009	10007.97
969.12592	10004.123
969.72174	9986.8105
970.31757	10023.225
970.91339	10017.679
971.50916	10119.983
972.10498	10203.425
972.70081	10225.818
973.29663	10137.381
973.89246	10148.767
974.48828	10134.763
975.08411	10274.353
975.67993	10272.772
976.27576	10320.573
976.87152	10390.261
977.46735	10423.545
978.06317	10287.544
978.659	10376.706
979.25482	10539.375
979.85065	10473.634
980.44647	10502.754
981.0423	10516.472
981.63806	10593.265
982.23389	10585.087
982.82971	10490.477
983.42554	10533.668
984.02136	10574.916
984.61719	10599.37
985.21301	10675.846
985.80884	10783.738
986.40466	10822.89
987.00043	10821.004
987.59625	10884.627
988.19208	10872.308
988.7879	10877.081
989.38373	10939.646
989.97955	10976.636
990.57538	10897.979
991.1712	11082.367
991.76703	11024.67
992.36279	11071.955
992.95862	11070.883
993.55444	11103.519
994.15027	11150.872
994.74609	11139.648
995.34192	11113.217
995.93774	11131.896
996.53357	11264.571
997.12939	11313.641
997.72516	11139.762
998.32098	11324.627
998.91681	11363.091
999.51263	11411.725
1000.1085	11369.654
1000.7043	11422.676
1001.3001	11327.495
1001.8959	11365.053
1002.4918	11314.397
1003.0875	11374.384
1003.6833	11322.634
1004.2792	11397.607
1004.875	11459.619
1005.4708	11491.819
1006.0667	11500.012
1006.6625	11322.258
1007.2583	11374.247
1007.8541	11387.246
1008.4499	11678.741
1009.0457	11571.032
1009.6415	11620.916
1010.2374	11614.027
1010.8332	11574.09
1011.429	11497.91
1012.0248	11526.075
1012.6207	11526.144
1013.2164	11471.812
1013.8123	11584.456
1014.4081	11594.042
1015.0039	11572.387
1015.5997	11639.89
1016.1956	11608.455
1016.7914	11658.37
1017.3872	11648.243
1017.983	11740.562
1018.5788	11816.828
1019.1746	11804.469
1019.7704	11862.729
1020.3663	11702.616
1020.9621	11696.885
1021.5579	11735.27
1022.1537	11752.283
1022.7496	11896.64
1023.3454	11753.318
1023.9412	11798.854
1024.537	11829.651
1025.1328	11808.304
1025.7286	11794.236
1026.3245	11849.479
1026.9203	11849.745
1027.5161	12043.679
1028.1119	11885.969
1028.7078	12044.566
1029.3036	12086.108
1029.8994	12044.023
1030.4952	12036.141
1031.0911	11953.331
1031.6868	12039.108
1032.2826	12027.167
1032.8784	11966.583
1033.4742	11963.571
1034.0701	12209.158
1034.6659	11975.69
1035.2617	11972.499
1035.8575	12000.151
1036.4534	12192.896
1037.0492	12101.298
1037.645	12132.085
1038.2408	12207.856
1038.8367	12178.306
1039.4325	12058.313
1040.0283	12072.454
1040.6241	12066.395
1041.22	12144.466
1041.8158	12160.538
1042.4115	12098.776
1043.0073	12114.661
1043.6031	12172.383
1044.199	12157.521
1044.7948	12033.371
1045.3906	11972.995
1045.9865	11982.446
1046.5823	12053.086
1047.1781	12144.752
1047.7739	12186.304
1048.3698	12067.717
1048.9656	11953.709
1049.5614	12036.185
1050.1572	11990.423
1050.7531	12017.938
1051.3489	12095.558
1051.9447	12083.42
1052.5405	11983.81
1053.1362	11868.346
1053.7321	11915.197
1054.3279	11888.472
1054.9237	11829.636
1055.5195	11837.783
1056.1154	11927.875
1056.7112	11994.136
1057.307	11941.354
1057.9028	11855.238
1058.4987	11847.879
1059.0945	11807.114
1059.6903	11805.273
1060.2861	11841.827
1060.882	11884.818
1061.4778	11887.111
1062.0736	11681.937
1062.6694	11721.726
1063.2651	11703.242
1063.861	11591.567
1064.4568	11614.468
1065.0526	11676.649
1065.6484	11663.413
1066.2443	11649.458
1066.8401	11552.128
1067.4359	11375.776
1068.0317	11455.952
1068.6276	11347.807
1069.2234	11370.54
1069.8192	11314.622
1070.415	11331.784
1071.0109	11340.169
1071.6067	11206.814
1072.2025	11161.6
1072.7983	11117.248
1073.3942	11233.319
1073.9899	11256.712
1074.5857	11107.86
1075.1815	11150.183
1075.7773	11153.434
1076.3732	11194.477
1076.969	11049.699
1077.5648	10927.807
1078.1606	10887.99
1078.7565	10868.565
1079.3523	10908.406
1079.9481	10908.636
1080.5439	10788.151
1081.1398	10770.291
1081.7356	10656.225
1082.3314	10584.07
1082.9272	10613.886
1083.5231	10602.708
1084.1189	10559.87
1084.7146	10551.551
1085.3104	10490.045
1085.9063	10422.84
1086.5021	10391.489
1087.0979	10307.377
1087.6937	10227.619
1088.2896	10266.169
1088.8854	10203.528
1089.4812	10088.06
1090.077	10136.161
1090.6729	10064.424
1091.2687	9922.3691
1091.8645	9897.7871
1092.4603	9907.1094
1093.0562	9888.9375
1093.652	9883.5254
1094.2478	9844.9082
1094.8435	9775.6816
1095.4393	9651.3662
1096.0352	9571.4023
1096.631	9606.5635
1097.2268	9582.2236
1097.8226	9483.9131
1098.4185	9545.8994
1099.0143	9471.3418
1099.6101	9412.4541
1100.2059	9357.6787
1100.8018	9284.4092
1101.3976	9229.9297
1101.9934	9095.6904
1102.5892	9122.9277
1103.1851	9250.1621
1103.7809	9183.4609
1104.3767	9090.0039
1104.9725	9007.5283
1105.5682	8905.7773
1106.1641	8936.9609
1106.7599	8866.5146
1107.3557	8893.8604
1107.9515	8842.873
1108.5474	8787.7373
1109.1432	8792.9961
1109.739	8615.5264
1110.3348	8628.2314
1110.9307	8534.9141
1111.5265	8521.5254
1112.1223	8411.8789
1112.7181	8493.2314
1113.314	8468.2842
1113.9098	8330.5
1114.5056	8300.9834
1115.1014	8239.6377
1115.6973	8169.6816
1116.293	8207.9629
1116.8888	8173.0859
1117.4846	8126.2974
1118.0804	8086.1719
1118.6763	8008.3555
1119.2721	7953.0352
1119.8679	7949.9756
1120.4637	8057.3379
1121.0596	7682.3579
1121.6554	7937.1108
1122.2512	7937.1108
1122.847	7937.1108
1123.4429	7682.3579
1124.0387	7682.3579
1124.6345	7682.3579
1125.2303	7876.6646
1125.8262	7628.1099
1126.4219	7591.0674
1127.0177	7574.4111
1127.6135	7481.6479
1128.2094	7427.7847
1128.8052	7343.0244
1129.401	7291.3892
1129.9968	7239.2773
1130.5927	7183.1665
1131.1885	7172.2388
1131.7843	7143.5093
1132.3801	7256.8877
1132.976	7109.2925
1133.5718	6986.9951
1134.1676	6943.8687
1134.7634	7052.8926
1135.3593	6952.1357
1135.9551	6855.3389
1136.5509	6955.3906
1137.1466	6878.0869
1137.7424	6860.2573
1138.3383	6708.1646
1138.9341	6721.5327
1139.5299	6751.0225
1140.1257	6633.1675
1140.7216	6657.2461
1141.3174	6638.1035
1141.9132	6581.5493
1142.509	6524.1519
1143.1049	6468.127
1143.7007	6394.083
1144.2965	6389.3853
1144.8923	6422.1284
1145.4882	6364.4839
1146.084	6306.5645
1146.6798	6295.8262
1147.2756	6300.5376
1147.8713	6221.5483
1148.4672	6148.1265
1149.063	6136.7461
1149.6588	6208.3706
1150.2546	6120.1357
1150.8505	6054.519
1151.4463	6004.542
1152.0421	5975.4614
1152.6379	5843.8491
1153.2338	5915.0396
1153.8296	5812.3071
1154.4254	5887.1841
1155.0212	5902.186
1155.6171	5843.4458
1156.2129	5688.1958
1156.8087	5619.0938
1157.4045	5628.4487
1158.0002	5651.5938
1158.5961	5709.0625
1159.1919	5757.7324
1159.7877	5683.1602
1160.3835	5624.2197
1160.9794	5508.9321
1161.5752	5405.1499
1162.171	5428.499
1162.7668	5455.7046
1163.3627	5425.5981
1163.9585	5387.3477
1164.5543	5350.7827
1165.1501	5351.605
1165.746	5287.7573
1166.3418	5231.0913
1166.9376	5212.5313
1167.5334	5257.2598
1168.1293	5259.8394
1168.725	5149.6162
1169.3208	5148.0264
1169.9166	5271.8433
1170.5125	5157.9771
1171.1083	5042.5952
1171.7041	5033.625
1172.2999	4957.3286
1172.8958	5006.4658
1173.4916	5065.2378
1174.0874	4946.1147
1174.6832	4914.3032
1175.2791	4897.4565
1175.8749	4834.2979
1176.4707	4931.0029
1177.0665	4881.3838
1177.6624	4825.5098
1178.2582	4882.5747
1178.854	4823.1938
1179.4497	4755.5732
1180.0455	4773.4648
1180.6414	4773.3506
1181.2372	4718.4619
1181.833	4703.1177
1182.4288	4702.8506
1183.0247	4631.8154
1183.6205	4627.6333
1184.2163	4666.0186
1184.8121	4571.8394
1185.408	4563.29
1186.0038	4545.438
1186.5996	4564.5151
1187.1954	4570.9102
1187.7913	4533.4404
1188.3871	4625.4263
1188.9829	4477.7617
1189.5786	4493.3604
1190.1744	4486.0371
1190.7703	4466.1216
1191.3661	4459.5469
1191.9619	4475.4868
1192.5577	4463.3848
1193.1536	4448.3223
1193.7494	4430.8208
1194.3452	4433.0801
1194.941	4386.6406
1195.5369	4389.9941
1196.1327	4298.6665
1196.7285	4308.77
1197.3243	4381.7896
1197.9202	4421.9141
1198.516	4330.623
1199.1118	4276.9595
1199.7076	4321.9824
1200.3033	4320.3218
1200.8992	4327.0112
1201.495	4304.9048
1202.0908	4303.3608
1202.6866	4295.0347
1203.2825	4357.3462
1203.8783	4283.5898
1204.4741	4246.5869
1205.0699	4355.5029
1205.6658	4258.603
1206.2616	4227.2144
1206.8574	4239.8276
1207.4532	4238.5903
1208.0491	4303.5049
1208.6449	4212.1733
1209.2407	4225.8511
1209.8365	4165.2432
1210.4324	4160.3745
1211.0281	4157.7988
1211.6239	4188.2007
1212.2197	4219.8242
1212.8156	4228.0918
1213.4114	4209.1245
1214.0072	4209.7129
1214.603	4213.8892
1215.1989	4208.9009
1215.7947	4212.8306
1216.3905	4248.9985
1216.9863	4203.9321
1217.5822	4138.0024
1218.178	4170.5737
1218.7738	4147.0293
1219.3696	4110.4399
1219.9655	4162.542
1220.5613	4132.0938
1221.157	4166.3027
1221.7528	4174.7754
1222.3486	4200.3442
1222.9445	4100.8306
1223.5403	4127.6479
1224.1361	4097.064
1224.7319	4129.7832
1225.3278	4087.6611
1225.9236	4181.3887
1226.5194	4137.2808
1227.1152	4086.1936
1227.7111	4089.0349
1228.3069	4046.8633
1228.9027	4078.0535
1229.4985	4122.4565
1230.0944	4099.9028
1230.6902	4107.2334
1231.286	4059.7146
1231.8817	4067.6045
1232.4775	4085.4019
1233.0734	4052.2649
1233.6692	4044.9871
1234.265	4142.2031
1234.8608	4090.3093
1235.4567	4138.0415
1236.0525	4098.769
1236.6483	4074.1794
1237.2441	4051.2483
1237.84	4012.6147
1238.4358	3937.6475
1239.0316	4070.5103
1239.6274	4060.5217
1240.2233	4066.0898
1240.8191	4000.178
1241.4149	4008.1599
1242.0107	4008.0767
1242.6064	4051.0273
1243.2023	4043.8313
1243.7981	3994.4097
1244.3939	3987.4038
1244.9897	4027.1248
1245.5856	4002.6624
1246.1814	4004.7839
1246.7772	3985.6997
1247.373	3958.6995
1247.9689	3911.0872
1248.5647	4021.6428
1249.1605	3963.1719
1249.7563	4013.6643
1250.3522	3904.2732
1250.948	3968.8057
1251.5438	3918.0757
1252.1396	3962.1187
1252.7354	3952.9558
1253.3312	3951.6345
1253.927	3964.25
1254.5228	3924.177
1255.1187	3894.2944
1255.7145	3969.5662
1256.3103	3960.416
1256.9061	3928.3049
1257.502	3968.0962
1258.0978	3970.5776
1258.6936	3948.8096
1259.2894	3908.7039
1259.8853	3961.8369
1260.4811	3889.9263
1261.0769	3853.8315
1261.6727	3897.554
1262.2686	3897.3123
1262.8644	3900.4453
1263.4601	3891.0574
1264.0559	3965.9929
1264.6517	3921.4875
1265.2476	3914.8176
1265.8434	3885.897
1266.4392	3882.0396
1267.035	3877.1033
1267.6309	3903.9873
1268.2267	3919.7366
1268.8225	3903.2039
1269.4183	3815.7861
1270.0142	3822.8926
1270.61	3841.5356
1271.2058	3842.7664
1271.8016	3927.1824
1272.3975	3841.0325
1272.9933	3937.3313
1273.5891	3902.0715
1274.1848	3934.9324
1274.7806	3827.9512
1275.3765	3857.8479
1275.9723	3845.1504
1276.5681	3912.1113
1277.1639	3922.7339
1277.7598	3898.6465
1278.3556	3822.4275
1278.9514	3784.2319
1279.5472	3815.707
1280.1431	3817.0891
1280.7389	3852.0242
1281.3347	3867.8955
1281.9305	3897.5496
1282.5264	3843.8633
1283.1222	3780.6956
1283.718	3812.0188
1284.3137	3876.2114
1284.9095	3854.0024
1285.5054	3865.8882
1286.1012	3812.2891
1286.697	3830.1057
1287.2928	3843.0315
1287.8887	3828.4661
1288.4845	3802.5293
1289.0803	3822.0056
1289.6761	3820.5618
1290.272	3823.7673
1290.8678	3866.552
1291.4636	3867.0747
1292.0594	3832.6145
1292.6553	3807.6558
1293.2511	3826.1775
1293.8469	3779.1951
1294.4427	3757.5713
1295.0385	3838.1208
1295.6343	3803.074
1296.2301	3801.9771
1296.8259	3808.8103
1297.4218	3753.1719
1298.0176	3778.8987
1298.6134	3814.5291
1299.2092	3805.2712
1299.8051	3788.7834
1300.4009	3823.0081
1300.9967	3828.47
1301.5925	3791.647
1302.1884	3801.7979
1302.7842	3780.4275
1303.38	3804.603
1303.9758	3810.6519
1304.5717	3823.6006
1305.1675	3804.6877
1305.7632	3817.1152
1306.359	3789.4495
1306.9548	3765.8965
1307.5507	3690.8689
1308.1465	3768.4536
1308.7423	3799.7524
1309.3381	3773.814
1309.934	3772.7097
1310.5298	3787.1934
1311.1256	3776.2461
1311.7214	3738.802
1312.3173	3682.1841
1312.9131	3729.2974
1313.5089	3790.7668
1314.1047	3806.2141
1314.7006	3771.8086
1315.2964	3839.0615
1315.8921	3768.3772
1316.4879	3764.7983
1317.0837	3776.6055
1317.6796	3782.9663
1318.2754	3793.5261
1318.8712	3782.1824
1319.467	3805.8911
1320.0629	3751.3323
1320.6587	3757.25
1321.2545	3721.4277
1321.8503	3697.302
1322.4462	3753.4465
1323.042	3797.1931
1323.6378	3804.5249
1324.2336	3780.6711
1324.8295	3756.1499
1325.4253	3753.6265
1326.0211	3775.2466
1326.6168	3706.4749
1327.2126	3760.2461
1327.8085	3753.2878
1328.4043	3772.6895
1329.0001	3736.3313
1329.5959	3741.6052
1330.1918	3684.4717
1330.7876	3731.1606
1331.3834	3712.6655
1331.9792	3737.6553
1332.5751	3738.9006
1333.1709	3743.4426
1333.7667	3765.0413
1334.3625	3761.6885
1334.9584	3718.7927
1335.5542	3713.6541
1336.15	3746.2178
1336.7458	3675.2295
1337.3416	3719.8594
1337.9374	3754.3218
1338.5332	3730.2966
1339.129	3712.0737
1339.7249	3771.0374
1340.3207	3745.6218
1340.9165	3725.8657
1341.5123	3699.7617
1342.1082	3730.0039
1342.704	3747.6416
1343.2998	3702.2668
1343.8956	3707.7822
1344.4915	3713.4336
1345.0873	3709.9414
1345.6831	3747.8411
1346.2789	3738.4495
1346.8748	3770.5835
1347.4705	3775.3218
1348.0663	3737.925
1348.6621	3725.2207
1349.2579	3679.3557
1349.8538	3654.9724
1350.4496	3667.1436
1351.0454	3738.0325
1351.6412	3727.5149
1352.2371	3728.6448
1352.8329	3718.064
1353.4287	3698.6965
1354.0245	3686.3552
1354.6204	3712.4749
1355.2162	3726.9802
1355.812	3698.8232
1356.4078	3723.5867
1357.0037	3711.7786
1357.5995	3700.853
1358.1952	3709.1658
1358.791	3708.5613
1359.3868	3667.9919
1359.9827	3630.6392
1360.5785	3672.001
1361.1743	3713.8508
1361.7701	3706.9749
1362.366	3733.8228
1362.9618	3746.4614
1363.5576	3710.1299
1364.1534	3710.748
1364.7493	3703.3447
1365.3451	3678.0396
1365.9409	3749.0166
1366.5367	3718.6514
1367.1326	3705.7241
1367.7284	3674.1455
1368.3242	3694.2673
1368.9199	3661.4841
1369.5157	3719.8972
1370.1116	3685.6711
1370.7074	3706.5217
1371.3032	3709.1318
1371.899	3739.1653
1372.4949	3696.3352
1373.0907	3692.7649
1373.6865	3740.7478
1374.2823	3679.335
1374.8782	3705.0366
1375.474	3729.3875
1376.0698	3708.1394
1376.6656	3652.6965
1377.2615	3709.8086
1377.8573	3689.3879
1378.4531	3734.4448
1379.0488	3667.6797
1379.6447	3706.0181
1380.2405	3706.4695
1380.8363	3645.3621
1381.4321	3689.0356
1382.028	3693.8115
1382.6238	3671.7981
1383.2196	3676.9751
1383.8154	3707.0571
1384.4113	3722.5435
1385.0071	3717.3203
1385.6029	3710.1523
1386.1987	3687.3298
1386.7946	3670.6772
1387.3904	3653.6716
1387.9862	3685.2971
1388.582	3678.5046
1389.1779	3740.6621
1389.7736	3745.925
1390.3694	3701.9326
1390.9652	3709.3662
1391.561	3680.4463
1392.1569	3666.0115
1392.7527	3701.52
1393.3485	3747.2258
1393.9443	3737.4004
1394.5402	3718.8762
1395.136	3674.2485
1395.7318	3688.2549
1396.3276	3664.7002
1396.9235	3733.8999
1397.5193	3764.9338
1398.1151	3654.8999
1398.7109	3724.6416
1399.3068	3734.0554
1399.9026	3686.7898
1400.4983	3668.0876
1401.0941	3690.1689
1401.6899	3704.9763
1402.2858	3716.825
1402.8816	3755.136
1403.4774	3745.0049
1404.0732	3775.1987
1404.6691	3746.8247
1405.2649	3717.5525
1405.8607	3737.125
1406.4565	3709.2048
1407.0524	3729.2476
1407.6482	3687.2688
1408.244	3741.979
1408.8398	3707.8057
1409.4357	3716.0974
1410.0315	3668.4763
1410.6272	3676.73
1411.223	3677.2024
1411.8188	3712.5581
1412.4147	3722.4766
1413.0105	3712.2371
1413.6063	3705.2017
1414.2021	3721.3574
1414.798	3738.5166
1415.3938	3728.9563
1415.9896	3748.9729
1416.5854	3697.1582
1417.1813	3678.9756
1417.7771	3743.3442
1418.3729	3654.0664
1418.9688	3717.335
1419.5646	3725.6538
1420.1604	3695.21
1420.7562	3736.0796
1421.3519	3683.8447
1421.9478	3716.6902
1422.5436	3730.6519
1423.1394	3733.3552
1423.7352	3707.0525
1424.3311	3720.5032
1424.9269	3749.0122
1425.5227	3735.0115
1426.1185	3730.9924
1426.7144	3725.2214
1427.3102	3738.8196
1427.906	3723.3188
1428.5018	3717.6589
1429.0977	3736.1279
1429.6935	3632.6216
1430.2893	3714.4116
1430.8851	3684.4514
1431.481	3756.3379
1432.0767	3723.2937
1432.6725	3679.6833
1433.2683	3703.8188
1433.8641	3705.448
1434.46	3676.2612
1435.0558	3638.127
1435.6516	3717.6868
1436.2474	3707.8872
1436.8433	3709.6985
1437.4391	3669.0791
1438.0349	3658.8518
1438.6307	3728.2832
1439.2266	3714.1489
1439.8224	3707.6846
1440.4182	3802.7827
1441.014	3762.5042
1441.6099	3718.1272
1442.2056	3711.658
1442.8014	3723.7007
1443.3972	3681.9839
1443.993	3664.7642
1444.5889	3710.5251
1445.1847	3693.3174
1445.7805	3737.0603
1446.3763	3718.3467
1446.9722	3742.3931
1447.568	3652.7051
1448.1638	3675.8801
1448.7596	3721.0078
1449.3555	3750.0254
1449.9513	3684.085
1450.5471	3686.76
1451.1429	3743.3281
1451.7388	3760.5364
1452.3346	3692.6765
1452.9303	3714.0759
1453.5261	3742.6177
1454.1219	3696.3169
1454.7178	3685.1116
1455.3136	3702.093
1455.9094	3725.0842
1456.5052	3722.4626
1457.1011	3741.269
1457.6969	3734.2764
1458.2927	3731.0554
1458.8885	3754.3901
1459.4844	3732.1218
1460.0802	3735.053
1460.676	3724.1392
1461.2719	3698.0398
1461.8677	3596.5977
1462.4635	3661.3315
1463.0593	3690.4441
1463.655	3781.4771
1464.2509	3745.7004
1464.8467	3771.1658
1465.4425	3729.2605
1466.0383	3735.2009
1466.6342	3655.9128
1467.23	3684.3298
1467.8258	3719.4626
1468.4216	3719.498
1469.0175	3711.9495
1469.6133	3681.1096
1470.2091	3682.8953
1470.8049	3665.0881
1471.4008	3693.8093
1471.9966	3721.4895
1472.5924	3732.5989
1473.1882	3743.1917
1473.7839	3648.1145
1474.3798	3716.2886
1474.9756	3730.6267
1475.5714	3696.1792
1476.1672	3666.8879
1476.7631	3711.219
1477.3589	3659.8352
1477.9547	3683.4863
1478.5505	3665.6873
1479.1464	3680.4546
1479.7422	3706.6399
1480.338	3678.1689
1480.9338	3691.5081
1481.5297	3751.2888
1482.1255	3684.9897
1482.7213	3677.3618
1483.3171	3675.6262
1483.913	3667.9243
1484.5087	3695.6716
1485.1045	3708.842
1485.7003	3633.9839
1486.2961	3679.1809
1486.892	3733.0842
1487.4878	3708.3384
1488.0836	3658.5464
1488.6794	3678.5281
1489.2753	3686.1477
1489.8711	3625.4365
1490.4669	3584.585
1491.0627	3666.8762
1491.6586	3705.6204
1492.2544	3741.4541
1492.8502	3709.7166
1493.446	3730.6267
1494.0419	3717.8213
1494.6377	3695.7769
1495.2334	3685.3701
1495.8292	3654.0037
1496.425	3662.333
1497.0209	3741.3188
1497.6167	3744.9316
1498.2125	3677.5562
1498.8083	3672.1619
1499.4042	3636.4436
1500	3661.7883
