20.082397	345.66455
20.781445	451.01807
21.48049	583.88135
22.179537	715.47351
22.878584	806.41711
23.577629	885.84998
24.276676	929.89911
24.975721	944.66351
25.674768	972.37042
26.373816	1000.4286
27.072861	1024.038
27.771908	1056.9686
28.470955	1046.0281
29.17	1083.7314
29.869047	1103.5392
30.568094	1092.4415
31.267139	1091.2526
31.966187	1139.4984
32.665234	1239.0941
33.364281	1448.1689
34.063324	1174.1428
34.762371	1331.8557
35.461418	1331.8557
36.160465	1331.8557
36.859512	1331.8557
37.558559	1524.0856
38.257603	1524.0856
38.95665	1524.0856
39.655697	1524.0856
40.354744	1524.0856
41.053791	1682.0852
41.752834	1680.1279
42.451881	1541.7349
43.150928	1536.9495
43.849976	1562.5156
44.549023	1570.3811
45.24807	1571.4399
45.947113	1564.5242
46.64616	1587.2573
47.345207	1634.7532
48.044254	1693.113
48.743301	1762.9004
49.442345	1925.0747
50.141392	1790.5696
50.840439	1942.1418
51.539486	1942.1418
52.238533	1827.3666
52.93758	1861.1213
53.636623	1854.9102
54.33567	1901.3656
55.034718	1914.8575
55.733765	1953.4055
56.432812	1973.6956
57.131855	1947.925
57.830902	1957.4564
58.529949	2029.5457
59.228996	2075.9878
59.928043	2123.2827
60.62709	2292.48
61.326134	2263.2192
62.025181	2203.7896
62.724228	2140.1995
63.423275	2146.4211
64.122322	2176.7627
64.821365	2203.7163
65.520416	2248.4526
66.21946	2291.1895
66.918503	2286.592
67.617554	2266.0896
68.316597	2250.3855
69.015648	2292.5039
69.714691	2278.2817
70.413742	2329.0291
71.112785	2366.4333
71.811829	2404.8628
72.51088	2426.209
73.209923	2410.0884
73.908974	2392.6797
74.608017	2423.4282
75.30706	2486.446
76.006111	2533.5002
76.705154	2536.0928
77.404205	2509.6199
78.103249	2477.2471
78.802292	2484.6729
79.501343	2479.1023
80.200386	2477.8508
80.899437	2484.6353
81.59848	2499.9492
82.297531	2532.7432
82.996574	2582.0508
83.695618	2627.354
84.394669	2627.1831
85.093712	2555.6726
85.792763	2546.271
86.491806	2519.1565
87.190849	2574.5745
87.8899	2605.8621
88.588943	2618.2087
89.287994	2598.7542
89.987038	2571.2576
90.686081	2588.0852
91.385132	2633.1016
92.084175	2650.397
92.783226	2693.0786
93.482269	2634.1211
94.181313	2622.7295
94.880363	2646.687
95.579407	2673.8235
96.278458	2654.229
96.977501	2631.3774
97.676552	2622.6858
98.375595	2642.061
99.074638	2662.2834
99.773689	2659.1777
100.47273	2670.3909
101.17178	2693.7922
101.87083	2689.8462
102.56987	2666.4858
103.26892	2666.4858
103.96796	2666.4858
104.66702	2666.4858
105.36606	2666.4858
106.0651	2666.4858
106.76415	2787.6628
107.4632	2712.6897
108.16225	2678.3572
108.86129	2645.8633
109.56034	2633.73
110.25938	2652.8125
110.95843	2607.8591
111.65748	2641.3013
112.35652	2668.7866
113.05557	2660.4939
113.75462	2646.865
114.45366	2623.8906
115.15271	2642.5276
115.85175	2684.0896
116.5508	2691.7234
117.24985	2643.6511
117.94889	2595.8662
118.64794	2622.1169
119.34698	2608.0071
120.04604	2612.3484
120.74508	2586.906
121.44412	2632.1509
122.14317	2604.1389
122.84222	2634.7437
123.54127	2663.1938
124.24031	2665.845
124.93936	2653.5178
125.6384	2630.5986
126.33745	2602.9565
127.0365	2586.9675
127.73554	2584.9661
128.43459	2578.3359
129.13364	2588.3359
129.83269	2618.918
130.53172	2615.7417
131.23077	2611.5544
131.92982	2612.1997
132.62888	2570.4387
133.32791	2571.4487
134.02696	2600.4434
134.72601	2580.8813
135.42505	2550.2778
136.1241	2584.2676
136.82315	2597.5806
137.52219	2525.0205
138.22124	2551.8386
138.92029	2535.5977
139.61934	2603.5278
140.31837	2573.6802
141.01743	2566.7961
141.71648	2499.6375
142.41551	2479.8132
143.11456	2503.9521
143.81361	2519.9019
144.51266	2527.0828
145.2117	2529.3701
145.91075	2520.0054
146.6098	2523.9761
147.30884	2491.9026
148.00789	2544.2886
148.70694	2521.3743
149.40598	2482.4419
150.10503	2537.113
150.80408	2517.8452
151.50313	2484.3193
152.20216	2512.8037
152.90121	2525.1633
153.60027	2491.8894
154.2993	2491.8003
154.99835	2523.3105
155.6974	2500.0642
156.39645	2468.8943
157.09549	2485.8149
157.79454	2461.8213
158.49359	2446.0215
159.19263	2460.4973
159.89168	2452.2031
160.59073	2445.3655
161.28976	2421.9104
161.98882	2426.0151
162.68787	2465.7678
163.38692	2485.5728
164.08595	2467.3152
164.785	2452.2573
165.48405	2434.6929
166.18309	2387.6479
166.88214	2422.9902
167.58119	2457.0833
168.28023	2465.2944
168.97928	2442.4834
169.67833	2393.9573
170.37738	2403.2737
171.07642	2403.6575
171.77547	2394.2942
172.47452	2394.1409
173.17355	2411.0793
173.8726	2424.531
174.57166	2395.5759
175.27071	2381.2156
175.96974	2425.7588
176.66879	2401.9175
177.36784	2397.9802
178.06688	2393.895
178.76593	2419.0581
179.46498	2391.9998
180.16402	2376.2141
180.86307	2386.4768
181.56212	2404.8167
182.26117	2392.854
182.96021	2376.5547
183.65926	2378.6292
184.35831	2356.6179
185.05734	2340.2354
185.75639	2366.5735
186.45544	2352.5793
187.1545	2330.6528
187.85353	2323.343
188.55258	2325.8325
189.25163	2323.6848
189.95067	2349.9434
190.64972	2351.2083
191.34877	2365.2688
192.04781	2360.0525
192.74686	2351.3623
193.44591	2343.0593
194.14496	2312.4934
194.84399	2321.7061
195.54305	2334.1719
196.2421	2357.6997
196.94113	2332.9187
197.64018	2291.0183
198.33923	2292.8
199.03828	2297.6877
199.73732	2312.9456
200.43637	2339.3748
201.13542	2320.3889
201.83446	2316.5486
202.53351	2318.0542
203.23256	2297.9497
203.93159	2304.2517
204.63065	2335.1709
205.3297	2320.864
206.02875	2326.178
206.72778	2318.283
207.42683	2308.2615
208.12589	2287.3328
208.82492	2288.3486
209.52397	2304.8076
210.22302	2296.425
210.92207	2284.8235
211.62111	2283.5386
212.32016	2281.4734
213.01921	2262.5742
213.71825	2265.0759
214.4173	2274.3364
215.11635	2255.9209
215.81538	2274.022
216.51443	2270.1626
217.21349	2262.4663
217.91254	2293.5417
218.61157	2242.9858
219.31062	2292.0879
220.00967	2285.4846
220.70871	2303.9517
221.40776	2273.2949
222.10681	2269.0024
222.80585	2268.7158
223.5049	2309.7844
224.20395	2272.7759
224.903	2267.2058
225.60204	2263.6174
226.30109	2249.3391
227.00014	2232.3081
227.69917	2224.6162
228.39822	2266.4846
229.09727	2270.3667
229.79633	2277.9495
230.49536	2245.7805
231.19441	2198.8018
231.89346	2229.6223
232.5925	2212.8462
233.29155	2233.7847
233.9906	2242.5166
234.68964	2252.9463
235.38869	2241.9978
236.08774	2205.9766
236.78679	2214.2979
237.48582	2219.6829
238.18488	2201.312
238.88393	2221.4451
239.58296	2201.417
240.28201	2155.1443
240.98106	2242.8655
241.68011	2245.8247
242.37915	2243.1064
243.0782	2196.7871
243.77725	2201.2754
244.47629	2205.6204
245.17534	2161.6052
245.87439	2169.8196
246.57343	2195.7139
247.27248	2199.5688
247.97153	2215.2332
248.67058	2187.0674
249.36961	2180.7239
250.06866	2141.4275
250.76772	2167.7363
251.46675	2165.7412
252.1658	2218.5298
252.86485	2172.4565
253.5639	2187.5881
254.26294	2122.1216
254.96199	2147.3848
255.66104	2138.0852
256.36008	2140.938
257.05914	2135.6326
257.75818	2156.3213
258.45721	2167.333
259.15628	2127.2361
259.85532	2131.5881
260.55435	2147.1606
261.25342	2155.655
261.95245	2177.8411
262.65149	2146.1528
263.35056	2152.3584
264.04959	2116.7437
264.74863	2128.6465
265.44769	2121.1946
266.14673	2089.8647
266.84576	2103.7188
267.54483	2108.8035
268.24387	2092.8625
268.94293	2073.9475
269.64197	2096.533
270.341	2133.1487
271.04007	2135.1619
271.73911	2140.4985
272.43814	2149.4543
273.13721	2132.0776
273.83624	2117.4253
274.53528	2096.3179
275.23434	2088.3938
275.93338	2102.2983
276.63242	2059.9478
277.33148	2050.9912
278.03052	2101.9612
278.72955	2092.1211
279.42862	2101.3682
280.12766	2095.9209
280.82672	2093.9763
281.52576	2087.1499
282.22479	2076.5549
282.92386	2069.1011
283.62289	2066.4951
284.32193	2076.9661
285.021	2020.1589
285.72003	2075.01
286.41907	2065.4131
287.11813	2019.661
287.81717	2034.87
288.5162	2092.0396
289.21527	2115.3896
289.91431	2093.4236
290.61334	2058.6365
291.31241	2031.9941
292.01144	2018.1281
292.71051	2050.1975
293.40955	2036.6089
294.10858	2028.1394
294.80765	2030.799
295.50668	2011.8136
296.20572	2036.5875
296.90479	2026.8556
297.60382	1992.7393
298.30286	2042.9537
299.00192	2026.5896
299.70096	2007.5151
300.39999	2006.3458
301.09906	1991.3158
301.7981	2010.3142
302.49713	2043.5193
303.1962	2042.8448
303.89523	2030.2816
304.5943	2058.8655
305.29333	2069.9995
305.99237	2040.4282
306.69144	2014.062
307.39047	2019.245
308.08951	2033.6865
308.78857	2022.4241
309.48761	2001.7131
310.18665	2005.3341
310.88571	1976.6779
311.58475	1969.0892
312.28378	1975.9568
312.98285	1996.4291
313.68188	1999.52
314.38092	1985.4467
315.07999	2001.0756
315.77902	1995.1724
316.47806	1976.6768
317.17712	2021.6146
317.87616	1984.3365
318.57523	1951.4407
319.27426	1943.9681
319.9733	1955.2642
320.67236	1963.3158
321.3714	1955.3739
322.07043	1957.976
322.7695	1955.2363
323.46854	1955.8602
324.16757	1966.9381
324.86664	1905.0607
325.56567	1963.9054
326.26471	1977.7115
326.96378	1979.7051
327.66281	1956.8447
328.36185	1938.2491
329.06091	1957.5079
329.75995	1924.6627
330.45901	1903.6614
331.15805	1933.7308
331.85709	1952.0267
332.55615	1923.808
333.25519	1917.9703
333.95422	1914.0502
334.65329	1924.6959
335.35233	1958.1163
336.05136	1948.4862
336.75043	1927.4985
337.44946	1897.2054
338.1485	1910.9535
338.84756	1863.2277
339.5466	1863.6548
340.24564	1915.6748
340.9447	1907.8527
341.64374	1917.7366
342.3428	1912.6525
343.04184	1880.8284
343.74088	1872.225
344.43994	1877.9063
345.13898	1862.8566
345.83801	1869.2614
346.53708	1879.05
347.23611	1853.4491
347.93515	1868.3549
348.63422	1888.5039
349.33325	1885.2544
350.03229	1909.8223
350.73135	1935.7289
351.43039	1882.5062
352.12943	1882.5062
352.82849	1868.7212
353.52753	1849.2673
354.22659	1850.2943
354.92563	1877.8336
355.62466	1867.2728
356.32373	1862.6417
357.02277	1841.1184
357.7218	1888.9381
358.42087	1878.2454
359.1199	1870.9188
359.81894	1829.5122
360.51801	1841.1226
361.21704	1837.3456
361.91608	1843.0519
362.61514	1853.9888
363.31418	1845.5439
364.01321	1839.9218
364.71228	1844.8162
365.41132	1846.7355
366.11038	1827.0885
366.80942	1812.2957
367.50845	1847.5825
368.20752	1850.3979
368.90656	1796.1929
369.60559	1788.7068
370.30466	1847.1805
371.00369	1788.1753
371.70273	1803.3258
372.40179	1820.2126
373.10083	1815.457
373.79987	1790.076
374.49893	1803.1238
375.19797	1801.4501
375.897	1799.1541
376.59607	1803.0383
377.2951	1802.7725
377.99417	1808.6638
378.69321	1803.908
379.39224	1807.218
380.09131	1821.8719
380.79034	1815.1152
381.48938	1812.2699
382.18845	1806.801
382.88748	1834.4155
383.58652	1800.175
384.28558	1777.647
384.98462	1805.272
385.68365	1808.9746
386.38272	1754.2076
387.08176	1765.7853
387.78079	1797.0571
388.47986	1787.0157
389.17889	1792.5688
389.87796	1763.8097
390.577	1777.386
391.27603	1727.9707
391.9751	1776.5194
392.67413	1786.1451
393.37317	1770.6387
394.07224	1775.7327
394.77127	1791.2273
395.47031	1784.9728
396.16937	1764.3528
396.86841	1767.2795
397.56744	1762.1759
398.26651	1759.5204
398.96555	1775.0571
399.66458	1759.9844
400.36365	1769.8064
401.06268	1751.41
401.76175	1747.7239
402.46078	1778.7762
403.15982	1748.4583
403.85889	1721.2189
404.55792	1759.1123
405.25696	1777.2032
405.95602	1783.9171
406.65506	1814.4178
407.3541	1768.2423
408.05316	1769.1228
408.7522	1770.8279
409.45123	1754.3751
410.1503	1773.4233
410.84933	1785.5012
411.54837	1795.7572
412.24744	1815.4896
412.94647	1798.7717
413.64554	1772.7095
414.34457	1752.3739
415.04361	1732.3263
415.74268	1770.4159
416.44171	1742.9351
417.14075	1765.0386
417.83981	1760.3215
418.53885	1763.2076
419.23788	1759.173
419.93695	1781.0784
420.63599	1729.6808
421.33502	1708.4475
422.03409	1737.1492
422.73312	1702.233
423.43216	1723.2673
424.13123	1752.0768
424.83026	1745.7418
425.5293	1715.712
426.22836	1717.2211
426.9274	1701.9015
427.62646	1734.5081
428.3255	1741.2711
429.02454	1748.5448
429.7236	1747.0845
430.42264	1725.3604
431.12167	1729.4351
431.82074	1763.1106
432.51978	1771.4233
433.21881	1740.3352
433.91788	1736.7852
434.61691	1735.926
435.31595	1766.6416
436.01501	1718.3569
436.71405	1703.0641
437.41309	1744.0854
438.11215	1723.6422
438.81119	1707.9684
439.51025	1737.7805
440.20929	1724.8602
440.90833	1712.411
441.60739	1710.2439
442.30643	1726.0313
443.00546	1715.3368
443.70453	1746.5708
444.40356	1726.2002
445.1026	1703.4148
445.80167	1697.8542
446.5007	1733.6237
447.19974	1728.0742
447.8988	1716.4027
448.59784	1713.076
449.29688	1724.4041
449.99594	1717.3199
450.69498	1709.0645
451.39404	1713.6694
452.09308	1714.5087
452.79211	1726.0522
453.49118	1702.9789
454.19022	1713.7537
454.88925	1709.8414
455.58832	1682.5751
456.28735	1656.6654
456.98639	1700.7761
457.68546	1745.3347
458.38449	1718.2584
459.08353	1661.9291
459.78259	1713.3016
460.48163	1694.0475
461.18066	1651.8713
461.87973	1712.5905
462.57877	1734.5066
463.27783	1712.2544
463.97687	1674.87
464.6759	1711.0266
465.37497	1683.6635
466.07401	1706.0782
466.77304	1713.5686
467.47211	1737.0865
468.17114	1725.3705
468.87018	1683.514
469.56924	1662.5898
470.26828	1707.2184
470.96732	1705.5695
471.66638	1684.6129
472.36542	1714.7772
473.06445	1702.3684
473.76352	1687.7166
474.46255	1712.9061
475.16162	1705.4976
475.86066	1694.7111
476.55969	1677.1886
477.25876	1679.8412
477.95779	1692.3497
478.65683	1698.3198
479.3559	1670.5804
480.05493	1683.8843
480.75397	1700.3494
481.45303	1698.2466
482.15207	1691.2047
482.8511	1701.1519
483.55017	1676.3405
484.24921	1741.3716
484.94824	1702.0922
485.64731	1692.8156
486.34634	1689.7314
487.04541	1675.03
487.74445	1684.3918
488.44348	1696.5585
489.14255	1716.4501
489.84158	1725.9478
490.54062	1698.3628
491.23969	1691.1326
491.93872	1691.7897
492.63776	1682.5416
493.33682	1687.8402
494.03586	1684.4916
494.73489	1682.057
495.43396	1703.955
496.133	1704.749
496.83203	1678.9432
497.5311	1698.9749
498.23013	1731.5636
498.9292	1719.621
499.62823	1729.9138
500.32727	1671.2211
501.02634	1660.8787
501.72537	1673.2343
502.42441	1679.7227
503.12347	1694.0028
503.82251	1677.8231
504.52155	1696.3112
505.22061	1702.9935
505.91965	1718.2341
506.61868	1668.9102
507.31775	1687.2717
508.01678	1742.8733
508.71582	1720.2274
509.41489	1697.5201
510.11392	1689.1698
510.81299	1697.592
511.51202	1697.8245
512.21106	1709.1304
512.9101	1684.8768
513.60913	1705.0577
514.30823	1708.7544
515.00726	1719.016
515.7063	1706.0504
516.40533	1717.1371
517.10437	1715.2958
517.80347	1737.5032
518.5025	1741.5857
519.20154	1702.8265
519.90057	1714.3821
520.59961	1741.7434
521.29865	1724.3344
521.99774	1703.7899
522.69678	1732.1206
523.39581	1730.5582
524.09485	1690.0581
524.79388	1702.9237
525.49292	1702.2623
526.19202	1723.4807
526.89105	1738.124
527.59009	1765.6605
528.28912	1756.7211
528.98816	1750.7981
529.68726	1770.6566
530.38629	1811.5381
531.08533	1730.9652
531.78436	1741.5867
532.4834	1761.2561
533.18243	1746.9948
533.88153	1759.2642
534.58057	1783.7181
535.2796	1774.751
535.97864	1758.873
536.67767	1756.5249
537.37671	1733.3802
538.07581	1744.9756
538.77484	1749.0118
539.47388	1723.2402
540.17291	1743.7736
540.87195	1747.776
541.57104	1746.4515
542.27008	1725.441
542.96912	1748.0833
543.66815	1764.275
544.36719	1738.8605
545.06622	1730.3514
545.76532	1719.0085
546.46436	1726.9388
547.16339	1713.809
547.86243	1753.703
548.56146	1764.603
549.2605	1743.9266
549.95959	1741.4529
550.65863	1752.9784
551.35767	1747.9972
552.0567	1736.0154
552.75574	1738.2058
553.45483	1752.8167
554.15387	1767.3823
554.85291	1766.8955
555.55194	1776.4723
556.25098	1789.1116
556.95001	1769.827
557.64911	1753.8936
558.34814	1758.6517
559.04718	1772.8352
559.74622	1782.3689
560.44525	1809.0626
561.14429	1780.4325
561.84338	1794.4917
562.54242	1777.9874
563.24146	1767.0872
563.94049	1809.9891
564.63953	1788.5748
565.33862	1806.266
566.03766	1810.4276
566.73669	1777.4108
567.43573	1770.3198
568.13477	1818.486
568.8338	1777.8917
569.5329	1804.6357
570.23193	1782.2296
570.93097	1782.1832
571.63	1772.5901
572.32904	1784.1187
573.02808	1788.9851
573.72717	1787.2343
574.42621	1833.3947
575.12524	1791.4923
575.82428	1808.8628
576.52332	1825.6705
577.22241	1816.7086
577.92145	1824.0645
578.62048	1825.9772
579.31952	1846.0846
580.01855	1810.5483
580.71759	1834.3489
581.41669	1818.8546
582.11572	1832.056
582.81476	1820.1078
583.51379	1835.9686
584.21283	1831.0153
584.91187	1832.1802
585.61096	1812.1887
586.31	1843.3209
587.00903	1858.1522
587.70807	1862.9747
588.4071	1844.5944
589.1062	1838.0314
589.80524	1840.8999
590.50427	1844.0497
591.20331	1849.9612
591.90234	1836.5636
592.60138	1854.35
593.30048	1871.8823
593.99951	1868.9056
594.69855	1888.2458
595.39758	1864.4668
596.09662	1865.2585
596.79565	1859.0886
597.49475	1857.9633
598.19379	1848.3666
598.89282	1847.0858
599.59186	1845.3296
600.29089	1867.9646
600.98993	1864.7466
601.68903	1870.969
602.38806	1890.7789
603.0871	1876.0466
603.78613	1859.2776
604.48517	1876.561
605.18427	1878.5032
605.8833	1875.5977
606.58234	1894.6052
607.28137	1882.9736
607.98041	1867.4407
608.67944	1861.3151
609.37854	1849.3989
610.07758	1845.3352
610.77661	1849.7552
611.47565	1875.0283
612.17468	1871.3485
612.87372	1874.6178
613.57281	1871.9746
614.27185	1867.0303
614.97089	1842.3495
615.66992	1865.2687
616.36896	1884.0845
617.06805	1887.2346
617.76709	1855.2255
618.46613	1859.4457
619.16516	1859.8553
619.8642	1849.1791
620.56323	1855.4915
621.26233	1874.9342
621.96136	1875.583
622.6604	1855.6434
623.35944	1861.454
624.05847	1867.3101
624.75751	1889.1196
625.4566	1882.1079
626.15564	1874.7347
626.85468	1857.3488
627.55371	1875.0378
628.25275	1855.337
628.95184	1902.6207
629.65088	1880.7841
630.34991	1882.3516
631.04895	1892.9822
631.74799	1871.1041
632.44702	1900.9617
633.14612	1889.6578
633.84515	1908.4592
634.54419	1923.4054
635.24323	1906.8669
635.94226	1898.3831
636.6413	1882.144
637.34039	1902.4689
638.03943	1897.4592
638.73846	1895.2058
639.4375	1885.8269
640.13654	1873.5914
640.83563	1888.6898
641.53467	1899.3519
642.2337	1910.0826
642.93274	1886.6946
643.63177	1873.7965
644.33081	1874.7207
645.02991	1911.6852
645.72894	1899.6345
646.42798	1904.901
647.12701	1914.1719
647.82605	1939.2539
648.52509	1928.5284
649.22418	1935.1825
649.92322	1928.2405
650.62225	1944.4585
651.32129	1954.0763
652.02032	1928.9127
652.71942	1936.6014
653.41846	1958.5059
654.11749	1967.1399
654.81653	1971.1281
655.51556	1968.9912
656.2146	1969.1951
656.9137	1948.5248
657.61273	1971.9833
658.31177	1976.2415
659.0108	1999.6699
659.70984	1940.6229
660.40887	1931.6964
661.10797	1954.9005
661.80701	1956.4454
662.50604	1951.2435
663.20508	1958.8293
663.90411	1957.2972
664.60321	1950.0173
665.30225	1948.3234
666.00128	1954.7059
666.70032	1951.6389
667.39935	1953.1151
668.09839	1957.1823
668.79749	1958.371
669.49652	1947.2043
670.19556	1926.7562
670.89459	1917.097
671.59363	1966.2832
672.29266	1957.5983
672.99176	1952.587
673.6908	1975.1912
674.38983	1965.7513
675.08887	1945.1635
675.7879	1946.911
676.487	1945.0488
677.18604	1932.7212
677.88507	1937.2356
678.58411	1943.0768
679.28314	1923.2913
679.98218	1911.89
680.68127	1903.3853
681.38031	1931.1387
682.07935	1941.8002
682.77838	1922.0527
683.47742	1907.4996
684.17645	1898.2747
684.87555	1891.7083
685.57458	1888.3812
686.27362	1890.7238
686.97266	1892.6338
687.67169	1881.6564
688.37079	1850.8086
689.06982	1862.8043
689.76886	1875.5621
690.4679	1868.9502
691.16693	1863.7435
691.86597	1833.8588
692.56506	1839.9656
693.2641	1840.8385
693.96313	1844.9248
694.66217	1868.7255
695.36121	1880.1083
696.06024	1825.6196
696.75934	1808.5538
697.45837	1796.9426
698.15741	1798.161
698.85645	1793.6868
699.55548	1787.8317
700.25458	1800.3413
700.95361	1789.5087
701.65265	1762.5498
702.35168	1765.2012
703.05072	1776.8833
703.74976	1767.3715
704.44885	1741.5571
705.14789	1752.661
705.84692	1751.1064
706.54596	1714.6041
707.245	1703.4467
707.94403	1684.3798
708.64313	1724.0924
709.34216	1711.5096
710.0412	1705.5155
710.74023	1696.2568
711.43927	1671.1552
712.13837	1706.4744
712.8374	1681.7816
713.53644	1665.2963
714.23547	1666.542
714.93451	1664.2676
715.63354	1667.8567
716.33264	1647.8838
717.03168	1576.7079
717.73071	1622.6963
718.42975	1637.8342
719.12878	1655.411
719.82782	1621.4222
720.52692	1609.3787
721.22595	1593.9305
721.92499	1587.7028
722.62402	1588.5089
723.32306	1588.0039
724.02216	1610.5349
724.72119	1592.8263
725.42023	1595.4517
726.11926	1582.2451
726.8183	1551.2889
727.51733	1538.2954
728.21643	1516.5082
728.91547	1544.9611
729.6145	1518.2122
730.31354	1523.3136
731.01257	1520.6608
731.71161	1503.4358
732.41071	1503.4497
733.10974	1489.5575
733.80878	1486.4122
734.50781	1475.411
735.20685	1450.2258
735.90594	1461.7992
736.60498	1498.1234
737.30402	1525.7914
738.00305	1548.7556
738.70209	1476.7032
739.40112	1457.0579
740.10022	1461.5284
740.79926	1417.4408
741.49829	1397.7479
742.19733	1417.7147
742.89636	1403.9022
743.5954	1380.7633
744.29449	1394.9014
744.99353	1374.3037
745.69257	1380.3861
746.3916	1383.4097
747.09064	1410.5742
747.78973	1370.9387
748.48877	1310.5421
749.18781	1300.3813
749.88684	1306.7528
750.58588	1294.708
751.28491	1296.5343
751.98401	1298.5807
752.68304	1296.6002
753.38208	1275.729
754.08112	1274.4501
754.78015	1273.1311
755.47919	1252.7809
756.17828	1240.4656
756.87732	1218.4216
757.57635	1233.3252
758.27539	1234.9907
758.97443	1236.0624
759.67352	1217.7888
760.37256	1193.8876
761.07159	1178.0709
761.77063	1190.5085
762.46967	1185.6818
763.1687	1184.2395
763.8678	1154.5594
764.56683	1163.4407
765.26587	1186.2849
765.9649	1150.0734
766.66394	1137.0781
767.36298	1145.4708
768.06207	1146.6982
768.76111	1126.6318
769.46014	1134.8239
770.15918	1109.8021
770.85822	1092.666
771.55731	1090.6566
772.25635	1060.4915
772.95538	1052.4344
773.65442	1067.2535
774.35345	1076.079
775.05249	1077.2078
775.75159	1067.4424
776.45062	1037.6737
777.14966	1010.0562
777.84869	998.80096
778.54773	993.091
779.24677	993.2381
779.94586	1001.3788
780.6449	990.73676
781.34393	981.43909
782.04297	981.71307
782.742	978.30133
783.4411	960.13721
784.14014	954.16547
784.83917	956.2298
785.53821	918.48395
786.23724	914.43414
786.93628	921.80048
787.63538	915.98431
788.33441	875.36707
789.03345	863.24353
789.73248	870.63892
790.43152	888.42523
791.13055	888.98718
791.82965	868.45728
792.52869	861.43384
793.22772	886.55005
793.92676	863.97375
794.62579	839.22852
795.32489	839.30524
796.02393	819.14465
796.72296	829.62195
797.422	823.65454
798.12103	842.00146
798.82007	817.64679
799.51917	811.49841
800.2182	806.78735
800.91724	768.18817
801.61627	776.164
802.31531	781.06995
803.01434	777.49341
803.71344	749.99261
804.41248	738.09656
805.11151	739.46973
805.81055	764.89215
806.50958	779.94867
807.20868	771.39063
807.90771	756.44928
808.60675	753.97235
809.30579	777.91162
810.00482	788.27875
810.70386	734.00116
811.40295	715.2345
812.10199	688.37457
812.80103	699.2384
813.50006	708.42987
814.1991	701.28448
814.89813	707.73792
815.59723	705.04657
816.29626	698.63757
816.9953	680.81543
817.69434	673.8775
818.39337	681.57135
819.09247	700.07721
819.7915	690.47345
820.49054	716.08087
821.18958	717.38354
821.88861	681.53534
822.58765	721.9566
823.28674	691.43555
823.98578	722.34497
824.68481	695.71594
825.38385	707.14026
826.08289	713.07813
826.78192	741.87158
827.48102	741.51929
828.18005	758.01868
828.87909	713.70227
829.57813	731.31732
830.27716	788.78491
830.9762	778.37201
831.67529	809.80334
832.37433	757.41992
833.07336	800.36987
833.7724	821.03705
834.47144	809.84241
835.17053	788.12061
835.86957	811.87817
836.5686	829.11548
837.26764	879.6413
837.96667	863.65613
838.66571	897.92981
839.36481	866.92023
840.06384	944.78015
840.76288	942.27875
841.46191	972.92822
842.16095	919.03656
842.85999	965.39539
843.55908	986.94513
844.25812	992.3999
844.95715	1017.1116
845.65619	1014.14
846.35522	1050.1049
847.05432	1082.604
847.75336	1100.8635
848.45239	1090.4327
849.15143	1118.2032
849.85046	1145.1563
850.5495	1171.9204
851.2486	1201.96
851.94763	1214.233
852.64667	1207.0564
853.3457	1243.1044
854.04474	1258.9492
854.74377	1318.3862
855.44287	1337.8429
856.14191	1354.8041
856.84094	1375.3091
857.53998	1363.5912
858.23901	1397.0156
858.93811	1422.7584
859.63715	1445.0675
860.33618	1462.3921
861.03522	1486.8873
861.73425	1493.1775
862.43329	1514.4547
863.13239	1562.6445
863.83142	1602.2278
864.53046	1632.8218
865.22949	1621.1449
865.92853	1641.9038
866.62756	1666.41
867.32666	1681.989
868.0257	1697.5107
868.72473	1718.728
869.42377	1764.0963
870.1228	1760.0759
870.8219	1766.6316
871.52094	1788.4298
872.21997	1776.1112
872.91901	1822.9352
873.61804	1846.0092
874.31708	1869.696
875.01617	1913.1879
875.71521	1902.03
876.41425	1912.2679
877.11328	1970.7383
877.81232	1968.454
878.51135	2033.1183
879.21045	2035.0873
879.90948	2018.431
880.60852	2021.7286
881.30756	2058.7866
882.00659	2093.929
882.70569	2102.4917
883.40472	2148.3918
884.10376	2117.1804
884.8028	2152.5427
885.50183	2126.5942
886.20087	2143.5586
886.89996	2200.3066
887.599	2234.0659
888.29803	2244.7288
888.99707	2264.4214
889.69611	2280.8464
890.39514	2243.5999
891.09424	2274.4175
891.79327	2311.1968
892.49231	2346.9541
893.19135	2278.0759
893.89038	2336.6777
894.58948	2327.9824
895.28851	2359.3052
895.98755	2360.907
896.68658	2356.3604
897.38562	2398.3052
898.08466	2393.1252
898.78375	2441.175
899.48279	2439.1228
900.18182	2430.3843
900.88086	2403.3916
901.5799	2412.4019
902.27893	2483.6331
902.97803	2487.1208
903.67706	2470.5266
904.3761	2467.843
905.07513	2474.7825
905.77417	2485.5686
906.47327	2499.969
907.1723	2508.4529
907.87134	2504.8357
908.57037	2523.0532
909.26941	2550.2134
909.96844	2573.6404
910.66754	2587.085
911.36658	2553.2522
912.06561	2583.9402
912.76465	2669.239
913.46368	2629.4104
914.16272	2620.6201
914.86182	2641.2671
915.56085	2651.948
916.25989	2668.8652
916.95892	2639.6753
917.65796	2652.0803
918.35706	2697.3184
919.05609	2696.0286
919.75513	2710.9778
920.45416	2665.5598
921.1532	2704.0591
921.85223	2708.1548
922.55133	2726.3232
923.25037	2681.4863
923.9494	2705.6143
924.64844	2750.1138
925.34747	2743.9863
926.04651	2763.2126
926.74561	2784.8655
927.44464	2745.3562
928.14368	2768.8347
928.84271	2742.3047
929.54175	2756.5005
930.24084	2757.6145
930.93988	2758.4653
931.63892	2797.2664
932.33795	2815.6902
933.03699	2855.8608
933.73602	2854.9873
934.43512	2874.3933
935.13416	2863.0215
935.83319	2845.231
936.53223	2855.9497
937.23126	2894.4199
937.9303	2894.0447
938.62939	2916.8584
939.32843	2948.6724
940.02747	2935.3811
940.7265	2926.6875
941.42554	2862.188
942.12463	2851.4441
942.82367	2915.4004
943.52271	2945.0496
944.22174	2948.4792
944.92078	3004.8757
945.61981	3013.1826
946.31891	2951.8032
947.01794	2947.0776
947.71698	2961.3728
948.41602	2999.2166
949.11505	2997.8967
949.81409	2964.8833
950.51318	2969.9583
951.21222	2974.2517
951.91125	3043.7925
952.61029	3010.2424
953.30933	3025.0715
954.00842	3080.0916
954.70746	3133.793
955.40649	3062.8293
956.10553	3020.0764
956.80457	2991.2175
957.5036	3043.8711
958.2027	3066.604
958.90173	3054.2742
959.60077	3060.5571
960.2998	3063.2041
960.99884	3056.0542
961.69788	3167.0554
962.39697	3141.5044
963.09601	3127.4016
963.79504	3080.7156
964.49408	3078.1672
965.19312	3102.8696
965.89221	3124.8342
966.59125	3069.2549
967.29028	3068.8159
967.98932	3111.5044
968.68835	3071.8762
969.38739	3095.2473
970.08649	3115.6785
970.78552	3078.1641
971.48456	3135.4497
972.18359	3146.3975
972.88263	3090.1738
973.58167	3078.6572
974.28076	3094.5618
974.9798	3065.5518
975.67883	3044.9561
976.37787	3102.4111
977.0769	3091.1958
977.776	3091.8792
978.47504	3094.7593
979.17407	3074.1438
979.87311	3063.1277
980.57214	3048.5771
981.27118	3098.7078
981.97028	3095.9138
982.66931	3046.9768
983.36835	3047.2803
984.06738	3050.8884
984.76642	3003.9065
985.46545	3009.5869
986.16455	3051.1074
986.86359	3032.1438
987.56262	3013.2644
988.26166	3013.0706
988.96069	3040.8772
989.65979	3047.1382
990.35883	3016.4407
991.05786	3014.1514
991.7569	2989.1555
992.45593	2986.417
993.15497	3012.4119
993.85406	3012.1926
994.5531	2998.3201
995.25214	2986.6707
995.95117	2953.0562
996.65021	2969.8232
997.34924	2946.8027
998.04834	2956.8516
998.74738	2945.2407
999.44641	3033.2554
1000.1454	2929.7893
1000.8445	2986.8337
1001.5436	2918.5212
1002.2426	2894.553
1002.9417	2871.7222
1003.6407	2886.9272
1004.3397	2938.8027
1005.0388	2891.7898
1005.7379	2862.394
1006.4369	2823.052
1007.1359	2825.583
1007.835	2906.1858
1008.534	2842.1702
1009.233	2832.6289
1009.9321	2842.6873
1010.6312	2818.6941
1011.3302	2793.4067
1012.0292	2783.4226
1012.7283	2775.4983
1013.4274	2777.8037
1014.1264	2743.5068
1014.8254	2758.573
1015.5245	2773.8872
1016.2235	2742.4165
1016.9225	2800.5095
1017.6216	2745.8911
1018.3207	2668.791
1019.0197	2669.9937
1019.7188	2691.2266
1020.4178	2683.04
1021.1168	2676.0032
1021.8159	2724.4646
1022.515	2689.5574
1023.214	2669.531
1023.913	2637.0911
1024.6121	2587.5952
1025.3112	2610.3179
1026.0101	2617.6047
1026.7092	2593.7473
1027.4083	2581.1772
1028.1073	2621.3467
1028.8064	2599.2085
1029.5054	2525.312
1030.2045	2489.3899
1030.9034	2464.8684
1031.6025	2450.0886
1032.3016	2498.3062
1033.0006	2505.5769
1033.6997	2520.478
1034.3987	2481.3848
1035.0978	2422.4734
1035.7969	2394.9287
1036.4958	2384.0876
1037.1949	2383.9473
1037.8939	2397.3408
1038.593	2402.9597
1039.2921	2309.7158
1039.9911	2339.7942
1040.6902	2304.1201
1041.3892	2310.3638
1042.0883	2310.4172
1042.7872	2288.1301
1043.4863	2285.2673
1044.1854	2257.3489
1044.8844	2225.8896
1045.5835	2213.8945
1046.2825	2186.2209
1046.9816	2234.365
1047.6807	2274.8872
1048.3796	2197.7217
1049.0787	2176.7603
1049.7777	2139.4451
1050.4768	2124.3892
1051.1759	2094.3264
1051.8749	2128.5315
1052.574	2106.73
1053.2729	2077.9724
1053.972	2048.5632
1054.671	2028.3215
1055.3701	2029.2844
1056.0692	2041.3995
1056.7682	2018.3374
1057.4673	2050.8623
1058.1663	2011.1023
1058.8654	1956.7715
1059.5645	1977.813
1060.2634	1947.1205
1060.9625	1934.4152
1061.6615	1901.3627
1062.3606	1909.725
1063.0597	1884.8998
1063.7587	1885.1201
1064.4578	1876.8551
1065.1567	1840.4834
1065.8558	1830.4469
1066.5548	1826.0269
1067.2539	1796.9961
1067.953	1781.7213
1068.652	1773.5369
1069.3511	1757.5249
1070.05	1740.8533
1070.7491	1712.5864
1071.4482	1711.3926
1072.1472	1717.826
1072.8463	1680.2819
1073.5453	1670.3866
1074.2444	1662.2322
1074.9435	1643.3217
1075.6425	1642.6804
1076.3416	1624.6992
1077.0405	1605.626
1077.7396	1580.2784
1078.4386	1583.4282
1079.1377	1581.2125
1079.8368	1574.6088
1080.5358	1543.6534
1081.2349	1502.6978
1081.9338	1484.1545
1082.6329	1495.812
1083.332	1472.2761
1084.031	1473.6492
1084.7301	1467.8756
1085.4291	1420.2354
1086.1282	1444.1389
1086.8273	1427.1532
1087.5262	1395.8396
1088.2253	1407.1563
1088.9243	1389.7633
1089.6234	1387.072
1090.3224	1357.1063
1091.0215	1351.2222
1091.7206	1321.5212
1092.4196	1330.9728
1093.1187	1302.8239
1093.8176	1299.3812
1094.5167	1307.9858
1095.2158	1288.4335
1095.9148	1258.3784
1096.6139	1257.9629
1097.3129	1218.2214
1098.012	1203.1787
1098.7111	1196.2177
1099.41	1193.3159
1100.1091	1176.3762
1100.8081	1182.2419
1101.5072	1166.8997
1102.2062	1135.6687
1102.9053	1130.9116
1103.6044	1144.0094
1104.3033	1103.8461
1105.0024	1086.9465
1105.7014	1090.5277
1106.4005	1080.6978
1107.0996	1077.2184
1107.7986	1061.2905
1108.4977	1056.7273
1109.1967	1041.5333
1109.8958	1022.5696
1110.5948	1020.467
1111.2938	998.36682
1111.9929	986.84625
1112.6919	998.74139
1113.391	962.97516
1114.09	961.69012
1114.7891	964.46649
1115.4882	936.76447
1116.1871	914.06409
1116.8862	936.71893
1117.5852	913.38617
1118.2843	913.39081
1118.9834	912.03522
1119.6824	901.32153
1120.3815	886.92957
1121.0804	879.2254
1121.7795	871.39703
1122.4786	853.64502
1123.1776	846.13617
1123.8767	834.41003
1124.5757	821.4248
1125.2748	838.27338
1125.9738	831.27258
1126.6729	814.28125
1127.3719	793.66241
1128.0709	781.70477
1128.77	797.10236
1129.469	770.50153
1130.1681	755.48407
1130.8672	771.33221
1131.5662	740.60388
1132.2653	734.49652
1132.9642	745.51715
1133.6633	721.47571
1134.3624	723.13092
1135.0614	726.17859
1135.7605	712.90277
1136.4595	711.474
1137.1586	704.58795
1137.8575	707.30353
1138.5566	684.86658
1139.2557	697.19928
1139.9547	701.159
1140.6538	683.65045
1141.3528	653.88818
1142.0519	634.73254
1142.751	658.78375
1143.45	641.42529
1144.149	633.68573
1144.848	630.59424
1145.5471	610.35419
1146.2462	639.38397
1146.9452	605.21985
1147.6443	602.72351
1148.3433	601.23114
1149.0424	609.16089
1149.7413	599.06335
1150.4404	596.40295
1151.1395	586.80487
1151.8385	565.48975
1152.5376	574.63135
1153.2366	554.01843
1153.9357	571.71136
1154.6348	560.97406
1155.3337	569.33362
1156.0328	554.67395
1156.7318	540.18506
1157.4309	544.06476
1158.13	534.57129
1158.829	536.93744
1159.5281	528.96118
1160.2271	524.53857
1160.9261	520.97284
1161.6251	539.53009
1162.3242	520.073
1163.0233	499.46378
1163.7223	520.72467
1164.4214	510.05847
1165.1204	498.52274
1165.8195	486.32037
1166.5186	482.33142
1167.2175	482.72266
1167.9166	487.04218
1168.6156	464.85901
1169.3147	462.94312
1170.0137	478.27832
1170.7128	475.69006
1171.4119	454.91113
1172.1108	454.14078
1172.8099	469.75613
1173.5089	485.49103
1174.208	488.07129
1174.9071	482.46906
1175.6061	470.10614
1176.3052	467.24872
1177.0042	464.1171
1177.7032	452.64099
1178.4023	465.50171
1179.1013	449.12534
1179.8004	439.75198
1180.4994	418.07489
1181.1985	428.60272
1181.8975	446.69962
1182.5966	433.52628
1183.2957	419.98346
1183.9946	403.29956
1184.6937	403.23901
1185.3927	412.48059
1186.0918	418.99179
1186.7909	421.63699
1187.4899	400.01956
1188.189	413.1702
1188.8879	399.09735
1189.587	407.23474
1190.2861	406.48914
1190.9851	408.95679
1191.6842	396.42822
1192.3832	408.01489
1193.0823	411.21976
1193.7813	396.40198
1194.4803	402.84964
1195.1794	398.07852
1195.8784	403.30042
1196.5775	386.60919
1197.2765	375.40134
1197.9756	383.34427
1198.6747	383.33133
1199.3737	388.01288
1200.0728	401.29129
1200.7717	394.80029
1201.4708	391.20197
1202.1699	393.42474
1202.8689	383.27377
1203.568	372.8371
1204.267	382.47162
1204.9661	357.92352
1205.665	367.55685
1206.3641	392.51898
1207.0632	410.50778
1207.7622	389.28455
1208.4613	353.1362
1209.1603	342.86942
1209.8594	348.87857
1210.5585	346.17584
1211.2574	354.58868
1211.9565	358.815
1212.6555	356.29141
1213.3546	348.12592
1214.0537	339.62695
1214.7527	345.75055
1215.4518	340.57596
1216.1508	331.98965
1216.8499	335.70419
1217.5488	332.44897
1218.2479	346.49155
1218.947	323.26749
1219.646	350.15063
1220.3451	320.94971
1221.0441	321.36942
1221.7432	334.24347
1222.4423	332.20624
1223.1412	329.19669
1223.8403	323.52667
1224.5393	342.15781
1225.2384	351.52676
1225.9375	333.39142
1226.6365	315.5097
1227.3356	317.69043
1228.0345	322.48837
1228.7336	301.10217
1229.4326	326.51593
1230.1317	301.83978
1230.8308	341.36243
1231.5298	309.81747
1232.2289	296.94409
1232.9279	320.92346
1233.627	328.93036
1234.326	321.72995
1235.025	312.96011
1235.7241	312.08722
1236.4231	320.0202
1237.1222	316.92935
1237.8213	310.53693
1238.5203	317.37994
1239.2194	314.82999
1239.9183	336.15381
1240.6174	320.065
1241.3164	312.50967
1242.0155	294.99945
1242.7146	328.38312
1243.4136	310.39847
1244.1127	323.71112
1244.8116	300.64777
1245.5107	301.44641
1246.2098	299.05179
1246.9088	310.11728
1247.6079	325.49084
1248.3069	310.3916
1249.006	305.87735
1249.7051	312.6875
1250.4041	294.62762
1251.1031	302.39252
1251.8021	295.37753
1252.5012	304.39136
1253.2002	307.28333
1253.8993	307.37802
1254.5984	317.48642
1255.2974	298.01541
1255.9965	303.7692
1256.6954	310.67847
1257.3945	313.19928
1258.0936	318.66446
1258.7926	312.789
1259.4917	302.80777
1260.1907	306.15015
1260.8898	304.57993
1261.5889	295.98682
1262.2878	312.0694
1262.9869	303.01996
1263.6859	303.69009
1264.385	285.60089
1265.084	274.92593
1265.7831	295.93689
1266.4822	306.69626
1267.1812	298.72638
1267.8802	297.40317
1268.5792	296.1951
1269.2783	297.08328
1269.9774	291.41022
1270.6764	302.35327
1271.3755	307.95084
1272.0745	315.45435
1272.7736	311.78888
1273.4727	312.4053
1274.1716	314.1055
1274.8707	307.96808
1275.5697	292.16513
1276.2688	304.6749
1276.9678	290.72067
1277.6669	286.47375
1278.366	290.56335
1279.0649	291.80023
1279.764	291.76251
1280.463	297.72141
1281.1621	296.75275
1281.8612	297.74942
1282.5602	292.61572
1283.2593	290.27457
1283.9583	299.31924
1284.6573	294.98553
1285.3564	291.4234
1286.0554	305.63376
1286.7545	291.75815
1287.4535	301.43207
1288.1526	303.53168
1288.8516	285.47171
1289.5507	309.46231
1290.2498	291.64273
1290.9487	307.65356
1291.6478	298.22845
1292.3468	289.26147
1293.0459	290.63528
1293.745	282.78714
1294.444	293.06439
1295.1431	308.90662
1295.842	285.68292
1296.5411	269.63736
1297.2402	280.04752
1297.9392	274.67142
1298.6383	303.68814
1299.3373	299.39032
1300.0364	305.62738
1300.7354	294.7951
1301.4344	283.00305
1302.1335	294.77734
1302.8325	285.32935
1303.5316	276.91727
1304.2306	286.86066
1304.9297	294.95944
1305.6288	290.18829
1306.3278	293.80966
1307.0269	266.75482
1307.7258	294.78119
1308.4249	291.60175
1309.124	287.82645
1309.823	288.48007
1310.5221	290.29999
1311.2211	293.48068
1311.9202	290.53873
1312.6191	275.41287
1313.3182	289.49026
1314.0173	292.97141
1314.7163	285.44791
1315.4154	293.56827
1316.1144	305.3674
1316.8135	295.43982
1317.5126	299.99036
1318.2115	275.76437
1318.9106	300.24228
1319.6096	287.09006
1320.3087	278.73508
1321.0078	275.8251
1321.7068	292.57492
1322.4059	301.98511
1323.1049	298.30032
1323.804	293.50613
1324.5029	283.78259
1325.202	289.9715
1325.9011	303.96085
1326.6001	304.26801
1327.2992	287.71835
1327.9982	284.32147
1328.6973	282.48193
1329.3964	274.3663
1330.0953	283.07462
1330.7944	286.08911
1331.4934	294.89807
1332.1925	276.2666
1332.8916	272.85287
1333.5906	291.81888
1334.2897	295.68585
1334.9886	310.81259
1335.6877	295.24374
1336.3867	283.02686
1337.0858	305.84137
1337.7849	279.57388
1338.4839	276.15955
1339.183	304.11264
1339.882	300.86243
1340.5811	284.79172
1341.2802	299.9538
1341.9791	313.32626
1342.6782	303.21082
1343.3772	298.02551
1344.0763	306.27335
1344.7754	308.76154
1345.4744	294.73987
1346.1735	290.81009
1346.8724	294.67697
1347.5715	303.72559
1348.2705	295.2092
1348.9696	285.94858
1349.6687	285.36942
1350.3677	295.18832
1351.0668	303.39038
1351.7657	306.62018
1352.4648	316.96896
1353.1639	324.0206
1353.8629	331.84094
1354.562	303.51282
1355.261	290.03867
1355.9601	293.50964
1356.6592	299.22763
1357.3582	300.32388
1358.0573	296.79181
1358.7562	284.02988
1359.4553	295.93115
1360.1543	299.40753
1360.8534	300.36887
1361.5525	301.45709
1362.2515	285.75192
1362.9506	311.30539
1363.6495	284.46368
1364.3486	291.23276
1365.0477	288.65338
1365.7467	292.36169
1366.4458	301.98956
1367.1448	318.55304
1367.8439	281.13058
1368.543	269.52698
1369.2419	300.06256
1369.941	292.24002
1370.64	284.62839
1371.3391	304.27554
1372.0381	265.77444
1372.7372	292.52676
1373.4363	278.50308
1374.1353	296.57315
1374.8344	297.80981
1375.5333	308.35095
1376.2324	303.83856
1376.9315	298.89801
1377.6305	287.58887
1378.3296	304.9884
1379.0286	307.29541
1379.7277	286.17188
1380.4268	279.97531
1381.1257	286.86465
1381.8248	301.73682
1382.5238	306.16104
1383.2229	295.72696
1383.9219	315.24667
1384.621	300.70651
1385.3201	312.03101
1386.019	298.85278
1386.7181	289.90836
1387.4171	290.50183
1388.1162	285.84427
1388.8153	298.44916
1389.5143	290.91364
1390.2134	268.48431
1390.9124	306.57007
1391.6115	313.9852
1392.3105	311.17233
1393.0095	302.84509
1393.7086	317.01672
1394.4076	319.31427
1395.1067	315.43503
1395.8057	300.26013
1396.5048	291.58603
1397.2039	300.81161
1397.9028	281.58514
1398.6019	293.39508
1399.3009	305.53912
1400	313.65747
