20.082397	157.75146
20.781445	396.95264
21.48049	701.03235
22.179537	1010.3345
22.878584	1353.5176
23.577629	1626.1111
24.276676	1785.9834
24.975721	1868.6241
25.674768	1935.1052
26.373816	2032.803
27.072861	2132.4358
27.771908	2277.6941
28.470955	2239.8582
29.17	2258.2512
29.869047	2278.8713
30.568094	2339.3069
31.267139	2445.5686
31.966187	2542.1218
32.665234	2640.5273
33.364281	2730.0652
34.063324	2783.7888
34.762371	2989.5554
35.461418	3181.6426
36.160465	3365.4893
36.859512	3517.1155
37.558559	2885.2847
38.257603	3059.8486
38.95665	3059.8486
39.655697	3059.8486
40.354744	3893.3989
41.053791	3649.8503
41.752834	3495.8003
42.451881	3560.2869
43.150928	3697.4607
43.849976	3850.8574
44.549023	3746.7788
45.24807	3806.2197
45.947113	3816.0811
46.64616	3862.6921
47.345207	3923.9768
48.044254	4026.512
48.743301	4101.4326
49.442345	4116.7686
50.141392	4173.6514
50.840439	4164.9004
51.539486	4336.4321
52.238533	4278.8613
52.93758	4323.1211
53.636623	4295.8501
54.33567	4291.4004
55.034718	4279.6826
55.733765	4298.0039
56.432812	4334.9512
57.131855	4336.4707
57.830902	4365.5825
58.529949	4513.0322
59.228996	4525.3926
59.928043	4655.3403
60.62709	4801.9033
61.326134	4801.3179
62.025181	4698.9268
62.724228	4607.231
63.423275	4502.3809
64.122322	4481.6567
64.821365	4556.8564
65.520416	4618.7817
66.21946	4621.77
66.918503	4618.5869
67.617554	4603.7285
68.316597	4652.873
69.015648	4612.2441
69.714691	4683.2612
70.413742	4618.7358
71.112785	4694.3643
71.811829	4694.6392
72.51088	4668.1401
73.209923	4619.3608
73.908974	4591.3398
74.608017	4702.4038
75.30706	4725.1948
76.006111	4731.7803
76.705154	4677.6025
77.404205	4791.3687
78.103249	4660.9546
78.802292	4663.8096
79.501343	4665.793
80.200386	4717.9756
80.899437	4695.4351
81.59848	4626.0625
82.297531	4648.8145
82.996574	4744.9893
83.695618	4832.9707
84.394669	4873.7656
85.093712	4941.0391
85.792763	4800.7007
86.491806	4676.0854
87.190849	4660.7656
87.8899	4646.9351
88.588943	4687.6265
89.287994	4709.543
89.987038	4713.6025
90.686081	4734.625
91.385132	4765.5278
92.084175	4808.0347
92.783226	4755.6406
93.482269	4688.8193
94.181313	4656.0127
94.880363	4715.9097
95.579407	4720.0273
96.278458	4697.1001
96.977501	4674.5898
97.676552	4632.165
98.375595	4624.4302
99.074638	4669.9692
99.773689	4705.6592
100.47273	4708.915
101.17178	4700.5313
101.87083	4594.2725
102.56987	4643.2788
103.26892	4668.4165
103.96796	4705.9536
104.66702	4781.6782
105.36606	4799.7075
106.0651	4767.9194
106.76415	4774.5913
107.4632	4743.9902
108.16225	4673.269
108.86129	4667.3442
109.56034	4648.0249
110.25938	4633.6445
110.95843	4590.5161
111.65748	4546.77
112.35652	4627.4429
113.05557	4620.2153
113.75462	4639.6099
114.45366	4594.2451
115.15271	4619.7188
115.85175	4675.3491
116.5508	4651.8013
117.24985	4613.3481
117.94889	4632.6816
118.64794	4607.9385
119.34698	4630.6089
120.04604	4545.6631
120.74508	4623.3721
121.44412	4547.6724
122.14317	4600.8931
122.84222	4595.897
123.54127	4627.436
124.24031	4588.7427
124.93936	4557.6001
125.6384	4576.75
126.33745	4566.5337
127.0365	4528.4482
127.73554	4502.4873
128.43459	4506.7178
129.13364	4433.7065
129.83269	4550.2871
130.53172	4639.6934
131.23077	4509.8018
131.92982	4519.8794
132.62888	4507.2544
133.32791	4496.7222
134.02696	4507.5723
134.72601	4459.7144
135.42505	4422.9736
136.1241	4478.0083
136.82315	4431.835
137.52219	4442.3286
138.22124	4429.418
138.92029	4432.7144
139.61934	4439.2412
140.31837	4533.0693
141.01743	4485.7856
141.71648	4466.2676
142.41551	4416.5747
143.11456	4389.7148
143.81361	4429.6089
144.51266	4451.7241
145.2117	4412.3955
145.91075	4391.1772
146.6098	4388.1812
147.30884	4382.3154
148.00789	4316.2002
148.70694	4375.0742
149.40598	4364.6978
150.10503	4380.0454
150.80408	4411.3022
151.50313	4399.73
152.20216	4314.3867
152.90121	4261.1548
153.60027	4313.0654
154.2993	4368.1001
154.99835	4363.9883
155.6974	4412.105
156.39645	4354.3413
157.09549	4315
157.79454	4246.2637
158.49359	4184.0415
159.19263	4227.6479
159.89168	4371.8457
160.59073	4325.7368
161.28976	4261.5903
161.98882	4321.4858
162.68787	4347.3706
163.38692	4319.3711
164.08595	4333.9258
164.785	4291.8267
165.48405	4240.7168
166.18309	4278.4512
166.88214	4246.1846
167.58119	4190.8286
168.28023	4274.02
168.97928	4292.1738
169.67833	4343.9712
170.37738	4261.1392
171.07642	4241.3413
171.77547	4283.8755
172.47452	4310.8281
173.17355	4323.252
173.8726	4309.1768
174.57166	4264.0806
175.27071	4265.6323
175.96974	4229.8032
176.66879	4226.9727
177.36784	4273.2793
178.06688	4228.3433
178.76593	4240.5894
179.46498	4199.6685
180.16402	4222.2627
180.86307	4219.71
181.56212	4185.3555
182.26117	4146.4346
182.96021	4196.6982
183.65926	4275.2227
184.35831	4233.8086
185.05734	4261.8228
185.75639	4257.2886
186.45544	4226.9678
187.1545	4269.9492
187.85353	4258.3096
188.55258	4232.2676
189.25163	4222.2622
189.95067	4319.8735
190.64972	4302.5156
191.34877	4308.2139
192.04781	4290.9932
192.74686	4242.9814
193.44591	4217.9058
194.14496	4217.6997
194.84399	4268.3584
195.54305	4247.8486
196.2421	4329.2515
196.94113	4270.7305
197.64018	4245.7056
198.33923	4210.8267
199.03828	4265.4438
199.73732	4251.3481
200.43637	4240.645
201.13542	4256.0068
201.83446	4211.3354
202.53351	4182.0859
203.23256	4252.5967
203.93159	4323.6846
204.63065	4327.1836
205.3297	4336.4097
206.02875	4283.7842
206.72778	4350.8896
207.42683	4199.8945
208.12589	4278.5361
208.82492	4281.6089
209.52397	4233.5869
210.22302	4268.7847
210.92207	4233.5605
211.62111	4169.9458
212.32016	4191.1284
213.01921	4242.4434
213.71825	4277.2935
214.4173	4304.2134
215.11635	4286.2827
215.81538	4248.7251
216.51443	4284.8179
217.21349	4244.1621
217.91254	4210.1582
218.61157	4286.4277
219.31062	4253.5303
220.00967	4287.5718
220.70871	4199.8354
221.40776	4241.2632
222.10681	4315.7515
222.80585	4325.8228
223.5049	4306.2275
224.20395	4289.1758
224.903	4295.2236
225.60204	4289.8008
226.30109	4246.9795
227.00014	4299.7637
227.69917	4289.8511
228.39822	4288.9443
229.09727	4254.6016
229.79633	4260.3896
230.49536	4370.7539
231.19441	4321.9053
231.89346	4271.084
232.5925	4276.0508
233.29155	4300.1982
233.9906	4332.584
234.68964	4338.3003
235.38869	4319.0664
236.08774	4310.2651
236.78679	4304.4468
237.48582	4287.4341
238.18488	4292.0381
238.88393	4313.6226
239.58296	4324.0317
240.28201	4403.3213
240.98106	4324.4126
241.68011	4295.3159
242.37915	4430.1055
243.0782	4429.9043
243.77725	4467.8926
244.47629	4399.3691
245.17534	4397.5747
245.87439	4368.8857
246.57343	4379.7539
247.27248	4406.9653
247.97153	4322.9849
248.67058	4379.4419
249.36961	4423.7046
250.06866	4415.4243
250.76772	4331.7329
251.46675	4462.3369
252.1658	4413.251
252.86485	4458.9512
253.5639	4455.6284
254.26294	4482.8237
254.96199	4539.7974
255.66104	4566.0693
256.36008	4537.6177
257.05914	4497.6523
257.75818	4443.6982
258.45721	4408.8027
259.15628	4417.6089
259.85532	4407.7266
260.55435	4405.9019
261.25342	4461.8599
261.95245	4478.9541
262.65149	4485.9155
263.35056	4537.251
264.04959	4430.332
264.74863	4428.9346
265.44769	4430.6426
266.14673	4466.563
266.84576	4504.5415
267.54483	4443.5938
268.24387	4435.7573
268.94293	4424.5024
269.64197	4411.8389
270.341	4474.4033
271.04007	4535.7334
271.73911	4531.5449
272.43814	4517.4429
273.13721	4519.9111
273.83624	4578.1958
274.53528	4526.3833
275.23434	4502.4004
275.93338	4583.002
276.63242	4533.7822
277.33148	4591.7974
278.03052	4585.4941
278.72955	4574.0498
279.42862	4605.5942
280.12766	4652.0166
280.82672	4619.2319
281.52576	4612.6709
282.22479	4653.1538
282.92386	4599.7378
283.62289	4559.3511
284.32193	4667.271
285.021	4660.5698
285.72003	4691.5879
286.41907	4661.4419
287.11813	4634.0537
287.81717	4691.2661
288.5162	4631.3511
289.21527	4705.4521
289.91431	4671.8101
290.61334	4717.6797
291.31241	4731.4404
292.01144	4737.2744
292.71051	4717.7939
293.40955	4689.6538
294.10858	4705.4619
294.80765	4753.1626
295.50668	4768.8706
296.20572	4730.4302
296.90479	4672.3799
297.60382	4668.2603
298.30286	4802.377
299.00192	4815.4463
299.70096	4843.7217
300.39999	4816.4619
301.09906	4820.9795
301.7981	4868.3735
302.49713	4808.2471
303.1962	4836.252
303.89523	4867.4277
304.5943	4836.0815
305.29333	4765.335
305.99237	4781.4478
306.69144	4809.8618
307.39047	4799.5962
308.08951	4816.4531
308.78857	4842.0176
309.48761	4837.4771
310.18665	4839.3086
310.88571	4889.4507
311.58475	4997.9287
312.28378	4876.3994
312.98285	4987.9399
313.68188	4889.3735
314.38092	4941.645
315.07999	4865.9219
315.77902	4878.2158
316.47806	4992.6631
317.17712	4909.9956
317.87616	4933.561
318.57523	4941.4531
319.27426	4916.478
319.9733	4925.8525
320.67236	4929.6094
321.3714	4915.145
322.07043	4928.2803
322.7695	4969.1265
323.46854	4996.8291
324.16757	4980.3799
324.86664	4898.2695
325.56567	4984.1543
326.26471	4917.0635
326.96378	4982.7847
327.66281	4937.7246
328.36185	5008.4443
329.06091	5013.7212
329.75995	4995.8638
330.45901	4991.3677
331.15805	5036.3682
331.85709	5085.4258
332.55615	5067.2993
333.25519	5065.3867
333.95422	5075.2944
334.65329	5075.6304
335.35233	5097.6572
336.05136	5106.0059
336.75043	5103.1152
337.44946	5112.4277
338.1485	5078.6968
338.84756	5039.8745
339.5466	5140.3877
340.24564	5179.063
340.9447	5075.7192
341.64374	5162.9375
342.3428	5059.4697
343.04184	4995.3052
343.74088	5062.0444
344.43994	5036.3086
345.13898	5121.2358
345.83801	5179.3638
346.53708	5186.0332
347.23611	5142.8882
347.93515	5129.519
348.63422	5123.1006
349.33325	5126.9385
350.03229	5188.1357
350.73135	5175.4668
351.43039	5125.4653
352.12943	5157.5869
352.82849	5136.915
353.52753	5120.3203
354.22659	5234.1548
354.92563	5283.269
355.62466	5284.3945
356.32373	5290.1924
357.02277	5225.9648
357.7218	5097.8472
358.42087	5222.0942
359.1199	5193.1318
359.81894	5189.7578
360.51801	5277.936
361.21704	5251.3271
361.91608	5189.606
362.61514	5188.6255
363.31418	5241.5386
364.01321	5266.7788
364.71228	5258.0298
365.41132	5283.52
366.11038	5269.9106
366.80942	5261.7402
367.50845	5238.4365
368.20752	5318.8569
368.90656	5261.7046
369.60559	5286.5991
370.30466	5283.2446
371.00369	5429.7705
371.70273	5370.8574
372.40179	5351.4795
373.10083	5351.7793
373.79987	5443.0068
374.49893	5409.8472
375.19797	5407.7544
375.897	5440.3325
376.59607	5413.1641
377.2951	5353.9487
377.99417	5368.02
378.69321	5404.1846
379.39224	5419.1582
380.09131	5443.5752
380.79034	5400.71
381.48938	5348.5605
382.18845	5444.4766
382.88748	5435.8623
383.58652	5411.8364
384.28558	5370.4214
384.98462	5369.1909
385.68365	5431.4009
386.38272	5418.5054
387.08176	5465.5845
387.78079	5553.8774
388.47986	5477.2568
389.17889	5482.1631
389.87796	5463.8267
390.577	5568.0269
391.27603	5551.8213
391.9751	5524.7681
392.67413	5569.6646
393.37317	5616.022
394.07224	5579.8799
394.77127	5493.437
395.47031	5475.5781
396.16937	5574.29
396.86841	5675.0977
397.56744	5646.0898
398.26651	5571.647
398.96555	5597.2578
399.66458	5599.6519
400.36365	5597.9287
401.06268	5676.2246
401.76175	5634.3262
402.46078	5669.3691
403.15982	5509.2637
403.85889	5577.2769
404.55792	5629.2495
405.25696	5581.0376
405.95602	5624.4087
406.65506	5694.729
407.3541	5721.2837
408.05316	5731.0977
408.7522	5709.8975
409.45123	5683.3564
410.1503	5710.9136
410.84933	5736.5566
411.54837	5710.1509
412.24744	5744.1362
412.94647	5765.7539
413.64554	5723.6948
414.34457	5749.5151
415.04361	5769.5752
415.74268	5789.2041
416.44171	5808.8828
417.14075	5834.0146
417.83981	5739.271
418.53885	5831.4658
419.23788	5843.2822
419.93695	5844.8145
420.63599	5792.5195
421.33502	5807.2388
422.03409	5795.6289
422.73312	5808.1211
423.43216	5799.6567
424.13123	5847.6211
424.83026	5848.2905
425.5293	5870.3057
426.22836	5927.1729
426.9274	5919.9043
427.62646	5971.2607
428.3255	5988.2173
429.02454	6005.6826
429.7236	6047.8076
430.42264	5975.0747
431.12167	5939.3433
431.82074	6004.1328
432.51978	5994.561
433.21881	6008.1206
433.91788	6041.8149
434.61691	6065.4258
435.31595	6080.0044
436.01501	6007.543
436.71405	6014.7725
437.41309	6051.4922
438.11215	6091.1411
438.81119	6065.2007
439.51025	6066.3936
440.20929	6087.4175
440.90833	6095.8301
441.60739	6062.3081
442.30643	6128.811
443.00546	6135.7437
443.70453	6115.0776
444.40356	6110.4746
445.1026	6115.1875
445.80167	6091.73
446.5007	6055.6699
447.19974	6112.3369
447.8988	6144.6523
448.59784	6139.6772
449.29688	6111.2554
449.99594	6061.4526
450.69498	6052.9976
451.39404	6128.3882
452.09308	6174.3438
452.79211	6121.9355
453.49118	6110.4429
454.19022	6096.1851
454.88925	6110.1904
455.58832	6112.7524
456.28735	6046.3423
456.98639	6082.2378
457.68546	6163.666
458.38449	6173.6567
459.08353	6158.8921
459.78259	6137.0146
460.48163	6054.459
461.18066	6126.3184
461.87973	6104.73
462.57877	6134.8369
463.27783	6063.7817
463.97687	6096.5645
464.6759	6054.7769
465.37497	6014.147
466.07401	6041.7207
466.77304	6068.5972
467.47211	6061.5444
468.17114	6068.9985
468.87018	6052.2295
469.56924	6024.188
470.26828	5954.8149
470.96732	5932.8711
471.66638	6003.728
472.36542	6006.4775
473.06445	5959.9375
473.76352	5953.4443
474.46255	5910.3022
475.16162	5906.6533
475.86066	5953.4946
476.55969	5938.4849
477.25876	5934.6899
477.95779	5885.2437
478.65683	5836.5381
479.3559	5867.6357
480.05493	5874.5259
480.75397	5945.3687
481.45303	5900.3906
482.15207	5859.9727
482.8511	5870.8101
483.55017	5865.7456
484.24921	5734.7769
484.94824	5727.9902
485.64731	5770.957
486.34634	5806.7461
487.04541	5891.4912
487.74445	5799.3086
488.44348	5752.1504
489.14255	5727.4746
489.84158	5686.0498
490.54062	5704.9053
491.23969	5714.9224
491.93872	5661.5425
492.63776	5671.7627
493.33682	5630.5132
494.03586	5606.7021
494.73489	5630.8618
495.43396	5660.1597
496.133	5660.3301
496.83203	5544.5547
497.5311	5499.9077
498.23013	5567.4951
498.9292	5528.0273
499.62823	5440.4229
500.32727	5377.1772
501.02634	5370.3013
501.72537	5370.7998
502.42441	5349.168
503.12347	5297.752
503.82251	5288.1724
504.52155	5279.9941
505.22061	5275.2847
505.91965	5193.6919
506.61868	5189.9609
507.31775	5034.1724
508.01678	5159.9678
508.71582	5107.9111
509.41489	5077.9639
510.11392	4980.9248
510.81299	4912.4146
511.51202	4900.5259
512.21106	4836.1948
512.9101	4837.5054
513.60913	4821.6406
514.30823	4811.168
515.00726	4812.6064
515.7063	4685.6396
516.40533	4670.9634
517.10437	4698.5801
517.80347	4590.248
518.5025	4568.5298
519.20154	4557.8643
519.90057	4521.4668
520.59961	4521.8013
521.29865	4512.0435
521.99774	4468.4321
522.69678	4414.4004
523.39581	4352.1001
524.09485	4294.0781
524.79388	4271.9277
525.49292	4249.043
526.19202	4237.8501
526.89105	4249.5317
527.59009	4209.3477
528.28912	4133.1709
528.98816	4187.3066
529.68726	4276.6646
530.38629	4192.9365
531.08533	4108.8877
531.78436	4089.0977
532.4834	4133.061
533.18243	4118.3862
533.88153	4024.989
534.58057	3972.4211
535.2796	3984.3516
535.97864	3994.2449
536.67767	3794.3313
537.37671	3837.7595
538.07581	3775.5469
538.77484	3776.1902
539.47388	3746.0669
540.17291	3686.1431
540.87195	3691.4189
541.57104	3730.5459
542.27008	3674.248
542.96912	3618.0073
543.66815	3555.5032
544.36719	3544.9087
545.06622	3549.8594
545.76532	3513.6431
546.46436	3567.7136
547.16339	3570.1475
547.86243	3505.9463
548.56146	3430.3428
549.2605	3450.4495
549.95959	3435.031
550.65863	3397.3657
551.35767	3394.468
552.0567	3389.1599
552.75574	3368.2332
553.45483	3319.6257
554.15387	3298.936
554.85291	3304.7
555.55194	3295.5493
556.25098	3260.6094
556.95001	3213.3442
557.64911	3213.8855
558.34814	3195.4126
559.04718	3183.2314
559.74622	3197.374
560.44525	3316.782
561.14429	3276.8225
561.84338	3166.4561
562.54242	3161.3328
563.24146	3137.5938
563.94049	3136.3989
564.63953	3127.9167
565.33862	3136.0669
566.03766	3120.4067
566.73669	3106.2446
567.43573	3043.9648
568.13477	3014.0259
568.8338	3032.6011
569.5329	3029.0674
570.23193	3036.8965
570.93097	3053.2708
571.63	2950.0449
572.32904	2960.4705
573.02808	2971.863
573.72717	2973.3723
574.42621	3023.5703
575.12524	2976.3384
575.82428	2980.4658
576.52332	3036.5569
577.22241	2979.2495
577.92145	2905.0825
578.62048	2898.5496
579.31952	2889.8911
580.01855	2920.9841
580.71759	2941.7205
581.41669	3213.3206
582.11572	3001.7107
582.81476	2840.8906
583.51379	2818.4546
584.21283	2869.2195
584.91187	2832.3486
585.61096	2802.1812
586.31	2800.5161
587.00903	2777.0117
587.70807	2811.5388
588.4071	2778.3677
589.1062	2780.5088
589.80524	2795.6013
590.50427	2767.5459
591.20331	2758.7083
591.90234	2775.324
592.60138	2781.5295
593.30048	2753.0408
593.99951	2786.5378
594.69855	2803.7798
595.39758	2753.3647
596.09662	2712.8171
596.79565	2714.6038
597.49475	2720.4907
598.19379	2740.5911
598.89282	2712.8237
599.59186	2689.467
600.29089	2670.865
600.98993	2602.1294
601.68903	2630.917
602.38806	2616.3279
603.0871	2617.1929
603.78613	2629.5571
604.48517	2622.4753
605.18427	2594.8767
605.8833	2544.8188
606.58234	2519.0945
607.28137	2522.8896
607.98041	2501.387
608.67944	2490.26
609.37854	2433.0469
610.07758	2433.5959
610.77661	2449.8062
611.47565	2455.1287
612.17468	2447.0854
612.87372	2397.6042
613.57281	2358.8696
614.27185	2341.9294
614.97089	2317.6282
615.66992	2310.0549
616.36896	2283.2961
617.06805	2267.7007
617.76709	2252.4487
618.46613	2228.0005
619.16516	2205.2061
619.8642	2152.8167
620.56323	2160.53
621.26233	2122.2339
621.96136	2117.991
622.6604	2128.332
623.35944	2114.7549
624.05847	2096.1799
624.75751	2163.5417
625.4566	2163.405
626.15564	2063.1089
626.85468	2058.9133
627.55371	1957.7924
628.25275	1944.4067
628.95184	1945.675
629.65088	1957.485
630.34991	1946.147
631.04895	1906.5814
631.74799	1914.7946
632.44702	1879.2546
633.14612	1855.9764
633.84515	1882.3136
634.54419	1874.6783
635.24323	1838.8956
635.94226	1844.402
636.6413	1819.7744
637.34039	1832.1191
638.03943	1796.2893
638.73846	1770.2164
639.4375	1779.7935
640.13654	1758.0745
640.83563	1762.5878
641.53467	1738.7454
642.2337	1723.0929
642.93274	1709.3511
643.63177	1694.9569
644.33081	1747.324
645.02991	1798.5214
645.72894	1725.3365
646.42798	1707.8186
647.12701	1694.3984
647.82605	1654.2808
648.52509	1619.6202
649.22418	1620.399
649.92322	1626.0321
650.62225	1625.15
651.32129	1591.4928
652.02032	1574.4285
652.71942	1593.1552
653.41846	1597.2031
654.11749	1608.9559
654.81653	1647.1381
655.51556	1658.715
656.2146	1589.8428
656.9137	1536.485
657.61273	1538.8181
658.31177	1551.3247
659.0108	1529.4181
659.70984	1525.177
660.40887	1499.6418
661.10797	1492.8987
661.80701	1499.9591
662.50604	1535.3285
663.20508	1585.5865
663.90411	1543.1084
664.60321	1498.6184
665.30225	1484.0968
666.00128	1475.8945
666.70032	1453.9891
667.39935	1472.3506
668.09839	1471.0244
668.79749	1493.4738
669.49652	1452.3265
670.19556	1436.1852
670.89459	1438.755
671.59363	1458.199
672.29266	1431.4946
672.99176	1461.5206
673.6908	1435.816
674.38983	1439.2604
675.08887	1444.0677
675.7879	1407.4984
676.487	1386.61
677.18604	1414.6687
677.88507	1419.7627
678.58411	1380.8777
679.28314	1370.6678
679.98218	1368.5062
680.68127	1356.481
681.38031	1369.2725
682.07935	1389.5886
682.77838	1399.4668
683.47742	1391.552
684.17645	1373.2617
684.87555	1370.8949
685.57458	1373.5071
686.27362	1374.0381
686.97266	1372.4667
687.67169	1373.5645
688.37079	1362.2246
689.06982	1356.6572
689.76886	1356.1595
690.4679	1365.9294
691.16693	1366.1768
691.86597	1380.1835
692.56506	1394.2604
693.2641	1385.2504
693.96313	1375.8909
694.66217	1350.2413
695.36121	1355.0792
696.06024	1358.1378
696.75934	1336.6995
697.45837	1330.368
698.15741	1325.9058
698.85645	1370.4946
699.55548	1358.9576
700.25458	1310.9519
700.95361	1317.6263
701.65265	1328.6171
702.35168	1307.6764
703.05072	1302.4843
703.74976	1287.4679
704.44885	1260.0247
705.14789	1319.3987
705.84692	1345.7733
706.54596	1385.5634
707.245	1380.4702
707.94403	1338.6577
708.64313	1315.8342
709.34216	1308.9746
710.0412	1324.5299
710.74023	1324.7084
711.43927	1293.6846
712.13837	1279.6056
712.8374	1306.0302
713.53644	1272.3048
714.23547	1312.7614
714.93451	1304.2179
715.63354	1316.8829
716.33264	1321.3156
717.03168	1321.4617
717.73071	1290.6598
718.42975	1309.9277
719.12878	1291.1815
719.82782	1334.3114
720.52692	1279.9144
721.22595	1297.2802
721.92499	1281.9951
722.62402	1288.0106
723.32306	1293.7444
724.02216	1332.4066
724.72119	1310.1311
725.42023	1337.4871
726.11926	1277.5417
726.8183	1278.0254
727.51733	1262.7411
728.21643	1279.3538
728.91547	1323.7209
729.6145	1326.8156
730.31354	1322.8278
731.01257	1293.0385
731.71161	1299.7709
732.41071	1317.5045
733.10974	1318.1124
733.80878	1321.7488
734.50781	1310.4771
735.20685	1306.7904
735.90594	1310.2401
736.60498	1305.8344
737.30402	1323.4882
738.00305	1328.7473
738.70209	1352.2477
739.40112	1313.9745
740.10022	1299.8307
740.79926	1273.6934
741.49829	1297.5187
742.19733	1322.9302
742.89636	1327.0436
743.5954	1326.865
744.29449	1322.8186
744.99353	1305.5862
745.69257	1308.1661
746.3916	1293.1849
747.09064	1311.4019
747.78973	1339.6791
748.48877	1357.2454
749.18781	1357.3912
749.88684	1369.3745
750.58588	1354.8999
751.28491	1321.9116
751.98401	1327.4121
752.68304	1358.8514
753.38208	1368.0336
754.08112	1345.0391
754.78015	1337.6171
755.47919	1342.3237
756.17828	1353.3098
756.87732	1379.0978
757.57635	1361.309
758.27539	1396.2504
758.97443	1424.0382
759.67352	1411.2727
760.37256	1406.0835
761.07159	1414.0345
761.77063	1469.751
762.46967	1491.387
763.1687	1427.4747
763.8678	1426.9203
764.56683	1433.4408
765.26587	1457.0146
765.9649	1481.7549
766.66394	1505.0861
767.36298	1474.5444
768.06207	1498.3452
768.76111	1481.3633
769.46014	1461.542
770.15918	1441.6952
770.85822	1440.2993
771.55731	1488.9705
772.25635	1506.7913
772.95538	1496.4568
773.65442	1484.6185
774.35345	1491.2626
775.05249	1515.3591
775.75159	1519.8158
776.45062	1551.7437
777.14966	1561.0803
777.84869	1538.5287
778.54773	1541.4117
779.24677	1537.765
779.94586	1579.6089
780.6449	1593.5736
781.34393	1598.1661
782.04297	1572.7085
782.742	1565.0653
783.4411	1576.8269
784.14014	1581.2616
784.83917	1593.4525
785.53821	1649.9369
786.23724	1643.6802
786.93628	1637.6848
787.63538	1587.9075
788.33441	1595.1084
789.03345	1590.8264
789.73248	1617.083
790.43152	1604.7788
791.13055	1607.1298
791.82965	1590.4478
792.52869	1575.5918
793.22772	1592.3555
793.92676	1625.1846
794.62579	1621.5151
795.32489	1615.9248
796.02393	1595.8763
796.72296	1587.3099
797.422	1593.8302
798.12103	1607.0085
798.82007	1617.3547
799.51917	1634.4578
800.2182	1587.457
800.91724	1575.2878
801.61627	1603.1943
802.31531	1583.1854
803.01434	1627.4679
803.71344	1625.1689
804.41248	1626.7841
805.11151	1641.8446
805.81055	1593.49
806.50958	1568.7761
807.20868	1564.4987
807.90771	1578.0192
808.60675	1539.001
809.30579	1540.9708
810.00482	1591.3101
810.70386	1540.6891
811.40295	1496.327
812.10199	1522.7675
812.80103	1553.0756
813.50006	1550.0874
814.1991	1517.7646
814.89813	1532.1642
815.59723	1526.7374
816.29626	1495.348
816.9953	1452.0686
817.69434	1519.41
818.39337	1489.5225
819.09247	1461.2393
819.7915	1440.8867
820.49054	1415.8931
821.18958	1445.4673
821.88861	1427.2689
822.58765	1452.2502
823.28674	1414.8289
823.98578	1437.9236
824.68481	1379.1111
825.38385	1368.1217
826.08289	1372.2775
826.78192	1365.6733
827.48102	1347.7339
828.18005	1359.9795
828.87909	1328.9358
829.57813	1351.7308
830.27716	1298.646
830.9762	1296.1793
831.67529	1283.9775
832.37433	1295.3354
833.07336	1287.1398
833.7724	1249.5151
834.47144	1189.1882
835.17053	1218.3413
835.86957	1195.868
836.5686	1193.5675
837.26764	1173.7032
837.96667	1175.7124
838.66571	1141.225
839.36481	1115.6812
840.06384	1141.4703
840.76288	1129.782
841.46191	1102.827
842.16095	1048.0879
842.85999	1057.0118
843.55908	1043.921
844.25812	1030.0455
844.95715	1050.6661
845.65619	1022.0612
846.35522	990.38141
847.05432	978.37903
847.75336	922.4704
848.45239	924.88806
849.15143	942.0882
849.85046	882.94226
850.5495	894.56757
851.2486	913.45111
851.94763	903.94916
852.64667	881.82965
853.3457	865.83319
854.04474	864.55145
854.74377	850.5545
855.44287	862.60272
856.14191	837.03265
856.84094	848.75916
857.53998	832.51575
858.23901	817.78278
858.93811	790.89417
859.63715	813.97113
860.33618	825.46344
861.03522	802.40314
861.73425	805.61102
862.43329	800.46277
863.13239	761.2146
863.83142	759.70905
864.53046	778.91907
865.22949	785.74878
865.92853	789.39343
866.62756	785.24689
867.32666	785.28674
868.0257	774.53412
868.72473	757.83887
869.42377	755.82355
870.1228	761.66486
870.8219	757.11218
871.52094	751.7865
872.21997	754.01355
872.91901	759.46704
873.61804	776.01685
874.31708	771.08124
875.01617	756.71362
875.71521	765.3371
876.41425	754.07269
877.11328	751.33435
877.81232	774.02594
878.51135	743.32648
879.21045	749.52856
879.90948	761.47974
880.60852	745.02466
881.30756	776.45844
882.00659	735.06128
882.70569	730.99133
883.40472	767.60358
884.10376	798.9754
884.8028	810.91376
885.50183	799.25195
886.20087	766.69458
886.89996	769.81573
887.599	795.44574
888.29803	749.12524
888.99707	766.94879
889.69611	777.13855
890.39514	786.66376
891.09424	783.67426
891.79327	805.66632
892.49231	782.93311
893.19135	788.73303
893.89038	792.3161
894.58948	820.78845
895.28851	782.55591
895.98755	773.81781
896.68658	800.25201
897.38562	812.4021
898.08466	798.55487
898.78375	810.32513
899.48279	816.35883
900.18182	829.86023
900.88086	793.73541
901.5799	798.93835
902.27893	829.71478
902.97803	888.02185
903.67706	963.16016
904.3761	903.07697
905.07513	853.2002
905.77417	813.66473
906.47327	818.10687
907.1723	843.34082
907.87134	860.46332
908.57037	864.49664
909.26941	862.82886
909.96844	867.06738
910.66754	872.49622
911.36658	887.0061
912.06561	878.08112
912.76465	897.95038
913.46368	895.7804
914.16272	888.71796
914.86182	879.75989
915.56085	900.10284
916.25989	882.61603
916.95892	904.3009
917.65796	917.58539
918.35706	931.39325
919.05609	924.92664
919.75513	913.6286
920.45416	883.24072
921.1532	923.15674
921.85223	939.60046
922.55133	928.11194
923.25037	932.84222
923.9494	942.08032
924.64844	943.63336
925.34747	959.08032
926.04651	957.60419
926.74561	968.64606
927.44464	989.06769
928.14368	969.72723
928.84271	956.55878
929.54175	937.34503
930.24084	970.8205
930.93988	961.96033
931.63892	1003.5004
932.33795	1004.0095
933.03699	976.00171
933.73602	957.46271
934.43512	998.44495
935.13416	982.01392
935.83319	976.32458
936.53223	985.88312
937.23126	970.15137
937.9303	1006.4697
938.62939	1018.3779
939.32843	1017.039
940.02747	993.28839
940.7265	997.20111
941.42554	1003.9113
942.12463	963.93817
942.82367	991.96747
943.52271	1046.6632
944.22174	1044.9841
944.92078	1055.4098
945.61981	1035.1981
946.31891	1030.0476
947.01794	1023.3314
947.71698	1024.788
948.41602	1024.923
949.11505	1044.4054
949.81409	1051.3479
950.51318	1040.6356
951.21222	1027.5112
951.91125	1052.4785
952.61029	1079.2885
953.30933	1098.3192
954.00842	1085.8521
954.70746	1081.9265
955.40649	1049.9358
956.10553	1050.5798
956.80457	1042.5214
957.5036	1082.1484
958.2027	1106.437
958.90173	1099.8181
959.60077	1076.1682
960.2998	1090.6145
960.99884	1083.5618
961.69788	1087.9995
962.39697	1080.5392
963.09601	1101.6583
963.79504	1096.5593
964.49408	1067.1166
965.19312	1089.9562
965.89221	1100.4783
966.59125	1093.7203
967.29028	1094.6132
967.98932	1098.5687
968.68835	1101.2212
969.38739	1095.6514
970.08649	1095.0785
970.78552	1097.5144
971.48456	1100.3026
972.18359	1129.2615
972.88263	1134.8776
973.58167	1086.6608
974.28076	1113.4537
974.9798	1092.9103
975.67883	1123.2073
976.37787	1098.2152
977.0769	1134.5189
977.776	1114.4608
978.47504	1092.278
979.17407	1119.8804
979.87311	1107.5768
980.57214	1089.6528
981.27118	1133.019
981.97028	1122.0366
982.66931	1135.5166
983.36835	1134.4003
984.06738	1102.5125
984.76642	1116.8267
985.46545	1122.3319
986.16455	1142.8121
986.86359	1170.6853
987.56262	1174.2522
988.26166	1176.1725
988.96069	1145.4388
989.65979	1141.8832
990.35883	1173.5027
991.05786	1180.3254
991.7569	1180.1937
992.45593	1148.0315
993.15497	1143.1654
993.85406	1157.1465
994.5531	1144.0825
995.25214	1141.5703
995.95117	1161.2545
996.65021	1184.1992
997.34924	1165.6729
998.04834	1183.6304
998.74738	1125.9802
999.44641	1195.8541
1000.1454	1188.115
1000.8445	1213.6881
1001.5436	1197.0896
1002.2426	1164.1399
1002.9417	1194.7925
1003.6407	1160.256
1004.3397	1221.8712
1005.0388	1168.0641
1005.7379	1214.6914
1006.4369	1209.2813
1007.1359	1211.1455
1007.835	1208.7455
1008.534	1224.1436
1009.233	1232.9698
1009.9321	1230.1484
1010.6312	1235.4087
1011.3302	1227.0963
1012.0292	1208.3669
1012.7283	1209.2675
1013.4274	1224.9617
1014.1264	1258.0015
1014.8254	1247.2472
1015.5245	1261.4836
1016.2235	1204.0266
1016.9225	1235.4929
1017.6216	1212.3359
1018.3207	1234.4783
1019.0197	1243.8425
1019.7188	1311.8679
1020.4178	1269.9188
1021.1168	1308.3733
1021.8159	1255.422
1022.515	1262.451
1023.214	1294.3956
1023.913	1320.8784
1024.6121	1295.6661
1025.3112	1283.2622
1026.0101	1260.5071
1026.7092	1285.0745
1027.4083	1273.5422
1028.1073	1297.8599
1028.8064	1331.3799
1029.5054	1316.2832
1030.2045	1312.528
1030.9034	1330.2217
1031.6025	1291.2294
1032.3016	1319.593
1033.0006	1403.8052
1033.6997	1336.8396
1034.3987	1314.8164
1035.0978	1377.9689
1035.7969	1363.5575
1036.4958	1329.4897
1037.1949	1336.4376
1037.8939	1373.6055
1038.593	1354.9354
1039.2921	1379.0341
1039.9911	1407.8612
1040.6902	1422.3706
1041.3892	1402.8239
1042.0883	1427.6256
1042.7872	1397.9979
1043.4863	1386.9338
1044.1854	1426.0111
1044.8844	1395.9054
1045.5835	1382.6395
1046.2825	1407.4216
1046.9816	1419.5814
1047.6807	1437.8101
1048.3796	1425.8301
1049.0787	1440.6116
1049.7777	1406.92
1050.4768	1378.5916
1051.1759	1403.8453
1051.8749	1465.0172
1052.574	1443.9845
1053.2729	1395.2074
1053.972	1408.5918
1054.671	1429.0645
1055.3701	1387.3153
1056.0692	1374.6244
1056.7682	1468.0437
1057.4673	1441.2396
1058.1663	1423.3571
1058.8654	1452.3555
1059.5645	1417.5479
1060.2634	1444.672
1060.9625	1469.2297
1061.6615	1495.7534
1062.3606	1426.2891
1063.0597	1419.64
1063.7587	1461.774
1064.4578	1444.8533
1065.1567	1443.9342
1065.8558	1414.9083
1066.5548	1414.4169
1067.2539	1419.9132
1067.953	1414.2874
1068.652	1470.2638
1069.3511	1484.7638
1070.05	1433.9453
1070.7491	1445.8003
1071.4482	1472.1748
1072.1472	1453.3456
1072.8463	1447.8522
1073.5453	1437.8608
1074.2444	1467.2144
1074.9435	1461.5878
1075.6425	1460.5028
1076.3416	1487.652
1077.0405	1471.944
1077.7396	1455.9731
1078.4386	1455.6555
1079.1377	1483.0183
1079.8368	1514.3978
1080.5358	1492.5828
1081.2349	1489.4775
1081.9338	1466.7776
1082.6329	1467.524
1083.332	1475.9446
1084.031	1467.7373
1084.7301	1474.1918
1085.4291	1466.7384
1086.1282	1482.4994
1086.8273	1460.3104
1087.5262	1460.376
1088.2253	1473.3857
1088.9243	1498.7665
1089.6234	1480.3937
1090.3224	1488.9154
1091.0215	1500.701
1091.7206	1531.7653
1092.4196	1465.3571
1093.1187	1454.1821
1093.8176	1472.1592
1094.5167	1483.2545
1095.2158	1472.536
1095.9148	1472.6011
1096.6139	1460.0298
1097.3129	1460.0565
1098.012	1461.1436
1098.7111	1481.4866
1099.41	1465.2896
1100.1091	1465.5155
1100.8081	1493.9207
1101.5072	1458.5605
1102.2062	1446.4777
1102.9053	1499.3812
1103.6044	1466.936
1104.3033	1459.1637
1105.0024	1470.4558
1105.7014	1449.6665
1106.4005	1456.572
1107.0996	1484.0331
1107.7986	1496.1525
1108.4977	1479.9811
1109.1967	1436.4825
1109.8958	1422.9537
1110.5948	1440.4618
1111.2938	1470.8582
1111.9929	1465.6697
1112.6919	1485.7955
1113.391	1456.9402
1114.09	1432.1949
1114.7891	1466.2366
1115.4882	1471.8677
1116.1871	1482.2546
1116.8862	1449.6857
1117.5852	1450.2374
1118.2843	1469.4327
1118.9834	1450.0313
1119.6824	1445.4011
1120.3815	1445.9406
1121.0804	1454.9384
1121.7795	1443.9597
1122.4786	1428.8455
1123.1776	1422.4128
1123.8767	1420.9537
1124.5757	1418.5588
1125.2748	1409.3668
1125.9738	1423.9003
1126.6729	1427.8138
1127.3719	1399.8888
1128.0709	1423.731
1128.77	1413.8326
1129.469	1392.1758
1130.1681	1397.4403
1130.8672	1386.5537
1131.5662	1403.1566
1132.2653	1417.6343
1132.9642	1380.8406
1133.6633	1377.2764
1134.3624	1382.1407
1135.0614	1375.998
1135.7605	1372.9381
1136.4595	1390.1639
1137.1586	1377.9022
1137.8575	1364.4081
1138.5566	1332.5536
1139.2557	1343.4932
1139.9547	1351.0693
1140.6538	1343.8419
1141.3528	1375.752
1142.0519	1361.5367
1142.751	1356.1947
1143.45	1364.1683
1144.149	1358.63
1144.848	1321.3857
1145.5471	1321.6019
1146.2462	1330.783
1146.9452	1312.3436
1147.6443	1300.9745
1148.3433	1326.2701
1149.0424	1341.3921
1149.7413	1311.2622
1150.4404	1305.0665
1151.1395	1323.1746
1151.8385	1318.1288
1152.5376	1282.7683
1153.2366	1265.6687
1153.9357	1302.0193
1154.6348	1308.4365
1155.3337	1300.52
1156.0328	1284.4918
1156.7318	1267.6902
1157.4309	1256.299
1158.13	1258.7664
1158.829	1264.5875
1159.5281	1277.4441
1160.2271	1266.8263
1160.9261	1245.7635
1161.6251	1238.9819
1162.3242	1237.3507
1163.0233	1244.8346
1163.7223	1244.9775
1164.4214	1228.2802
1165.1204	1193.8956
1165.8195	1198.85
1166.5186	1203.2058
1167.2175	1194.4336
1167.9166	1193.8483
1168.6156	1201.723
1169.3147	1201.0541
1170.0137	1191.1047
1170.7128	1206.1165
1171.4119	1192.8558
1172.1108	1181.5428
1172.8099	1194.3003
1173.5089	1210.0566
1174.208	1192.8359
1174.9071	1171.9742
1175.6061	1163.1292
1176.3052	1137.3262
1177.0042	1142.838
1177.7032	1168.2555
1178.4023	1148.5975
1179.1013	1119.077
1179.8004	1152.0664
1180.4994	1138.7908
1181.1985	1123.423
1181.8975	1119.1886
1182.5966	1159.4646
1183.2957	1118.6443
1183.9946	1086.9146
1184.6937	1103.8293
1185.3927	1130.0099
1186.0918	1119.7374
1186.7909	1096.5428
1187.4899	1082.7101
1188.189	1085.0585
1188.8879	1087.1604
1189.587	1069.702
1190.2861	1063.9849
1190.9851	1086.2631
1191.6842	1050.7343
1192.3832	1050.5459
1193.0823	1055.9049
1193.7813	1022.0737
1194.4803	1025.4143
1195.1794	1041.391
1195.8784	1037.4922
1196.5775	1064.3998
1197.2765	1069.2664
1197.9756	1020.4498
1198.6747	993.83075
1199.3737	1010.8578
1200.0728	1012.0677
1200.7717	1022.2849
1201.4708	1009.5122
1202.1699	984.05414
1202.8689	1008.946
1203.568	988.36627
1204.267	988.48486
1204.9661	983.29608
1205.665	964.57605
1206.3641	958.71521
1207.0632	971.37256
1207.7622	963.80017
1208.4613	938.80121
1209.1603	940.95972
1209.8594	923.94269
1210.5585	962.86511
1211.2574	941.76501
1211.9565	923.6853
1212.6555	924.43854
1213.3546	905.99658
1214.0537	896.50726
1214.7527	883.22937
1215.4518	861.98407
1216.1508	873.55481
1216.8499	890.15094
1217.5488	875.50208
1218.2479	883.58752
1218.947	881.67383
1219.646	869.89905
1220.3451	843.12988
1221.0441	812.21863
1221.7432	813.54871
1222.4423	824.64331
1223.1412	800.10699
1223.8403	793.78516
1224.5393	794.60144
1225.2384	806.75342
1225.9375	798.29321
1226.6365	789.17273
1227.3356	793.49487
1228.0345	765.68988
1228.7336	758.03772
1229.4326	774.4436
1230.1317	738.61096
1230.8308	755.45532
1231.5298	727.17889
1232.2289	707.4646
1232.9279	749.71576
1233.627	749.83929
1234.326	713.19543
1235.025	694.57092
1235.7241	702.9043
1236.4231	683.26038
1237.1222	698.43604
1237.8213	682.30463
1238.5203	680.00555
1239.2194	672.04218
1239.9183	665.20508
1240.6174	674.55475
1241.3164	629.58252
1242.0155	644.54932
1242.7146	652.25439
1243.4136	626.49335
1244.1127	601.34619
1244.8116	639.62042
1245.5107	614.39575
1246.2098	615.05756
1246.9088	598.18311
1247.6079	594.90076
1248.3069	597.05713
1249.006	590.87988
1249.7051	565.5022
1250.4041	565.3208
1251.1031	558.21924
1251.8021	557.15033
1252.5012	547.19525
1253.2002	538.97101
1253.8993	537.53052
1254.5984	551.026
1255.2974	541.4939
1255.9965	550.47961
1256.6954	515.18982
1257.3945	523.99744
1258.0936	532.711
1258.7926	515.06531
1259.4917	510.16901
1260.1907	503.85709
1260.8898	487.7337
1261.5889	513.04218
1262.2878	499.42416
1262.9869	491.91898
1263.6859	511.90512
1264.385	518.04486
1265.084	523.2569
1265.7831	481.96039
1266.4822	497.99475
1267.1812	504.13535
1267.8802	510.80872
1268.5792	502.93671
1269.2783	485.06137
1269.9774	463.4798
1270.6764	483.12897
1271.3755	520.50897
1272.0745	499.71072
1272.7736	464.64279
1273.4727	495.13885
1274.1716	480.26633
1274.8707	481.73853
1275.5697	472.11948
1276.2688	504.93695
1276.9678	467.7601
1277.6669	459.49948
1278.366	472.90814
1279.0649	460.49713
1279.764	466.6286
1280.463	476.81906
1281.1621	465.54633
1281.8612	467.66083
1282.5602	456.89142
1283.2593	464.60852
1283.9583	459.89963
1284.6573	469.55325
1285.3564	467.30246
1286.0554	456.14865
1286.7545	493.81635
1287.4535	468.85446
1288.1526	457.17322
1288.8516	439.06946
1289.5507	482.86154
1290.2498	478.95932
1290.9487	468.64929
1291.6478	458.75623
1292.3468	460.55658
1293.0459	464.59705
1293.745	453.20959
1294.444	465.02322
1295.1431	431.99915
1295.842	454.13107
1296.5411	444.59763
1297.2402	450.70456
1297.9392	456.642
1298.6383	449.79883
1299.3373	456.08475
1300.0364	461.30829
1300.7354	465.33286
1301.4344	447.24802
1302.1335	446.37503
1302.8325	451.67188
1303.5316	450.10446
1304.2306	446.29852
1304.9297	456.17236
1305.6288	440.90973
1306.3278	445.30197
1307.0269	459.76404
1307.7258	450.8129
1308.4249	473.31104
1309.124	477.44229
1309.823	466.51852
1310.5221	471.26355
1311.2211	437.80399
1311.9202	427.67001
1312.6191	442.14633
1313.3182	443.88437
1314.0173	459.21222
1314.7163	478.58142
1315.4154	471.74286
1316.1144	467.56897
1316.8135	461.9696
1317.5126	451.62122
1318.2115	450.33737
1318.9106	474.34512
1319.6096	451.27621
1320.3087	443.57315
1321.0078	442.33017
1321.7068	449.59808
1322.4059	449.87766
1323.1049	454.22882
1323.804	461.11386
1324.5029	450.65533
1325.202	448.24188
1325.9011	463.62503
1326.6001	459.79266
1327.2992	466.29108
1327.9982	488.83838
1328.6973	437.97665
1329.3964	430.55692
1330.0953	453.66193
1330.7944	451.29584
1331.4934	453.12204
1332.1925	452.8371
1332.8916	445.62592
1333.5906	444.6521
1334.2897	454.97745
1334.9886	436.85724
1335.6877	454.79697
1336.3867	446.6181
1337.0858	455.47894
1337.7849	467.23917
1338.4839	452.1149
1339.183	466.25046
1339.882	478.07538
1340.5811	467.37585
1341.2802	464.7421
1341.9791	461.87701
1342.6782	450.26529
1343.3772	439.57388
1344.0763	435.08881
1344.7754	429.5838
1345.4744	450.0509
1346.1735	454.91379
1346.8724	479.92722
1347.5715	467.52469
1348.2705	459.2814
1348.9696	452.39447
1349.6687	446.67465
1350.3677	444.91907
1351.0668	442.21738
1351.7657	448.00513
1352.4648	468.02289
1353.1639	455.13834
1353.8629	441.66791
1354.562	456.15237
1355.261	440.50803
1355.9601	444.0986
1356.6592	460.61276
1357.3582	451.78061
1358.0573	457.18552
1358.7562	453.00836
1359.4553	442.97968
1360.1543	450.28094
1360.8534	470.5499
1361.5525	467.711
1362.2515	456.48761
1362.9506	451.55795
1363.6495	454.93164
1364.3486	458.91638
1365.0477	440.08609
1365.7467	462.49011
1366.4458	439.91937
1367.1448	450.74802
1367.8439	461.3252
1368.543	453.48157
1369.2419	454.77921
1369.941	442.93512
1370.64	444.28799
1371.3391	477.54733
1372.0381	451.91678
1372.7372	433.32913
1373.4363	456.3299
1374.1353	447.89557
1374.8344	462.59955
1375.5333	449.64273
1376.2324	456.29477
1376.9315	467.77676
1377.6305	486.35901
1378.3296	478.10114
1379.0286	447.96136
1379.7277	461.6138
1380.4268	459.89337
1381.1257	451.03735
1381.8248	452.6994
1382.5238	452.93335
1383.2229	438.4873
1383.9219	471.16287
1384.621	448.14288
1385.3201	455.12897
1386.019	481.39786
1386.7181	457.22205
1387.4171	459.09909
1388.1162	470.18103
1388.8153	466.10757
1389.5143	473.61908
1390.2134	459.47491
1390.9124	472.13242
1391.6115	468.23169
1392.3105	458.69864
1393.0095	461.23859
1393.7086	474.03564
1394.4076	480.96423
1395.1067	470.27829
1395.8057	470.82611
1396.5048	449.78915
1397.2039	485.43979
1397.9028	471.35001
1398.6019	477.15457
1399.3009	439.67358
1400	463.23825
