101.20652320603546, 88.08197627298064
104.06516945231434, 88.05869419679173
106.92398400275843, 88.01224224719073
109.78246194487207, 88.01213004441392
112.64161310364659, 87.91933834798874
115.50009104576023, 87.91922614521192
118.35856898787387, 87.9191139424351
121.21738353831796, 87.87266199283411
124.07619808876203, 87.8262100432331
126.93467603087566, 87.8260978404563
129.79332227715452, 87.8028157642674
132.65230513176382, 87.7331939412543
135.51078307387746, 87.73308173847748
138.3692610159911, 87.73296953570068
141.22706574144388, 87.82553682657222
144.08554368355752, 87.82542462379541
146.94334840901027, 87.91799191466697
149.80115313446302, 88.01055920553853
152.6582846432549, 88.19580599005845
155.51592106454243, 88.31154315434209
158.3732208774995, 88.47362006544992
161.2303523862914, 88.65886684996985
164.08748389508327, 88.84411363448977
166.94461540387513, 89.0293604190097
169.80225182516267, 89.14509758329335
172.6598882464502, 89.26083474757701
175.5173563635725, 89.39974178527274
178.37516108902526, 89.4923090761443
181.23330242280846, 89.53853662019166
184.09127545242643, 89.60793403765113
186.94908017787918, 89.70050132852269
189.80705320749718, 89.76989874598215
192.6655311496108, 89.76978654320533
195.52333587506357, 89.86235383407688
198.38198212134245, 89.83907175788798
201.23961854262998, 89.95480892217164
204.09775987641316, 90.001036466219
206.95590121019637, 90.04726401026637
209.81421084814477, 90.07032168090166
212.67218387776276, 90.13971909836111
215.5306618198764, 90.13960689558431
218.38846654532915, 90.23217418645586
221.24643957494715, 90.30157160391532
224.10458090873036, 90.34779914796269
226.96272224251354, 90.39402669201006
229.82103188046196, 90.41708436264534
232.6795098225756, 90.41697215986852
235.53781946052402, 90.4400298305038
238.395792490142, 90.50942724796327
241.25427043225562, 90.50931504518645
244.1122434618736, 90.57871246264592
246.970553099822, 90.60177013328119
249.82835782527476, 90.69433742415275
252.68649915905797, 90.74056496820012
255.5448087970064, 90.7636226388354
258.4031184349548, 90.78668030947068
261.2615963770685, 90.78656810669386
264.11973771085167, 90.83279565074123
266.97787904463485, 90.8790231947886
269.83585207425284, 90.94842061224807
272.69416171220126, 90.97147828288335
275.551966437654, 91.06404557375491
278.4104443797676, 91.06393337097809
281.26858571355086, 91.11016091502546
284.12622213483843, 91.2258980793091
286.9845317727868, 91.24895574994439
289.8425048024048, 91.31835316740386
292.7008144403532, 91.34141083803914
295.5592923824668, 91.34129863526232
298.4172654120848, 91.41069605272178
301.27540674586805, 91.45692359676914
304.133379775486, 91.52632101422861
306.99118450093874, 91.61888830510017
309.8493258347219, 91.66511584914754
312.70746716850516, 91.71134339319491
315.5657768064535, 91.73440106383019
318.4237498360715, 91.80379848128965
321.28222777818513, 91.80368627851284
324.14036911196837, 91.84991382256021
326.9985104457516, 91.89614136660758
329.8563151712043, 91.98870865747914
332.71445650498754, 92.0349362015265
335.57276614293596, 92.05799387216179
338.43073917255396, 92.12739128962124
341.2888805063371, 92.17361883366861
344.1466852317899, 92.26618612454017
347.0044899572426, 92.35875341541173
349.86279959519106, 92.38181108604701
352.72094092897424, 92.42803863009438
355.57891395859224, 92.49743604755385
358.4370552923755, 92.54366359160122
361.2951966261586, 92.58989113564859
364.15333795994184, 92.63611867969595
367.0116475978902, 92.65917635033124
369.86928401917777, 92.77491351461488
372.72742535296095, 92.82114105866225
375.58539838257894, 92.89053847612172
378.4432031080317, 92.98310576699328
381.30083952931926, 93.09884293127692
384.15830764644153, 93.23774996897266
387.01611237189434, 93.33031725984422
389.8742537056775, 93.37654480389159
392.73205843113027, 93.46911209476315
395.59053637324394, 93.46899989198633
398.4476678820358, 93.65424667650626
401.3054726074885, 93.7468139673778
404.1632773329413, 93.83938125824936
407.02091375422884, 93.95511842253302
409.87855017551635, 94.07085558681666
412.73652320513435, 94.14025300427613
415.5938230180914, 94.30232991538396
418.4516277435442, 94.39489720625551
421.30926416483175, 94.51063437053917
424.1665639777888, 94.672711281647
427.02403209491115, 94.81161831934274
429.88217342869433, 94.85784586339011
432.7398098499819, 94.97358302767375
435.5974462712694, 95.0893201919574
438.4547460842265, 95.25139710306523
441.3118775930183, 95.43664388758516
444.1693457101407, 95.57555092528091
447.02731873975864, 95.64494834274036
449.88478685688096, 95.78385538043611
452.74242327816853, 95.89959254471975
455.5997230911256, 96.06166945582758
458.4573595124131, 96.17740662011124
461.31499593370063, 96.29314378439489
464.1729689633187, 96.36254120185434
467.0307736887714, 96.4551084927259
469.8885784142242, 96.54767578359746
472.74604653134645, 96.6865828212932
475.6033463443036, 96.84865973240103
478.46081446142585, 96.98756677009678
481.3182825785482, 97.12647380779251
484.1752457831749, 97.33489046572453
487.03271390029715, 97.47379750342027
489.8905186257499, 97.56636479429183
492.7484916553679, 97.63576221175128
495.60629638082065, 97.72832950262284
498.464606018769, 97.75138717325812
501.3224107442218, 97.84395446412968
504.1813935988311, 97.77433264111659
507.0393666284491, 97.84373005857606
509.89868609138887, 97.72776848873877
512.7580055543286, 97.6118069189015
515.6171567131032, 97.51901522247631
518.4771493927037, 97.31037415899067
521.336805463974, 97.14807284232921
524.1967981435746, 96.93943177884356
527.0569591273404, 96.70762084194583
529.9159419819497, 96.63799901893273
532.7752614448895, 96.52203744909545
535.6354224286553, 96.29022651219772
538.494741891595, 96.17426494236044
541.3538930503696, 96.08147324593526
544.2132125133094, 95.96551167609798
547.0718587595883, 95.94222959990907
549.9310099183627, 95.84943790348389
552.7893195563112, 95.87249557411917
555.6471242817639, 95.96506286499073
558.5059388322079, 95.91861091538973
561.3640801659913, 95.9648384594371
564.22272641227, 95.9415563832482
567.0808677460532, 95.98778392729557
569.9396822964973, 95.94133197769456
572.7991700636023, 95.80220053444519
575.658489526542, 95.68623896460792
578.5178089894818, 95.57027739477064
581.377465060752, 95.40797607810919
584.237794348683, 95.15299526779935
587.0981236366141, 94.89801445748952
589.9581163162147, 94.68937339400388
592.8184456041458, 94.43439258369405
595.6784382837465, 94.2257515202084
598.5379260508514, 94.08662007695904
601.3977504262868, 93.90114888688548
604.2579114100527, 93.66933794998774
607.1172308729924, 93.55337638015047
609.9770552484277, 93.36790519007691
612.8368796238633, 93.18243400000335
615.6960307826378, 93.08964230357817
618.5551819414122, 92.996850607153
621.4150063168477, 92.81137941707944
624.2741574756222, 92.71858772065426
627.1331403302315, 92.64896589764116
629.9919548806755, 92.60251394804015
632.8514426477806, 92.46338250479079
635.7104255023899, 92.3937606817777
638.5697449653296, 92.27779911194042
641.4290644282693, 92.16183754210314
644.2885521953743, 92.02270609885377
647.147030137488, 92.02259389607697
650.0046665587755, 92.13833106036061
652.8636494133847, 92.06870923734752
655.7224639638289, 92.02225728774653
658.581278514273, 91.97580533814552
661.4395881522213, 91.9988630087808
664.2985710068307, 91.92924118576771
667.15755386144, 91.85961936275461
670.0151902827275, 91.97535652703827
672.8736682248411, 91.97524432426145
675.7321461669549, 91.97513212148465
678.590287500738, 92.02135966553202
681.4492703553473, 91.95173784251892
684.3072433849652, 92.02113525997838
687.1660579354094, 91.97468331037739
690.024535877523, 91.97457110760057
692.8830138196366, 91.97445890482376
695.7408185450894, 92.06702619569532
698.5991281830378, 92.09008386633059
701.4574378209862, 92.11314153696587
704.3157474589347, 92.13619920760115
707.1747303135439, 92.06657738458806
710.0333765598228, 92.04329530839915
712.8913495894408, 92.11269272585861
715.7484810982326, 92.29793951037854
718.607463952842, 92.22831768736545
721.4661101991209, 92.20503561117654
724.3254296620605, 92.08907404133926
727.1827294750177, 92.25115095244709
730.0413757212965, 92.22786887625819
732.9003585759058, 92.1582470532451
735.7588365180194, 92.15813485046829
738.6176510684636, 92.1116829008673
741.4764656189076, 92.06523095126629
744.3346069526908, 92.11145849531366
747.1924116781436, 92.20402578618521
750.051394532753, 92.13440396317212
752.910209083197, 92.08795201357113
755.7693602419714, 91.99516031714595
758.6268283590939, 92.13406735484168
761.4868210386944, 91.92542629135603
764.3449623724777, 91.9716538354034
767.2034403145913, 91.9715416326266
770.0625914733658, 91.87874993620142
772.9212377196446, 91.85546786001251
775.7810620950801, 91.66999666993895
778.6393717330284, 91.69305434057424
781.4978496751421, 91.69294213779742
784.3563276172557, 91.6928299350206
787.2163202968563, 91.48418887153495
790.3156414994013, 91.12107263507062
792.9354641352315, 91.18275611162413
795.7941103815104, 91.15947403543522
798.6527566277892, 91.1361919592463
801.5110662657378, 91.15924962988159
804.3703857286774, 91.04328806004432
807.2292002791215, 90.99683611044331
810.0880148295655, 90.95038416084232
812.9475025966706, 90.81125271759295
815.8063171471147, 90.76480076799194
818.6647950892283, 90.76468856521514
821.5234413355072, 90.74140648902623
824.3824241901165, 90.67178466601314
827.2409021322301, 90.67167246323632
830.1000532910045, 90.57888076681114
832.9586995372836, 90.55559869062223
835.8170091752319, 90.57865636125752
838.6761603340063, 90.48586466483232
841.5341333636244, 90.55526208229179
844.3921063932424, 90.62465949975126
847.2502477270256, 90.67088704379863
850.1088939733044, 90.64760496760972
852.9673719154181, 90.6474927648329
855.8258498575317, 90.64738056205609
858.6843277996453, 90.64726835927928
861.5426374375937, 90.67032602991455
864.4012836838726, 90.64704395372564
867.2584151926645, 90.83229073824558
870.1168931347781, 90.83217853546876
872.9757076852221, 90.78572658586776
875.833512410675, 90.87829387673932
878.6913171361277, 90.97086116761088
881.54878525325, 91.10976820530661
884.4070948911985, 91.13282587594189
887.2643947041556, 91.29490278704972
890.1218628212779, 91.43380982474547
892.979162634235, 91.5958867358533
895.8373039680182, 91.64211427990067
898.6939305643144, 91.89687068465688
901.5512303772714, 92.0589475957647
904.4086984943938, 92.19785463346045
907.2656616990205, 92.40627129139246
910.1231298161428, 92.5451783290882
912.9799247166042, 92.77676486043231
915.8365513129004, 93.03152126518852
918.6933462133618, 93.26310779653262
921.5504777221537, 93.44835458105256
924.4071043184499, 93.70311098580875
927.2638992189113, 93.93469751715287
930.1211990318684, 94.0967744282607
932.978162236495, 94.30519108619272
935.8351254411217, 94.51360774412473
938.6919203415832, 94.74519427546885
941.5492201545402, 94.90727118657668
944.4056784466712, 95.18519746474497
947.2626416512979, 95.393614122677
950.1204463767507, 95.48618141354855
952.977914493873, 95.62508845124428
955.8348776984996, 95.8335051091763
958.6918409031263, 96.04192176710832
961.548804107753, 96.25033842504034
964.4074503540318, 96.22705634885143
967.265591687815, 96.2732838928988
970.1233964132678, 96.36585118377036
972.9810328345552, 96.481588348054
975.8393424725036, 96.50464601868929
978.696810589626, 96.64355305638503
981.5544470109136, 96.75929022066867
984.4122517363662, 96.85185751154023
987.2710662868103, 96.80540556193924
990.1300491414197, 96.73578373892614
992.9880221710376, 96.8051811563856
995.8468367214817, 96.75872920678461
998.7041365344389, 96.92080611789244
1001.5636243015438, 96.78167467464307
1004.6615429693785, 96.61164071661284
1007.2814217065971, 96.66560090202898
1010.1404045612065, 96.59597907901589
1012.9988825033201, 96.59586687623907
1015.8582019662598, 96.4799053064018
1018.7166799083734, 96.47979310362498
1021.5756627629828, 96.41017128061189
1024.434477313427, 96.3637193310109
1027.2934601680363, 96.2940975079978
1030.1524430226457, 96.22447568498471
1033.0119307897505, 96.08534424173534
1035.8714185568556, 95.94621279848597
1038.7304014114648, 95.87659097547288
1041.5897208744045, 95.76062940563561
1044.4497135540053, 95.55198834214995
1047.3088647127797, 95.45919664572477
1050.1676792632238, 95.41274469612378
1053.0275036386593, 95.22727350605022
1055.886991405764, 95.08814206280086
1058.7463108687039, 94.97218049296357
1061.6054620274783, 94.8793887965384
1064.4652864029138, 94.69391760646484
1067.3251107783492, 94.5084464163913
1070.1842619371237, 94.4156547199661
1073.0449278333851, 94.1143341628321
1075.9047522088206, 93.92886297275854
1078.7644082800907, 93.76656165609708
1081.6228862222044, 93.76644945332026
1084.482878901805, 93.55780838983462
1087.34236666891, 93.41867694658525
1090.2015178276847, 93.32588525016007
1093.0610055947895, 93.1867538069107
1095.9204933618946, 93.04762236366133
1098.7799811289997, 92.90849092041196
1101.6396372002696, 92.7461896037505
1104.4989566632094, 92.63022803391323
1107.3584444303142, 92.49109659066386
1110.2181005015846, 92.32879527400239
1113.316131372196, 92.14331473369744
1115.9374126441248, 92.00419264067946
1118.7965638028995, 91.91140094425428
1121.656388178335, 91.72592975418073
1124.5167174662658, 91.4709489438709
1127.376205233371, 91.33181750062153
1130.2343465671543, 91.37804504466891
1133.0941709425895, 91.19257385459535
1135.9531537971989, 91.12295203158226
1138.8133147809644, 90.89114109468451
1141.6728025480695, 90.75200965143515
1144.5322903151746, 90.61287820818578
1147.3919463864447, 90.45057689152432
1150.2514341535498, 90.31144544827495
1153.1104170081592, 90.24182362526186
1155.9695681669334, 90.14903192883668
1158.829392542369, 89.96356073876312
1161.6900584386306, 89.66224018162912
1164.3111714063941, 89.54628796202323
1167.4058361937014, 89.82420488996013
1170.505437903188, 89.42247219780897
1173.1234652945893, 89.73130099075813
1175.982616453364, 89.63850929433295
1178.8414310038079, 89.59205734473194
1181.700245554252, 89.54560539513095
1184.558891800531, 89.52232331894204
1187.4170331343141, 89.56855086298941
1190.516354336859, 89.20543462652509
1192.8969606525218, 89.40614669378255
1195.9938133939768, 89.38285526736223
1198.8522913360905, 89.38274306458541
1201.7124523198563, 89.15093212768768
1204.571771782796, 89.0349705578504
1207.192379838064, 88.9885279584808
1210.2888959711884, 89.01157627888469
1213.1475422174674, 88.98829420269578
1215.769608908834, 88.74104603375471
1219.1021435829869, 89.06529335828439
1221.721966218817, 89.12697683483789
1224.5809490734264, 89.0573550118248
1227.4390904072095, 89.10358255587217
1230.2984098701493, 88.9876209860349
1233.157897637254, 88.84848954278553
1236.0143559293851, 89.12641582095382
1238.8721606548381, 89.21898311182537
1241.7314801177777, 89.1030215419881
1244.5902946682218, 89.05656959238709
1247.4489409145008, 89.03328751619819
1250.3067456399533, 89.12585480706974
1253.165896798728, 89.03306311064456
1256.0257211741634, 88.847591920571
1258.8843674204422, 88.8243098443821
1261.7425087542254, 88.87053738842948
1264.6011550005041, 88.84725531224058
1267.4606427676092, 88.70812386899121
1270.3211403597056, 88.42997318526928
1273.1796183018191, 88.42986098249247
1276.0372547231068, 88.54559814677611
1278.89539605689, 88.59182569082348
1281.7530324781774, 88.70756285510713
1284.6113421161258, 88.73062052574241
1287.4683053207525, 88.93903718367443
1290.326614958701, 88.96209485430971
1293.1850929008147, 88.96198265153289
1296.0435708429281, 88.96187044875607
1298.9027220017026, 88.86907875233089
1301.7605267271556, 88.96164604320245
1304.619004669269, 88.96153384042563
1307.4779875238785, 88.89191201741255
1310.3364654659922, 88.89179981463573
1313.1956166247664, 88.79900811821055
1316.053926262715, 88.82206578884582
1318.6747026221483, 88.75245331606413
1321.7705455386117, 88.86818113011638
1324.8688569161652, 88.64408413412461
1327.2503608540428, 88.72122354318424
1330.346820885779, 88.75199515472548
1333.204962219562, 88.79822269877285
1336.0629352491799, 88.86762011623232
1338.921581495459, 88.84433804004341
1341.7800594375726, 88.84422583726659
1344.6388739880165, 88.7977738876656
1347.4973519301302, 88.79766168488878
1350.3561664805745, 88.75120973528777
1353.2149810310184, 88.70475778568678
1356.0732906689668, 88.72781545632206
1358.9312636985846, 88.79721287378152
1361.7895733365333, 88.8202705444168
1364.647378061986, 88.91283783528836
1367.5056876999342, 88.93589550592364
1370.3653437712046, 88.77359418926217
1373.2239900174836, 88.75031211307326
1376.0821313512665, 88.79653965712063
1378.941114205876, 88.72691783410755
1381.7994238438246, 88.74997550474282
1384.6582383942684, 88.70352355514183
1387.5162114238865, 88.7729209726013
1390.3750259743304, 88.72646902300029
1393.2346820456007, 88.56416770633884
1396.0918135543927, 88.74941449085875
1398.9497865840106, 88.81881190831822
