201.5, 0.6900319980186707
202, 0.6900389612434006
202.5, 0.6900660394680833
203, 0.6900499839354668
203.5, 0.6899230806796246
204, 0.689716682809909
204.5, 0.6894982730379272
205, 0.6893377280803088
205.5, 0.68929203481946
206, 0.6893135541205762
206.5, 0.6893176501216163
207, 0.689313094549505
207.5, 0.6893453079527172
208, 0.6893470013036087
208.5, 0.6892035849725746
209, 0.6890026269272849
209.5, 0.6889430407304953
210, 0.6889729817682617
210.5, 0.6888748018153046
211, 0.6886682930159618
211.5, 0.688556735784116
212, 0.6885750285686578
212.5, 0.6886066991312421
213, 0.688603450908644
213.5, 0.6885897003549761
214, 0.6885867513338844
214.5, 0.6886078059950138
215, 0.6886237183725963
215.5, 0.6885550305406969
216, 0.6883797093943911
216.5, 0.6881589194717004
217, 0.687960953358361
217.5, 0.6878550782100563
218, 0.6878543642935768
218.5, 0.6878758247357812
219, 0.6878713407190102
219.5, 0.6878774955732214
220, 0.6878999080644772
220.5, 0.6878572080573597
221, 0.6876998748783727
221.5, 0.6874824746029777
222, 0.687274440966303
222.5, 0.6871437784769792
223, 0.6871251271268122
223.5, 0.6871515902643885
224, 0.6871577555607031
224.5, 0.6871505271397786
225, 0.687147957010108
225.5, 0.687150440530417
226, 0.687153611843934
226.5, 0.6871511783877742
227, 0.6871413157204955
227.5, 0.6871473653991849
228, 0.6871834568631432
228.5, 0.6871660815485092
229, 0.6870073517452373
229.5, 0.6868153385506837
230, 0.6867503587113906
230.5, 0.6867808057049015
231, 0.6867997628085205
231.5, 0.6867920336625106
232, 0.686786369430336
232.5, 0.686788309760388
233, 0.6867905210180036
233.5, 0.6867901049391598
234, 0.6867873796299413
234.5, 0.6867870062940133
235, 0.6867953241104677
235.5, 0.6867980074524449
236, 0.6867685826811685
236.5, 0.6867553835739655
237, 0.6868660101278943
237.5, 0.6870666344859677
238, 0.687188123094588
238.5, 0.6871804775933172
239, 0.6871289658843347
239.5, 0.6871136555358133
240, 0.6871985509473235
240.5, 0.6873815402526704
241, 0.6875736193382358
241.5, 0.6877408139355154
242, 0.6879402498976985
242.5, 0.6881551609572085
243, 0.6882332615974749
243.5, 0.6881750624801168
244, 0.6882918299558363
244.5, 0.6886914268975279
245, 0.688980906855994
245.5, 0.6889515703220044
246, 0.6889812992135422
246.5, 0.6893285248520395
247, 0.6897069273835927
247.5, 0.6898833931534518
248, 0.6900546461387114
248.5, 0.6904001374339583
249, 0.6907673933613245
249.5, 0.6909903330389029
250, 0.6911212497237214
250.5, 0.6912578498000731
251, 0.6914671451754211
251.5, 0.6917885637174134
252, 0.6921666921329586
252.5, 0.6925297671060431
253, 0.6928777677806153
253.5, 0.6932315352328964
254, 0.6935860827202933
254.5, 0.6939307327434046
255, 0.6942868874210044
255.5, 0.694677937181859
256, 0.6950266990835179
256.5, 0.6952280953195902
257, 0.6953845249627593
257.5, 0.6956892847448377
258, 0.6960714037317144
258.5, 0.6963157623986844
259, 0.6964630263691536
259.5, 0.6967192219151404
260, 0.6970967704204014
260.5, 0.6974630086486695
261, 0.6978049062151761
261.5, 0.6982078362723607
262, 0.6985944012231284
262.5, 0.6987388911253298
263, 0.6986913356713345
263.5, 0.6987950738785764
264, 0.6991607243244042
264.5, 0.699606097013258
265, 0.6999841889810585
265.5, 0.7002195746000734
266, 0.7003601586179684
266.5, 0.7006261654352937
267, 0.7010377144848088
267.5, 0.7012637369209014
268, 0.7012123872228588
268.5, 0.7012932170506285
269, 0.7016873701113782
269.5, 0.7019914752265883
270, 0.7019755225651461
270.5, 0.7019809426652075
271, 0.7022772764032681
271.5, 0.7027341435399923
272, 0.7031660342215507
272.5, 0.7034152733967718
273, 0.7034185255532521
273.5, 0.7034096824593943
274, 0.7035851729101927
274.5, 0.7037673293265527
275, 0.703772125529984
275.5, 0.7037643380723935
276, 0.7039313196739398
276.5, 0.7041200284267253
277, 0.7041359763773194
277.5, 0.7041203036421451
278, 0.7042752525711378
278.5, 0.704471419119699
279, 0.7044985365053399
279.5, 0.704476484980874
280, 0.7046258873672007
280.5, 0.7048269867918419
281, 0.7048373197138487
281.5, 0.7048108543178488
282, 0.7050735335641456
282.5, 0.705479439054739
283, 0.7056305686953985
283.5, 0.7055760725095139
284, 0.7056491493996373
284.5, 0.7058611058610832
285, 0.7059852401017777
285.5, 0.7059675100945098
286, 0.7059046826194653
286.5, 0.7058929231317164
287, 0.7060177406108992
287.5, 0.7062233658740616
288, 0.7063125368549179
288.5, 0.706280824879337
289, 0.7063520754377028
289.5, 0.7065600598836975
290, 0.7066775207145097
290.5, 0.7066496127372126
291, 0.7066953875243118
291.5, 0.7068913631665762
292, 0.707048623781438
292.5, 0.7070596783345573
293, 0.7070089143110314
293.5, 0.706984349548414
294, 0.707040028653505
294.5, 0.707198057404963
295, 0.7074170199996999
295.5, 0.7076331304533048
296, 0.7077478833382822
296.5, 0.7077288336644798
297, 0.707750458825394
297.5, 0.7079342451573545
298, 0.7081071541483082
298.5, 0.7081161609380315
299, 0.70810395970095
299.5, 0.7082317822006043
300, 0.708452818313881
300.5, 0.7086715038771053
301, 0.7088189485860843
301.5, 0.7088526887533313
302, 0.7088298080004356
302.5, 0.7088261885209739
303, 0.7088294537620115
303.5, 0.7088066279443226
304, 0.7088127120709433
304.5, 0.7089273390990651
305, 0.7091294372018639
305.5, 0.7093498796703819
306, 0.7095190776206952
306.5, 0.7095764870710555
307, 0.7095574026381248
307.5, 0.7095477443928189
308, 0.7095535550419207
308.5, 0.7095328249336135
309, 0.7095246678803443
309.5, 0.7096229705701893
310, 0.7098160228629335
310.5, 0.7100071967222017
311, 0.7101767342423821
311.5, 0.7103749931161283
312, 0.7105702465699144
312.5, 0.7106478471752451
313, 0.7106247902086673
313.5, 0.7106707946088957
314, 0.7108495515787803
314.5, 0.7110782809403087
315, 0.7112750751053494
315.5, 0.7113738929373992
316, 0.71137050095809
316.5, 0.7113566746028324
317, 0.7113707380078778
317.5, 0.7113410919321037
318, 0.7112827552795609
318.5, 0.7114056829223738
319, 0.7117806337837393
319.5, 0.7121149278022341
320, 0.7121838036615927
320.5, 0.7120579245223866
321, 0.7118571976943253
321.5, 0.7117113897203996
322, 0.7116974033350563
322.5, 0.7117172737641977
323, 0.7116892196803664
323.5, 0.7117166053583683
324, 0.7118896470837053
324.5, 0.7120728285142901
325, 0.7121174089886636
325.5, 0.7120818570655978
326, 0.7120666292875788
326.5, 0.7120768700140492
327, 0.7120877858031636
327.5, 0.7120823892010415
328, 0.7120556624644563
328.5, 0.7120643067590384
329, 0.7121791562712123
329.5, 0.7123813985590952
330, 0.7126080515318134
330.5, 0.7127762682301149
331, 0.7128086149499788
331.5, 0.7127885501570005
332, 0.7128799238027601
332.5, 0.7130806219842705
333, 0.7132842378419326
333.5, 0.7134561693579646
334, 0.7136161002127431
334.5, 0.7137906107911842
335, 0.7140063408442767
335.5, 0.7142011593004985
336, 0.7142410622764255
336.5, 0.7142002030169614
337, 0.714357592939207
337.5, 0.7147421786340591
338, 0.7150938840039074
338.5, 0.7152792164132991
339, 0.7153435921669407
339.5, 0.7153420298243105
340, 0.7153266649643126
340.5, 0.7153260265770485
341, 0.7153319868420318
341.5, 0.7153347139470957
342, 0.7153271083409452
342.5, 0.7153167609151846
343, 0.7153392624646888
343.5, 0.7153794805262033
344, 0.7153039008122651
344.5, 0.7150812589037556
345, 0.7149717205244586
345.5, 0.7151368889804877
346, 0.7153410455552701
346.5, 0.715375072700847
347, 0.7153287161344617
347.5, 0.715316113004058
348, 0.7153302198215221
348.5, 0.7153406534441429
349, 0.715331285202031
349.5, 0.7153036875010044
350, 0.7153237024796695
350.5, 0.7154558453454343
351, 0.7156635171788981
351.5, 0.7158783552150809
352, 0.7160363373819476
352.5, 0.716087200903053
353, 0.7160617849879931
353.5, 0.7160238056523935
354, 0.7160351261241559
354.5, 0.7161486919965274
355, 0.7163476308576748
355.5, 0.7165761488023528
356, 0.7167483262296717
356.5, 0.7167766428029779
357, 0.7167542352889722
357.5, 0.7168725677468817
358, 0.7170790390661719
358.5, 0.7171589901938027
359, 0.7171300254802657
359.5, 0.7171906100029803
360, 0.7173835137296759
360.5, 0.7176089485907013
361, 0.7177927368438333
361.5, 0.7178922645425583
362, 0.7178948314081318
362.5, 0.7178218301586474
363, 0.7177790694756103
363.5, 0.7179694344237861
364, 0.7183689501137629
364.5, 0.7186360679857204
365, 0.7186330825765488
365.5, 0.7185705724980904
366, 0.7185750349354482
366.5, 0.7185777459353804
367, 0.718554491919511
367.5, 0.7186035384421925
368, 0.7187733900724416
368.5, 0.7189752003742318
369, 0.7191463243739913
369.5, 0.7193309662291065
370, 0.7195429644999838
370.5, 0.7196699444146922
371, 0.7196539298865436
371.5, 0.7196702130805319
372, 0.7198516264902743
372.5, 0.7200273309126721
373, 0.7200373734712191
373.5, 0.7200249460193692
374, 0.7201567868778633
374.5, 0.7203715780285818
375, 0.7205642700832737
375.5, 0.7207301626580975
376, 0.7208950721670767
376.5, 0.7210783937444405
377, 0.7212861458256032
377.5, 0.7214520348400837
378, 0.7214981335059065
378.5, 0.7214755199075324
379, 0.7214791865947179
379.5, 0.7214830163929908
380, 0.7214196644993676
380.5, 0.7214185312058261
381, 0.7216893464235514
381.5, 0.7220884361754824
382, 0.7222728378441468
382.5, 0.722228138370372
383, 0.7221661546569706
383.5, 0.7221731299714834
384, 0.7222359626611505
384.5, 0.7224032746629256
385, 0.7227690397612838
385.5, 0.7231789209119499
386, 0.7232493306879195
386.5, 0.7230083793627089
387, 0.7229329407423042
387.5, 0.7231464074612557
388, 0.7233195579160916
388.5, 0.7233112068671694
389, 0.7232706117316818
389.5, 0.7232768093265581
390, 0.7232721102100936
390.5, 0.7232495333624205
391, 0.7233064136477467
391.5, 0.7234808294209123
392, 0.7236800595337674
392.5, 0.7238483960863913
393, 0.7240391868569691
393.5, 0.7242580693063627
394, 0.7243642432855615
394.5, 0.7243142701202678
395, 0.724382479706468
395.5, 0.7247414397864366
396, 0.7250973369414135
396.5, 0.7251778369218763
397, 0.7250833306983966
397.5, 0.7249922722070807
398, 0.7250777192938427
398.5, 0.7254309008248683
399, 0.7257908351116258
399.5, 0.7258797754842266
400, 0.725813917580725
400.5, 0.7257935950802585
401, 0.7258075424422832
401.5, 0.7257895979029072
402, 0.725794808922175
402.5, 0.7259107974552876
403, 0.7261150720032599
403.5, 0.7263363546767345
404, 0.7265029428284748
404.5, 0.7265540462537587
405, 0.72653430396615
405.5, 0.7265368466181441
406, 0.7265434254066305
406.5, 0.726480980301079
407, 0.7264662189531583
407.5, 0.7267248096915966
408, 0.727130032881256
408.5, 0.7273023864215303
409, 0.7272522337427882
409.5, 0.7273179145698421
410, 0.7275322817001397
410.5, 0.7276332245583603
411, 0.7275990959358094
411.5, 0.7276721349019176
412, 0.7278817895316054
412.5, 0.7279926519344463
413, 0.727961604689306
413.5, 0.7280189958961103
414, 0.7282240082837192
414.5, 0.7283553946899419
415, 0.7283349735496958
415.5, 0.7283588172920679
416, 0.7285316821915762
416.5, 0.7287411015704033
417, 0.7289121074433098
417.5, 0.7290966862946712
418, 0.7293071828260521
418.5, 0.7294265174296688
419, 0.7294068559268636
419.5, 0.7294307306724368
420, 0.7296172323164929
420.5, 0.7297867542991885
421, 0.7297925710605533
421.5, 0.7297822667207083
422, 0.7299119407394832
422.5, 0.7301370361441767
423, 0.7303649371641112
423.5, 0.7305005943500505
424, 0.7304913859621183
424.5, 0.7304939159994805
425, 0.7306692640406054
425.5, 0.7308538426333571
426, 0.730839496604905
426.5, 0.7308347844522631
427, 0.7311370952012071
427.5, 0.7315304905668256
428, 0.7316376342382136
428.5, 0.731582565782728
429, 0.7316923666221775
429.5, 0.7319049377212576
430, 0.7319722469285419
430.5, 0.7319409719622235
431, 0.7320226982280151
431.5, 0.732225601009644
432, 0.7324243147205078
432.5, 0.7325935227703895
433, 0.7327819747557804
433.5, 0.7329683688518844
434, 0.7330729573850714
434.5, 0.7330692216777419
435, 0.7329864954981509
435.5, 0.7329498538898476
436, 0.7331737469707611
436.5, 0.7335867425249827
437, 0.7337859825847701
437.5, 0.7337255714720303
438, 0.7338448365323416
438.5, 0.7342511493344261
439, 0.7345233326475669
439.5, 0.734498524256731
440, 0.7345014390953728
440.5, 0.7346945601430308
441, 0.7348633755538023
441.5, 0.7348732646245937
442, 0.7348344806857616
442.5, 0.7348341887775254
443, 0.7348381609363499
443.5, 0.734824249511669
444, 0.7348451243715131
444.5, 0.7349615602752809
445, 0.7352233109260407
445.5, 0.7356168871307247
446, 0.735927776602405
446.5, 0.7359839373996504
447, 0.7359238663913217
447.5, 0.7359125403274036
448, 0.7359233940890981
448.5, 0.7359037749247359
449, 0.7359163735359362
449.5, 0.7360395066610392
450, 0.7362507853888511
450.5, 0.7364865301947836
451, 0.7366372688737697
451.5, 0.73661592354812
452, 0.7366126705371272
452.5, 0.7368849205960135
453, 0.737284373692451
453.5, 0.7375111606793165
454, 0.7376556241902965
454.5, 0.7379814143325347
455, 0.7383678955835756
455.5, 0.7384955734951246
456, 0.7384448339968619
456.5, 0.7385411987855729
457, 0.7387569929617774
457.5, 0.7388165299428873
458, 0.7387738338346657
458.5, 0.7389473061767735
459, 0.739342134796418
459.5, 0.739672583522188
460, 0.7398385366908393
460.5, 0.7399436571346041
461, 0.7400983926229203
461.5, 0.7404058119450088
462, 0.740804164182238
462.5, 0.7410245481863795
463, 0.7410043859550266
463.5, 0.7409950232196714
464, 0.7411503881729238
464.5, 0.7414294713758214
465, 0.7417788820168936
465.50000000000006, 0.7421544751880247
466, 0.7425191970213927
466.50000000000006, 0.7428481729086676
467, 0.7430912794718445
467.50000000000006, 0.743138517350219
468, 0.7429635484619341
468.50000000000006, 0.7427723285615861
469, 0.7427316355112026
469.50000000000006, 0.7427934837545564
470, 0.7429104891420604
470.50000000000006, 0.7431595204643935
471, 0.7435650126930344
471.50000000000006, 0.7438697644750651
472, 0.7438722358776322
472.50000000000006, 0.743864178887814
473, 0.7441571514910836
473.50000000000006, 0.7445623435819122
474, 0.7448061242437469
474.50000000000006, 0.7449375552019247
475, 0.7450916881677168
475.50000000000006, 0.7452816818735528
476, 0.7454759156477277
476.50000000000006, 0.7456463548119059
477, 0.7457796831491761
477.50000000000006, 0.7459654991165972
478, 0.7463138706232735
478.50000000000006, 0.7466857349174325
479, 0.7468367475422347
479.50000000000006, 0.7467901726866186
480, 0.7467211307554666
480.50000000000006, 0.7467284624589875
481, 0.7468531239233815
481.50000000000006, 0.7470470422199802
482, 0.7472060070913937
482.50000000000006, 0.7473663544845937
483, 0.747670321429196
483.5, 0.7480574884576185
484, 0.7482914958982425
484.5, 0.7484197097083458
485, 0.7487734348850428
485.5, 0.7493555844333282
486, 0.7497893581843389
486.5, 0.7499513444595611
487, 0.7500619748313699
487.5, 0.7502411002847034
488, 0.7504361089654004
488.5, 0.7506127014244367
489, 0.7507857437467066
489.5, 0.7509641113498092
490, 0.7511386324393576
490.5, 0.7513095839298838
491, 0.7514993070046168
491.5, 0.7517001343763561
492, 0.751832521198066
492.5, 0.7518504058140845
493, 0.751814712631663
493.5, 0.7517928343110942
494, 0.7518246289298486
494.5, 0.7519456275976844
495, 0.7521927728957171
495.5, 0.7525620478743347
496, 0.752902286475019
496.5, 0.7530910797557103
497, 0.7532547014604565
497.5, 0.75354563165825
498, 0.7539490490044614
498.5, 0.7543856942667262
499, 0.7546900945832763
499.5, 0.7547264706474377
500.00000000000006, 0.7546975907196289
500.5, 0.7548895134333642
501.00000000000006, 0.7553199344764889
501.5, 0.755886731900788
502.00000000000006, 0.75641417138814
502.5, 0.7567190610268972
503.00000000000006, 0.7568484897776664
503.5, 0.75696183951573
504.00000000000006, 0.7571500299795983
504.5, 0.7574557307976999
505.00000000000006, 0.7578273137506042
505.5, 0.7581527373682754
506.00000000000006, 0.7583227268323256
506.5, 0.7582436410013124
507.00000000000006, 0.7580286770951143
507.5, 0.7579497105924292
508.00000000000006, 0.7581337136957467
508.5, 0.7585686966417495
509.00000000000006, 0.7591305560282552
509.5, 0.7595947401514516
510.00000000000006, 0.759925968210837
510.5, 0.7602993071431998
511.00000000000006, 0.7607011441416831
511.5, 0.7608756489915479
512, 0.7608246940814434
512.5, 0.7609237048909294
513, 0.7613003033833038
513.5, 0.7616584012301973
514, 0.7618375979268613
514.5, 0.7619741688387072
515, 0.7621571643197381
515.5, 0.7623276504290388
516, 0.7624718400772649
516.5, 0.7627102481184985
517, 0.7630860445348284
517.5, 0.7634112710425802
518, 0.7635739427323603
518.5, 0.7637651240878915
519, 0.7641249072119057
519.5, 0.7644762740365555
520, 0.7646643980284841
520.5, 0.7648260417798718
521, 0.7651188238163569
521.5, 0.7655305941310603
522, 0.765979817454998
522.5, 0.7662622402211516
523, 0.7662351535718996
523.5, 0.7662431976021304
524, 0.7666740870891264
524.5, 0.7672738874974828
525, 0.7676224454538578
525.5, 0.7677139257457306
526, 0.767703630459402
526.5, 0.7677035061762578
527, 0.7677976243275324
527.5, 0.7680011493415522
528, 0.7682948020586167
528.5, 0.7686639532194248
529, 0.7690878741175369
529.5, 0.7694444760623256
530, 0.769565634846377
530.5, 0.7695266443151014
531, 0.7695656735369041
531.5, 0.7697593042294975
532, 0.770054315690128
532.5, 0.7704125028228417
533, 0.7708100930157986
533.5, 0.7711799906998108
534, 0.7714174563790209
534.5, 0.7715652671975994
535, 0.7718239640552109
535.5, 0.7722081796017228
536, 0.7724998660869997
536.5, 0.772651759039473
537, 0.7728660528517695
537.5, 0.7732251733769089
538, 0.7736034476228429
538.5, 0.7739425625726977
539, 0.7743271256811814
539.5, 0.7747423303228258
540, 0.774959288000617
540.5, 0.7749191401405325
541, 0.7749753339937493
541.5, 0.7753306818340344
542, 0.7757017243695801
542.5, 0.7758794533460703
543, 0.7760465838666167
543.5, 0.7763695958364949
544, 0.7767677647439979
544.5, 0.7771396760722813
545, 0.7774732106941717
545.5, 0.7777912450268204
546, 0.7781782426375221
546.5, 0.7786958621008654
547, 0.7792398498322399
547.5, 0.7796789954034287
548, 0.7799747740927485
548.5, 0.7801404430081893
549, 0.7803191186865043
549.5, 0.7806568918540339
550, 0.7810265546817141
550.5, 0.7812342233083797
551, 0.7813884733423667
551.5, 0.7816975466814681
552, 0.7820783500757049
552.5, 0.782326833492557
553, 0.7824748418105356
553.5, 0.7826686412673973
554, 0.7828566360057748
554.5, 0.7828830381231574
555, 0.7828525328309843
555.5, 0.7830345894312984
556, 0.7834264460861229
556.5, 0.7838196478752266
557, 0.7841611473692833
557.5, 0.7845322701776155
558, 0.7849054112002143
558.5, 0.7851496383045588
559, 0.7852969513225121
559.5, 0.7855534521098239
560, 0.7859368645929297
560.5, 0.7862326231003931
561, 0.7863887510121204
561.5, 0.7865874643177176
562, 0.7869286114598024
562.5, 0.7873638739670832
563, 0.7877774586854012
563.5, 0.7879623611798254
564, 0.7878262525457606
564.5, 0.7875067317724684
565, 0.7871403372846579
565.5, 0.7868088402826638
566, 0.7865795602317002
566.5, 0.7865019873342074
567, 0.7866095656239669
567.5, 0.7869000707676024
568, 0.7873076553667164
568.5, 0.787594404621109
569, 0.7876074242841402
569.5, 0.7875869560844506
570, 0.78775427643648
570.5, 0.7879443098504424
571, 0.7879306367557162
571.5, 0.7876184528053194
572, 0.7869889724265242
572.5, 0.7862214607065315
573, 0.7855413623458162
573.5, 0.7850958088015649
574, 0.784970999388965
574.5, 0.7850393805177173
575, 0.7851054205296271
575.5, 0.78508023348373
576, 0.7849340990922984
576.5, 0.7847404522185522
577, 0.7846023958911799
577.5, 0.7844282178588393
578, 0.784038782637009
578.5, 0.7834670383572715
579, 0.7828714257577547
579.5, 0.7823455525012867
580, 0.7819319891013916
580.5, 0.7815936512482862
581, 0.7812389199673375
581.5, 0.7808739315035936
582, 0.7805807818967795
582.5, 0.7802632273226358
583, 0.7796672433738342
583.5, 0.778891252782335
584, 0.7784006018251061
584.5, 0.7782688404763749
585, 0.778093279397233
585.5, 0.777719865309946
586, 0.7773540865260511
586.5, 0.7770430253255767
587, 0.7765678503024377
587.5, 0.7758559434056405
588, 0.7751085594966247
588.5, 0.7745100807203784
589, 0.7741665799350084
589.5, 0.7740350477030065
590, 0.7737844440678148
590.5, 0.7732462364599455
591, 0.7727073029070833
591.5, 0.7723626811957125
592, 0.7720041231289817
592.5, 0.7714720117170454
593, 0.7709368386907487
593.5, 0.7705547229177192
594, 0.7702367842083045
594.5, 0.7698814429369494
595, 0.7695278836051739
595.5, 0.7692132919709593
596, 0.7688277846551578
596.5, 0.7682804270400113
597, 0.767756666270889
597.5, 0.7674727898489031
598, 0.7673645999795488
598.5, 0.7672750298053823
599, 0.7670579598029887
599.5, 0.7666039993610033
600, 0.7660320335081681
600.5, 0.765544826217924
601, 0.7652344942916951
601.5, 0.7651128836350881
602, 0.7649439855256865
602.5, 0.7644024185998795
603, 0.763628045068349
603.5, 0.7630198353696424
604, 0.7627091454485168
604.5, 0.7626388913051606
605, 0.7626665361063398
605.5, 0.7625976480031493
606, 0.7624021136394837
606.5, 0.7621861242148741
607, 0.7620083000505975
607.5, 0.7618759290601504
608, 0.7617216446898365
608.5, 0.7614092446521223
609, 0.7610072059396137
609.5, 0.7608174835369412
610, 0.7608623137128543
610.5, 0.7607898761608932
611, 0.7604426526741949
611.5, 0.7599788722452929
612, 0.759572794594561
612.5, 0.7593833172168709
613, 0.7594112534448696
613.5, 0.7593767854094053
614, 0.7591635879358583
614.5, 0.7590432734554861
615, 0.7591887936655608
615.5, 0.7594448370433353
616, 0.7596551542181036
616.5, 0.7597757037915918
617, 0.7597978819365625
617.5, 0.7597642901535473
618, 0.7597312982256526
618.5, 0.7597703462352985
619, 0.7599250953377282
619.5, 0.7601264846106404
620, 0.7603030034992386
620.5, 0.7604796782729395
621, 0.7606845408810675
621.5, 0.7608425660027509
622, 0.7608759404216894
622.5, 0.7608524654340257
623, 0.7608644509812807
623.5, 0.7608612691795329
624, 0.7607528165258446
624.5, 0.7605443701625506
625, 0.7602917642961184
625.5, 0.7601328880056788
626, 0.7602159217572984
626.5, 0.7604340768509672
627, 0.7605611366987415
627.5, 0.7605311347181294
628, 0.7603778887491812
628.5, 0.760186956639
629, 0.7600726564252784
629.5, 0.760084755511967
630, 0.7602210701041863
630.5, 0.760414158592013
631, 0.760546294847974
631.5, 0.7605475342739789
632, 0.7603978856159179
632.5, 0.7601913046148585
633, 0.7601282780178611
633.5, 0.7601742994212985
634, 0.7600287334103644
634.5, 0.7596433389609714
635, 0.7593049589177678
635.5, 0.7591351028296259
636, 0.7589918621803013
636.5, 0.7588045403647147
637, 0.758645601699768
637.5, 0.7585097313187447
638, 0.7582331421571613
638.5, 0.7578117431083804
639, 0.7575881587723758
639.5, 0.7576680593632591
640, 0.7575415437331725
640.5, 0.7568875386353436
641, 0.7560622687097389
641.5, 0.7554249977839365
642, 0.7550518265789137
642.5, 0.7548988011575786
643, 0.7546977640311487
643.5, 0.7542320565913965
644, 0.7536286601972149
644.5, 0.7530590714970499
645, 0.7525629512415162
645.5, 0.7521493709083096
646, 0.7518405352516769
646.5, 0.7516451959145558
647, 0.751482374740549
647.5, 0.7512436195530121
648, 0.7508302311472559
648.5, 0.7501785691780175
649, 0.749436798611504
649.5, 0.7488143648237194
650, 0.7483209088840016
650.5, 0.7478860099761446
651, 0.7475498975190049
651.5, 0.7473866351150793
652, 0.7472285206560214
652.5, 0.7468005882655957
653, 0.7462205306172217
653.5, 0.745839714597837
654, 0.7457040784199109
654.5, 0.745635891328885
655, 0.7454687285468355
655.5, 0.7450608732714872
656, 0.7444917269770668
656.5, 0.7440291198859983
657, 0.7437040691343357
657.5, 0.7433078727091378
658, 0.7427693939414571
658.5, 0.7421829353644825
659, 0.741635360053327
659.5, 0.7411918052695436
660, 0.740846268239445
660.5, 0.7404970222170404
661, 0.7401207993131653
661.5, 0.73982624350664
662, 0.739651147367815
662.5, 0.739491113039134
663, 0.7392968911413369
663.5, 0.7391533945560071
664, 0.7390498524752374
664.5, 0.7387338687186245
665, 0.7380673761246651
665.5, 0.7372698926037419
666, 0.7365395302751476
666.5, 0.7358674704210473
667, 0.7352524984979789
667.5, 0.734826931846118
668, 0.7346559159149773
668.5, 0.7344774670931202
669, 0.7340828227249842
669.5, 0.7337609022869351
670, 0.7337819215705004
670.5, 0.7337741061724912
671, 0.7333240951548479
671.5, 0.7327289848807303
672, 0.7324230261020366
672.5, 0.7323248960841828
673, 0.7321973512111271
673.5, 0.7319962869851142
674, 0.73176380041145
674.5, 0.7316019420881616
675, 0.7316095446065367
675.5, 0.7316240873127372
676, 0.7313852175184816
676.5, 0.7309836197425635
677, 0.7306905005523446
677.5, 0.7305436781679637
678, 0.7304315793142253
678.5, 0.7302549737926614
679, 0.7299354113275214
679.5, 0.7295556185560372
680, 0.7293133923328212
680.5, 0.7291700426864782
681, 0.7288864877445425
681.5, 0.7284909744901307
682, 0.7282740165968509
682.5, 0.7282953586501129
683, 0.7283518885697946
683.5, 0.7283474795810251
684, 0.7283330555853698
684.5, 0.7283350776243576
685, 0.728334587067546
685.5, 0.7283288963913619
686, 0.7283445977375338
686.5, 0.7283671917935639
687, 0.7283084428589022
687.5, 0.7281353963516928
688, 0.7279340734764592
688.5, 0.7277607550146079
689, 0.7275796359682776
689.5, 0.7273801203173721
690, 0.727240602428711
690.5, 0.7272152539241137
691, 0.7272573711661638
691.5, 0.7272972235696962
692, 0.7272463307412859
692.5, 0.7270644927245353
693, 0.7268902002672271
693.5, 0.7268520313785074
694, 0.726889822421945
694.5, 0.7269123311826141
695, 0.7268942969782679
695.5, 0.7268473606125263
696, 0.7268766915579326
696.5, 0.7270694177839712
697, 0.7272445136147772
697.5, 0.7271742759152091
698, 0.7269395840290442
698.5, 0.7267238567033943
699, 0.7265634073761464
699.5, 0.726424731614193
700, 0.7262402963336461
700.5, 0.7259379077315699
701, 0.7255636264156953
701.5, 0.725231376441221
702, 0.7250721342561746
702.5, 0.7252138105055672
703, 0.7256111930932967
703.5, 0.7260956046186069
704, 0.726463464317876
704.5, 0.7265014560513716
705, 0.7262782021363634
705.5, 0.7261002107492269
706, 0.7261043424210627
706.5, 0.7262530340399315
707, 0.7264514233113673
707.5, 0.7265542400693301
708, 0.7265402316712977
708.5, 0.7265378689038047
709, 0.7265646366646648
709.5, 0.7264794641752235
710, 0.7262738792733494
710.5, 0.7261528357849243
711, 0.7261775713728347
711.5000000000002, 0.7261405082732209
712, 0.7259504525204052
712.5, 0.7257818322454126
713, 0.725756224521232
713.5000000000002, 0.725823083420291
714, 0.7259528293565174
714.5, 0.7262163061629063
715, 0.7266120108195151
715.5000000000002, 0.7269082426471385
716, 0.7269449824521073
716.5, 0.7268894786522099
717, 0.7268988674500367
717.5000000000002, 0.7268902241560031
718, 0.7267621923201835
718.5, 0.7265366671981326
719, 0.7262852478188118
719.5000000000002, 0.7261671943299686
720, 0.7263038339017347
720.5, 0.7265140946431677
721, 0.7265739288912334
721.5000000000002, 0.7265351158967079
722, 0.7265235814173132
722.5, 0.7265312365775038
723, 0.7265113753093522
723.5000000000002, 0.726515382463563
724, 0.7266258320491858
724.5, 0.7268279023864337
725, 0.7270566398163488
725.5000000000002, 0.7272264962327337
726, 0.7272563510216656
726.5, 0.7272353375248359
727, 0.7273411277662318
727.5000000000002, 0.7275441104703179
728, 0.7276773334463904
728.5, 0.7276656015844154
729, 0.7275115814016164
729.5000000000002, 0.727312471854632
730, 0.727235839742165
730.5, 0.7272629911817241
731, 0.7272013759782592
731.5000000000002, 0.7270095783121253
732, 0.7268148864651608
732.5, 0.7267707854368902
733, 0.7270469825367083
733.5000000000002, 0.7276066644898742
734, 0.7281422417479919
734.5, 0.7285009783133565
735, 0.7287842214416103
735.5000000000002, 0.7290118239794638
736, 0.7290374434227456
736.5, 0.7288431862353704
737, 0.7286751674783869
737.5000000000002, 0.728672607004757
738, 0.728696208995396
738.5, 0.7286656199830841
739.0000000000002, 0.7287161745489884
739.5, 0.7289139365684179
740, 0.729065625880106
740.5, 0.7290480800309385
741.0000000000002, 0.7290660022204881
741.5, 0.7292682826352772
742, 0.7294206651118058
742.5, 0.7293053470037414
743.0000000000002, 0.7290633422692367
743.5, 0.7288722842458766
744, 0.7287083935072296
744.5, 0.7285166599898463
745.0000000000002, 0.7283487983256158
745.5, 0.7282781056165779
746, 0.7283209174075824
746.5, 0.7284670624655027
747.0000000000002, 0.7286618285537179
747.5, 0.7288431260828445
748, 0.7290168479114584
748.5, 0.7292100853607058
749.0000000000002, 0.7293851183571658
749.5, 0.7294765546550384
750, 0.7294528274302028
750.5, 0.7293081420166663
751.0000000000002, 0.7291154516992615
751.5, 0.7289914683164415
752, 0.7290065151723726
752.5, 0.7291874817780275
753.0000000000002, 0.7293919421282302
753.5, 0.7293672064248808
754, 0.7291492235577578
754.5, 0.7290094804506938
755.0000000000002, 0.7290255646239783
755.5, 0.7290871391544935
756, 0.7290995334695414
756.5, 0.728995082133912
757.0000000000002, 0.7288008661787426
757.5, 0.7286514492094962
758, 0.7286330189144175
758.5, 0.7287595869507233
759.0000000000002, 0.7289643862707929
759.5, 0.7290728113428759
760, 0.7290480407556672
760.5, 0.7290882215682917
761.0000000000002, 0.7292764713675012
761.5, 0.7294498087704713
762, 0.7294853345307761
762.5, 0.729393694669047
763.0000000000002, 0.729217227744049
763.5, 0.7290336962860491
764, 0.7289434131768544
764.5, 0.7290916616305949
765.0000000000002, 0.7294964213848041
765.5, 0.7297890152084412
766, 0.729687024568825
766.5, 0.7294129098203976
767.0000000000002, 0.7292150661553204
767.5, 0.7290609753753856
768, 0.7288792854424827
768.5, 0.7287055300869572
769.0000000000002, 0.7286079972571591
769.5, 0.7286783373586674
770, 0.7289779875296749
770.5, 0.7293702541852609
771.0000000000002, 0.729668623644367
771.5, 0.7297840271079057
772, 0.7296833513584512
772.5, 0.7294674472436504
773.0000000000002, 0.7292758353607407
773.5, 0.7291074327439404
774, 0.7289067302795047
774.5000000000002, 0.728729307663456
775, 0.7286756569278247
775.5, 0.7286973725488706
776, 0.7286723264548063
776.5000000000002, 0.7286602815767893
777, 0.7288223364061666
777.5, 0.7290350570230482
778, 0.7289861972154043
778.5000000000002, 0.7287545611736534
779, 0.7287282806304571
779.5, 0.7289464888220358
780, 0.7291244863384521
780.5000000000002, 0.7291250728729468
781, 0.7289770268236933
781.5, 0.7287757259078576
782, 0.7286801119795618
782.5000000000002, 0.728702634568045
783, 0.728666682479957
783.5, 0.7284931417223803
784, 0.7282591007192569
784.5000000000002, 0.7280539875538103
785, 0.7279668388773295
785.5, 0.7279906811326458
786, 0.7279490076897874
786.5000000000002, 0.7277638567963942
787, 0.7275875070922739
787.5, 0.727544486844768
788, 0.727636767852796
788.5000000000002, 0.727822235430563
789, 0.7279898219776602
789.5, 0.7280441229381691
790, 0.7279639480186098
790.5000000000002, 0.7277748719753756
791, 0.7276100583318268
791.5, 0.7275769734962616
792, 0.7276134488270977
792.5000000000002, 0.7276342316191782
793, 0.7276157049100798
793.5, 0.7275700853847815
794, 0.7276025296166604
794.5000000000002, 0.7277950147704528
795, 0.7279677662757951
795.5, 0.7279026691616999
796, 0.7276610818917981
796.5000000000002, 0.72740276784772
797, 0.7272575516447553
797.5, 0.7273025553165378
798, 0.7273042960009972
798.5000000000002, 0.7269545573087466
799, 0.7265618665635296
799.5, 0.726683798641109
800, 0.7271348328818072
800.5000000000002, 0.7273408389997165
801, 0.7272772919647923
801.5, 0.7272586357684816
802, 0.7272844393757092
802.5000000000002, 0.7271398215314189
803, 0.7269205024186509
803.5, 0.7269581463220343
804, 0.7271924440798155
804.5000000000002, 0.7272178197865987
805, 0.7269951849019709
805.5, 0.7268586792257521
806, 0.7268873244038485
806.5000000000002, 0.7268586143214755
807, 0.7266795910284736
807.5, 0.7264397699744989
808.0000000000002, 0.7262370413769412
808.5000000000002, 0.7261629932265348
809, 0.7261937462273818
809.5, 0.7261279429461555
810.0000000000002, 0.7259165698004559
810.5000000000002, 0.7258015181316901
811, 0.7258543298633512
811.5, 0.7257581782352873
812.0000000000002, 0.7253745461533387
812.5, 0.7250528549884327
813, 0.7250269328543637
813.5, 0.72508775785972
814.0000000000002, 0.7250668559815527
814.5, 0.7250930485644509
815, 0.7252683154764881
815.5, 0.7254513278436137
816.0000000000002, 0.7255011990226456
816.5, 0.7254460187288916
817, 0.7253281311569102
817.5, 0.7250977455064938
818.0000000000002, 0.7247259125108585
818.5, 0.7243823194235655
819, 0.7242552585989716
819.5, 0.7243401522192221
820.0000000000002, 0.7245540177545051
820.5, 0.7247165280771862
821, 0.7246489779778877
821.5, 0.7244160163517768
822.0000000000002, 0.724173401987771
822.5, 0.7240179161259621
823, 0.7240010722328971
823.5, 0.7240168395309343
824.0000000000002, 0.7238998911408112
824.5, 0.7236969485655802
825, 0.7235690671661099
825.5, 0.723590182608167
826.0000000000002, 0.7237670903297626
826.5, 0.7239665035365206
827, 0.7239687826300685
827.5, 0.7237616080345202
828.0000000000002, 0.7234915797479589
828.5, 0.7231539497313293
829, 0.7226121445985836
829.5, 0.7218823862888931
830.0000000000002, 0.7211374156286952
830.5, 0.7205644317279583
831, 0.7203543072654248
831.5, 0.7205288409523873
832.0000000000002, 0.7209015812324462
832.5, 0.7212882649442547
833, 0.7215268173194824
833.5, 0.7215485124885777
834.0000000000002, 0.7214252837070531
834.5, 0.7212401858541545
835, 0.7210742808196726
835.5, 0.7209330402916292
836.0000000000002, 0.7206781246302708
836.5, 0.7202832599973568
837, 0.7199974537079279
837.5, 0.7199713066301869
838.0000000000002, 0.7200320180441651
838.5, 0.7200329730703399
839, 0.7200285022569761
839.5, 0.7200594089010233
840.0000000000002, 0.7200214991598681
840.5, 0.7198436009311584
841, 0.7196647845957299
841.5, 0.7196217732382064
842.0000000000002, 0.7196637769579735
842.5, 0.7197007048774151
843, 0.7196719414792077
843.5000000000002, 0.7195387343000039
844.0000000000002, 0.7193311668829836
844.5, 0.7191065093668707
845, 0.7189539626129928
845.5000000000002, 0.7189443260474406
846.0000000000002, 0.7189557237457749
846.5, 0.7188222001120803
847, 0.7186201241678132
847.5000000000002, 0.7185001385872192
848, 0.7183214173802186
848.5, 0.7178422347390401
849, 0.7172675816817511
849.5000000000002, 0.7170168531191078
850, 0.7170854374270907
850.5, 0.7172176479130812
851, 0.7173869342150272
851.5000000000002, 0.7177160223296493
852, 0.7181026673199055
852.5, 0.7182801526189857
853, 0.7182453509581113
853.5000000000002, 0.7182209302926726
854, 0.7182426039375214
854.5, 0.7181616758909553
855, 0.7179665676290894
855.5000000000002, 0.7177984773256383
856, 0.7176544417379144
856.5, 0.7173507399876451
857, 0.7168247663328629
857.5000000000002, 0.7161925115368032
858, 0.715607814416618
858.5, 0.715259772909072
859, 0.7151327831999843
859.5000000000002, 0.7148641820743062
860, 0.7143089976408791
860.5, 0.7137938227546601
861, 0.713555338011743
861.5000000000002, 0.7135305211049017
862, 0.7135833419965119
862.5, 0.7134950008581218
863, 0.713154420991045
863.5000000000002, 0.7127695160047465
864, 0.7125335216628703
864.5, 0.7124376142081235
865, 0.7124298138300826
865.5000000000002, 0.7124399536664945
866, 0.7124220944125537
866.5, 0.7124382244551866
867, 0.7125593100004415
867.5000000000002, 0.71278258954466
868, 0.7130545415910186
868.5, 0.7131702608872652
869, 0.7129387149820219
869.5000000000002, 0.712506733240148
870, 0.7121074659965805
870.5, 0.7117769735877708
871, 0.7114913437971104
871.5000000000002, 0.7113512045392307
872, 0.7114760671928589
872.5, 0.711687387779413
873, 0.711704380790251
873.5000000000002, 0.7116745655061165
874, 0.7119382434283803
874.5, 0.7123456424523871
875, 0.7124811444787753
875.5000000000002, 0.7124230700968062
876, 0.7125610192506102
876.5, 0.7127936061368279
877.0000000000002, 0.7126653788954465
877.5000000000002, 0.7122391601209648
878, 0.7120112348636564
878.5, 0.712057862924647
879.0000000000002, 0.712047740977942
879.5000000000002, 0.7118589983273786
880, 0.7116103829214591
880.5, 0.7114132070909791
881.0000000000002, 0.7113528386902355
881.5000000000002, 0.7113854001646591
882, 0.7113013397305712
882.5, 0.7110813807039549
883.0000000000002, 0.7110021691107937
883.5000000000002, 0.711177476585966
884, 0.7114133785695522
884.5, 0.7115872002378083
885.0000000000002, 0.711760886255111
885.5, 0.7119600589180457
886, 0.7120940028753022
886.5, 0.7121094371404202
887.0000000000002, 0.7120736142595558
887.5, 0.7120556013931177
888, 0.7120845565195819
888.5, 0.7121958749454906
889.0000000000002, 0.7124623092756062
889.5, 0.7128796725983564
890, 0.713164776462585
890.5, 0.7130837982503582
891.0000000000002, 0.7128073963759038
891.5, 0.7125665008809512
892, 0.7124429055844104
892.5, 0.7124482903378064
893.0000000000002, 0.7124476648592848
893.5, 0.7123030803847616
894, 0.7121027142106118
894.5, 0.711997484772783
895.0000000000002, 0.712049362478542
895.5, 0.7122589137723494
896, 0.7124337037058304
896.5, 0.7123429998013941
897.0000000000002, 0.7121208893179167
897.5, 0.7120447455767247
898, 0.7120783763805476
898.5, 0.7120405534170553
899.0000000000002, 0.7120276842933901
899.5, 0.7122777410365317
900, 0.7126786684491537
900.5, 0.7128973529417488
901.0000000000002, 0.7128626715479018
901.5, 0.7127033849825617
902, 0.7125178119506586
902.5, 0.7123752044043785
903.0000000000002, 0.7123619428909616
903.5, 0.7125752028823134
904, 0.7129571197084299
904.5, 0.7132905262794517
905.0000000000002, 0.7134721239020025
905.5, 0.7135405772744741
906, 0.7135405250078763
906.5, 0.7135139050559891
907.0000000000002, 0.7135021777402407
907.5, 0.7135464146967503
908, 0.7136905511152682
908.5, 0.7139822304017678
909.0000000000002, 0.7143745967133275
909.5, 0.7146493750067684
910, 0.7146835593742409
910.5, 0.7145844874877751
911.0000000000002, 0.7144359384994539
911.5, 0.7142043725625054
912, 0.7139329664858607
912.5000000000002, 0.7139033903738656
913.0000000000002, 0.7143152888935145
913.5, 0.7150221147606282
914, 0.7158069655386203
914.5000000000002, 0.7164262956019579
915.0000000000002, 0.7167094563168621
915.5, 0.7167750852383281
916, 0.716781742816132
916.5000000000002, 0.7167757268418216
917.0000000000002, 0.7167718393740665
917.5, 0.716774664281637
918, 0.7167827298793599
918.5000000000002, 0.7167782762772315
919.0000000000002, 0.7167502801509256
919.5, 0.7167619710290152
920, 0.716888196997105
920.5000000000002, 0.717090264672043
921, 0.7172883108435859
921.5, 0.7174578192070307
922, 0.7176058228214566
922.5000000000002, 0.7177859822156656
923, 0.7180688674534426
923.5, 0.7184425139063343
924, 0.7188444467198911
924.5000000000002, 0.7191983379863174
925, 0.7194280179379591
925.5, 0.7195846828462189
926, 0.7198098973405037
926.5000000000002, 0.7201706675472936
927, 0.720666393100746
927.5, 0.7212174315357394
928, 0.7216778207087795
928.5000000000002, 0.7220203498292752
929, 0.7223412948114782
929.5, 0.722693755481633
930, 0.7230738674478239
930.5000000000002, 0.7234441577142213
931, 0.7237292889056715
931.5, 0.7239087340363157
932, 0.7240438087446217
932.5000000000002, 0.7242005768204797
933, 0.7244421795880687
933.5, 0.7247879218204023
934, 0.7251794241575473
934.5000000000002, 0.7255545933411143
935, 0.7258600335253238
935.5, 0.7260642262281651
936, 0.7261824736631959
936.5000000000002, 0.7262875070204422
937, 0.7265804769058195
937.5, 0.727139917658773
938, 0.7276402434199531
938.5000000000002, 0.7278382880167416
939, 0.7279825511725655
939.5, 0.7283145328567046
940, 0.7286948484957247
940.5000000000002, 0.7289835243870695
941, 0.7293914311000071
941.5, 0.7301093375436345
942, 0.73081745978068
942.5000000000002, 0.7311436838617773
943, 0.7312194317877635
943.5, 0.7312861418766072
944, 0.7312567697538477
944.5000000000002, 0.7309930317371212
945, 0.7308338948471658
945.5, 0.7312401481121771
946.0000000000002, 0.7320765789844113
946.5000000000002, 0.7329647215360526
947, 0.7338420910131747
947.5, 0.7347915298455394
948.0000000000002, 0.7356808509514925
948.5000000000002, 0.7362717409665887
949, 0.7365721917237396
949.5, 0.7367488927122259
950.0000000000002, 0.7369185084690909
950.5000000000002, 0.7371574540162094
951, 0.7375153282909839
951.5, 0.7380150098126625
952.0000000000002, 0.7385702740345865
952.5000000000002, 0.739004468453331
953, 0.739330043559874
953.5, 0.7397486220140391
954.0000000000002, 0.7402981005222797
954.5000000000002, 0.740823134241406
955, 0.7412041729574461
955.5, 0.7413836478646665
956.0000000000002, 0.7414879267492488
956.5000000000002, 0.7418906951325837
957, 0.7426485917331922
957.5, 0.7432959052100649
958.0000000000002, 0.7436286551804934
958.5, 0.7439794806667107
959, 0.7445276522457722
959.5, 0.7450462112676723
960.0000000000002, 0.7453972225014067
960.5, 0.7457420523686968
961, 0.7462241225109509
961.5, 0.7468440830512781
962.0000000000002, 0.7474984285560338
962.5, 0.7478541913833581
963, 0.7477207070723204
963.5, 0.7474783834499794
964.0000000000002, 0.7474668416047769
964.5, 0.7474840956554525
965, 0.7473512990376256
965.5, 0.747465309825968
966.0000000000002, 0.7482052306246131
966.5, 0.749211450300179
967, 0.7500138920038792
967.5, 0.7506557304294397
968.0000000000002, 0.7513209726380083
968.5, 0.7520524862014042
969, 0.7528259240852837
969.5, 0.7535103833047425
970.0000000000002, 0.7539621662527999
970.5, 0.7542706023672492
971, 0.7546109023038925
971.5, 0.7549750033410347
972.0000000000002, 0.7552792327104816
972.5, 0.7556295306785062
973, 0.7562181733594433
973.5, 0.756967790317251
974.0000000000002, 0.757638464740882
974.5, 0.758149080154251
975, 0.7585369677747889
975.5, 0.7588772022004341
976.0000000000002, 0.7592649708841774
976.5, 0.7596429092502548
977, 0.7598246979191047
977.5, 0.7598027789319226
978.0000000000002, 0.7597489649251981
978.5, 0.759749213338742
979, 0.7597878538835605
979.5000000000002, 0.7599244210647542
980.0000000000002, 0.7603131449229061
980.5, 0.760895148542158
981, 0.761314017404911
981.5000000000002, 0.7614633915539367
982.0000000000002, 0.7616528866461152
982.5, 0.7620238960874068
983, 0.762369091306702
983.5000000000002, 0.7626418289836295
984.0000000000002, 0.7631697437527672
984.5, 0.7640762113279503
985, 0.7649525598787908
985.5000000000002, 0.7655181576429186
986.0000000000002, 0.7659705985281802
986.5, 0.7664936819821107
987, 0.7670396541700517
987.5000000000002, 0.7675025274225629
988.0000000000002, 0.7677175033333258
988.5, 0.7675472372005655
989, 0.7669892043253084
989.5000000000002, 0.7661204454261383
990.0000000000002, 0.7652159634324326
990.5, 0.7645821004964571
991, 0.7644475843116184
991.5000000000002, 0.764941733599753
992.0000000000002, 0.7658007901340167
992.5, 0.7666892131738602
993, 0.7675702067754999
993.5000000000002, 0.7684920480183005
994, 0.7693646992826784
994.5, 0.7700552706562621
995, 0.7705246701872404
995.5000000000002, 0.7707854124111179
996, 0.7709291914669791
996.5, 0.7710782569237182
997, 0.7712635526140557
997.5000000000002, 0.771462927240278
998, 0.7716395143617603
998.5, 0.7717581091158172
999, 0.7719231599106282
999.5000000000002, 0.7723216487738356
1000, 0.7728913687717378
1000.5, 0.7733820699135292
1001, 0.7737205448875122
1001.5000000000002, 0.7739950305021942
1002, 0.774327457463728
1002.5, 0.7748573573067734
1003, 0.775454465405161
1003.5000000000002, 0.775703208020123
1004, 0.775508660502918
1004.5, 0.7751813025425468
1005, 0.7749647475830372
1005.5000000000002, 0.774976237446356
1006, 0.775180077306868
1006.5, 0.7753249635596403
1007, 0.7753099825163916
1007.5000000000002, 0.7753178953833879
1008, 0.7754708318561586
1008.5, 0.7757247533103669
1009, 0.7760473476566
1009.5000000000002, 0.7764701430815899
1010, 0.7769962499214316
1010.5, 0.7775418823749468
1011, 0.7780562028785722
1011.5000000000002, 0.7786104007767669
1012, 0.7792172487125038
1012.5, 0.7796521008425312
1013, 0.7797411241050519
1013.5000000000002, 0.7796362089524769
1014, 0.779502116623779
1014.5, 0.7792852325247281
1015.0000000000002, 0.7789264837804195
1015.5000000000002, 0.7785733949580094
1016, 0.7784100169786687
1016.5, 0.7785217004867914
1017.0000000000002, 0.7789372640757147
1017.5000000000002, 0.7795392830355297
1018, 0.7801616499493371
1018.5, 0.7806532324248605
1019.0000000000002, 0.7808801123597179
1019.5000000000002, 0.7807906616056995
1020, 0.7804048870947573
1020.5, 0.780036435140675
1021.0000000000002, 0.7800970651115592
1021.5000000000002, 0.7805448349622364
1022, 0.7810988175380816
1022.5, 0.7816277918883674
1023.0000000000002, 0.782093667697976
1023.5000000000002, 0.7824391202204418
1024, 0.7825974713340029
1024.5, 0.7825770034609674
1025.0000000000002, 0.7824438707904207
1025.5000000000002, 0.7822587898832112
1026, 0.7820745200243892
1026.5, 0.781901692001294
1027.0000000000002, 0.7817124259403407
1027.5000000000002, 0.7815244254934279
1028, 0.7814016296384477
1028.5, 0.781269908415531
1029.0000000000002, 0.7808941239210646
1029.5000000000002, 0.780306451679499
1030, 0.7799035436161794
1030.5, 0.7798763239394939
1031.0000000000002, 0.7800721630601695
1031.5, 0.7802983494835465
1032, 0.7803434221783698
1032.5, 0.780153953925792
1033.0000000000002, 0.7799725182220469
1033.5, 0.7799547822951709
1034, 0.7800087866939993
1034.5, 0.7800346452048192
1035.0000000000002, 0.7799862053895543
1035.5, 0.7799029555884411
1036, 0.7800291769612901
1036.5, 0.7805126190562814
1037.0000000000002, 0.7811167272888964
1037.5, 0.7815817111043593
1038, 0.7818069533837497
1038.5, 0.7817487760690555
1039.0000000000002, 0.7814531772049803
1039.5, 0.7809852117107384
1040, 0.780400671041989
1040.5, 0.7797768657527882
1041.0000000000002, 0.7793076343946188
1041.5, 0.7791703341386984
1042, 0.7792571453500698
1042.5, 0.7793924825113702
1043.0000000000002, 0.779587457314582
1043.5, 0.7799064570626053
1044, 0.7802800358186998
1044.5, 0.7805841065013899
1045.0000000000002, 0.7807230153118219
1045.5, 0.7806331925427048
1046, 0.7804206002257497
1046.5, 0.7802617487183181
1047.0000000000002, 0.7800970576545806
1047.5, 0.7797595958613411
1048, 0.7795494224700175
1048.5000000000002, 0.780025748036024
1049.0000000000002, 0.7808609877650933
1049.5, 0.7810984594244534
1050, 0.7806395103061811
1050.5000000000002, 0.78010916705327
1051.0000000000002, 0.77977057859973
1051.5, 0.7795257176646806
1052, 0.7793390332433918
1052.5000000000002, 0.7792539420154045
1053.0000000000002, 0.7792604208478533
1053.5, 0.7792823067183666
1054, 0.7792814735776578
1054.5000000000002, 0.7792743909141666
1055.0000000000002, 0.7792733041287843
1055.5, 0.7792788055484929
1056, 0.7792836970297552
1056.5000000000002, 0.7792699081731566
1057.0000000000002, 0.7792505201923094
1057.5, 0.7792964855266176
1058, 0.779372670644608
1058.5000000000002, 0.7792156792621421
1059.0000000000002, 0.7787760015890148
1059.5, 0.7785576649007612
1060, 0.7788691284848305
1060.5000000000002, 0.7793157822359627
1061.0000000000002, 0.7794864011509195
1061.5, 0.7792460739257203
1062, 0.7785949880251302
1062.5000000000002, 0.7778128951024448
1063.0000000000002, 0.7771783066089845
1063.5, 0.7767526708238297
1064, 0.7765252515438669
1064.5000000000002, 0.7763935528158276
1065.0000000000002, 0.7762466289940986
1065.5, 0.7760480027055712
1066, 0.7758074858413135
1066.5000000000002, 0.7756652504222667
1067, 0.7757633531190915
1067.5, 0.7759872254629241
1068, 0.7761352725919596
1068.5000000000002, 0.7760765227310247
1069, 0.7757461292115964
1069.5, 0.7753660014800066
1070, 0.7752501625665059
1070.5000000000002, 0.7753017945355534
1071, 0.7752297395828747
1071.5, 0.7750190512234211
1072, 0.7748126053379305
1072.5000000000002, 0.7746439754823506
1073, 0.774464513714441
1073.5, 0.7741172720893763
1074, 0.7733877606140385
1074.5000000000002, 0.7724385884292608
1075, 0.7717317630250169
1075.5, 0.7714045216052168
1076, 0.7712869896951526
1076.5000000000002, 0.771283619028823
1077, 0.7713833516317012
1077.5, 0.771440228802933
1078, 0.7711569678548231
1078.5000000000002, 0.7705669379793789
1079, 0.7701326504381836
1079.5, 0.7699932802911187
1080, 0.769787610689812
1080.5000000000002, 0.7693905124405631
1081, 0.7691139113006533
1081.5, 0.769021611528534
1082, 0.7686646323103797
1082.5000000000002, 0.7678154293526023
1083, 0.7667972063857277
1083.5, 0.7659519180276722
1084.0000000000002, 0.7655155104232239
1084.5000000000002, 0.7655874465498349
1085, 0.7659585162702932
1085.5, 0.7663232719687315
1086.0000000000002, 0.7662390146757737
1086.5000000000002, 0.7655098870096748
1087, 0.7648122971709463
1087.5, 0.7647238319099032
1088.0000000000002, 0.7648255209720385
1088.5000000000002, 0.764608941372249
1089, 0.7641305734721254
1089.5, 0.7635767851013897
1090.0000000000002, 0.7630614223732515
1090.5000000000002, 0.7626577907490169
1091, 0.7623365576157017
1091.5, 0.7620311536519486
1092.0000000000002, 0.7616543415910597
1092.5000000000002, 0.7611376600712703
1093, 0.7605933244412281
1093.5, 0.7601822260912134
1094.0000000000002, 0.7598558569888321
1094.5000000000002, 0.759487310393375
1095, 0.7591285892305832
1095.5, 0.7589070387574135
1096.0000000000002, 0.7587534405543701
1096.5000000000002, 0.7584955391925055
1097, 0.7581182101095831
1097.5, 0.7577102149332404
1098.0000000000002, 0.7573545373563726
1098.5000000000002, 0.757121463971141
1099, 0.7569642295467707
1099.5, 0.7567438539207589
1100.0000000000002, 0.7563886227453451
1100.5000000000002, 0.7558942575457754
1101, 0.7553406829787512
1101.5, 0.7548861518308443
1102.0000000000002, 0.7545492650040467
1102.5000000000002, 0.7541901010269547
1103, 0.7538039628124265
1103.5, 0.7535634767923011
1104.0000000000002, 0.7534413623343936
1104.5, 0.7531140017308158
1105, 0.7523364008118814
1105.5, 0.7510262329978756
1106.0000000000002, 0.749441910340334
1106.5, 0.7484123971228633
1107, 0.7483318751278868
1107.5, 0.7486252084380014
1108.0000000000002, 0.7488242880837706
1108.5, 0.7489472146354317
1109, 0.7490158671225606
1109.5, 0.7489003112539966
1110.0000000000002, 0.7485474402074612
1110.5, 0.7481835728090649
1111, 0.7479879136527503
1111.5, 0.7478381991094505
1112.0000000000002, 0.7476233977443851
1112.5, 0.7474840919120267
1113, 0.7475266505925073
1113.5, 0.7474928188975078
1114.0000000000002, 0.7471101617775566
1114.5, 0.7464622037547568
1115, 0.7457581626913594
1115.5, 0.7453316727237791
1116.0000000000002, 0.745413666702284
1116.5, 0.7453947153972187
1117, 0.7445423382167109
1117.5000000000002, 0.7433493835645035
1118.0000000000002, 0.7426866160833684
1118.5, 0.7424714334803826
1119, 0.7422413727620263
1119.5000000000002, 0.7420600499542753
1120.0000000000002, 0.7422103443973724
1120.5, 0.7424340887822796
1121, 0.7422085409532375
1121.5000000000002, 0.7415889094887332
1122.0000000000002, 0.7409929700887705
1122.5, 0.7406578745698056
1123, 0.7406633934693507
1123.5000000000002, 0.7407271230969732
1124.0000000000002, 0.7403111195255647
1124.5, 0.7395106183357056
1125, 0.738973564180222
1125.5000000000002, 0.7388448647187926
1126.0000000000002, 0.7387509333017088
1126.5, 0.7384290709187153
1127, 0.7377735846320259
1127.5000000000002, 0.7369749393921234
1128.0000000000002, 0.7365706892381543
1128.5, 0.736634876248632
1129, 0.7365762866627512
1129.5000000000002, 0.7361771023875386
1130.0000000000002, 0.735869238369901
1130.5, 0.7358694455321473
1131, 0.735927747034177
1131.5000000000002, 0.7359020052317098
1132.0000000000002, 0.7359467900684141
1132.5, 0.7359882047688295
1133, 0.7353849765068907
1133.5000000000002, 0.7339125588059929
1134.0000000000002, 0.7325417461978312
1134.5, 0.7320132287684074
1135, 0.7319472784118382
1135.5000000000002, 0.731864765577311
1136.0000000000002, 0.7315678422035503
1136.5, 0.7310124402448748
1137, 0.7305026672805026
1137.5000000000002, 0.7302944142108725
1138.0000000000002, 0.7301515556392331
1138.5, 0.7298119137471328
1139, 0.7294421881769244
1139.5000000000002, 0.7292554927414265
1140.0000000000002, 0.7290906095548724
1140.5, 0.7287360510047527
1141, 0.7283737982865339
1141.5000000000002, 0.728270628755344
1142, 0.7283273143555812
1142.5, 0.728309654779457
1143, 0.7280763055924404
1143.5000000000002, 0.7275447883064519
1144, 0.7267753503574039
1144.5, 0.7259125625204585
1145, 0.725219360418426
1145.5000000000002, 0.7249867744856178
1146, 0.7250639679024979
1146.5, 0.7250430398085475
1147, 0.7248329173526395
1147.5000000000002, 0.7245698972468326
1148, 0.7243859406541455
1148.5, 0.7243917598724117
1149, 0.7244387615685774
1149.5000000000002, 0.724166799140624
1150, 0.7235853499354477
1150.5, 0.7230650628457944
1151, 0.7227290472646393
1151.5000000000002, 0.7224155220444537
1152, 0.7220544305819414
1152.5, 0.7217039906160811
1153.0000000000002, 0.7213664888043037
1153.5000000000002, 0.7209583099434599
1154, 0.7204388670638191
1154.5, 0.7198429448237136
1155.0000000000002, 0.7192615436854803
1155.5000000000002, 0.7188698432141819
1156, 0.7187884726633343
1156.5, 0.7190183041502638
1157.0000000000002, 0.7194353724503955
1157.5000000000002, 0.7196790642851609
1158, 0.719544326830311
1158.5, 0.7192701898564868
1159.0000000000002, 0.7190108592070168
1159.5000000000002, 0.7185177341265696
1160, 0.717641158203064
1160.5, 0.7167351010903176
1161.0000000000002, 0.7161216627319706
1161.5000000000002, 0.7156873508945296
1162, 0.7153258242932155
1162.5, 0.7153205317878579
1163.0000000000002, 0.71587166862552
1163.5000000000002, 0.716398195125082
1164, 0.7162781950617761
1164.5, 0.7157541131124527
1165.0000000000002, 0.715251073146588
1165.5000000000002, 0.7147099960557721
1166, 0.7139656741793496
1166.5, 0.7132615381028091
1167.0000000000002, 0.7129353370837227
1167.5000000000002, 0.7128334185239422
1168, 0.7126161301499758
1168.5, 0.7122148294662285
1169.0000000000002, 0.7116985493438495
1169.5000000000002, 0.7111573411426926
1170, 0.7106890403559474
1170.5, 0.7103538406562802
1171.0000000000002, 0.7101871581575157
1171.5000000000002, 0.7102084820785508
1172, 0.7104146833805833
1172.5, 0.7106236690902288
1173.0000000000002, 0.7105313252011347
1173.5000000000002, 0.710135387568426
1174, 0.709692344930217
1174.5, 0.7093371673697642
1175.0000000000002, 0.7090783760364983
1175.5000000000002, 0.7089024558138926
1176, 0.7087764309253262
1176.5, 0.7086247558559153
1177.0000000000002, 0.708326062131841
1177.5, 0.7079272098860707
1178, 0.70769985740991
1178.5, 0.7077168956663957
1179.0000000000002, 0.707733745858609
1179.5, 0.7076791562959353
1180, 0.7078120124757901
1180.5, 0.7082018952011417
1181.0000000000002, 0.7085081087844759
1181.5, 0.7085304111047763
1182, 0.7084552285126946
1182.5, 0.7083720848864727
1183.0000000000002, 0.7080297961774082
1183.5, 0.7073142290678966
1184, 0.7066017057795937
1184.5, 0.7062485485614518
1185.0000000000002, 0.7063135815537058
1185.5, 0.7067570777720396
1186, 0.7073931730520981
1186.5000000000002, 0.7080157876248327
1187.0000000000002, 0.7084586494350691
1187.5, 0.7086014682296261
1188, 0.7084812466428931
1188.5000000000002, 0.7081793508821539
1189.0000000000002, 0.7077870111772486
1189.5, 0.7073936144477293
1190, 0.707061727777542
1190.5000000000002, 0.7068337896727628
1191.0000000000002, 0.7066836766819136
1191.5, 0.7065547629632143
1192, 0.7063622549990156
1192.5000000000002, 0.7060305335035777
1193.0000000000002, 0.7056594565438354
1193.5, 0.7054139802252033
1194, 0.7052638505414219
1194.5000000000002, 0.7050850076923438
1195.0000000000002, 0.7048995473583495
1195.5, 0.7048120755672147
1196, 0.7048300325649468
1196.5000000000002, 0.7048911505044966
1197.0000000000002, 0.704898399017261
1197.5, 0.704734140199955
1198, 0.7043668005657087
1198.5000000000002, 0.703842295444688
1199.0000000000002, 0.703285001610257
1199.5, 0.7028864502538114
1200, 0.7027117919552415
1200.5000000000002, 0.7026886452122396
1201.0000000000002, 0.70270995184718
1201.5, 0.7026384066501361
1202, 0.7024496818662527
1202.5000000000002, 0.7022681871831953
1203.0000000000002, 0.702118224070081
1203.5, 0.7018642433814122
1204, 0.7014861905466774
1204.5000000000002, 0.7011727739236876
1205.0000000000002, 0.7010045617908957
1205.5, 0.7008294954910748
1206, 0.7005990443996906
1206.5000000000002, 0.7005274879498589
1207.0000000000002, 0.7007102412179422
1207.5, 0.7008950263753835
1208, 0.7009043842669358
1208.5000000000002, 0.700880793241311
1209.0000000000002, 0.7009251898979953
1209.5, 0.7008681112249138
1210, 0.7005693042904362
1210.5000000000002, 0.7001465766575461
1211.0000000000002, 0.699748265478099
1211.5, 0.6994385194539665
1212, 0.6992399718797346
1212.5, 0.6990828143828896
1213, 0.6988966524095447
1213.5, 0.6987249600492509
1214, 0.698640560825583
1214.5, 0.6986910572987981
1215, 0.6988868337712157
1215.5, 0.6990614560606996
1216, 0.6990143872027235
1216.5, 0.6987775026802665
1217, 0.6984689970636315
1217.5, 0.6981015735952191
1218, 0.6976578205941144
1218.5, 0.697310934638113
1219, 0.6973047520833189
1219.5, 0.6975426706091126
1220, 0.6977446404156533
1220.5, 0.697901848761449
1221, 0.6981772703524877
1221.5, 0.6985548972158699
1222, 0.6988845812292162
1222.5, 0.6990611883474549
1223, 0.6990253773857396
1223.5, 0.6988273934191327
1224, 0.6986146778325424
1224.5, 0.6984432363332702
1225, 0.6982712512904818
1225.5, 0.6980891054839411
1226, 0.6979311654508322
1226.5, 0.6978864387401538
1227, 0.6981067875906475
1227.5, 0.6985209873823006
1228, 0.6987353551611404
1228.5, 0.6986707662105667
1229, 0.6987905616786056
1229.5, 0.6992267526818523
1230, 0.6994293705559691
1230.5, 0.6991060197108487
1231, 0.698626000505862
1231.5, 0.6982689079516171
1232, 0.6979322869875089
1232.5, 0.6975439666938257
1233, 0.6972419569881643
1233.5000000000002, 0.6971537110208874
1234, 0.6972822873702504
1234.5, 0.6975409578444629
1235.0000000000002, 0.6976242415261311
1235.5, 0.6973187069013549
1236, 0.6969088146372644
1236.5, 0.6966925883368544
1237, 0.6965532762621809
1237.5000000000002, 0.6963329985054683
1238, 0.6961841139947966
1238.5, 0.6962900697304973
1239.0000000000002, 0.6965168453505977
1239.5, 0.6966730462451676
1240, 0.6968548525650748
1240.5, 0.6972170495154761
1241, 0.6975798328285707
1241.5000000000002, 0.6976734255624553
1242, 0.69762481693789
1242.5, 0.6976979157839476
1243.0000000000002, 0.6977035661977498
1243.5, 0.697273725394481
1244, 0.6966736175040935
1244.5, 0.6964964078345761
1245, 0.6967617987019261
1245.5000000000002, 0.6971241000516459
1246, 0.6974701104214509
1246.5, 0.6978561550073328
1247.0000000000002, 0.698225907548172
1247.5, 0.6984320022689428
1248, 0.6984237385217662
1248.5, 0.6982454364117876
1249, 0.6980350962103834
1249.5000000000002, 0.6980160735928826
1250, 0.6982137653269238
1250.5, 0.6984274619162736
1251.0000000000002, 0.6985876025153033
1251.5, 0.6988034408715202
1252, 0.6990368336569384
1252.5, 0.6990274994780685
1253, 0.6986856117704878
1253.5, 0.698217010908446
1254, 0.6978139730139825
1254.5, 0.6975979829848232
1255.0000000000002, 0.6975907156553762
1255.5, 0.6976310696981998
1256, 0.6976189150975449
1256.5000000000002, 0.697636775943972
1257, 0.6977005283885371
1257.5, 0.6975988150565116
1258, 0.6972284834804288
1258.5, 0.6968880466403531
1259.0000000000002, 0.6968256962492311
1259.5, 0.6969082432991258
1260, 0.6969576851140262
1260.5000000000002, 0.696905637518471
1261, 0.6967366787358332
1261.5, 0.696550670414434
1262, 0.6964265478874865
1262.5, 0.6962127295479299
1263.0000000000002, 0.6957807021229048
1263.5, 0.6954667037406854
1264, 0.6956538274932604
1264.5000000000002, 0.6961107004323757
1265, 0.696454915833429
1265.5, 0.6968012389299802
1266, 0.6973967989568375
1266.5, 0.697931102661725
1267.0000000000002, 0.6978870379960183
1267.5, 0.6972030096004094
1268, 0.6960659274136523
1268.5000000000002, 0.6947781900476862
1269, 0.6936964421608067
1269.5, 0.6930407216304295
1270, 0.6929214393640573
1270.5, 0.6931687135855973
1271.0000000000002, 0.693426219549488
1271.5, 0.6935862839801374
1272, 0.6937423263413756
1272.5000000000002, 0.6939241382469394
1273, 0.6940951265284369
1273.5, 0.6941292373879964
1274, 0.6938226130143788
1274.5, 0.6932444633253758
1275.0000000000002, 0.6927678786428801
1275.5, 0.6925762885214333
1276, 0.6925945930692632
1276.5000000000002, 0.6926509101776885
1277, 0.6924660656744777
1277.5, 0.6920436952206912
1278, 0.6918353392904102
1278.5, 0.6920215701724153
1279.0000000000002, 0.6922470075880927
1279.5, 0.6922724227582897
1280, 0.6921881515443435
1280.5000000000002, 0.6921294351061105
1281, 0.6922466007649482
1281.5, 0.6925919652328283
1282, 0.6929732129302926
1282.5, 0.69321537009438
1283.0000000000002, 0.6932924256988375
1283.5, 0.6932530707211045
1284, 0.6932991719480615
1284.5000000000002, 0.6935879831952338
1285, 0.6940156630117715
1285.5, 0.6944318812673878
1286, 0.6947294247132991
1286.5, 0.6948315891925734
1287, 0.6947508097388189
1287.5, 0.6945457862492108
1288, 0.6943833123103038
1288.5000000000002, 0.6944331285568033
1289, 0.6946828267148999
1289.5, 0.6950480971611954
1290.0000000000002, 0.695401909783244
1290.5, 0.6956242559761976
1291, 0.6957774225691382
1291.5, 0.6959831519426876
1292, 0.696161847820168
1292.5000000000002, 0.6961467494947917
1293, 0.6959259427264766
1293.5, 0.6955916252950489
1294.0000000000002, 0.6954115306929696
1294.5, 0.6957247463819831
1295, 0.696337795748841
1295.5, 0.6967017811701461
1296, 0.6966571205296619
1296.5000000000002, 0.6963604213182266
1297, 0.6959832243434545
1297.5, 0.6956964163145372
1298.0000000000002, 0.6955327522944637
1298.5, 0.6953904305415322
1299, 0.6952145598382224
1299.5, 0.6950091770388827
1300, 0.6948154122081565
1300.5000000000002, 0.694714548905059
1301, 0.6947186078331191
1301.5, 0.6947423392322061
1302.0000000000002, 0.6947403821113576
1302.5, 0.6947386435517482
1303, 0.6947454555164441
1303.5, 0.6947293767982807
1304, 0.6947019102813521
1304.5000000000002, 0.6947634487380472
1305, 0.6949472527346907
1305.5, 0.6951218018524021
1306.0000000000002, 0.6951726502113118
1306.5, 0.6950772857684295
1307, 0.6948129827168279
1307.5, 0.6943199886960922
1308, 0.6936606803700927
1308.5000000000002, 0.6932886596916561
1309, 0.6935304325592617
1309.5, 0.694018574241193
1310.0000000000002, 0.6943699640335304
1310.5, 0.6947227107508664
1311, 0.6952584310925936
1311.5, 0.6957898889872222
1312, 0.696083001331943
1312.5000000000002, 0.6961784719723547
1313, 0.6961925463331522
1313.5, 0.6961835496648354
1314.0000000000002, 0.6961832915295656
1314.5, 0.6961842131695855
1315, 0.696169847756519
1315.5, 0.6961730476631823
1316, 0.696230271028847
1316.5000000000002, 0.6962230237659195
1317, 0.6959810936488586
1317.5, 0.6955845274286034
1318.0000000000002, 0.6952330638988637
1318.5, 0.6948933531424399
1319, 0.69440363836043
1319.5, 0.693843643690498
1320, 0.6934524542489469
1320.5000000000002, 0.6933000643542542
1321, 0.6933241640948746
1321.5, 0.693503871541417
1322.0000000000002, 0.6938568174685822
1322.5, 0.694387524605242
1323, 0.6950782257834993
1323.5000000000002, 0.6956899970619108
1324, 0.6957611551986074
1324.5, 0.6953305518905499
1325, 0.6950448092781623
1325.5, 0.6952074932954732
1326.0000000000002, 0.6956125803452466
1326.5, 0.6960210145792389
1327, 0.6961996916898427
1327.5000000000002, 0.6960549106361578
1328, 0.6957254696154123
1328.5, 0.6953524125661041
1329, 0.6950396928368143
1329.5, 0.694918322973215
1330.0000000000002, 0.6951838255711433
1330.5, 0.6958053094595305
1331, 0.6961996388356224
1331.5000000000002, 0.6960290521542782
1332, 0.695817134452472
1332.5, 0.6959795788866896
1333, 0.6961874117555895
1333.5, 0.696101472658488
1334.0000000000002, 0.6958163733654713
1334.5, 0.6954819373125973
1335, 0.6951092064307232
1335.5000000000002, 0.6947036453955882
1336, 0.6943901121590226
1336.5, 0.6942914510289979
1337, 0.6943622699287253
1337.5, 0.6945142362399108
1338.0000000000002, 0.6947065024236152
1338.5, 0.6949109740914239
1339, 0.6950764304900032
1339.5000000000002, 0.6951488718322034
1340, 0.6951191752472654
1340.5, 0.6949792774753416
1341, 0.6945679708586552
1341.5, 0.6937072208377417
1342.0000000000002, 0.6927718835226861
1342.5, 0.6923809040402336
1343, 0.6924930454504885
1343.5000000000002, 0.6926839837447989
1344, 0.6928475789838733
1344.5, 0.6930952452151706
1345, 0.6934616543836167
1345.5, 0.693912486236173
1346.0000000000002, 0.694293177964366
1346.5, 0.6943607025998735
1347, 0.6941441871354515
1347.5000000000002, 0.6939264707758552
1348, 0.6937746808315783
1348.5, 0.6935208445111343
1349, 0.6931457927722819
1349.5, 0.6928179555370138
1350.0000000000002, 0.6926289432534274
1350.5, 0.6925544214046968
1351, 0.692554049467554
1351.5000000000002, 0.6925770841332346
1352, 0.6926778825007542
1352.5, 0.6930821044644779
1353, 0.693730754194946
1353.5, 0.694014345461456
1354.0000000000002, 0.6936642811266954
1354.5, 0.6932355965474553
1355, 0.6931563268999181
1355.5000000000002, 0.6933257403897355
1356, 0.6935595683432032
1356.5, 0.6936501595699007
1357.0000000000002, 0.6934909111229273
1357.5, 0.6932825874515826
1358.0000000000002, 0.693220336602389
1358.5, 0.6932950098312203
1359, 0.693455237392903
1359.5000000000002, 0.6936497468342051
1360, 0.6938355847043487
1360.5, 0.69400500081281
1361.0000000000002, 0.6941655573279806
1361.5, 0.6943535409354249
1362, 0.6945866079480216
1362.5, 0.6947339206616101
1363, 0.6946510743171033
1363.5000000000002, 0.6944212376131869
1364, 0.6942000711166629
1364.5, 0.6940411945101529
1365.0000000000002, 0.6939571279945036
1365.5, 0.6939831913462122
1366, 0.6941499811341081
1366.5, 0.6943419477761088
1367, 0.6943875577716188
1367.5000000000002, 0.6943610974584202
1368, 0.6944667840374192
1368.5, 0.6946719189343993
1369.0000000000002, 0.6947916673699661
1369.5, 0.6947745535519039
1370, 0.6946697774982884
1370.5, 0.6944915108961025
1371, 0.6942294155206861
1371.5000000000002, 0.6940170074399106
1372, 0.6941075684794848
1372.5, 0.6943638182004424
1373.0000000000002, 0.6942504896575812
1373.5, 0.693675292037726
1374, 0.6930778066756369
1374.5, 0.6927061278286213
1375, 0.6925215345155827
1375.5000000000002, 0.6924938281997137
1376, 0.6926327733767084
1376.5, 0.6929490266147141
1377.0000000000002, 0.69344857605614
1377.5, 0.6940368237684624
1378, 0.6944391188174659
1378.5, 0.6944984096208561
1379, 0.6943339728604332
1379.5000000000002, 0.694109974835345
1380, 0.6940166088717208
1380.5, 0.6941571291057465
1381.0000000000002, 0.6944036765298438
1381.5, 0.6946188062438474
1382, 0.6947420518004976
1382.5, 0.6947558482441143
1383, 0.6947373057525588
1383.5000000000002, 0.6947501080515426
1384, 0.6947380976732125
1384.5, 0.6946283773490378
1385.0000000000002, 0.6943928812101383
1385.5, 0.6940385498535739
1386, 0.6936823311472147
1386.5, 0.6934463659310395
1387, 0.6933076899366961
1387.5000000000002, 0.6932172402080838
1388, 0.6932602152374938
1388.5, 0.6935396423147696
1389.0000000000002, 0.6939340915459498
1389.5, 0.6942418116086655
1390, 0.6943745526743219
1390.5, 0.6943068533642411
1391, 0.6940934846836417
1391.5000000000002, 0.6938348038050768
1392, 0.6936642602958978
