101.69342715601985, 21.051532491797246
104.5520734022987, 21.02825041560834
107.41071964857758, 21.004968339419435
110.26970250318689, 20.93534651640634
113.12834874946574, 20.912064440217435
115.9869949957446, 20.88878236402853
118.8459778503539, 20.819160541015435
121.70445579246754, 20.819048338238616
124.56343864707685, 20.749426515225537
127.4220848933557, 20.72614443903663
130.28073113963458, 20.70286236284771
133.13937738591343, 20.67958028665882
135.99785532802707, 20.679468083882
138.8563332701407, 20.67935588110518
141.71447460392392, 20.725583425152564
144.57278424187234, 20.748641095787832
147.4307572714903, 20.818038513247302
150.2882253886126, 20.956945550943047
153.14569350573495, 21.095852588638778
156.00282501452682, 21.28109937315871
158.85961991498823, 21.512685904502817
161.71691972794534, 21.67476281561065
164.5740512367372, 21.86000960013058
167.43135104969429, 22.0220865112384
170.28848255848615, 22.207333295758332
173.14578237144326, 22.369410206866164
176.0034187927308, 22.485147371149807
178.86071860568788, 22.64722428225764
181.7190282436363, 22.67028195289292
184.57683296908905, 22.762849243764478
187.4346376945418, 22.855416534636035
190.29294733249026, 22.878474205271317
193.15092036210822, 22.947871622730773
196.00939830422186, 22.947759419953968
198.86737133383983, 23.017156837413424
201.7253443634578, 23.08655425487288
204.583485697241, 23.132781798920263
207.44179533518943, 23.155839469555545
210.2999366689726, 23.2020670136029
213.15824630692103, 23.225124684238196
216.01605103237378, 23.31769197510974
218.87402406199175, 23.38708939256921
221.7323336999402, 23.41014706320449
224.59013842539295, 23.502714354076033
227.4486163675066, 23.502602151299214
230.30642109295934, 23.595169442170786
233.16489903507298, 23.595057239393967
236.02337697718662, 23.594945036617148
238.8813500068046, 23.664342454076618
241.739659644753, 23.6874001247119
244.597632674371, 23.756797542171356
247.45577400815418, 23.80302508621874
250.31374703777215, 23.872422503678195
253.1722249798858, 23.87231030090139
256.0307029219995, 23.87219809812457
258.88884425578266, 23.91842564217194
261.74698558956584, 23.96465318621931
264.6054635316795, 23.96454098344249
267.4637731696279, 23.98759865407777
270.3219145034111, 24.03382619812514
273.17971922886386, 24.126393488996698
276.03786056264704, 24.172621033044067
278.89583359226503, 24.242018450503537
281.75380662188303, 24.311415867962992
284.6122845639967, 24.311303665186173
287.47008928944945, 24.403870956057744
290.3280623190674, 24.4732683735172
293.1863719570158, 24.496326044152468
296.0440083783033, 24.612063208436126
298.90214971208655, 24.658290752483495
301.7599544375393, 24.750858043355066
304.61792746715724, 24.820255460814522
307.4760688009405, 24.86648300486189
310.3340418305584, 24.93588042232136
313.1920148601764, 25.005277839780817
316.05032449812484, 25.028335510416085
318.9081292235776, 25.120902801287656
321.76593394903034, 25.2134700921592
324.6240752828136, 25.259697636206567
327.4820483124316, 25.329095053666038
330.34018964621475, 25.375322597713406
333.19816267583275, 25.444720015172862
336.05596740128544, 25.537287306044433
338.91343551840777, 25.676194343740164
341.77140854802576, 25.74559176119962
344.62954988180894, 25.791819305247003
347.4873546072617, 25.88438659611856
350.3456642452101, 25.907444266753828
353.20397388315854, 25.930501937389124
356.06194691277653, 25.99989935484858
358.9195833340641, 26.115636519132238
361.77705145118637, 26.25454355682797
364.6353610891348, 26.277601227463236
367.49350242291797, 26.32382877151062
370.3516437567012, 26.37005631555799
373.2094484821539, 26.462623606429545
376.06758981593714, 26.508851150476914
378.9257311497203, 26.555078694524283
381.7828626585122, 26.740325479044202
384.64066738396497, 26.832892769915773
387.4981355010873, 26.971799807611504
390.3564451390357, 26.994857478246786
393.21475477698414, 27.017915148882068
396.0725595024369, 27.11048243975361
398.9296910112287, 27.295729224273543
401.7881689533424, 27.29561702149674
404.64597367879514, 27.38818431236828
407.50394670841314, 27.45758172982775
410.3614148255354, 27.596488767523496
413.21955615931864, 27.64271631157085
416.0775291889366, 27.712113729030335
418.93516561022415, 27.82785089331398
421.79313863984214, 27.897248310773435
424.6504384527992, 28.059325221881267
427.50790656992154, 28.19823225957701
430.3660479037047, 28.24445980362438
433.22351602082705, 28.383366841320125
436.0806475296189, 28.568613625840044
438.93828395090645, 28.684350790123688
441.79592037219396, 28.800087954407346
444.6535567934815, 28.91582511869099
447.5110249106038, 29.05473215638672
450.36916624438703, 29.100959700434103
453.22646605734417, 29.263036611541935
456.08393417446644, 29.401943649237666
458.9417388999192, 29.494510940109237
461.7993753212067, 29.61024810439288
464.65701174249426, 29.72598526867654
467.5144798596166, 29.86489230637227
470.372789497565, 29.887949977007537
473.2310991355134, 29.911007647642833
476.08789403597484, 30.14259417898694
478.9458670655928, 30.211991596446396
481.8036717910456, 30.304558887317953
484.6611399081679, 30.443465925013697
487.51911293778585, 30.512863342473153
490.37742257573433, 30.535921013108435
493.23539560535227, 30.60531843056789
496.0937052433007, 30.628376101203173
498.95150996875344, 30.72094339207473
501.8096513025366, 30.7671709361221
504.6682975488155, 30.743888859933193
507.52627057843347, 30.813286277392663
510.38559004137323, 30.69732470755538
513.2450778084782, 30.558193264306027
516.1035557505919, 30.558081061529208
518.9623703010359, 30.5116291119282
521.8213531556453, 30.44200728891512
524.6796627935937, 30.46506495955039
527.5388139523682, 30.37227326312521
530.3972918944818, 30.372161060348404
533.2559381407607, 30.348878984159484
536.1140794745438, 30.395106528206853
538.972894024988, 30.34865457860586
541.8320451837625, 30.25586288218068
544.6903548217109, 30.278920552815947
547.5486644596593, 30.30197822345123
550.4073107059382, 30.278696147262323
553.2654520397214, 30.324923691309692
556.1222469401828, 30.556510222653813
558.9813980989572, 30.463718526228618
561.8388662160796, 30.602625563924363
564.6968392456976, 30.672022981383833
567.5556537961417, 30.625571031782826
570.4134585215944, 30.718138322654383
573.2707583345516, 30.880215233762215
576.1292362766652, 30.880103030985396
578.9875459146135, 30.903160701620692
581.8470336817186, 30.76402925837131
584.7048384071713, 30.856596549242866
587.5628114367893, 30.925993966702336
590.4217942913986, 30.856372143689242
593.2802722335123, 30.856259940912423
596.139591696452, 30.740298371075156
598.9979013344004, 30.763356041710423
601.8575574056706, 30.601054725048954
604.7175500852712, 30.392413661563324
607.576869548211, 30.276452091726043
610.4361890111506, 30.16049052188876
613.2961816907514, 29.95184945840313
616.1556694578563, 29.81271801515375
619.0158304416221, 29.58090707825602
621.8758231212228, 29.372266014770375
624.7359841049887, 29.14045507787263
627.5953035679283, 29.024493508035363
630.4546230308681, 28.90853193819808
633.3137741896427, 28.815740241772886
636.1737668692433, 28.607099178287257
639.0330863321831, 28.491137608449975
641.8927424034532, 28.328836291788505
644.7529033872191, 28.097025354890775
647.6127277626545, 27.91155416481722
650.4717106172637, 27.841932341804124
653.3315349926992, 27.656461151730582
656.1913593681346, 27.470989961657025
659.0518569602309, 27.192839277935093
661.911513031501, 27.030537961273637
664.7708324944409, 26.914576391436356
667.6309934782067, 26.682765454538625
670.4913227661377, 26.427784644228794
673.3508105332427, 26.288653200979425
676.2111398211738, 26.033672390669594
679.0714691091049, 25.778691580359762
681.931125180375, 25.616390263698293
684.7904446433147, 25.50042869386104
687.6504373229154, 25.29178763037538
690.5095884816899, 25.198995933950187
693.3689079446297, 25.08303436411292
696.2282274075695, 24.96707279427565
699.0875468705092, 24.85111122443837
701.9470346376141, 24.711979781189
704.8061857963886, 24.61918808476382
707.6656735634937, 24.480056641514437
710.5239832014421, 24.503114312149734
713.3826294477209, 24.479832235960814
716.2417806064954, 24.387040539535633
719.1011000694352, 24.271078969698365
721.9594097073835, 24.294136640333633
724.8182242578276, 24.24768469073264
727.6768705041065, 24.224402614543735
730.5353484462202, 24.224290411766916
733.3941629966642, 24.177838462165923
736.2516311137865, 24.316745499861668
739.1106139683959, 24.24712367684856
741.968755302179, 24.293351220895943
744.8268966359623, 24.33957876494331
747.6855428822411, 24.316296688754406
750.5436842160244, 24.362524232801775
753.4008157248162, 24.547771017321693
756.2596302752603, 24.5013190677207
759.1177716090435, 24.54754661176807
761.9764178553223, 24.524264535579164
764.8340542766099, 24.640001699862808
767.692195610393, 24.68622924391019
770.5500003358459, 24.778796534781733
773.4079733654638, 24.848193952241218
776.2669562200731, 24.77857212922811
779.1245926413606, 24.894309293511753
781.9830705834743, 24.89419709073495
784.8417168297532, 24.870915014546043
787.7005313801972, 24.824463064945036
790.5595142348066, 24.754841241931956
793.4179921769202, 24.754729039155137
796.2763018148686, 24.777786709790405
799.1357895819735, 24.63865526654105
801.9944358282524, 24.615373190352145
804.8535869870269, 24.52258149392695
807.712401537471, 24.476129544325957
810.5712160879151, 24.429677594724964
813.4312087675157, 24.221036531239307
816.290864838786, 24.05873521457785
819.151194126717, 23.80375440426802
822.0111868063177, 23.595113340782362
824.8720210067444, 23.27062291023627
827.7310038613537, 23.201001087223176
830.5911648451195, 22.969190150325446
833.450316003894, 22.87639845390025
836.3092988585033, 22.806776630887157
839.1687866256083, 22.667645187637802
842.0274328718871, 22.644363111448882
844.886752334827, 22.5284015416116
847.7460717977667, 22.412439971774347
850.6048863482107, 22.36598802217334
853.4638692028201, 22.296366199160246
856.3223471449337, 22.29625399638344
859.1808250870473, 22.296141793606623
862.0394713333261, 22.272859717417703
864.8979492754398, 22.272747514640898
867.7567638258839, 22.22629556503989
870.615578376328, 22.179843615438898
873.4737197101111, 22.226071159486267
876.3321976522249, 22.225958956709448
879.191012202669, 22.17950700710847
882.0493218406173, 22.202564677743737
884.9071265660701, 22.295131968615294
887.7649312915229, 22.38769925948685
890.623072625306, 22.43392680353422
893.4812139590892, 22.48015434758159
896.3395235970377, 22.50321201821687
899.1968234099947, 22.665288929324703
902.0549647437779, 22.711516473372072
904.9129377733959, 22.780913890831542
907.7700692821878, 22.96616067535146
910.6280423118058, 23.035558092810916
913.4841639956063, 23.359824117803413
916.3409588960678, 23.591410649147505
919.1980904048596, 23.776657433667438
922.054885305321, 24.008243965011545
924.9120168141129, 24.193490749531477
927.7689800187396, 24.401907407463483
930.6256066150358, 24.65666381221969
933.4820649071668, 24.934590090387985
936.3388598076282, 25.166176621732106
939.1963279247506, 25.305083659427837
942.0537960418728, 25.44399069712358
944.910422638169, 25.69874710187979
947.7678907552914, 25.83765413957552
950.6260320890746, 25.88388168362289
953.4838368145273, 25.97644897449446
956.3421464524757, 25.999506645129728
959.1997828737633, 26.11524380941337
962.0572509908856, 26.254150847109116
964.9162338454948, 26.184529024096022
967.7728604417912, 26.43928542885223
970.6308334714091, 26.5086828463117
973.4884698926966, 26.624420010595344
976.3462746181493, 26.716987301466887
979.203237822776, 26.92540395939892
982.061210852394, 26.994801376858376
984.9180057528554, 27.226387908202497
987.7742957408211, 27.52748405978288
990.6322687704392, 27.596881477242334
993.4885587584049, 27.89797762882273
996.3455219630315, 28.10639428675475
999.2036632968149, 28.152621830802104
1002.0592800681197, 28.546397476030876
1004.9154859040028, 28.8590785643173
1007.7720283482164, 29.12541990577955
1010.6286549445126, 29.38017631053576
1013.4844400199828, 29.750782082352416
1016.3398884871224, 30.16772760099326
1019.1961784750881, 30.46882375257367
1022.2906188568417, 30.777633845060024
1024.9069071052024, 31.325884663267445
1027.7629446369203, 31.661735624965985
1030.379653645694, 32.15206175964319
1033.4708962483082, 32.90109944695931
1036.565504934227, 33.186739666033546
1038.9439793971303, 33.68093679651085
1042.0374941059752, 34.11718119276371
1045.1297184828863, 34.731061285175926
1047.7467079986022, 35.18277096416632
1050.6003892720069, 35.84300015363415
1053.692697801001, 36.445295309340324
1056.309855620882, 36.873835114918634
1059.1638735026172, 37.48772455756227
1062.2570235524372, 37.97417034620799
1064.8760327181355, 38.147841544253275
1067.7288724707146, 38.92392010078155
1070.584320937854, 39.3408656194224
1073.2026288361972, 39.61107795668474
1076.2948812638028, 40.22109640352829
1079.150666339273, 40.591702175344956
1082.006283110578, 40.98547782057371
1084.865097661022, 40.93902587097271
1087.9624553149724, 40.846224824316124
1090.582558457745, 40.86929184518281
1093.4412047040237, 40.8460097689939
1096.3006924711287, 40.70687832574453
1099.1606851507295, 40.49823726225889
1102.0218559594866, 40.127407084888596
1104.882521855748, 39.82608652775458
1107.7471428998922, 38.98027394543639
1110.369910858614, 38.63648463727827
1112.2810607560868, 37.879527303965375
1114.6652575606079, 37.58594873843153
1116.5758464441967, 36.90622431649227
1118.9610530737089, 36.473626510485886
1120.8710809434135, 35.87113499992027
1123.2555021534881, 35.546663269836955
1125.167886281506, 34.619793531502054
1127.7908225443928, 34.25283434993183
1130.4153857475435, 33.66189972537806
1132.3254136172482, 33.05940821481245
1134.7093860162156, 32.796722813828055
1136.6200871025812, 32.10155180961408
1139.004957123763, 31.71529375043187
1140.9150971962445, 31.09735565759152
1143.2998550146497, 30.726544180684044
1145.208873059363, 30.26307191059098
1147.5935186749912, 29.90770701595821
1149.5039953558032, 29.243429176293688
1151.88763114644, 29.02708352213348
1153.798220030029, 28.347359100194225
1156.4196135047346, 28.19279042490153
1159.281794138483, 27.682941007058687
1161.9065536964931, 27.064974863524142
1165.005482189319, 26.75592166502136
1168.1051961015828, 26.338742390595485
1170.4879342700053, 26.245969394633093
1172.1594190362034, 25.689826981123076
1175.0187384991432, 25.573865411285794
1177.8783945704133, 25.411564094624325
1180.7387238583444, 25.156583284314507
1183.8402891164255, 24.484535402355604
1186.4622436050154, 24.25273381568927
1189.3234144137725, 23.881903638318988
1191.9437980634868, 23.86635420349883
1195.0430631646434, 23.51096125817186
1197.9038973650702, 23.18647082762577
1200.7652364779924, 22.792470776843373
1203.6255657659235, 22.537489966533542
1206.4858950538546, 22.282509156223725
1209.345046212629, 22.18971745979853
1212.443694198513, 21.91928071698257
1215.064863267665, 21.79560520623933
1217.9221630806223, 21.95768211734716
1220.7813142393968, 21.864890420921995
1223.6414752231626, 21.63307948402425
1226.5007946861024, 21.51711791418697
1229.3580944990597, 21.6791948252948
1232.217245657834, 21.58640312886962
1235.076733424939, 21.447271685620237
1237.9365578003742, 21.261800495546694
1240.795035742488, 21.261688292769875
1243.653681988767, 21.23840621658097
1246.5113184100544, 21.354143380864627
1249.3703012646638, 21.284521557851534
1251.9913581310389, 21.176292629383028
1255.0869205405604, 21.330636899122098
1257.946071699335, 21.237845202696903
1260.8047179456141, 21.214563126507997
1263.665047233545, 20.959582316198166
1266.5241983923195, 20.866790619772985
1269.3820031177722, 20.959357910644542
1271.0233502181181, 24.55216749612653
1272.2414908848773, 20.820226467395173
1273.8758140913947, 25.379992103275157
1273.6466623603073, 24.133462263935982
1275.101483564478, 20.611585403909515
1275.4453289740243, 6.068618842021451
1276.4940322275165, 25.662561706357266
1276.5063184315777, 23.971160947274512
1277.9594565940959, 20.680982821369
1277.3441365660478, 7.01078555892866
1277.3576008992654, 5.15719568596127
1279.3476293488388, 26.334375832531137
1279.354698123778, 25.36124114922326
1279.3656378945175, 23.855199377437245
1280.8162514945573, 20.912569352713106
1282.2100456084186, 25.79208859191135
1282.2246207491266, 23.78557755442415
1283.6743928283406, 20.95879689676046
1285.0685235505323, 25.791976389134533
1285.0830986912404, 23.785465351647332
1286.5321975537931, 21.051364187632032
1287.927169796811, 25.76869431294564
1287.9410717208584, 23.854862769106802
1289.3921060813113, 20.854308060852432
1290.7815411172933, 26.333927021423875
1290.7891148047281, 25.29128271787971
1290.7987081421459, 23.970599933390446
1292.2464605713772, 21.42185775667187
1292.2536976504816, 20.425553199951892
1293.640019059407, 26.333814818647056
1293.6532940504387, 24.50629105326827
1294.871332332164, 20.788445030862604
1295.209623704258, 7.010084291573577
1295.7838775159921, 26.33373066656445
1296.2736426367853, 24.495568675408975
1296.650475662715, 5.4113069247507894
1297.965436105587, 21.143594870173132
1297.3565116358175, 6.592942418073292
1300.8232408310396, 21.23616216104469
1303.6628687066486, 23.83107578042224
1303.681382164823, 21.282389705092072
1306.5213466487623, 23.83096357764542
1306.5407016277627, 21.16642813525479
1309.3995161782066, 21.119976185653783
1312.2586673369813, 21.027184489228603
1315.115630541608, 21.235601147160622
1316.5226533628556, 24.29396833616842
1317.9397744340163, 25.962143120450662
1317.9741084837215, 21.235488944383803
1319.3819728257954, 24.17800676633115
1320.797410855304, 26.07788028473432
1320.8325864258352, 21.235376741607
1322.242133809561, 23.946195829433407
1323.654542364096, 26.26312706925424
1323.6905594554532, 21.304774159066454
1325.1012849683357, 23.853404133008212
1326.5123470895485, 26.355694360125796
1326.550720439219, 21.072963222168724
1327.9501695730316, 25.17397471472067
1327.9602678229448, 23.783782309995132
1329.3706567274971, 26.378752030761078
1329.171609001429, 20.987904167112305
1330.80847921098, 25.197032385355953
1330.8187457650586, 23.783670107218313
1332.2293029737757, 26.355469954572158
1332.2680129317766, 21.026399069790898
1333.9030317955103, 25.490395895567573
1333.6767187946766, 23.85306752467777
1335.1256493530643, 21.142136234074556
1336.2838384732747, 25.663524780191594
1336.534355215964, 23.968804688961427
1338.1933405928253, 25.133411540856116
1337.983454078517, 21.234703524946113
1339.6296932199323, 24.15404212324995
1340.810010330627, 25.6291439793295
1340.8426052372915, 21.141911828520918
1342.2476084085565, 24.478317498473828
1343.7012514835703, 21.118629752332026
1346.558887904858, 21.23436691661567
1349.4177024553019, 21.187914967014663
1352.2760120932505, 21.21097263764996
1355.1356681645207, 21.04867132098849
1357.992463064982, 21.280257852332596
1360.6126223091428, 21.295601582061906
1362.5225379760707, 20.708556653771026
1364.9028076834031, 20.95560846785267
1367.9974724707101, 21.23352539578957
1370.8579700628065, 20.955374712067638
1373.7164480049203, 20.95526250929082
1376.573579513712, 21.14050929381075
1379.4310476308344, 21.279416331506496
1382.2890206604525, 21.348813748965952
1385.1481718192267, 21.25602205254077
1388.0061448488448, 21.32541947000024
1390.8656326159496, 21.18628802675086
1393.723100733072, 21.325195064446618
1396.5805688501944, 21.46410210214235
1399.4407298339602, 21.232291165244604
