302, 0.797803248900081
302.5, 0.8827034145129318
303, 0.9061701483597062
303.5, 0.8982263134712554
304, 0.8977987341850024
304.5, 0.9087641585037005
305, 0.9269642497146009
305.5, 0.9446461929644698
306, 0.960850660471749
306.5, 0.977434159707002
307, 0.9942954966561075
307.5, 1.0110229163850448
308, 1.02769114279414
308.5, 1.0444028291014291
309, 1.0611931680129487
309.5, 1.0778985512840364
310, 1.094333358799389
310.5, 1.1112893588339858
311, 1.1290270037128778
311.5, 1.1439229234484998
312, 1.1576058281466288
312.5, 1.1849577010513457
313, 1.221460515293387
313.5, 1.2375306847836782
314, 1.2328048915885859
314.5, 1.2282751578648288
315, 1.2315638881825777
315.5, 1.2442111341186006
316, 1.2675533086561046
316.5, 1.3004968429890482
317, 1.336904272985862
317.5, 1.3706951547315214
318, 1.3967144122701143
318.5, 1.410724410843784
319, 1.4113049873545407
319.5, 1.4118716225051742
320, 1.4261007111531825
320.5, 1.446339965860389
321, 1.4637558743369397
321.5, 1.4771771133252685
322, 1.4928999592810186
322.5, 1.523150744240212
323, 1.5577362247741178
323.5, 1.576187277431515
324, 1.5930607536992483
324.5, 1.6264613503764025
325, 1.6585095803416294
325.5, 1.675604169090434
326, 1.6874929784481765
326.5, 1.704026407656258
327, 1.7314171293695608
327.5, 1.7669625923642087
328, 1.8027140105043031
328.5, 1.8339480468599163
329, 1.8561650470390134
329.5, 1.86160621438043
330, 1.8569937487310852
330.5, 1.8756598721369784
331, 1.9135968363091536
331.5, 1.9275963473705957
332, 1.9224398096292816
332.5, 1.9299231053601176
333, 1.9548089686819736
333.5, 1.989591754801367
334, 2.019421293995279
334.5, 2.0364321483924783
335, 2.047808465605357
335.5, 2.064287307616013
336, 2.096385679114988
336.5, 2.13002324204038
337, 2.144610504436855
337.5, 2.1660552982067003
338, 2.2171551935953886
338.5, 2.263492563927869
339, 2.2811077933418744
339.5, 2.2819979926358513
340, 2.2811522653348675
340.5, 2.2915554122284334
341, 2.310904514537725
341.5, 2.3293931520464497
342, 2.3442288648754896
342.5, 2.3580563283796465
343, 2.382237705230807
343.5, 2.4174894509886116
344, 2.4460817719349564
344.5, 2.478231700788996
345, 2.545236135714603
345.5, 2.6103701776542465
346, 2.618550317946685
346.5, 2.6144862942209244
347, 2.64597789380673
347.5, 2.684052207512025
348, 2.7022488708341825
348.5, 2.6993924962129654
349, 2.698048791737449
349.5, 2.7344365084648956
350, 2.790420516971551
350.5, 2.828495482010865
351, 2.8579762822435555
351.5, 2.8927547635126274
352, 2.922254172014661
352.5, 2.939138246689609
353, 2.946607788318971
353.5, 2.9453526865725905
354, 2.9358751836134473
354.5, 2.9423035049748165
355, 2.988242808226005
355.5, 3.0403883260806737
356, 3.071767357011751
356.5, 3.110809665184064
357, 3.164627983480031
357.5, 3.19962821679394
358, 3.211783186918481
358.5, 3.222988400072083
359, 3.243141879477662
359.5, 3.2741530273592474
360, 3.3103453696204923
360.5, 3.34505331133154
361, 3.3740652426484985
361.5, 3.3918028491674477
362, 3.3917978268794116
362.5, 3.3909093495857547
363, 3.418358057926156
363.5, 3.453822476727069
364, 3.468151160483231
364.5, 3.491329197734501
365, 3.543555099381109
365.5, 3.5890077667138627
366, 3.6187583926976146
366.5, 3.6660739896248202
367, 3.7179851436683435
367.5, 3.7318409624907503
368, 3.724350005549269
368.5, 3.7318764212876943
369, 3.7629509680691626
369.5, 3.813148980318374
370, 3.8651702419313096
370.5, 3.9140708720388773
371, 3.9706435651358305
371.5, 4.0194812398856925
372, 4.0317402495879975
372.5, 4.024619955537432
373, 4.030639347331871
373.5, 4.065822277389458
374, 4.12213146335985
374.5, 4.151012242874913
375, 4.14571255748028
375.5, 4.152374213227191
376, 4.172521069867869
376.5, 4.181698523985517
377, 4.206812820435104
377.5, 4.27453948541563
378, 4.3360858310296635
378.5, 4.3649873313087255
379, 4.410829103632096
379.5, 4.482684723469475
380, 4.53567131438696
380.5, 4.56242253304427
381, 4.580931043992564
381.5, 4.596151361094115
382, 4.61012401575104
382.5, 4.632689628819207
383, 4.66683591361857
383.5, 4.6999161709310755
384, 4.732152523847134
384.5, 4.777998644722487
385, 4.829649601266198
385.5, 4.868233983597335
386, 4.89784374150571
386.5, 4.929237066175631
387, 4.966947761906425
387.5, 5.0044370722306155
388, 5.019083562559956
388.5, 5.031470974497864
389, 5.100882730066488
389.5, 5.1892117484453735
390, 5.217879593674056
390.5, 5.228485143971199
391, 5.27652702167525
391.5, 5.329368532528491
392, 5.362053299773336
392.5, 5.391838096661772
393, 5.426139245273362
393.5, 5.458929016089215
394, 5.492743781621627
394.5, 5.535372114958378
395, 5.593517746810676
395.5, 5.664623712596153
396, 5.720400300387865
396.5, 5.751572451605043
397, 5.787415897613556
397.5, 5.839929598882989
398, 5.899547652517668
398.5, 5.9447511759002225
399, 5.958848440860422
399.5, 5.982250398737364
400, 6.047897126587145
400.5, 6.1169532105907365
401, 6.165695118757853
401.5, 6.213478018723464
402, 6.264665396504341
402.5, 6.308936130021678
403, 6.362777998198823
403.5, 6.44653809283048
404, 6.526552593916875
404.5, 6.575793436990523
405, 6.628620329663633
405.5, 6.6988284836775875
406, 6.754541964955749
406.5, 6.7837200859312645
407, 6.796845926458019
407.5, 6.816344141506775
408, 6.862152755494236
408.5, 6.915591526758263
409, 6.953872110309916
409.5, 6.972708212938159
410, 6.9855223786717175
410.5, 7.025711393781634
411, 7.098490599766009
411.5, 7.18399410705635
412, 7.265960757273319
412.5, 7.334730975714535
413, 7.40012699883313
413.5, 7.46918378002816
414, 7.52928221415948
414.5, 7.577937725367178
415, 7.629753001887465
415.5, 7.6801825842172065
416, 7.71265136401685
416.5, 7.748191661941888
417, 7.813140024899155
417.5, 7.879884951347961
418, 7.927684665244826
418.5, 7.984297532178758
419, 8.054688139733301
419.5, 8.107083034340306
420, 8.155465403053327
420.5, 8.2433020175053
421, 8.349628058854421
421.5, 8.431312985130106
422, 8.475730174388431
422.5, 8.499520371176516
423, 8.565489323505005
423.5, 8.674425139739782
424, 8.74465568505326
424.5, 8.76729240665611
425, 8.788950405428736
425.5, 8.831174181757333
426, 8.897109764821522
426.5, 8.963640506410727
427, 9.02358686415306
427.5, 9.115677658301621
428, 9.238510198494723
428.5, 9.338236309792038
429, 9.416516826115327
429.5, 9.510904803650462
430, 9.614338991134787
430.5, 9.705008177356632
431, 9.776289528159879
431.5, 9.837901235737746
432, 9.924347220763778
432.5, 10.029935318488668
433, 10.102427885260994
433.5, 10.145120019655295
434, 10.197883942889078
434.5, 10.276403052866812
435, 10.378377304247607
435.5, 10.473526113885626
436, 10.542034105835825
436.5, 10.596540200611031
437, 10.66165610277875
437.5, 10.7668550145533
438, 10.887967328791376
438.5, 10.973689995947325
439, 11.025645619744381
439.5, 11.068364404204857
440, 11.134960674587134
440.5, 11.236431829771263
441, 11.33987619373653
441.5, 11.422279502055517
442, 11.47852731751776
442.5, 11.526583716608712
443, 11.591588177571708
443.5, 11.658355470420275
444, 11.708519935822906
444.5, 11.759746848595526
445, 11.82586188204229
445.5, 11.901464431665673
446, 11.985448536877598
446.5, 12.082100476187449
447, 12.18371554136722
447.5, 12.27612826812637
448, 12.350670141143453
448.5, 12.411311616873022
449, 12.493921985813557
449.5, 12.612511776916264
450, 12.734132726316318
450.5, 12.832648970998605
451, 12.896060909137105
451.5, 12.940892659006892
452, 12.996648883007808
452.5, 13.075498188772869
453, 13.176087192256276
453.5, 13.27495749834273
454, 13.358483492846545
454.5, 13.435620151200325
455, 13.519385850136928
455.5, 13.621270493082648
456, 13.719934539066188
456.5, 13.787722480855365
457, 13.856962721455119
457.5, 13.956969019333798
458, 14.057540175918135
458.5, 14.14015054554153
459, 14.219793206853382
459.5, 14.304131996554446
460, 14.388815125481727
460.5, 14.445390552732945
461, 14.457345671537709
461.5, 14.52536319256069
462, 14.704047027176259
462.5, 14.838220951925464
463, 14.862050531798474
463.5, 14.889545747497976
464, 14.965019006098629
464.5, 15.060559801519517
465, 15.163314358661736
465.5, 15.263303146031348
466, 15.323072120592812
466.5, 15.332779599180242
467, 15.370004122275802
467.5, 15.472698468417576
468, 15.602837712503685
468.5, 15.718296745978122
469, 15.785400158010447
469.5, 15.827352731842666
470, 15.88590996527526
470.5, 15.963431358131032
471, 16.04906043444187
471.5, 16.126297740216287
472, 16.191674941493872
472.5, 16.259575274817323
473, 16.326714776014597
473.5, 16.380827004265186
474, 16.45820066648342
474.5, 16.593252881108086
475, 16.718856015406914
475.5, 16.786156643279895
476, 16.846841309226335
476.5, 16.932000711724044
477, 17.026893118441194
477.5, 17.10809658808202
478, 17.1586984425865
478.5, 17.24101143764861
479, 17.41134587079854
479.5, 17.564200291877214
480, 17.628705947348735
480.5, 17.693771218593653
481, 17.785287668330454
481.5, 17.829575826535248
482, 17.837406630098243
482.5, 17.875467651118228
483, 17.93219379637597
483.5, 17.977430906316215
484, 18.038184598198654
484.5, 18.126383158672454
485, 18.19607439916976
485.5, 18.24113955707257
486, 18.30851954208265
486.5, 18.39743381076842
487, 18.474922181463754
487.5, 18.53371868452672
488, 18.586859835095993
488.5, 18.681154827816755
489, 18.82362964985336
489.5, 18.929413511607862
490, 18.97227404228029
490.5, 19.00473626720428
491, 19.06088691763196
491.5, 19.150227668542854
492, 19.22513292409512
492.5, 19.250117536121294
493, 19.305186194704504
493.5, 19.42840116173477
494, 19.53381833792656
494.5, 19.59396067989924
495, 19.657401798201377
495.5, 19.725502162620856
496, 19.774377323233338
496.5, 19.828133631125183
497, 19.911524997845618
497.5, 19.99351326321802
498, 20.05749831839354
498.5, 20.13246771574714
499, 20.219155917778806
499.5, 20.285804978717437
500, 20.32955172633949
500.5, 20.368412337264402
501, 20.431219855366564
501.5, 20.532142690799617
502, 20.629041301569472
502.5, 20.706680267419316
503, 20.812875930707236
503.5, 20.935866114363478
504, 21.004219653125944
504.5, 21.023443957458653
505, 21.04284927469638
505.5, 21.091838985919253
506, 21.17661768642577
506.5, 21.255935681358892
507, 21.317090493298736
507.5, 21.40732045096985
508, 21.530221171345943
508.5, 21.64434078132595
509, 21.73835736506308
509.5, 21.820631300580033
510, 21.90678636657759
510.5, 21.999432903329193
511, 22.058807326910483
511.5, 22.072802441556902
512, 22.08434352840561
512.5, 22.12076950349146
513, 22.186638596105936
513.5, 22.252827097557386
514, 22.28639469843526
514.5, 22.32351052050251
515, 22.393523475583294
515.5, 22.451378657985913
516, 22.48047571163326
516.5, 22.52474559065891
517, 22.596407793226604
517.5, 22.67435264776499
518, 22.734555458582335
518.5, 22.764125153920816
519, 22.80629515610397
519.5, 22.883000033921192
520, 22.92106100036858
520.5, 22.897930942978206
521, 22.883552192612285
521.5, 22.888159589299903
522, 22.87179579657706
522.5, 22.85669223331361
523, 22.88231494937736
523.5, 22.92297453373118
524, 22.953699766084156
524.5, 22.995108689320844
525, 23.048838675137134
525.5, 23.082315000791567
526, 23.094575478048142
526.5, 23.10968064752899
527, 23.12690609329796
527.5, 23.139124944582363
528, 23.16372275145781
528.5, 23.21244403787705
529, 23.268539794549852
529.5, 23.305572556508935
530, 23.29295959900557
530.5, 23.25306147437368
531, 23.2414528849217
531.5, 23.247308683152156
532, 23.247544632290754
532.5, 23.293395947533938
533, 23.402423588150384
533.5, 23.477332230288
534, 23.48644773700211
534.5, 23.498021337372933
535, 23.517079578892734
535.5, 23.504896857505685
536, 23.48756645874198
536.5, 23.49159054213017
537, 23.43498458561973
537.5, 23.288994164958225
538, 23.190681055081853
538.5, 23.18474793603724
539, 23.182354393675894
539.5, 23.182084562505892
540, 23.237913481447166
540.5, 23.30894400369411
541, 23.341380500800284
541.5, 23.380533868257302
542, 23.443472897080568
542.5, 23.44633307271957
543, 23.385184247628402
543.5, 23.358973018060553
544, 23.38975873770272
544.5, 23.43980905322931
545, 23.45679254751292
545.5, 23.409504395662452
546, 23.358579080297446
546.5, 23.333902905566475
547, 23.26942779502366
547.5, 23.176155590952575
548, 23.15478520790137
548.5, 23.18483428464947
549, 23.182468598518284
549.5, 23.18965590036497
550, 23.258670003070364
550.5, 23.316320184815893
551, 23.325675223445472
551.5, 23.36252923959117
552, 23.421362520501475
552.5, 23.405898564345677
553, 23.343183316410006
553.5, 23.320850647146955
554, 23.30449980890448
554.5, 23.24873372917584
555, 23.21407311152089
555.5, 23.23337631572933
556, 23.254205269669384
556.5, 23.251251337507412
557, 23.236363646967945
557.5, 23.219013767809372
558, 23.204090594028855
558.5, 23.18496929311462
559, 23.16110560771736
559.5, 23.161951566835
560, 23.19714891298503
560.5, 23.234139756484822
561, 23.265782625632923
561.5, 23.3116373963594
562, 23.36328007282998
562.5, 23.40053651061021
563, 23.4310993347777
563.5, 23.46554017366185
564, 23.49630505217131
564.5, 23.526218226924158
565, 23.57823111683078
565.5, 23.63142325396923
566, 23.63034954699208
566.5, 23.60795866514721
567, 23.629774615746413
567.5, 23.67267483546594
568, 23.704227196147997
568.5, 23.74298597914776
569, 23.795651147260912
569.5, 23.83805271368594
570, 23.869019129934344
570.5, 23.907192999223398
571, 23.93730868205141
571.5, 23.937238513977974
572, 23.94072291666214
572.5, 23.97491762421673
573, 24.006064059610694
573.5, 24.007579927709557
574, 23.97952055855309
574.5, 23.94368762185435
575, 23.93601134284698
575.5, 23.96604616332904
576, 24.026951360202048
576.5, 24.09981258161892
577, 24.168173695039556
577.5, 24.229934682961314
578, 24.2687705461244
578.5, 24.249144696597355
579, 24.20963179627725
579.5, 24.237474393472723
580, 24.297360049045736
580.5, 24.317795280445665
581, 24.333814257714522
581.5, 24.37441555392735
582, 24.38577763356291
582.5, 24.348349875143185
583, 24.304720804069802
583.5, 24.273829682830367
584, 24.25217997073318
584.5, 24.23858221465602
585, 24.233796828443957
585.5, 24.24092514751419
586, 24.25844312141085
586.5, 24.27298021757015
587, 24.27353159634582
587.5, 24.255883029897305
588, 24.238700512082644
588.5, 24.250839137011468
589, 24.268533738601647
589.5, 24.25735790118887
590, 24.23397733145279
590.5, 24.207999900482207
591, 24.147278285338572
591.5, 24.057700818599827
592, 23.995287923165563
592.5, 23.949517727965386
593, 23.869775667070044
593.5, 23.786600660089704
594, 23.7516500042602
594.5, 23.76406234498819
595, 23.791982078845308
595.5, 23.7669035964597
596, 23.69066445388654
596.5, 23.647702573278465
597, 23.61812821456789
597.5, 23.524729085545715
598, 23.42501150182339
598.5, 23.397235574886906
599, 23.395732870413056
599.5, 23.37791333269864
600, 23.362315467245708
600.5, 23.36310182319042
601, 23.37836068419432
601.5, 23.373403633772114
602, 23.305006441082938
602.5, 23.21292540007667
603, 23.14030057749366
603.5, 23.0318621818235
604, 22.861217094329874
604.5, 22.69547643547088
605, 22.565638103974194
605.5, 22.451130718700853
606, 22.333096522158257
606.5, 22.203389241274408
607, 22.100865012677062
607.5, 22.052987260863603
608, 21.994191118607716
608.5, 21.889959026699287
609, 21.794764130729362
609.5, 21.71588019170308
610, 21.606400034477417
610.5, 21.486921830584265
611, 21.408843458476497
611.5, 21.349492559351518
612, 21.271752411610436
612.5, 21.175698577202226
613, 21.07307665743579
613.5, 20.982547396975065
614, 20.901268065454985
614.5, 20.804751996181423
615, 20.67890419862701
615.5, 20.524017071346037
616, 20.381553484673773
616.5, 20.281419910329348
617, 20.17886512762898
617.5, 20.04489336892547
618, 19.899757402812142
618.5, 19.766420269633088
619, 19.663711903929567
619.5, 19.588598088367178
620, 19.524966843973232
620.5, 19.453292988210933
621, 19.366101511974875
621.5, 19.29245781926059
622, 19.244093267188703
622.5, 19.195929691106443
623, 19.14446647448507
623.5, 19.106830171601217
624, 19.074944342549244
624.5, 19.030436900367633
625, 18.974326957908488
625.5, 18.91810775746505
626, 18.884850651967668
626.5, 18.87253005776786
627, 18.83906237517813
627.5, 18.76622117051994
628, 18.663244234281976
628.5, 18.565828334491528
629, 18.509169847312307
629.5, 18.463656804909093
630, 18.398252295682028
630.5, 18.326544715476246
631, 18.247339943576918
631.5, 18.130100116789365
632, 17.991127751179775
632.5, 17.883470353698215
633, 17.813005825376038
633.5, 17.75693768799151
634, 17.672759195896788
634.5, 17.531432345428755
635, 17.350681564329392
635.5, 17.175351213812405
636, 17.072841949259598
636.5, 17.016745716683488
637, 16.91351347846502
637.5, 16.762858226199867
638, 16.610778746085174
638.5, 16.505823143057683
639, 16.459901408050314
639.5, 16.399418587194262
640, 16.307985708203788
640.5, 16.257955967971895
641, 16.250702056106377
641.5, 16.229404614295518
642, 16.159359875986453
642.5, 16.036250044924827
643, 15.93447159735193
643.5, 15.891683755606905
644, 15.82129831811423
644.5, 15.71059751779579
645, 15.65654393068965
645.5, 15.65143571530119
646, 15.612467938360439
646.5, 15.526958014850067
647, 15.419146145016754
647.5, 15.333893163112563
648, 15.278535029767724
648.5, 15.17181181401287
649, 14.996344374542772
649.5, 14.825493069600995
650, 14.702512241403625
650.5, 14.637888818463892
651, 14.595745986980432
651.5, 14.534203618621618
652, 14.45935463264965
652.5, 14.388479333409208
653, 14.339040590098563
653.5, 14.323170462243596
654, 14.342003379786746
654.5, 14.336533055264411
655, 14.231349344759778
655.5, 14.11309885934611
656, 14.079261275734368
656.5, 14.039050821805333
657, 13.923341254516217
657.5, 13.785018261842339
658, 13.668102661757217
658.5, 13.587786308290333
659, 13.525557640950808
659.5, 13.45112527673497
660, 13.39366835075954
660.5, 13.386166952997243
661, 13.398613273358166
661.5, 13.400872618200268
662, 13.387572562966142
662.5, 13.36892281961579
663, 13.363067508810886
663.5, 13.318735347781228
664, 13.166779552311567
664.5, 12.994501340067927
665, 12.906588103457395
665.5, 12.88180295996112
666, 12.861038653927352
666.5, 12.766229245294355
667, 12.620393834433543
667.5, 12.542430602555712
668, 12.52634334682736
668.5, 12.496072302305905
669, 12.426184457297964
669.5, 12.322622990111242
670, 12.231765499998346
670.5, 12.180647107284315
671, 12.149501033397343
671.5, 12.100042707382897
672, 11.989500237932958
672.5, 11.871430231973477
673, 11.82845801375727
673.5, 11.797693970663218
674, 11.712624279117094
674.5, 11.634946724525875
675, 11.60316483402336
675.5, 11.580979291489129
676, 11.546004783363259
676.5, 11.497200678326934
677, 11.446839617495584
677.5, 11.409859901664916
678, 11.379439683367991
678.5, 11.353534381856818
679, 11.361769384281374
679.5, 11.413251390537184
680, 11.47676738682901
680.5, 11.52556889129825
681, 11.54276354418576
681.5, 11.534473019267551
682, 11.517500596205082
682.5, 11.501607902534289
683, 11.495807402115489
683.5, 11.512276226465744
684, 11.535767250282063
684.5, 11.51271826756016
685, 11.454871183880954
685.5, 11.42567054002474
686, 11.41429242304811
686.5, 11.378458649678095
687, 11.310496635273239
687.5, 11.222671650135737
688, 11.151833740533561
688.5, 11.118232717325824
689, 11.11226912621423
689.5, 11.114247413744025
690, 11.099359364560726
690.5, 11.054757896106665
691, 10.982837216675492
691.5, 10.926385666822043
692, 10.910593335792242
692.5, 10.89319143307354
693, 10.869830459525744
693.5, 10.897125166189156
694, 10.95477214117571
694.5, 10.966551925418855
695, 10.933371559084065
695.5, 10.886682939590301
696, 10.831469978645586
696.5, 10.775191467846128
697, 10.746482176540468
697.5, 10.76316172124541
698, 10.822884267619116
698.5, 10.89259864656809
699, 10.92211910321484
699.5, 10.90264700798106
700, 10.85043747901426
700.5, 10.806548542955582
701, 10.800918848945727
701.5, 10.825609439647039
702, 10.861557598650677
702.5, 10.882908674762461
703, 10.87700714190062
703.5, 10.844869594224548
704, 10.81227623504634
704.5, 10.800259328895748
705, 10.77278404355846
705.5, 10.715828647558183
706, 10.688126386695942
706.5, 10.7096379896482
707, 10.742723749994113
707.5, 10.754603978039825
708, 10.72635615327924
708.5, 10.691828058173371
709, 10.68874047820421
709.5, 10.691895817544221
710, 10.686654838062196
710.5, 10.706292234532484
711, 10.745057554975432
711.5, 10.748544578483248
712, 10.702770748762802
712.5, 10.627611112756682
713, 10.570831373922886
713.5, 10.561119361193107
714, 10.526158701733436
714.5, 10.434730188499913
715, 10.37286644323487
715.5, 10.363873480440404
716, 10.349730754560056
716.5, 10.309248839018991
717, 10.251944871592173
717.5, 10.210494900015831
718, 10.208203867247562
718.5, 10.210605376875932
719, 10.193529241020201
719.5, 10.172732572734404
720, 10.156685726979816
720.5, 10.141598744403325
721, 10.124215558293912
721.5, 10.103952411752033
722, 10.091454472516745
722.5, 10.092937988873388
723, 10.088705664395917
723.5, 10.070324600090288
724, 10.056737246639784
724.5, 10.041837219904991
725, 9.996259131338661
725.5, 9.944948496924596
726, 9.933800569668392
726.5, 9.942178840959528
727, 9.941162639462362
727.5, 9.94424811314471
728, 9.96116141019904
728.5, 9.98230033015787
729, 9.998771400305657
729.5, 10.004904274951429
730, 10.002211919805063
730.5, 9.993484434036276
731, 9.967197927024273
731.5, 9.91742407166521
732, 9.86695655300295
732.5, 9.832521480085617
733, 9.812658016239439
733.5, 9.797174518353785
734, 9.772865155633554
734.5, 9.760824629863407
735, 9.78889386601422
735.5, 9.825037577073104
736, 9.832532076723638
736.5, 9.811926831094993
737, 9.776446729065299
737.5, 9.748382943234489
738, 9.73398604747473
738.5, 9.72378368666135
739, 9.703119005072281
739.5, 9.66395102226555
740, 9.64064286096982
740.5, 9.65665567723076
741, 9.675844178587113
741.5, 9.675312914438877
742, 9.665053930906808
742.5, 9.64739503238171
743, 9.61729019587544
743.5, 9.582451584165781
744, 9.556762635510268
744.4999999999999, 9.5524637264202
744.9999999999999, 9.57028414140359
745.5, 9.584234682214998
746, 9.58291578793461
746.5, 9.580508397675786
747, 9.58122993422225
747.4999999999999, 9.580426501237
747.9999999999999, 9.581174422885567
748.5, 9.5810320654616
749, 9.53787224182652
749.5, 9.443581137655144
750, 9.39280138880926
750.4999999999999, 9.416643188259755
750.9999999999999, 9.443122317401745
751.5, 9.436661394859655
752, 9.39807115966886
752.5, 9.341246655488163
753, 9.279815387515924
753.4999999999999, 9.203850030383137
753.9999999999999, 9.105668839173532
754.5, 8.996155822008745
755, 8.893599407447084
755.5, 8.820948423076217
756, 8.777061900998632
756.4999999999999, 8.746145868242166
756.9999999999999, 8.740440547408156
757.5, 8.77214241303858
758, 8.805236706948193
758.5, 8.809224508212225
759, 8.790689779144643
759.4999999999999, 8.771050903607119
759.9999999999999, 8.781815013275974
760.5, 8.822113912800532
761, 8.86693639074376
761.5, 8.890587517215266
762, 8.878371288269221
762.4999999999999, 8.85615833815821
762.9999999999999, 8.841685942469738
763.5, 8.817956780986393
764, 8.797158921420206
764.5, 8.82592008969037
765, 8.883278199571166
765.4999999999999, 8.910704711147304
765.9999999999999, 8.921156678068726
766.5, 8.941919871843766
767, 8.949229720980426
767.5, 8.920713177751566
768, 8.859284715996367
768.4999999999999, 8.788787301965073
768.9999999999999, 8.750015916839672
769.5, 8.740953174471557
770, 8.735683151858794
770.5, 8.74127387743178
771, 8.764173531414713
771.4999999999999, 8.766388254533311
771.9999999999999, 8.731022996701327
772.5, 8.69659589604052
773, 8.66631190526519
773.5, 8.602186729756909
774, 8.511481967788853
774.4999999999999, 8.429405020512618
774.9999999999999, 8.377274364981076
775.5, 8.359459610486894
776, 8.343239774605252
776.5, 8.309041344018624
777, 8.273459415811772
777.4999999999999, 8.241053908227087
777.9999999999999, 8.200446166644298
778.5, 8.146402430881238
779, 8.079976650872482
779.5, 8.013727571154192
780, 7.966674909457751
780.4999999999999, 7.964723992878234
780.9999999999999, 7.981108314421746
781.5, 7.902667199226812
782, 7.752742095119231
782.5, 7.684197799733923
783, 7.688664496190853
783.4999999999999, 7.6776440220102415
783.9999999999999, 7.657529585536494
784.5, 7.661728636660754
785, 7.708825185115927
785.5, 7.748812561967512
786, 7.6329010264007735
786.4999999999999, 7.408222120378866
786.9999999999999, 7.296125223772407
787.5, 7.2973992154731775
788, 7.299211428740691
788.5, 7.260982241058002
789, 7.179590637000814
789.4999999999999, 7.090944204026584
789.9999999999999, 7.022371360296987
790.5, 6.976728462269904
791, 6.945892375903711
791.5, 6.914869214981664
792, 6.88026987614262
792.4999999999999, 6.845272922654459
792.9999999999999, 6.8139447522402605
793.5, 6.776864781271115
794, 6.689491635833036
794.5, 6.5618894864924755
794.9999999999999, 6.488453683073757
795.4999999999999, 6.447672003413729
795.9999999999999, 6.326891504086959
796.5, 6.163788007710707
797, 6.050017241051023
797.4999999999999, 5.962813424213181
797.9999999999999, 5.871909625498489
798.4999999999999, 5.81060797286932
798.9999999999999, 5.794990336674317
799.5, 5.801841338505241
800, 5.801429773917064
800.4999999999999, 5.766023919529616
800.9999999999999, 5.708399563968314
801.4999999999999, 5.655432970647993
801.9999999999999, 5.608648020345967
802.5, 5.552789721725759
803, 5.450381770486487
803.4999999999999, 5.322368077083823
803.9999999999999, 5.267244255986796
804.4999999999999, 5.262622898072138
805, 5.200612323780547
805.5, 5.107038806873248
806, 5.049945260571661
806.4999999999999, 5.006589822078723
806.9999999999999, 4.9440664139980015
807.4999999999999, 4.860282827694064
808, 4.7458756949337015
808.5, 4.580596074317796
809, 4.410945294260657
809.4999999999999, 4.3192620716613135
809.9999999999999, 4.264802647187935
810.4999999999999, 4.173718234727701
811, 4.061901420969278
811.5, 3.967276120909929
812, 3.92532693882481
812.4999999999999, 3.90310273676657
812.9999999999999, 3.7917025515375684
813.4999999999999, 3.6281892179847546
814, 3.5384343905677014
814.5, 3.482640578506974
815, 3.3771068212135162
815.4999999999999, 3.244354115340144
815.9999999999999, 3.122174969776623
816.4999999999999, 3.026933761444255
817, 2.9472993122153497
817.5, 2.846056443361732
818, 2.7454012713510565
818.4999999999999, 2.69524000060143
818.9999999999999, 2.63994376933789
819.4999999999999, 2.519608154921883
820, 2.4150884317559047
820.5, 2.3816873138527797
821, 2.3613098717631544
821.4999999999999, 2.3253168558978814
821.9999999999999, 2.291698700378106
822.4999999999999, 2.2363173133434486
823, 2.120576712892287
823.5, 2.008293359382961
823.9999999999999, 1.9675323599678478
824.4999999999999, 1.9434361268660325
824.9999999999999, 1.8921030870458395
825.4999999999999, 1.8401321697498076
826, 1.7922983798158185
826.5, 1.7226146163141607
826.9999999999999, 1.6340767514686547
827.4999999999999, 1.5504643171536259
827.9999999999999, 1.4999828785839924
828.4999999999999, 1.4837519292140229
829, 1.4103974028036816
829.5, 1.2611201512207657
829.9999999999999, 1.1798787543249745
830.4999999999999, 1.1947606814221814
830.9999999999999, 1.1992545681508062
831.4999999999999, 1.17441096020697
832, 1.1544812740071535
832.5, 1.140048400788487
832.9999999999999, 1.1165106629706258
833.4999999999999, 1.060581470629728
833.9999999999999, 0.97314104535252
834.4999999999999, 0.899049002310278
835, 0.8527895685230789
835.5, 0.8148444198768487
835.9999999999999, 0.7833972067697772
836.4999999999999, 0.7650118204995522
836.9999999999999, 0.7488935973797481
837.4999999999999, 0.727769529636106
838, 0.7222239733567335
838.5, 0.7400902221214807
838.9999999999999, 0.7599060857439639
839.4999999999999, 0.77553056921235
839.9999999999999, 0.7964744536887736
840.4999999999999, 0.810824481987126
841, 0.8080959233618046
841.5, 0.8511152095186674
841.9999999999999, 0.9751663291981458
842.4999999999999, 1.0714236027560986
842.9999999999999, 1.0843985544749444
843.4999999999999, 1.0831555804970208
844, 1.1030519324832255
844.5, 1.1364508382072103
844.9999999999999, 1.1694892534576695
845.4999999999999, 1.1896313555796354
845.9999999999999, 1.2032873361125667
846.4999999999999, 1.2193780721290324
847, 1.2377701487955193
847.5, 1.2552611826386624
847.9999999999999, 1.2662379863973712
848.4999999999999, 1.2646721043130498
848.9999999999999, 1.246865385813308
849.4999999999999, 1.2316034131238638
850, 1.2418589761359584
850.5, 1.264801247447025
850.9999999999999, 1.2831009257234172
851.4999999999999, 1.2949680931608043
851.9999999999999, 1.2966720280067534
852.4999999999999, 1.2785918248622465
853, 1.241880718234782
853.5, 1.2009401311588874
853.9999999999999, 1.199878991729605
854.4999999999999, 1.2751882853320637
854.9999999999999, 1.3632073090186196
855.4999999999999, 1.4036363401823593
856, 1.4137023659513375
856.5, 1.4261802271424102
856.9999999999999, 1.4762334400889756
857.4999999999999, 1.548406722950432
857.9999999999999, 1.595205917450187
858.4999999999999, 1.6501120977502808
859, 1.7575807220959945
859.5, 1.8406134330518853
859.9999999999999, 1.8427099292162836
860.4999999999999, 1.831017739369429
860.9999999999999, 1.848956694618039
861.4999999999999, 1.8836115875123767
862, 1.9171312465719836
862.5, 1.9322978009591623
862.9999999999999, 1.922385857974703
863.4999999999999, 1.9002709361070345
863.9999999999999, 1.9386410251498063
864.4999999999999, 2.0630606298220613
865, 2.161227036013912
865.5, 2.187732206895433
865.9999999999999, 2.2057090167653683
866.4999999999999, 2.2434235562121927
866.9999999999999, 2.2953110395345817
867.4999999999999, 2.343161275805187
868, 2.373847766766204
868.5, 2.4139329794195703
868.9999999999999, 2.4806896473416202
869.4999999999999, 2.5513120761198564
869.9999999999999, 2.6167181678905393
870.4999999999999, 2.6918258498717478
871, 2.7990626697062737
871.5, 2.9541268357445176
871.9999999999999, 3.096507047441719
872.4999999999999, 3.167556927924423
872.9999999999999, 3.2331155568927556
873.4999999999999, 3.338030697481045
874, 3.4263436422245945
874.5, 3.4727154186078195
874.9999999999999, 3.5039290435767185
875.4999999999999, 3.5598278066532885
875.9999999999999, 3.6765468583844694
876.4999999999999, 3.820422344764822
877, 3.9440260453413885
877.5, 4.049969661812085
877.9999999999999, 4.159708563554474
878.4999999999999, 4.308378346034544
878.9999999999999, 4.482124134558987
879.4999999999999, 4.614672665805628
880, 4.703796780428888
880.5, 4.79354207810232
880.9999999999999, 4.93679189275754
881.4999999999999, 5.150067487674278
881.9999999999999, 5.318704328828346
882.4999999999999, 5.393226434099375
883, 5.493802095028826
883.5, 5.6384126452710035
883.9999999999999, 5.721543737051022
884.4999999999999, 5.73661572835843
884.9999999999999, 5.744395557225971
885.4999999999999, 5.804490606143105
886, 5.946949052777342
886.5, 6.110418853115718
886.9999999999999, 6.246162640174106
887.4999999999999, 6.361781456166554
887.9999999999999, 6.493428178948307
888.4999999999999, 6.692383145529789
889, 6.9160755723837894
889.5, 7.086897256993694
889.9999999999999, 7.256599216995113
890.4999999999999, 7.492946553347579
890.9999999999999, 7.774457595674079
891.4999999999999, 8.052357835152634
892, 8.26401767966037
892.5, 8.43769201028121
892.9999999999999, 8.680423153088384
893.4999999999999, 8.95687689913828
893.9999999999999, 9.167445007577072
894.4999999999999, 9.327415069379143
895, 9.485527611978767
895.5, 9.675326715048442
895.9999999999999, 9.885710939902182
896.4999999999999, 10.040686107488924
896.9999999999999, 10.147674278306141
897.4999999999999, 10.293144710048495
898, 10.494716242706076
898.5, 10.723857860593299
898.9999999999999, 10.923899753567241
899.4999999999999, 11.068174243688006
899.9999999999999, 11.23630734279378
900.4999999999999, 11.459822649556259
901, 11.668662516408034
901.5, 11.846600848234345
901.9999999999999, 12.034663834195513
902.4999999999999, 12.267623097851867
902.9999999999999, 12.553207953015786
903.4999999999999, 12.79049739425706
904, 12.903460654337607
904.5, 12.968432530470494
904.9999999999999, 13.086856371251798
905.4999999999999, 13.352359228771746
905.9999999999999, 13.706385807997464
906.4999999999999, 13.972272656105986
907, 14.112516473531016
907.4999999999999, 14.183344714404399
907.9999999999999, 14.33212798733301
908.4999999999999, 14.635929561180419
908.9999999999999, 14.930710720319823
909.4999999999999, 15.113568562164915
910, 15.226525494364708
910.4999999999999, 15.360587185333287
910.9999999999999, 15.616434648796684
911.4999999999999, 15.91100505909084
911.9999999999999, 16.118037704906442
912.4999999999999, 16.319473372447902
913, 16.59004984095202
913.4999999999999, 16.85076760512932
913.9999999999999, 17.0634215824508
914.4999999999999, 17.275124229484078
914.9999999999999, 17.494569838863953
915.4999999999999, 17.69355640851846
916, 17.83944821549298
916.4999999999999, 17.92004010407095
916.9999999999999, 18.014871458263457
917.4999999999999, 18.196812856477635
917.9999999999999, 18.466989844142844
918.4999999999999, 18.764012019260264
919, 18.96779403057988
919.4999999999999, 19.122068130340452
919.9999999999999, 19.37453857195608
920.4999999999999, 19.673701248914483
920.9999999999999, 19.909650601489744
921.4999999999999, 20.102090187639874
922, 20.305131528635116
922.4999999999999, 20.57531827588484
922.9999999999999, 20.888492150307655
923.4999999999999, 21.126327929442468
923.9999999999999, 21.29375425476239
924.4999999999999, 21.477347031205696
925, 21.658355208123766
925.4999999999999, 21.7889299414733
925.9999999999999, 21.885932667800176
926.4999999999999, 21.980769940883235
926.9999999999999, 22.102441829149598
927.4999999999999, 22.255849048332166
928, 22.41839407453959
928.4999999999999, 22.58677001615314
928.9999999999999, 22.778346661605596
929.4999999999999, 23.04849151061137
929.9999999999999, 23.40614134951967
930.4999999999999, 23.638513602646597
931, 23.676092863901374
931.4999999999999, 23.82949456044274
931.9999999999999, 24.19046675750579
932.4999999999999, 24.551066356696552
932.9999999999999, 24.809783293150844
933.4999999999999, 24.962529436551108
934, 25.086790164540943
934.4999999999999, 25.25509708072559
934.9999999999999, 25.41590313549554
935.4999999999999, 25.541916930146996
935.9999999999999, 25.701003317185695
936.4999999999999, 25.89315867868315
937, 26.039539490835082
937.4999999999999, 26.16886423329008
937.9999999999999, 26.367823109321392
938.4999999999999, 26.62996995804177
938.9999999999999, 26.909749712537746
939.4999999999999, 27.149391638985804
940, 27.32025441564133
940.4999999999999, 27.451453859757777
940.9999999999999, 27.566699391214513
941.4999999999999, 27.680649079533197
941.9999999999999, 27.845844509267664
942.4999999999999, 28.108130919811316
943, 28.336255092226494
943.4999999999999, 28.4266515144906
943.9999999999999, 28.55819430578842
944.4999999999999, 28.831578030952073
944.9999999999999, 29.115810919803593
945.4999999999999, 29.32655249581464
946, 29.4595444077311
946.4999999999999, 29.595346834153872
946.9999999999999, 29.827440265037268
947.4999999999999, 30.05256284058227
947.9999999999999, 30.150043508070084
948.4999999999999, 30.147813127730245
949, 30.141075720332864
949.4999999999999, 30.28341681260389
949.9999999999999, 30.54115228686001
950.4999999999999, 30.715713606244478
950.9999999999999, 30.85866060953262
951.4999999999999, 31.12287021032853
952, 31.416983914009847
952.4999999999999, 31.627580400169805
952.9999999999999, 31.804651663896223
953.4999999999999, 31.99042603694103
953.9999999999999, 32.16882023106234
954.4999999999999, 32.33390760827331
955, 32.490878276013845
955.4999999999999, 32.61223167232603
955.9999999999999, 32.685767165121376
956.4999999999999, 32.86553262275008
956.9999999999999, 33.22546975408521
957.4999999999999, 33.487210403873775
958, 33.56044450132353
958.4999999999999, 33.72399057438491
958.9999999999999, 34.035963941039
959.4999999999999, 34.33249726533798
959.9999999999999, 34.50602446329913
960.4999999999999, 34.5334945867783
961, 34.63022460782315
961.4999999999999, 34.92905805700079
961.9999999999999, 35.17191641805195
962.4999999999999, 35.24066026735906
962.9999999999999, 35.30829854016261
963.4999999999999, 35.418458281258964
964, 35.49404169016084
964.4999999999999, 35.558455062739014
964.9999999999999, 35.6635202523272
965.4999999999999, 35.751753451196734
965.9999999999999, 35.79768235495929
966.4999999999999, 35.928450653764855
967, 36.17497473324731
967.4999999999999, 36.403018004282394
967.9999999999999, 36.53727438268011
968.4999999999999, 36.576729952093515
968.9999999999999, 36.63997204634003
969.4999999999999, 36.84998075680841
970, 37.106176260319955
970.4999999999999, 37.308635631204645
970.9999999999999, 37.499120884990816
971.4999999999999, 37.6891711602663
971.9999999999999, 37.82563548681837
972.4999999999999, 37.91595879742575
973, 38.0150870011368
973.4999999999999, 38.14387840439124
973.9999999999999, 38.298323418649154
974.4999999999999, 38.43974398268177
974.9999999999999, 38.54260602383278
975.4999999999999, 38.630394700446004
976, 38.7151811862255
976.4999999999999, 38.787838968665895
976.9999999999999, 38.87330377648306
977.4999999999999, 39.007195418376575
977.9999999999999, 39.10630681940302
978.4999999999999, 39.094508783670356
979, 39.1264703266885
979.4999999999999, 39.28032329803458
979.9999999999999, 39.3554430393517
980.4999999999999, 39.35936500682212
980.9999999999999, 39.57708999495265
981.4999999999999, 39.928068481309296
982, 40.104082830678934
982.4999999999999, 40.1587980235629
982.9999999999999, 40.26274446344756
983.4999999999999, 40.44628550919301
983.9999999999999, 40.66578006675862
984.4999999999999, 40.796160659170745
985, 40.83080625921638
985.4999999999999, 40.90540965703873
985.9999999999999, 41.01472341938254
986.4999999999999, 41.07008232907933
986.9999999999999, 41.12182738635163
987.4999999999999, 41.243987691307424
988, 41.394605382586825
988.4999999999999, 41.520096459899634
988.9999999999999, 41.59522729568277
989.4999999999999, 41.62382283275361
989.9999999999999, 41.640849659274046
990.4999999999999, 41.702337291229014
991, 41.853775996427665
991.4999999999999, 41.99447618977354
991.9999999999999, 42.02914553889052
992.4999999999999, 42.06805672362246
992.9999999999999, 42.16637442612461
993.4999999999999, 42.19841583476512
993.9999999999999, 42.134961518517144
994.4999999999999, 42.06853219567366
994.9999999999999, 42.02451096058801
995.4999999999999, 41.98528132824706
995.9999999999999, 41.95804002933135
996.4999999999999, 41.95976017993875
996.9999999999999, 42.008482346918626
997.4999999999999, 42.09635213072267
997.9999999999999, 42.17018916677687
998.4999999999999, 42.215943036302015
998.9999999999999, 42.263156814478926
999.4999999999999, 42.3143839326523
999.9999999999999, 42.35571977227439
1000.4999999999999, 42.38140801802988
1000.9999999999999, 42.401766094628535
1001.4999999999999, 42.466527041634386
1001.9999999999999, 42.57688152103848
1002.4999999999999, 42.640515281867664
1002.9999999999999, 42.63039288372871
1003.4999999999999, 42.59139764428284
1003.9999999999999, 42.536383740650805
1004.4999999999999, 42.467570831143355
1004.9999999999999, 42.44129354100387
1005.4999999999999, 42.49192214399886
1005.9999999999999, 42.537883060851364
1006.4999999999999, 42.523180208169016
1006.9999999999999, 42.47071435812752
1007.4999999999999, 42.45299023798812
1007.9999999999999, 42.56355348426447
1008.4999999999999, 42.70387721275005
1008.9999999999999, 42.71836017008817
1009.4999999999999, 42.71526297359232
1009.9999999999999, 42.804760588932616
1010.4999999999999, 42.87029777693374
1010.9999999999999, 42.8483204439875
1011.4999999999999, 42.818436052313984
1011.9999999999999, 42.82342276080484
1012.4999999999999, 42.85752852887592
1012.9999999999999, 42.889455055448316
1013.4999999999999, 42.884758828808295
1013.9999999999999, 42.855828973286215
1014.4999999999999, 42.81511230408657
1014.9999999999999, 42.7382384170614
1015.4999999999999, 42.63166675229492
1015.9999999999999, 42.55453858844176
1016.4999999999999, 42.511145690133645
1016.9999999999999, 42.46160667689522
1017.4999999999999, 42.43904416073383
1017.9999999999999, 42.492912528157866
1018.4999999999999, 42.570293757621016
1018.9999999999999, 42.60424831489997
1019.4999999999999, 42.56797092527427
1019.9999999999999, 42.4781611064567
1020.4999999999999, 42.40249908951815
1020.9999999999999, 42.358517082676165
1021.4999999999999, 42.32319433340117
1021.9999999999999, 42.31885891116141
1022.4999999999999, 42.37037996510672
1022.9999999999999, 42.41259379817275
1023.4999999999999, 42.38868948491355
1023.9999999999999, 42.32248954407351
1024.5, 42.27761389554053
1025, 42.347366547963844
1025.5, 42.47962676174877
1026, 42.52129960671536
1026.5, 42.47098198687646
1027, 42.3957896656083
1027.5, 42.34350357824344
1028, 42.31216311264271
1028.5, 42.19934173833642
1029, 41.98757224930222
1029.5, 41.78811114122699
1030, 41.67020797599324
1030.5, 41.653903026284354
1031, 41.68901699010839
1031.5, 41.7108623399283
1032, 41.72096210718111
1032.5, 41.72590922946521
1033, 41.70735463493878
1033.5, 41.6561871586691
1034, 41.57866912429433
1034.5, 41.47238259336917
1035, 41.3341529014739
1035.5, 41.206631488335844
1036, 41.13184312008088
1036.5, 41.0744556291958
1037, 41.00518527144362
1037.5, 40.94589731449478
1038, 40.91307593860643
1038.5, 40.906007995367034
1039, 40.88698063888274
1039.5, 40.808087185903375
1040, 40.72610063764134
1040.5, 40.70071174792604
1041, 40.64643742623021
1041.5, 40.53958144301368
1042, 40.5416418816537
1042.5, 40.662384348456385
1043, 40.71986687048869
1043.5, 40.67834598311462
1044, 40.60601434635862
1044.5, 40.54537020954713
1045, 40.501145486933595
1045.5, 40.3862612906891
1046, 40.17565991478819
1046.5, 39.99869263821637
1047, 39.90762529732328
1047.5, 39.8494102509857
1048, 39.77925341370672
1048.5, 39.6702739113159
1049, 39.54899521163406
1049.5, 39.453475244342506
1050, 39.394117097963075
1050.5, 39.372970139055504
1051, 39.38680943546233
1051.5, 39.423247025306075
1052, 39.46169491684926
1052.5, 39.49314297256762
1053, 39.50533497800579
1053.5, 39.42375223659313
1054, 39.20815265046976
1054.5, 38.99437115875927
1055, 38.863723198791476
1055.5, 38.7443025783371
1056, 38.63967526519939
1056.5, 38.633030761838995
1057, 38.657512867023705
1057.5, 38.58539226283987
1058, 38.46405818392376
1058.5, 38.35906656010731
1059, 38.211598411733505
1059.5, 38.01451418611596
1060, 37.88347203093571
1060.5, 37.86407877414802
1061, 37.91719106160376
1061.5, 37.96408483348936
1062, 37.92605352654022
1062.5, 37.833067388491244
1063, 37.73396653204615
1063.5, 37.63026539006116
1064, 37.50354167563969
1064.5, 37.31991628693069
1065, 37.11214739860004
1065.5, 36.966153988837405
1066, 36.86141404655911
1066.5, 36.73324501044822
1067, 36.595851390476426
1067.5, 36.475873642144805
1068, 36.36707548934107
1068.5, 36.277267024171366
1069, 36.24206128191931
1069.5, 36.25022237285179
1070, 36.25193230480626
1070.5, 36.251943316130955
1071, 36.26409589333263
1071.5, 36.20517179466919
1072, 36.024651317184066
1072.5, 35.82982628502303
1073, 35.67033171655734
1073.5, 35.4780617526707
1074, 35.2719946838391
1074.5, 35.14557326102995
1075, 35.111136111797265
1075.5, 35.12246581950541
1076, 35.06036720495999
1076.5, 34.869813310552374
1077, 34.70237111374432
1077.5, 34.60138141555748
1078, 34.42343598177436
1078.5, 34.211414981666294
1079, 34.14666822848923
1079.5, 34.17953156113613
1080, 34.172908798694294
1080.5, 34.103270689553526
1081, 33.987395678439285
1081.5, 33.86481964300657
1082, 33.776781560120355
1082.5, 33.75647668005422
1083, 33.743854951931894
1083.5, 33.62672380901623
1084, 33.460381426855534
1084.5, 33.342073112107755
1085, 33.221115482822086
1085.5, 33.06098921231319
1086, 32.94093861656356
1086.5, 32.88177819935126
1087, 32.81198695913159
1087.5, 32.72382703620035
1088, 32.65260086770549
1088.5, 32.55707367057187
1089, 32.402403079117605
1089.5, 32.31162671340978
1090, 32.313783181104995
1090.5, 32.15966542391166
1091, 31.84172255382947
1091.5, 31.678490193411903
1092, 31.70631707817067
1092.5, 31.747836547360208
1093, 31.68357041943038
1093.5, 31.47697178857581
1094, 31.299908250511038
1094.5, 31.245472995505324
1095, 31.149502954285552
1095.5, 30.982352441079115
1096, 30.901029758130917
1096.5, 30.905489511210646
1097, 30.888232357190006
1097.5, 30.81176248722325
1098, 30.686590512758485
1098.5, 30.58934037745952
1099, 30.538512640606726
1099.5, 30.41315691521767
1100, 30.198479687331428
1100.5, 30.01205245058091
1101, 29.874105701857758
1101.5, 29.740723315766374
1102, 29.607305489159188
1102.5, 29.4841813982257
1103, 29.379454293891797
1103.5, 29.304993084981348
1104, 29.278305040829082
1104.5, 29.25275491930472
1105, 29.12400237280616
1105.5, 28.94324327186193
1106, 28.836551387699018
1106.5, 28.767950289351887
1107, 28.682822873363676
1107.5, 28.658292840920524
1108, 28.697005370968455
1108.5, 28.627059305600824
1109, 28.455034441775624
1109.5, 28.3728508326882
1110, 28.33381289706773
1110.5, 28.17159465123804
1111, 27.90710583718119
1111.5, 27.644042345991352
1112, 27.53481159080353
1112.5, 27.590006880501576
1113, 27.56846370518491
1113.5, 27.42931964136112
1114, 27.3407213640305
1114.5, 27.281388021623982
1115, 27.143769813057204
1115.5, 26.987716621947982
1116, 26.879214975049535
1116.5, 26.738701527020012
1117, 26.531614776967288
1117.5, 26.339734323731605
1118, 26.213371056883517
1118.5, 26.15168803263782
1119, 26.054665386323634
1119.5, 25.814739000545075
1120, 25.566204525842053
1120.5, 25.44739099387928
1121, 25.39370831220745
1121.5, 25.343275347681015
1122, 25.293082422488382
1122.5, 25.225358015893377
1123, 25.11361143128309
1123.5, 25.021943458018157
1124, 25.01234384107576
1124.5, 24.89754895189975
1125, 24.564121467165165
1125.5, 24.29254689113101
1126, 24.23319141689636
1126.5, 24.24227541036619
1127, 24.185407457545764
1127.5, 23.980322418587306
1128, 23.737003394007118
1128.5, 23.608844271247648
1129, 23.493683992647988
1129.5, 23.291481839395672
1130, 23.094024568486333
1130.5, 22.948943127908763
1131, 22.802506470661356
1131.5, 22.70613697170701
1132, 22.779949788941195
1132.5, 22.914132801477876
1133, 22.923445991735647
1133.5, 22.797295999900456
1134, 22.59155353143953
1134.5, 22.404916008496514
1135, 22.289043460788278
1135.5, 22.219275708421364
1136, 22.13486939447324
1136.5, 21.969393985716636
1137, 21.807321776594463
1137.5, 21.763274577299384
1138, 21.778009281320934
1138.5, 21.753867803398677
1139, 21.61221947002744
1139.5, 21.36561852254937
1140, 21.13854165095107
1140.5, 20.966402670403596
1141, 20.812184378750217
1141.5, 20.664231866453576
1142, 20.51937538991956
1142.5, 20.35905960461129
1143, 20.183901628928737
1143.5, 20.043481213044174
1144, 19.920385863903405
1144.5, 19.71250645051211
1145, 19.447998797330413
1145.5, 19.247253012000087
1146, 19.162159773309156
1146.5, 19.188526764696846
1147, 19.225448239231767
1147.5, 19.188490122989037
1148, 19.076418642808264
1148.5, 18.891342010808415
1149, 18.63396865216282
1149.5, 18.405257337235298
1150, 18.337423933691497
1150.5, 18.287469357761992
1151, 18.088417178684068
1151.5, 17.89915321207401
1152, 17.84496274305846
1152.5, 17.834850984872645
1153, 17.78597847961592
1153.5, 17.66162608932143
1154, 17.502350532538514
1154.5, 17.388726342786015
1155, 17.32831201785723
1155.5, 17.284503236391615
1156, 17.169325311666256
1156.5, 16.94996732795117
1157, 16.72000711657165
1157.5, 16.538957123262733
1158, 16.40744121604071
1158.5, 16.272735039631968
1159, 16.074959791787762
1159.5, 15.91224810099905
1160, 15.882192636569783
1160.5, 15.88491474192432
1161, 15.826775997513721
1161.5, 15.70252106030948
1162, 15.561469672866949
1162.5, 15.490103796633221
1163, 15.447320818338426
1163.5, 15.333803394329081
1164, 15.186683003620544
1164.5, 15.07985886995948
1165, 15.04693030454466
1165.5, 15.050074287311062
1166, 14.945703806460529
1166.5, 14.742615615688791
1167, 14.60560749547308
1167.5, 14.567466201092756
1168, 14.563654524708838
1168.5, 14.457737853523227
1169, 14.18855706387211
1169.5, 13.99024418265546
1170, 13.970232184263566
1170.5, 13.935040541213368
1171, 13.821095273653796
1171.5, 13.713855617162281
1172, 13.615940067787875
1172.5, 13.48505783916086
1173, 13.314402977659213
1173.5, 13.128938690309425
1174, 13.009535913162452
1174.5, 12.9691219824997
1175, 12.897292955832626
1175.5, 12.735425690233939
1176, 12.493586330341444
1176.5, 12.266613292265902
1177, 12.158663247244178
1177.5, 12.093543743118957
1178, 11.974394433124402
1178.5, 11.801530694611685
1179, 11.61043426136709
1179.5, 11.463110069027493
1180, 11.372040295648091
1180.5, 11.306011045312431
1181, 11.26451412963813
1181.5, 11.244533783999955
1182, 11.149954689346984
1182.5, 10.921988350136942
1183, 10.670056044649385
1183.5, 10.494083908608673
1184, 10.432668094949321
1184.5, 10.392066953470291
1185, 10.196832532572245
1185.5, 9.921620882028094
1186, 9.732431866105543
1186.5, 9.62810579290958
1187, 9.553994688781259
1187.5, 9.441603673374146
1188, 9.270366031879334
1188.5, 9.090380255585814
1189, 8.945189127354666
1189.5, 8.856018279872728
1190, 8.744355248556317
1190.5, 8.528560863612512
1191, 8.320244072781165
1191.5, 8.213694921141183
1192, 8.139785302212971
1192.5, 8.053861886137696
1193, 7.976921298941832
1193.5, 7.932489570475212
1194, 7.941507760982802
1194.5, 8.018469795161735
1195, 8.1418123198455
1195.5, 8.154768780222156
1196, 7.983347915568174
1196.5, 7.816416051187829
1197, 7.756021598304031
1197.5, 7.738529719081754
1198, 7.6204318666904385
1198.5, 7.256765731750889
1199, 6.876015090038223
1199.5, 6.754707694103473
1200, 6.710904233487
1200.5, 6.565068365051459
1201, 6.384931926752685
1201.5, 6.247907208711993
1202, 6.195913340357649
1202.5, 6.169417011042853
1203, 6.058911452178066
1203.5, 5.913950821166523
1203.9999999999998, 5.820764462597253
1204.5, 5.749707563489366
1205, 5.666081410194693
1205.5, 5.580692995264897
1206, 5.512644260558659
1206.4999999999998, 5.480089433472841
1207, 5.4469097197576986
1207.4999999999998, 5.355017103325309
1208, 5.253020201582302
1208.5, 5.201414929723057
1209, 5.149451470464868
1209.5, 5.052762101247055
1209.9999999999998, 4.928679154965977
1210.5, 4.8090216417031115
1211, 4.729238319600299
1211.5, 4.666854818793965
1212, 4.568923392311234
1212.4999999999998, 4.437267485290803
1213, 4.2967547704295725
1213.4999999999998, 4.177829370233425
1214, 4.103617938786513
1214.5, 4.080217937173231
1215, 4.085473578522709
1215.5, 4.071652683349612
1215.9999999999998, 4.031015864739558
1216.5, 3.977715037261788
1217, 3.8972680220808655
1217.5, 3.780001656342023
1218, 3.6657639004704947
1218.4999999999998, 3.5706443931747884
1219, 3.451735918594096
1219.4999999999998, 3.3126941472065425
1220, 3.2075594422273923
1220.5, 3.132232525660797
1220.9999999999998, 3.055081334844431
1221.5, 3.000755804000704
1221.9999999999998, 2.9883391616561994
1222.5, 2.9591250660400163
1223, 2.8766637873874146
1223.5, 2.7681906743219002
1224, 2.6504037126929347
1224.4999999999998, 2.526547535296473
1225, 2.4373527998672557
1225.4999999999998, 2.4263973925667557
1226, 2.4312213869464046
1226.5, 2.393771487170639
1226.9999999999998, 2.3722461131107337
1227.5, 2.3939063604037614
1227.9999999999998, 2.3996891208379054
1228.5, 2.3263556089448088
1229, 2.136656914671846
1229.5, 2.010581978469318
1230, 2.1608581325237424
1230.4999999999998, 2.3401893989679365
1231, 2.3035328810435516
1231.4999999999998, 2.2208429527466933
1232, 2.19797597200521
1232.5, 2.132053408300706
1232.9999999999998, 2.0516411858282737
1233.5, 2.0963020263780265
1233.9999999999998, 2.141955339254366
1234.5, 1.9890218557165014
1235, 1.7786749538417013
1235.5, 1.683594217316383
1236, 1.6823092591021407
1236.4999999999998, 1.6688430098573832
1237, 1.470910100450908
1237.4999999999998, 1.1679591759545929
1238, 1.0349402712593587
1238.5, 1.0498464756417434
1238.9999999999998, 1.0566680787354272
1239.5, 1.0100700451246638
1239.9999999999998, 0.9202126171012708
1240.5, 0.8548940298041714
1241, 0.8415512616229961
1241.5, 0.8379264580485426
1242, 0.837514400332438
1242.4999999999998, 0.8640892378862475
1243, 0.9001495436683769
1243.4999999999998, 0.913060027260272
1244, 0.8961063738519357
1244.5, 0.8593799723872309
1244.9999999999998, 0.83578611659496
1245.5, 0.8376029661040292
1245.9999999999998, 0.8451592894963085
1246.5, 0.8630753211688926
1247, 0.9114799716070507
1247.5, 0.9606046968990967
1248, 0.9753965945813974
1248.4999999999998, 0.9991076572797937
1249, 1.065249940189247
1249.4999999999998, 1.1373252431553595
1250, 1.187742389738986
1250.5, 1.2136782686229708
1250.9999999999998, 1.2076742478014921
1251.5, 1.1626163828508993
1251.9999999999998, 1.1113284498204763
1252.5, 1.0799125022139577
1253, 0.9953082856028033
1253.5, 0.8496268937452527
1254, 0.8297689686966407
1254.4999999999998, 0.9673683516515297
1255, 1.0738311251962926
1255.4999999999998, 1.1277718005493682
1256, 1.2193766416834535
1256.5, 1.260901690078569
1256.9999999999998, 1.1456309019439317
1257.5, 0.9932234150983277
1257.9999999999998, 0.9071411906857492
1258.5, 0.8433475363908087
1259, 0.7890642361008418
1259.5, 0.7887927146944804
1260, 0.8327395507662203
1260.4999999999998, 0.8744938586014115
1261, 0.9017227786594049
1261.4999999999998, 0.912804333741704
1262, 0.8926158701686262
1262.5, 0.8407989911706011
1262.9999999999998, 0.7927786426173498
1263.5, 0.7763997846878539
1263.9999999999998, 0.8035776679091242
1264.5, 0.861247300810561
1265, 0.9147372583343554
1265.5, 0.8974349682185903
1266, 0.7761442600278627
1266.4999999999998, 0.6759623636652492
1267, 0.6755870546766118
1267.4999999999998, 0.6993926132567765
1268, 0.7129674710454026
1268.5, 0.7440966613097828
1268.9999999999998, 0.7718588288467458
1269.5, 0.7531397286903285
1269.9999999999998, 0.7193805150478028
1270.5, 0.7136311339324379
1271, 0.7238688316454898
1271.5, 0.7338834766022444
1272, 0.7407821758422983
1272.4999999999998, 0.7435002098991959
1273, 0.7403531808650712
1273.4999999999998, 0.7179313713916713
1274, 0.663335376483019
1274.5, 0.6095944465111245
1274.9999999999998, 0.592860858355408
1275.5, 0.6070213423356705
1275.9999999999998, 0.6370097839906919
1276.5, 0.6671593700183394
1277, 0.6955127857024053
1277.5, 0.7307568156636535
1278, 0.7431106665288496
1278.4999999999998, 0.6942464805224802
1279, 0.6290926603084159
1279.4999999999998, 0.6011361492834766
1280, 0.6034802047220893
1280.5, 0.613753135198948
1280.9999999999998, 0.6037519696506166
1281.5, 0.5739398908301325
1281.9999999999998, 0.551207104299408
1282.5, 0.5365941956945619
1283, 0.519506663314786
1283.5, 0.5105509212824302
1284, 0.5280363506663264
1284.4999999999998, 0.5915861482890534
1285, 0.672941963760934
1285.4999999999998, 0.67144188603136
1286, 0.6029217510518805
1286.5, 0.5866302763117943
1286.9999999999998, 0.6115814845996965
1287.5, 0.609700096678651
1287.9999999999998, 0.6008095305566457
1288.5, 0.616205479345183
1289, 0.6428873230869101
1289.5, 0.6542962974846205
1290, 0.6183070829445398
1290.4999999999998, 0.5780477131448265
1291, 0.6291086373233412
1291.4999999999998, 0.7174212763862755
1292, 0.7424176362722079
1292.5, 0.7658566929235064
1292.9999999999998, 0.8466898472227484
1293.5, 0.9114109392080962
1293.9999999999998, 0.9285801574200292
1294.5, 0.9581474170358035
1295, 1.0097922672368753
1295.5, 1.047256410956038
1296, 1.0726369752918004
1296.4999999999998, 1.0959993696964005
1297, 1.0716492155813029
1297.4999999999998, 0.9898382008765338
1298, 0.967550110584483
1298.5, 1.0380558575475618
1298.9999999999998, 1.0915227010557231
1299.5, 1.0798082973245329
1299.9999999999998, 1.019774273958575
1300.5, 0.9619878363362488
1301, 0.9536853580563758
1301.5, 0.961231017799804
1302, 0.9559877889521289
1302.4999999999998, 0.9723092773137836
1303, 1.0180526588997623
1303.4999999999998, 1.0541332527921128
1304, 1.0680641370393005
1304.5, 1.0708672313859608
1304.9999999999998, 1.0692773373937143
1305.5, 1.0676823016322743
1305.9999999999998, 1.0702546886740407
1306.5, 1.0740917976625468
1307, 1.0610396016247279
1307.4999999999998, 1.0383800979156064
1308, 1.04617915433667
1308.5, 1.0766092384395165
1309, 1.0880436959133277
1309.5, 1.0735898983094216
1310, 1.0448909523248915
1310.5, 1.024139745939351
1311, 1.0235110473377915
1311.5, 1.0281013870868634
1312, 1.0279080478385083
1312.5, 1.0232044234466002
1313, 1.0100333192852844
1313.5, 0.9828823369341677
1314, 0.9504114269776949
1314.5, 0.9202452899899782
1315, 0.8736986933496809
1315.5, 0.7954009636280972
1316, 0.6909705770189305
1316.5, 0.6134225467969685
1317, 0.6582265211003033
1317.5, 0.7717837366800353
1318, 0.8175550083022927
1318.5, 0.8181365962532396
1319, 0.8351891168359771
1319.5, 0.8375481111934562
1320, 0.8010378735330903
1320.5, 0.7559157559769432
1321, 0.7260156847379022
1321.5, 0.7187636314851318
1322, 0.7212358936621115
1322.5, 0.7119722296144175
1323, 0.6984565924443586
1323.5, 0.6903604033257835
1324, 0.6667965735849322
1324.5, 0.6218463860410992
1325, 0.5891587913982761
1325.5, 0.575631462184802
1326, 0.556632691324296
1326.5, 0.5408264433842618
1327, 0.5543998121080449
1327.5, 0.5930672283917033
1328, 0.6417554597310442
1328.5, 0.6872985564512248
1329, 0.7201061039199743
1329.5, 0.7372320275053568
1330, 0.7580882059325091
1330.5, 0.8176388981939198
1331, 0.8698544274978985
1331.5, 0.8433966279264808
1332, 0.8110031976299581
1332.5, 0.8464994589983945
1333, 0.8712166589585166
1333.5, 0.846703953571037
1334, 0.8517313667264403
1334.5, 0.8930849877384475
1335, 0.8997149295276898
1335.5, 0.8735885785902013
1336, 0.8542888378715361
1336.5, 0.8390944542884426
1337, 0.8192849211716009
1337.5, 0.8106445190746285
1338, 0.8254440275305654
1338.5, 0.8624596188187468
1339, 0.914841130767087
1339.5, 0.9712769216370276
1340, 1.0182044008338806
1340.5, 1.039833139966973
1341, 1.014995457133594
1341.5, 0.9364762359425782
1342, 0.8406762015521139
1342.5, 0.7559419384624277
1343, 0.6859988869210696
1343.5, 0.6381945476785091
1344, 0.6230363420259692
1344.5, 0.6300280615399032
1345, 0.6419691339149409
1345.5, 0.6650862263499988
1346, 0.7094143998907185
1346.5, 0.7757147943282945
1347, 0.8474277165415316
1347.5, 0.885451436338272
1348, 0.8782756833817729
1348.5, 0.8404522213869399
1349, 0.7840526135970123
1349.5, 0.718640251968452
1350, 0.6503752505201277
1350.5, 0.5989171859883129
1351, 0.619642718570617
1351.5, 0.7113401432574022
1352, 0.7863531799671932
1352.5, 0.829632138327554
1353, 0.8858688743839309
1353.5, 0.9304957075442672
1354, 0.921752801701814
1354.5, 0.8987261959218245
1355, 0.8904220237204754
1355.5, 0.847967175666966
1356, 0.7722324568629375
1356.5, 0.7451228313671265
1357, 0.7732259577335299
1357.5, 0.7962049484404332
1358, 0.7526277761780023
1358.5, 0.629710249903269
1359, 0.617558766037746
1359.5, 0.8124786391333316
1360, 0.9722374465556243
1360.5, 0.9781198570450869
1361, 0.9384089672287956
1361.5, 0.9268673425302865
1362, 0.9686070424068447
1362.5, 1.021148134490403
1363, 1.0306837961472866
1363.5, 1.019104852805441
1364, 1.0163028081023384
1364.5, 1.0270403042142533
1365, 1.031408482660808
1365.5, 0.9865724034716123
1366, 0.9126571663898915
1366.5, 0.8683299619848839
1367, 0.8404840360778252
1367.5, 0.8004115729511909
1368, 0.7806087149696168
1368.5, 0.7992204364558404
1369, 0.8137779305896231
1369.5, 0.8105328672367307
1370, 0.8171563296046571
1370.5, 0.8158181229850925
1371, 0.7641477971033765
1371.5, 0.688665184981673
1372, 0.6322283505828779
1372.5, 0.5922188421675258
1373, 0.5777255887399377
1373.5, 0.6400660687191788
1374, 0.7522559035218706
1374.5, 0.7998811756768731
1375, 0.8059110594781487
1375.5, 0.8682354604425626
1376, 0.9324814589130455
1376.5, 0.9106497894352117
1377, 0.810129332796123
1377.5, 0.6907893086194008
1378, 0.6700492293479385
1378.5, 0.7522510922153458
1379, 0.8151502599718015
1379.5, 0.8380745141190857
1380, 0.8657695605912323
1380.5, 0.9035601327138636
1381, 0.9409360809567318
1381.5, 0.9659872664374518
1382, 0.9797832133305207
1382.5, 1.0068884992384994
1383, 1.0434542192885061
1383.5, 1.055764852312862
1384, 1.0512657041946767
1384.5, 1.056277773472786
1385, 1.0493420172154515
1385.5, 1.0119647963817187
1386, 0.9894720520071587
1386.5, 1.0070178557448486
1387, 1.0323468963242846
1387.5, 1.047861606631571
1388, 1.0565005329762442
1388.5, 1.0528258835009012
1389, 1.0317822094505118
1389.5, 1.0218163818351371
1390, 1.0487944771648898
1390.5, 1.0961686711515881
1391, 1.1466777025212735
1391.5, 1.1949814368903304
1392, 1.2278993389926427
1392.5, 1.2246307574619664
1393, 1.1777955539798626
1393.5, 1.0942803383257171
1394, 1.0139267016066214
1394.5, 0.9719368352705828
1395, 0.9592942179145609
1395.5, 0.960124432118235
1396, 0.9608038783332091
1396.5, 0.9601480536506841
1397, 0.9661166874791007
1397.5, 0.9626025412917159
1398, 0.9422225200875545
1398.5, 1.0094417836331928
1399, 1.2112519702984343
1399.5, 1.3440600392082587
1400, 1.3231368731967308
