298, 15.625392686404297
298.5, 15.657529318706054
299, 15.628052547633246
299.5, 15.550085342941259
300, 15.526859551926378
300.5, 15.555002210703421
301, 15.547300419645751
301.5, 15.528131796280206
302, 15.556358546355582
302.5, 15.592069396233853
303, 15.594294618176903
303.5, 15.585819833908843
304, 15.585669556027128
304.5, 15.594418088051427
305, 15.61280300204632
305.5, 15.642089450761858
306, 15.6777931881917
306.5, 15.713179478483198
307, 15.743611017133588
307.5, 15.772621876704122
308, 15.82061086802939
308.5, 15.876475039001008
309, 15.887825070518076
309.5, 15.862937395743685
310, 15.853170019612477
310.5, 15.85862576944065
311, 15.860299617595217
311.5, 15.85809941354924
312, 15.856839696956683
312.5, 15.861642957211572
313, 15.877927061392683
313.5, 15.910158082263905
314, 15.944350736352803
314.5, 15.956385122954416
315, 15.948535370385471
315.5, 15.938293085172518
316, 15.956919757965238
316.5, 16.011180098895792
317, 16.050270735461794
317.5, 16.062317108880393
318, 16.088748173320838
318.5, 16.124743946803335
319, 16.135844651594596
319.5, 16.128683199523763
320, 16.124204135712233
320.5, 16.132345157905277
321, 16.151246699391905
321.5, 16.160853482244477
322, 16.15869440819303
322.5, 16.164505959031175
323, 16.184789226469846
323.5, 16.215642449846868
324, 16.250756725039082
324.5, 16.28460019560694
325, 16.31735784626487
325.5, 16.350474206525007
326, 16.38529568259709
326.5, 16.419180304072725
327, 16.4451926309533
327.5, 16.458635024486398
328, 16.458842995349883
328.5, 16.45979458655816
329, 16.47449313949363
329.5, 16.49456100433798
330, 16.51165200284302
330.5, 16.525822629353712
331, 16.54210182221658
331.5, 16.56900624301052
332, 16.604879420113534
332.5, 16.641595425471905
333, 16.671565199025736
333.5, 16.69038087215438
334, 16.702946859660173
334.5, 16.71763575691557
335, 16.745088331201032
335.5, 16.780441664490922
336, 16.804452164490428
336.5, 16.818301833332995
337, 16.8338798018231
337.5, 16.8514763602235
338, 16.86834303435714
338.5, 16.884744787929094
339, 16.90137276418423
339.5, 16.91862018501172
340, 16.935413796577706
340.5, 16.949975435296054
341, 16.96782090852288
341.5, 16.99678538191452
342, 17.03451232009718
342.5, 17.072466096196422
343, 17.094194171862625
343.5, 17.093974268058346
344, 17.085871384254318
344.5, 17.086222384366053
345, 17.10943575194308
345.5, 17.14731599936829
346, 17.182480404342982
346.5, 17.214290725861417
347, 17.246835392784163
347.5, 17.28262403036088
348, 17.317843986391864
348.5, 17.34018475876755
349, 17.355016976696746
349.5, 17.3820217113944
350, 17.418380611747168
350.5, 17.452077452320196
351, 17.485658623748293
351.5, 17.521219935147826
352, 17.548465279675113
352.5, 17.564379601065795
353, 17.57934708777894
353.5, 17.596566640069938
354, 17.612658573718562
354.5, 17.6298870425629
355, 17.6502710353992
355.5, 17.661221630994035
356, 17.666324479417824
356.5, 17.7184229771604
357, 17.812127744421943
357.5, 17.853794488256284
358, 17.842458791428825
358.5, 17.850646531893418
359, 17.870745277973214
359.5, 17.869273411738774
360, 17.874289954460323
360.5, 17.90829819045294
361, 17.941359565804987
361.5, 17.95695337687303
362, 17.96731307911439
362.5, 17.98524147045582
363, 18.01898555316859
363.5, 18.05100528977239
364, 18.063808175972866
364.5, 18.089134784054636
365, 18.14354255617306
365.5, 18.181385440547615
366, 18.193162594857796
366.5, 18.225031275307543
367, 18.28054794244892
367.5, 18.329125901508988
368, 18.35159267954117
368.5, 18.34623808420983
369, 18.358191059857035
369.5, 18.410826110903457
370, 18.456633029374842
370.5, 18.485311762083015
371, 18.540883792474148
371.5, 18.611730445054462
372, 18.65218680067278
372.5, 18.682906421501187
373, 18.73579797793566
373.5, 18.778473777583713
374, 18.792144478188987
374.5, 18.81616766857408
375, 18.85412739607895
375.5, 18.86259168573028
376, 18.85944511483534
376.5, 18.896866116484063
377, 18.954270787024797
377.5, 18.99319435848838
378, 19.01762699106321
378.5, 19.03576568474783
379, 19.04543911894018
379.5, 19.044929437752046
380, 19.034539557752353
380.5, 19.015706871656548
381, 18.995831954910713
381.5, 19.015345545202834
382, 19.099243876977326
382.5, 19.177411211295507
383, 19.20830913564194
383.5, 19.24146159479153
384, 19.29497339791368
384.5, 19.342228854039178
385, 19.37055508285134
385.5, 19.382219429075434
386, 19.405675877705747
386.5, 19.465831762898475
387, 19.545150348062407
387.5, 19.617265417293794
388, 19.65654389085556
388.5, 19.66869287935947
389, 19.689940326345052
389.5, 19.728160100972474
390, 19.770720943940645
390.5, 19.793801922571987
391, 19.788417498180337
391.5, 19.80262506044943
392, 19.856226320144245
392.5, 19.902659041583576
393, 19.932469658946644
393.5, 19.976924924079086
394, 20.02910734669713
394.5, 20.065089110878134
395, 20.09755436526811
395.5, 20.14437265142773
396, 20.202142554008276
396.5, 20.256423977486833
397, 20.2826878349468
397.5, 20.29532903516602
398, 20.342126059699112
398.5, 20.41758605388482
399, 20.489786683151223
399.5, 20.550901503963743
400, 20.60232153825109
400.5, 20.649340133021326
401, 20.69838260177241
401.5, 20.755575303709364
402, 20.806270046929995
402.5, 20.82317935088159
403, 20.841511320575748
403.5, 20.91345811712803
404, 21.00648727885917
404.5, 21.07847281418725
405, 21.131127977713618
405.5, 21.17874711217999
406, 21.24211261438586
406.5, 21.311159567391513
407, 21.353170821082287
407.5, 21.383193768362716
408, 21.431553446492615
408.5, 21.481863491743297
409, 21.516118820264495
409.5, 21.5468127740603
410, 21.581070439720037
410.5, 21.611934245956434
411, 21.645235837172976
411.5, 21.695009553631607
412, 21.744258893462472
412.5, 21.77287325661507
413, 21.816044501434618
413.5, 21.899035545427324
414, 21.98594188068951
414.5, 22.05261508701483
415, 22.10448707244666
415.5, 22.15384663565999
416, 22.21474398171071
416.5, 22.284892035545894
417, 22.354729296328685
417.5, 22.416984710001472
418, 22.468401097747517
418.5, 22.51371714552195
419, 22.562403130841773
419.5, 22.62710912892564
420, 22.695236288138403
420.5, 22.738952886206263
421, 22.766694400606667
421.5, 22.798516087242476
422, 22.834028765089755
422.5, 22.877270007562558
423, 22.952797978770164
423.5, 23.057352983978262
424, 23.14988454814433
424.5, 23.209867928168393
425, 23.239414042835662
425.5, 23.27823198754828
426, 23.361024866480804
426.5, 23.441725904902825
427, 23.489291758975412
427.5, 23.544964651676437
428, 23.63055758780736
428.5, 23.732346098560726
429, 23.83235718832296
429.5, 23.91594615965144
430, 24.001130912160576
430.5, 24.105539897750234
431, 24.196127592918202
431.5, 24.258544634580332
432, 24.338538549938335
432.5, 24.443600883117483
433, 24.53034183693788
433.5, 24.590665201970197
434, 24.641594084477802
434.5, 24.691376838920917
435, 24.748469579058337
435.5, 24.834604896905915
436, 24.943530064864333
436.5, 25.01134267214509
437, 25.03676612916314
437.5, 25.091553376746447
438, 25.18529317709954
438.5, 25.287009184115547
439, 25.385914222004814
439.5, 25.476603171472107
440, 25.545389788997426
440.5, 25.593041615723678
441, 25.649887879713035
441.5, 25.735362835258968
442, 25.85098358339738
442.5, 25.968199130007235
443, 26.04866315672379
443.5, 26.104969879717885
444, 26.165085913530135
444.5, 26.246967835042128
445, 26.349804420234932
445.5, 26.444015161388137
446, 26.524953972789532
446.5, 26.615250667234562
447, 26.719611051051317
447.5, 26.82854410002804
448, 26.918641192494434
448.5, 26.97372332618876
449, 27.013584324555524
449.5, 27.060731373582854
450, 27.129317010790658
450.5, 27.19901952779709
451, 27.225756216238835
451.5, 27.264043732012325
452, 27.397583044061065
452.5, 27.557927509488692
453, 27.66508020818766
453.5, 27.749766902437088
454, 27.847548554457816
454.5, 27.968134763212674
455, 28.087358070463225
455.5, 28.15992148218234
456, 28.22598711982559
456.5, 28.3513442238455
457, 28.488879965798063
457.5, 28.581404540463254
458, 28.64133584102791
458.5, 28.690075621800162
459, 28.744243742482155
459.5, 28.813045921981796
460, 28.897300634378965
460.5, 28.979802969791223
461, 29.043475934091745
461.5, 29.11697452629076
462, 29.219863503082493
462.5, 29.312749602135725
463, 29.377461091489437
463.5, 29.441424143370796
464, 29.528026917292777
464.5, 29.65017609512607
465, 29.789194786252864
465.5, 29.91529832345097
466, 30.020707074162985
466.5, 30.106815419827456
467, 30.182091964522513
467.5, 30.249885048832795
468, 30.305293890566404
468.5, 30.353900245640688
469, 30.410063509851
469.5, 30.483552192630484
470, 30.57374539056778
470.5, 30.645407169132454
471, 30.68688729979047
471.5, 30.763671255181805
472, 30.888122722800546
472.5, 30.987991596169635
473, 31.046326217534244
473.5, 31.09624317884129
474, 31.175508306297402
474.5, 31.30623551057255
475, 31.439856105790255
475.5, 31.539884872564542
476, 31.6384025981328
476.5, 31.75616923473588
477, 31.885431107458416
477.5, 32.00006471456683
478, 32.07079843746196
478.5, 32.13827606704346
479, 32.251567324704695
479.5, 32.37026832944444
480, 32.45660003012807
480.5, 32.526208797772526
481, 32.59288290013177
481.5, 32.65915563788076
482, 32.72618237009141
482.5, 32.79415781610902
483, 32.85999821028945
483.5, 32.92862611083041
484, 33.039862420404205
484.5, 33.198722728830916
485, 33.322707424538834
485.5, 33.38325145297924
486, 33.42801946859986
486.5, 33.47993367118856
487, 33.541024243590186
487.5, 33.61241629505773
488, 33.69386383286229
488.5, 33.78089116157511
489, 33.86653976180894
489.5, 33.941169040081505
490, 34.00644205841016
490.5, 34.077184510668445
491, 34.165064024660765
491.5, 34.27285557210266
492, 34.3640463467317
492.5, 34.41143638741413
493, 34.470850219891474
493.5, 34.583862013083106
494, 34.73070853373194
494.5, 34.86790950320787
495, 34.942363254739945
495.5, 35.00685095646264
496, 35.15374097937905
496.5, 35.298456073975956
497, 35.342999647235814
497.5, 35.3588987476318
498, 35.41864247155104
498.5, 35.532704376203796
499, 35.672274123509524
499.5, 35.779140153431754
500, 35.85380429945512
500.5, 35.93034952178647
501, 36.02082535832338
501.5, 36.123348062313
502, 36.21771808598982
502.5, 36.287666938547645
503, 36.33122493603138
503.5, 36.37846339594668
504, 36.48190915004573
504.5, 36.60342491104564
505, 36.6729191050259
505.5, 36.743165846802526
506, 36.865690629848686
506.5, 36.96669546581945
507, 37.011595373780565
507.5, 37.06718576306084
508, 37.15611723035891
508.5, 37.249588275102006
509, 37.32832443799189
509.5, 37.3878910389589
510, 37.46594942323866
510.5, 37.585929331280504
511, 37.693970068585415
511.5, 37.75983727186429
512, 37.81236184533022
512.5, 37.88034299973325
513, 37.98175493291301
513.5, 38.079873293947905
514, 38.12496300412164
514.5, 38.148850263356984
515, 38.18572091618593
515.5, 38.20936593024337
516, 38.20761005759485
516.5, 38.20487208322401
517, 38.224187157075875
517.5, 38.280429530948076
518, 38.351740099017746
518.5, 38.40605222123596
519, 38.4525677301611
519.5, 38.51176518642894
520, 38.601464167254086
520.5, 38.7081002293097
521, 38.7758217971799
521.5, 38.80102660740252
522, 38.82493430490285
522.5, 38.86396818164155
523, 38.91680158834225
523.5, 38.96159677506392
524, 38.98988029964229
524.5, 39.0388078704119
525, 39.111246364027934
525.5, 39.15528535051953
526, 39.16499268063212
526.5, 39.173400896023985
527, 39.195458904133915
527.5, 39.23154910855618
528, 39.25936453407269
528.5, 39.262287923762834
529, 39.2508383927369
529.5, 39.23404519646284
530, 39.21407211821173
530.5, 39.197892582051495
531, 39.19444954562024
531.5, 39.19604975006242
532, 39.193065530104036
532.5, 39.19875428676426
533, 39.218257814886975
533.5, 39.226139111094
534, 39.208572644297035
534.5, 39.172872675109296
535, 39.139591404148945
535.5, 39.1326483515499
536, 39.1359410269496
536.5, 39.1237401328974
537, 39.10060230405174
537.5, 39.08001417438893
538, 39.07812291036215
538.5, 39.08246093705612
539, 39.05045809893463
539.5, 39.01557084932606
540, 39.0501375385217
540.5, 39.10703249124079
541, 39.11577041343321
541.5, 39.10388194678624
542, 39.10315080073836
542.5, 39.108240944066054
543, 39.10888033435867
543.5, 39.09572339529219
544, 39.07775531915201
544.5, 39.07301242511387
545, 39.07599963277147
545.5, 39.075927969192016
546, 39.07642231570048
546.5, 39.07822995678733
547, 39.07072242918016
547.5, 39.05262470533728
548, 39.03412305784527
548.5, 39.01804886516365
549, 39.00206351155588
549.5, 38.98465528976189
550, 38.96633700570472
550.5, 38.953076918937874
551, 38.940616154965745
551.5, 38.9052279312503
552, 38.867043051396365
552.5, 38.8887394236902
553, 38.949243747580766
553.5, 38.983092985276556
554, 38.98521513678991
554.5, 38.97087058219449
555, 38.94954196586033
555.5, 38.93070600414816
556, 38.92519517246646
556.5, 38.92720450625458
557, 38.91594785206206
557.5, 38.89722926711422
558, 38.89031483969398
558.5, 38.89674323406114
559, 38.90520584221858
559.5, 38.88470290474684
560, 38.830709852345265
560.5, 38.78946084521748
561, 38.79358374858039
561.5, 38.852041124119594
562, 38.92135897089244
562.5, 38.949153267069036
563, 38.99465494817816
563.5, 39.10379355172206
564, 39.179153643841055
564.5, 39.17433476495605
565, 39.165816292459446
565.5, 39.18716540247457
566, 39.22258266395352
566.5, 39.28020867664808
567, 39.3704198300038
567.5, 39.441967920251955
568, 39.45105151078085
568.5, 39.42730958352239
569, 39.39506767725408
569.5, 39.351996742277315
570, 39.318199013921365
570.5, 39.330667343307866
571, 39.3736728165731
571.5, 39.4105000501253
572, 39.44062495166177
572.5, 39.47261529431041
573, 39.51032327652078
573.5, 39.558900401056064
574, 39.625333079340315
574.5, 39.6936490993304
575, 39.72901405030949
575.5, 39.709030503558175
576, 39.63480010822001
576.5, 39.58397465456392
577, 39.61189786742033
577.5, 39.66430562032501
578, 39.7110950263992
578.5, 39.778281525698645
579, 39.84705463703082
579.5, 39.866110117061034
580, 39.85692562795576
580.5, 39.86128364144531
581, 39.85232807651949
581.5, 39.80509519730246
582, 39.7437063042883
582.5, 39.692029450306826
583, 39.66156330393468
583.5, 39.62877589391848
584, 39.552387324899684
584.5, 39.46711074119011
585, 39.42991905702381
585.5, 39.441696199785724
586, 39.47074832665872
586.5, 39.4458357952693
587, 39.354988582137324
587.5, 39.26925015328064
588, 39.22803220540547
588.5, 39.23614665668236
589, 39.25615394075225
589.5, 39.24632085372249
590, 39.2208017165154
590.5, 39.192270590586936
591, 39.14082630130254
591.5, 39.07012475766914
592, 39.015677031180964
592.5, 38.96742293123847
593, 38.885913657223135
593.5, 38.77297758996751
594, 38.655543185573954
594.5, 38.587320948421386
595, 38.60682993324566
595.5, 38.705754083785486
596, 38.80262953332527
596.5, 38.75051932434947
597, 38.61183636600038
597.5, 38.55706873860953
598, 38.468512512044875
598.5, 38.191230615968195
599, 37.8605787500571
599.5, 37.612530165233636
600, 37.454511795196154
600.5, 37.3755854600212
601, 37.36065308779807
601.5, 37.38785394213496
602, 37.420442560666515
602.5, 37.35587633561105
603, 37.14156789167208
603.5, 36.98095963529853
604, 36.99701052997794
604.5, 37.056904960130026
605, 37.055422489260835
605.5, 36.95702275438648
606, 36.810866005572834
606.5, 36.7045436902399
607, 36.63915807569636
607.5, 36.57535301798538
608, 36.44827194336819
608.5, 36.253517721846215
609, 36.10248218574252
609.5, 36.01313488211372
610, 35.89705814893114
610.5, 35.73318436603394
611, 35.55014213849509
611.5, 35.40175037179664
612, 35.311664901927614
612.5, 35.184340469971744
613, 34.988595284350225
613.5, 34.84159802541264
614, 34.769899535696524
614.5, 34.69632465413231
615, 34.58441526814761
615.5, 34.436998284758516
616, 34.322780671629175
616.5, 34.28185207756782
617, 34.20557441635806
617.5, 34.036008990813386
618, 33.84496806559204
618.5, 33.697421303965115
619, 33.63009942838289
619.5, 33.58568620165833
620, 33.479149820457806
620.5, 33.35675504236839
621, 33.28048962371666
621.5, 33.23712346662205
622, 33.204776458114864
622.5, 33.169607330621105
623, 33.13545848033792
623.5, 33.11846662551142
624, 33.101014847812735
624.5, 33.05185568772589
625, 32.964911603565824
625.5, 32.856218364582304
626, 32.77956658543049
626.5, 32.750302993621986
627, 32.71720406992878
627.5, 32.66325600575772
628, 32.60450599334601
628.5, 32.53273446246624
629, 32.438884343125764
629.5, 32.37225745411331
630, 32.34442132649971
630.5, 32.22883749406371
631, 32.010621098373576
631.5, 31.861492650348907
632, 31.7955483226676
632.5, 31.694080995875524
633, 31.570895604289817
633.5, 31.490615554494156
634, 31.438676508673993
634.5, 31.38031571204681
635, 31.28643134070144
635.5, 31.16388341245319
636, 31.064391721272514
636.5, 30.96649123268587
637, 30.802360200592986
637.5, 30.638356114032078
638, 30.56971749949919
638.5, 30.538599021456164
639, 30.47720641030631
639.5, 30.390041355921596
640, 30.302464475626195
640.5, 30.250882635992795
641, 30.22300729352699
641.5, 30.175437222830638
642, 30.12552253050326
642.5, 30.100082726671175
643, 30.050307560412534
643.5, 29.947690897217242
644, 29.85084099273851
644.5, 29.787055306413805
645, 29.728844530147967
645.5, 29.659706183753315
646, 29.573865577564646
646.5, 29.463029793064578
647, 29.326803945085302
647.5, 29.19982734908335
648, 29.11024783820467
648.5, 29.053492388811932
649, 28.992697460911415
649.5, 28.863828791800074
650, 28.705763861949265
650.5, 28.61491673061913
651, 28.561796792973254
651.5, 28.48950329192509
652, 28.435379328051425
652.5, 28.412418036229724
653, 28.342133388153698
653.5, 28.215853118609232
654, 28.115747569406068
654.5, 28.059763545857663
655, 28.02065591953928
655.5, 27.99183778519722
656, 27.967575986347214
656.5, 27.915264366955626
657, 27.82734635131787
657.5, 27.755106388004137
658, 27.70960608588321
658.5, 27.651784786632874
659, 27.58172137800939
659.5, 27.523769512681824
660, 27.479877631911663
660.5, 27.44434094357247
661, 27.414909924915932
661.5, 27.384560153241722
662, 27.33652239276398
662.5, 27.267345494923475
663, 27.188497787042323
663.5, 27.103153392656907
664, 27.01220858187456
664.5, 26.937049309282656
665, 26.889980806898947
665.5, 26.831138289295012
666, 26.743802650478813
666.5, 26.669815763436162
667, 26.623386935487048
667.5, 26.585232124604403
668, 26.553792691360982
668.5, 26.532218220580248
669, 26.484158363174657
669.5, 26.384723332778492
670, 26.284875711856657
670.5, 26.218049758985387
671, 26.163884738800874
671.5, 26.11363771904354
672, 26.074456007792577
672.5, 26.043404615032514
673, 26.008195218627506
673.5, 25.94043019099044
674, 25.832704523106102
674.5, 25.752852563606098
675, 25.736548136858346
675.5, 25.745127306743314
676, 25.744925689586637
676.5, 25.717546987552538
677, 25.682095946047525
677.5, 25.667226915693377
678, 25.645491374691687
678.5, 25.601045723670225
679, 25.59788301059217
679.5, 25.654179739691827
680, 25.697768463993896
680.5, 25.708508818914083
681, 25.71678275763084
681.5, 25.711699484455607
682, 25.669142092688517
682.5, 25.61262084757017
683, 25.572398062024632
683.5, 25.558470758091588
684, 25.561683091606184
684.5, 25.551068390204733
685, 25.531716428730903
685.5, 25.53499903581688
686, 25.531296295407145
686.5, 25.475654428456323
687, 25.398214515609737
687.5, 25.340005800313392
688, 25.315011921831896
688.5, 25.317335422844806
689, 25.319882806878184
689.5, 25.318741961899477
690, 25.328955851109185
690.5, 25.349155413395806
691, 25.369623829628793
691.5, 25.38062765469168
692, 25.37144232420046
692.5, 25.329354996451826
693, 25.259725453166865
693.5, 25.19245464385976
694, 25.146040537848464
694.5, 25.125137809959995
695, 25.109782093942783
695.5, 25.077682564859728
696, 25.044010764644753
696.5, 25.025038836544965
697, 25.017329598320615
697.5, 25.017292005901382
698, 25.02386897278049
698.5, 25.022712883461622
699, 24.994412109218217
699.5, 24.959218384020502
700, 24.942987144153904
700.5, 24.923308772770852
701, 24.88651748815154
701.5, 24.863542193656656
702, 24.865849786020675
702.5, 24.87448269919517
703, 24.893060336786903
703.5, 24.938233497457304
704, 24.990243923963348
704.5, 25.019108708625765
705, 25.015612741054127
705.5, 24.983281847096308
706, 24.941891172434026
706.5, 24.907919739929966
707, 24.891033613885455
707.5, 24.896133369039973
708, 24.92025619395376
708.5, 24.92877826915739
709, 24.889156978729474
709.5, 24.822536164284003
710, 24.763945173583963
710.5, 24.75059122147158
711, 24.773759673669247
711.5, 24.776912772936782
712, 24.775581220597985
712.5, 24.82128368321783
713, 24.87059851882637
713.5, 24.87194028591867
714, 24.872986773732407
714.5, 24.887460822874658
715, 24.827222600342807
715.5, 24.69736321941231
716, 24.610472994184278
716.5, 24.573559446642776
717, 24.529736831369846
717.5, 24.474964924074172
718, 24.422592520083086
718.5, 24.37701150303387
719, 24.33107018227456
719.5, 24.261615856773517
720, 24.19019087817415
720.5, 24.17995284869413
721, 24.206592866982888
721.5, 24.20639166211639
722, 24.21057606704997
722.5, 24.258701811732195
723, 24.310905461842452
723.5, 24.331283016714792
724, 24.318170742322962
724.5, 24.281561672627234
725, 24.239747515510572
725.5, 24.210120747937538
726, 24.204510685992858
726.5, 24.208641210226432
727, 24.207583872580997
727.5, 24.2105522959813
728, 24.226121747221825
728.5, 24.25343843010394
729, 24.271018872420328
729.5, 24.244921623551804
730, 24.209521029139154
730.5, 24.220431492457763
731, 24.23877244777087
731.5, 24.215160199322526
732, 24.15715856855688
732.5, 24.08713179328069
733, 24.0333123610627
733.5, 23.985951881498423
734, 23.908236717658355
734.5, 23.84898008289028
735, 23.879314043977047
735.5, 23.945842492054638
736, 23.984226354460077
736.5, 24.003953818351505
737, 24.00824038069031
737.5, 23.973958125970228
738, 23.91879444219572
738.5, 23.894173694104737
739, 23.906712753990973
739.5, 23.938810804441346
740, 23.972648731705434
740.5, 23.993860394704285
741, 23.997018765978083
741.5, 23.98083544183669
742, 23.94860716267445
742.5, 23.914176798655603
743, 23.896140790152856
743.5, 23.879088649022705
744, 23.837486225227238
744.4999999999999, 23.77729016574088
744.9999999999999, 23.7187784274756
745.5, 23.695390473599474
746, 23.727453149638237
746.5, 23.811310927000193
747, 23.897281328643118
747.4999999999999, 23.911449531975734
747.9999999999999, 23.87871153138444
748.5, 23.852674365967076
749, 23.805698301410715
749.5, 23.71887265013875
750, 23.643649605825033
750.4999999999999, 23.597644412282023
750.9999999999999, 23.541566279325053
751.5, 23.471412160963638
752, 23.411774398433366
752.5, 23.367625520503566
753, 23.333592510300875
753.4999999999999, 23.300419353516986
753.9999999999999, 23.273656673686446
754.5, 23.292879610271854
755, 23.350414343021768
755.5, 23.37509847779802
756, 23.346995628673966
756.4999999999999, 23.287884345542466
756.9999999999999, 23.216437631199682
757.5, 23.147017731552253
758, 23.08441818265493
758.5, 23.04081508298951
759, 23.04771158792566
759.4999999999999, 23.08878043994507
759.9999999999999, 23.091561022729337
760.5, 23.06820795665169
761, 23.083980254687603
761.5, 23.128415578784754
762, 23.16656191494623
762.4999999999999, 23.192020010107925
762.9999999999999, 23.208293397057957
763.5, 23.22491123845782
764, 23.22785118141931
764.5, 23.179284847435667
765, 23.10618804721095
765.4999999999999, 23.071062733179858
765.9999999999999, 23.06710323268402
766.5, 23.066706713380995
767, 23.067599498180314
767.5, 23.069073635090902
768, 23.06278233456152
768.4999999999999, 23.045227472021764
768.9999999999999, 23.019107504728964
769.5, 22.98317132964462
770, 22.93512784156154
770.5, 22.883955291757687
771, 22.836739361947522
771.4999999999999, 22.779973598541247
771.9999999999999, 22.710562433869896
772.5, 22.652540507152366
773, 22.62088787096158
773.5, 22.615744162152936
774, 22.617469055398033
774.4999999999999, 22.598073904937465
774.9999999999999, 22.552109958276446
775.5, 22.492568496696236
776, 22.464327929839442
776.5, 22.472634255695795
777, 22.443259649544174
777.4999999999999, 22.368219364598048
777.9999999999999, 22.310817530467176
778.5, 22.26312913527623
779, 22.18370190370949
779.5, 22.09927491135791
780, 22.044293216375422
780.4999999999999, 22.004247645996088
780.9999999999999, 21.968495221508476
781.5, 21.947967932011352
782, 21.933504845250738
782.5, 21.896778065294612
783, 21.841079338125212
783.4999999999999, 21.786504429270025
783.9999999999999, 21.741179413393198
784.5, 21.706473856098768
785, 21.676073232162594
785.5, 21.654882047773555
786, 21.66627172576392
786.4999999999999, 21.68726289941951
786.9999999999999, 21.657304579016355
787.5, 21.599061605835047
788, 21.562143187250072
788.5, 21.491639985870265
789, 21.350132809839778
789.4999999999999, 21.23887181287526
789.9999999999999, 21.208891061872094
790.5, 21.19640617589191
791, 21.159997439773264
791.5, 21.092529847091214
792, 21.027418836513718
792.4999999999999, 21.004345707935016
792.9999999999999, 20.991475328180528
793.5, 20.949439295915525
794, 20.876107318622857
794.5, 20.788667260390795
794.9999999999999, 20.721433919863586
795.4999999999999, 20.65717955883666
795.9999999999999, 20.543446905922195
796.5, 20.427704629957205
797, 20.382627892613513
797.4999999999999, 20.357948595430116
797.9999999999999, 20.296460892969947
798.4999999999999, 20.21240143404762
798.9999999999999, 20.127135565402924
799.5, 20.055172534923983
800, 19.99011711663674
800.4999999999999, 19.911569000311133
800.9999999999999, 19.825721928924565
801.4999999999999, 19.75031520276322
801.9999999999999, 19.695373187601405
802.5, 19.652997190951083
803, 19.57844366174791
803.4999999999999, 19.471318456513103
803.9999999999999, 19.395896843183223
804.4999999999999, 19.35299305063785
805, 19.29212202276709
805.5, 19.194101926399668
806, 19.06713485452687
806.4999999999999, 18.969029236941566
806.9999999999999, 18.92504731890618
807.4999999999999, 18.857951765282493
808, 18.749680226492444
808.5, 18.674338142691937
809, 18.63189992767353
809.4999999999999, 18.56910009632361
809.9999999999999, 18.501569603800306
810.4999999999999, 18.4632156817258
811, 18.435179353089566
811.5, 18.391046612947065
812, 18.316968400080142
812.4999999999999, 18.214567791761255
812.9999999999999, 18.103185544610355
813.4999999999999, 18.005631010284077
814, 17.939106860659734
814.5, 17.86926435398641
815, 17.757785583368488
815.4999999999999, 17.634639852242998
815.9999999999999, 17.531011891741628
816.4999999999999, 17.446453698125964
817, 17.365376059027767
817.5, 17.261113784418626
818, 17.139955055949827
818.4999999999999, 17.02926983595853
818.9999999999999, 16.936932792745807
819.4999999999999, 16.857227672102383
820, 16.765181778538945
820.5, 16.657881641397665
821, 16.584402636148525
821.4999999999999, 16.571069125865534
821.9999999999999, 16.605796340122524
822.4999999999999, 16.616842434520038
823, 16.519332498045515
823.5, 16.39446064923672
823.9999999999999, 16.346584237054984
824.4999999999999, 16.336462367210558
824.9999999999999, 16.31969488350495
825.4999999999999, 16.300331549628552
826, 16.26835171447017
826.5, 16.196328024201804
826.9999999999999, 16.108736963302277
827.4999999999999, 16.052851719771724
827.9999999999999, 16.004756929138395
828.4999999999999, 15.934187335097718
829, 15.877163217367695
829.5, 15.848457588211147
829.9999999999999, 15.800871670959907
830.4999999999999, 15.729125113268225
830.9999999999999, 15.67658745866025
831.4999999999999, 15.650515528830894
832, 15.634657354434509
832.5, 15.616452711495711
832.9999999999999, 15.58706938838364
833.4999999999999, 15.544955280652474
833.9999999999999, 15.504861075789933
834.4999999999999, 15.505874903368053
835, 15.54560110267964
835.5, 15.579176447002752
835.9999999999999, 15.588717485882512
836.4999999999999, 15.576132773090052
836.9999999999999, 15.556554259485992
837.4999999999999, 15.548574121440083
838, 15.567819163797282
838.5, 15.617570754936622
838.9999999999999, 15.681584062906637
839.4999999999999, 15.74893671355602
839.9999999999999, 15.81424617279032
840.4999999999999, 15.85695648575394
841, 15.862892827371795
841.5, 15.89697520829948
841.9999999999999, 16.002152752898283
842.4999999999999, 16.08772594513343
842.9999999999999, 16.11423752394292
843.4999999999999, 16.158880363607736
844, 16.232173390192145
844.5, 16.278689045253913
844.9999999999999, 16.30672081430272
845.4999999999999, 16.3520690179937
845.9999999999999, 16.406152256344996
846.4999999999999, 16.447690112786134
847, 16.458703143519926
847.5, 16.440028698593537
847.9999999999999, 16.41948105662877
848.4999999999999, 16.404068759246158
848.9999999999999, 16.382724944340836
849.4999999999999, 16.36920838142197
850, 16.382289210426052
850.5, 16.401203461276936
850.9999999999999, 16.403985448417075
851.4999999999999, 16.39576048106605
851.9999999999999, 16.392484137920633
852.4999999999999, 16.417497024552887
853, 16.454377669662676
853.5, 16.46210037694088
853.9999999999999, 16.486883927613718
854.4999999999999, 16.587340838606636
854.9999999999999, 16.67898231939516
855.4999999999999, 16.6951687209598
856, 16.710687758048607
856.5, 16.751808304471652
856.9999999999999, 16.750437515152555
857.4999999999999, 16.708145386633916
857.9999999999999, 16.682553635441266
858.4999999999999, 16.669966724409093
859, 16.64766997918818
859.5, 16.641252650877817
859.9999999999999, 16.671496716325308
860.4999999999999, 16.71804888246001
860.9999999999999, 16.780918442440225
861.4999999999999, 16.891252973296304
862, 17.012064195416244
862.5, 17.065634671463428
862.9999999999999, 17.089855499777826
863.4999999999999, 17.15729829466204
863.9999999999999, 17.262976073288712
864.4999999999999, 17.373546952394705
865, 17.43796749156526
865.5, 17.463016087972647
865.9999999999999, 17.52835896884136
866.4999999999999, 17.638917840570215
866.9999999999999, 17.742404346688858
867.4999999999999, 17.81142526237825
868, 17.848277139569674
868.5, 17.925040715482396
868.9999999999999, 18.068423760668338
869.4999999999999, 18.174051140290246
869.9999999999999, 18.214698440294598
870.4999999999999, 18.275881689401984
871, 18.387780037938285
871.5, 18.53062238003686
871.9999999999999, 18.654463654594394
872.4999999999999, 18.722621330294288
872.9999999999999, 18.792144808622538
873.4999999999999, 18.90697652604466
874, 19.039405050987497
874.5, 19.1431721094431
874.9999999999999, 19.170512918782862
875.4999999999999, 19.204774406708594
875.9999999999999, 19.388713234891867
876.4999999999999, 19.654152678109014
877, 19.87129669209621
877.5, 19.993468283089953
877.9999999999999, 20.046569392371012
878.4999999999999, 20.15825282354281
878.9999999999999, 20.324142162182653
879.4999999999999, 20.392423887246707
880, 20.41359979263717
880.5, 20.545232117964133
880.9999999999999, 20.734811261434928
881.4999999999999, 20.874987211025655
881.9999999999999, 20.947133571046024
882.4999999999999, 20.985103387341226
883, 21.084458508271027
883.5, 21.293522224807376
883.9999999999999, 21.593377501864097
884.4999999999999, 21.870700604959154
884.9999999999999, 21.992330627779083
885.4999999999999, 22.052224044823404
886, 22.176258517042584
886.5, 22.326933918859226
886.9999999999999, 22.45079676599049
887.4999999999999, 22.527482705374283
887.9999999999999, 22.62052306811509
888.4999999999999, 22.85504168619218
889, 23.109534163262964
889.5, 23.184140057530158
889.9999999999999, 23.299266234818447
890.4999999999999, 23.653988714979562
890.9999999999999, 23.937836773917425
891.4999999999999, 23.963980368276736
892, 23.924074794062392
892.5, 24.029741016232578
892.9999999999999, 24.439864597831615
893.4999999999999, 24.95061112557252
893.9999999999999, 25.22696956467503
894.4999999999999, 25.36534600240509
895, 25.54843476498091
895.5, 25.790936390539983
895.9999999999999, 26.051882889541858
896.4999999999999, 26.252354658834335
896.9999999999999, 26.391946166782688
897.4999999999999, 26.54493129470869
898, 26.743597268955128
898.5, 26.979828679968705
898.9999999999999, 27.16928041318404
899.4999999999999, 27.27124795485659
899.9999999999999, 27.43075281602988
900.4999999999999, 27.719138718748752
901, 28.04184138610718
901.5, 28.304102491289868
901.9999999999999, 28.444075202296204
902.4999999999999, 28.580248651810336
902.9999999999999, 28.867386806515086
903.4999999999999, 29.169240366264205
904, 29.33902815106751
904.5, 29.434512277918515
904.9999999999999, 29.52927703669839
905.4999999999999, 29.667665603324835
905.9999999999999, 29.841970703611366
906.4999999999999, 30.00725235308407
907, 30.176745183008165
907.4999999999999, 30.38812703633407
907.9999999999999, 30.65039742355485
908.4999999999999, 30.936113687610188
908.9999999999999, 31.149161497090276
909.4999999999999, 31.2980335847693
910, 31.547252950955254
910.4999999999999, 31.884497944253525
910.9999999999999, 32.1542950587895
911.4999999999999, 32.34293639122029
911.9999999999999, 32.51009695847853
912.4999999999999, 32.72069787371615
913, 32.99489831027611
913.4999999999999, 33.24325591006186
913.9999999999999, 33.42339509060595
914.4999999999999, 33.57979708566384
914.9999999999999, 33.74886152115235
915.4999999999999, 33.948806872259894
916, 34.14759420911939
916.4999999999999, 34.3153897460427
916.9999999999999, 34.52918865944255
917.4999999999999, 34.84139598955166
917.9999999999999, 35.18399066157299
918.4999999999999, 35.48926643932249
919, 35.71862142099491
919.4999999999999, 35.93020920741846
919.9999999999999, 36.23462550326189
920.4999999999999, 36.583687222794616
920.9999999999999, 36.87841635867867
921.4999999999999, 37.10489500724808
922, 37.28577263233532
922.4999999999999, 37.47605590710706
922.9999999999999, 37.68252372029759
923.4999999999999, 37.85143322871138
923.9999999999999, 38.016504589591634
924.4999999999999, 38.261329272419964
925, 38.54008892918374
925.4999999999999, 38.76229836964552
925.9999999999999, 38.881720924505494
926.4999999999999, 38.93747135891923
926.9999999999999, 39.12065663886851
927.4999999999999, 39.45936722328673
928, 39.767475405279434
928.4999999999999, 39.957229204150494
928.9999999999999, 40.04363709559954
929.4999999999999, 40.196122893520744
929.9999999999999, 40.55396990494449
930.4999999999999, 40.92296711346903
931, 41.15813239182599
931.4999999999999, 41.3620812841954
931.9999999999999, 41.58424397017253
932.4999999999999, 41.78011141105233
932.9999999999999, 41.937745738728175
933.4999999999999, 42.072374222149044
934, 42.20680133057193
934.4999999999999, 42.363072632011466
934.9999999999999, 42.55094671919368
935.4999999999999, 42.75781042675575
935.9999999999999, 42.93585118530762
936.4999999999999, 43.11157092849803
937, 43.38385592153442
937.4999999999999, 43.671939747437065
937.9999999999999, 43.81743901095281
938.4999999999999, 43.92122921819662
938.9999999999999, 44.13519282593004
939.4999999999999, 44.45789201787435
940, 44.803340559009854
940.4999999999999, 44.9949620173203
940.9999999999999, 45.037084642521016
941.4999999999999, 45.129400947048964
941.9999999999999, 45.372506864717074
942.4999999999999, 45.76297753729348
943, 46.09242211537752
943.4999999999999, 46.206319954699985
943.9999999999999, 46.343088688017694
944.4999999999999, 46.62788311379674
944.9999999999999, 46.858182673420195
945.4999999999999, 46.95764931070087
946, 47.01515592662089
946.4999999999999, 47.13501103042405
946.9999999999999, 47.39034818454882
947.4999999999999, 47.65774027491368
947.9999999999999, 47.80953769479226
948.4999999999999, 47.90449199712749
949, 48.0260472314829
949.4999999999999, 48.23602002616885
949.9999999999999, 48.4819602533084
950.4999999999999, 48.62070683746775
950.9999999999999, 48.70659604860434
951.4999999999999, 48.88165915164367
952, 49.14011525399431
952.4999999999999, 49.42194321676554
952.9999999999999, 49.651648629923464
953.4999999999999, 49.824135498944024
953.9999999999999, 50.046987188574306
954.4999999999999, 50.32594931460306
955, 50.566203733459865
955.4999999999999, 50.72212963190838
955.9999999999999, 50.810379885953736
956.4999999999999, 51.01077633073077
956.9999999999999, 51.41491689156492
957.4999999999999, 51.742299895150545
958, 51.85035396047388
958.4999999999999, 51.901477365090486
958.9999999999999, 51.99058366068504
959.4999999999999, 52.12053689661922
959.9999999999999, 52.22801278708934
960.4999999999999, 52.26610348318321
961, 52.4217101060838
961.4999999999999, 52.78657213534901
961.9999999999999, 53.0330858796853
962.4999999999999, 53.04161988665627
962.9999999999999, 53.08676868372871
963.4999999999999, 53.24246143483923
964, 53.39249291829243
964.4999999999999, 53.51803361366109
964.9999999999999, 53.633743149245994
965.4999999999999, 53.66983049086985
965.9999999999999, 53.65416321773417
966.4999999999999, 53.90662411075569
967, 54.4131915872508
967.4999999999999, 54.65695074208763
967.9999999999999, 54.650733836928815
968.4999999999999, 54.81982562711857
968.9999999999999, 55.109090406277105
969.4999999999999, 55.279879173003344
970, 55.326924247411895
970.4999999999999, 55.30974408539635
970.9999999999999, 55.29174868919746
971.4999999999999, 55.30850313307302
971.9999999999999, 55.3567843507957
972.4999999999999, 55.42819370305169
973, 55.5197078199386
973.4999999999999, 55.68395823564207
973.9999999999999, 55.95714359733389
974.4999999999999, 56.20430256837839
974.9999999999999, 56.31899511079854
975.4999999999999, 56.358162156314556
976, 56.42847340881326
976.4999999999999, 56.656588256738765
976.9999999999999, 56.939419435599035
977.4999999999999, 57.046067910870256
977.9999999999999, 57.09821920429558
978.4999999999999, 57.2903545400839
979, 57.4906245177884
979.4999999999999, 57.57900452014635
979.9999999999999, 57.6309848791516
980.4999999999999, 57.71334712414222
980.9999999999999, 57.845690828279054
981.4999999999999, 57.98093957482811
982, 58.047095143930754
982.4999999999999, 58.121486423431946
982.9999999999999, 58.290982764965726
983.4999999999999, 58.44461437258461
983.9999999999999, 58.50800062875835
984.4999999999999, 58.573664585639946
985, 58.665201384699145
985.4999999999999, 58.70535470732733
985.9999999999999, 58.69231636174072
986.4999999999999, 58.6747300099287
986.9999999999999, 58.6580650795347
987.4999999999999, 58.648569843530424
988, 58.71729944224111
988.4999999999999, 58.867666370481544
988.9999999999999, 58.94623401788794
989.4999999999999, 58.91502373367951
989.9999999999999, 58.883463459619165
990.4999999999999, 58.89448198318912
991, 58.941855332318006
991.4999999999999, 59.02524162811998
991.9999999999999, 59.14629314806895
992.4999999999999, 59.304326617592565
992.9999999999999, 59.46876717755104
993.4999999999999, 59.55667932798165
993.9999999999999, 59.56205486026411
994.4999999999999, 59.559906610935386
994.9999999999999, 59.51450366066366
995.4999999999999, 59.35022265809818
995.9999999999999, 59.1923779847835
996.4999999999999, 59.17274799177772
996.9999999999999, 59.20801797797003
997.4999999999999, 59.24487652013123
997.9999999999999, 59.357154674554785
998.4999999999999, 59.520390638884216
998.9999999999999, 59.603741771286465
999.4999999999999, 59.594146869584755
999.9999999999999, 59.556121384684026
1000.4999999999999, 59.564716506468024
1000.9999999999999, 59.65353245913632
1001.4999999999999, 59.7205678871948
1001.9999999999999, 59.715128545068104
1002.4999999999999, 59.716244064223226
1002.9999999999999, 59.73862475811362
1003.4999999999999, 59.72550583096259
1003.9999999999999, 59.68390332659993
1004.4999999999999, 59.651110130719815
1004.9999999999999, 59.61519534521324
1005.4999999999999, 59.56217990929214
1005.9999999999999, 59.51999475461739
1006.4999999999999, 59.503770576098965
1006.9999999999999, 59.49589199672774
1007.4999999999999, 59.495873643030635
1007.9999999999999, 59.51993510295978
1008.4999999999999, 59.557214326846506
1008.9999999999999, 59.579786439509284
1009.4999999999999, 59.55273212387742
1009.9999999999999, 59.47428640766781
1010.4999999999999, 59.43949757684093
1010.9999999999999, 59.48047701368998
1011.4999999999999, 59.50741281579089
1011.9999999999999, 59.50051697159026
1012.4999999999999, 59.506951965913494
1012.9999999999999, 59.502097523703995
1013.4999999999999, 59.44078267438257
1013.9999999999999, 59.372746039509586
1014.4999999999999, 59.349525667585254
1014.9999999999999, 59.351182125073436
1015.4999999999999, 59.35289211276673
1015.9999999999999, 59.34119194938587
1016.4999999999999, 59.322656059866304
1016.9999999999999, 59.315525618122805
1017.4999999999999, 59.29204922298837
1017.9999999999999, 59.212026617403886
1018.4999999999999, 59.08849991433793
1018.9999999999999, 58.95861362110807
1019.4999999999999, 58.88057982562901
1019.9999999999999, 58.86802085614788
1020.4999999999999, 58.86860344918787
1020.9999999999999, 58.88645548391124
1021.4999999999999, 58.961059574259394
1021.9999999999999, 58.99095628423642
1022.4999999999999, 58.860125647316636
1022.9999999999999, 58.69689661335638
1023.4999999999999, 58.6147566152114
1023.9999999999999, 58.53029708275793
1024.5, 58.393411369803744
1025, 58.24056565672934
1025.5, 58.11024955693058
1026, 58.02751691467336
1026.5, 57.939871423537234
1027, 57.79906881539164
1027.5, 57.72692536278438
1028, 57.80465409097671
1028.5, 57.918693806389065
1029, 57.99945974180692
1029.5, 58.0696745895471
1030, 58.11596242393404
1030.5, 58.09590950772692
1031, 57.99796903287014
1031.5, 57.84088629000843
1032, 57.706946088258086
1032.5, 57.65063486141388
1033, 57.630449953781294
1033.5, 57.60004851862904
1034, 57.526177743700885
1034.5, 57.41806178105232
1035, 57.314813785083736
1035.5, 57.246507439612216
1036, 57.20907778427562
1036.5, 57.08549599852917
1037, 56.83700325577782
1037.5, 56.64236618273368
1038, 56.570919145788544
1038.5, 56.528998056542264
1039, 56.47607965339525
1039.5, 56.418655309271486
1040, 56.37524147820525
1040.5, 56.35230790958251
1041, 56.296636346891106
1041.5, 56.18000919997681
1042, 56.04993878896149
1042.5, 55.90444517687665
1043, 55.68123718825865
1043.5, 55.42103326713397
1044, 55.23104534809183
1044.5, 55.17599737081256
1045, 55.25332813371915
1045.5, 55.28893663512759
1046, 55.17613258696406
1046.5, 55.00843800664773
1047, 54.873211081956605
1047.5, 54.81438097716503
1048, 54.744340243363446
1048.5, 54.527949873907886
1049, 54.25777977421437
1049.5, 54.073852660251596
1050, 53.98964757131135
1050.5, 53.95388844215883
1051, 53.847745562780595
1051.5, 53.65090179066524
1052, 53.45426408776913
1052.5, 53.322123227940516
1053, 53.28359865810496
1053.5, 53.281723873838395
1054, 53.26626429571984
1054.5, 53.30300495163612
1055, 53.39002657539453
1055.5, 53.37230549542183
1056, 53.23584641019669
1056.5, 53.11952323175089
1057, 53.07342109538132
1057.5, 53.06511321005055
1058, 52.92687211235987
1058.5, 52.57294949829032
1059, 52.29662036499594
1059.5, 52.26514833377206
1060, 52.31560446917352
1060.5, 52.29609841670349
1061, 52.11311441275116
1061.5, 51.83473073194406
1062, 51.6035350563339
1062.5, 51.470902211957885
1063, 51.41078657952306
1063.5, 51.26440508447252
1064, 50.99518203709112
1064.5, 50.79389106752035
1065, 50.69576752363137
1065.5, 50.58286106576222
1066, 50.46564833020183
1066.5, 50.40705162907595
1067, 50.36106522516808
1067.5, 50.2783946884473
1068, 50.1924251809751
1068.5, 50.10235869207359
1069, 49.93815018689332
1069.5, 49.72640047696167
1070, 49.57402957950754
1070.5, 49.473608731161484
1071, 49.36563780160334
1071.5, 49.23790811827383
1072, 49.09971490903808
1072.5, 48.9787414989882
1073, 48.86871538759992
1073.5, 48.714305695396845
1074, 48.559604081845606
1074.5, 48.51426252541988
1075, 48.48088757044435
1075.5, 48.313103641687064
1076, 48.121018141829026
1076.5, 48.02400085363925
1077, 47.9849235120514
1077.5, 47.941836158167945
1078, 47.83532000725093
1078.5, 47.673668474632734
1079, 47.51770156288468
1079.5, 47.39794276776036
1080, 47.31234603017353
1080.5, 47.18557046966189
1081, 46.988380224693586
1081.5, 46.84472432755201
1082, 46.802481425221465
1082.5, 46.77836670555867
1083, 46.72228482971813
1083.5, 46.62207134497559
1084, 46.49557053990637
1084.5, 46.366145067623926
1085, 46.225006588596045
1085.5, 46.070296194734716
1086, 45.933952455225814
1086.5, 45.83433381473604
1087, 45.76479934766209
1087.5, 45.69929241827906
1088, 45.60535198105117
1088.5, 45.50263123067244
1089, 45.43065538752177
1089.5, 45.41595107506399
1090, 45.416899236282276
1090.5, 45.25769930001217
1091, 44.96135393028304
1091.5, 44.79766966462578
1092, 44.719526063946155
1092.5, 44.48929325775116
1093, 44.23771839624326
1093.5, 44.16436545291876
1094, 44.14029773565408
1094.5, 44.023887132995654
1095, 43.807196689429084
1095.5, 43.57521219618949
1096, 43.48808750957396
1096.5, 43.49484630836287
1097, 43.426973114485904
1097.5, 43.33874023964422
1098, 43.324068594586436
1098.5, 43.29629758397197
1099, 43.18465769853159
1099.5, 43.0279969851244
1100, 42.85955444838731
1100.5, 42.6907410754725
1101, 42.52416152426424
1101.5, 42.36074677407169
1102, 42.22290686745929
1102.5, 42.11159893871635
1103, 41.92848589409778
1103.5, 41.64791732324645
1104, 41.41708356944224
1104.5, 41.29496013350623
1105, 41.22371997636699
1105.5, 41.15814401941103
1106, 41.076714457924965
1106.5, 41.027228472127696
1107, 41.027011226178026
1107.5, 40.91595691869954
1108, 40.657967133128736
1108.5, 40.49669596614329
1109, 40.48689695170097
1109.5, 40.462501640647744
1110, 40.35491167176298
1110.5, 40.17734559971873
1111, 40.02805541821546
1111.5, 39.97092360821934
1112, 39.87599808552991
1112.5, 39.68289531797505
1113, 39.51208813920205
1113.5, 39.421339031783496
1114, 39.38288069843713
1114.5, 39.32614694530004
1115, 39.18418401047428
1115.5, 39.03306137238615
1116, 38.94829914161949
1116.5, 38.865000632549126
1117, 38.74431994834964
1117.5, 38.629399920037855
1118, 38.498180169519294
1118.5, 38.27233832297481
1119, 38.012811885840854
1119.5, 37.833526160394804
1120, 37.70987543177532
1120.5, 37.59861874208945
1121, 37.52751909929156
1121.5, 37.498892110053
1122, 37.45661320361433
1122.5, 37.36697603766209
1123, 37.228378369720865
1123.5, 37.09943216060274
1124, 37.035130189792554
1124.5, 36.9177757326707
1125, 36.664377883846434
1125.5, 36.421988140371234
1126, 36.28742920232114
1126.5, 36.22275228659241
1127, 36.158726637223765
1127.5, 36.020527043464526
1128, 35.84035535437981
1128.5, 35.68648255769851
1129, 35.537042983241435
1129.5, 35.374812264121346
1130, 35.259744532740484
1130.5, 35.21321419451395
1131, 35.18382105680857
1131.5, 35.130345308489524
1132, 35.030364574680945
1132.5, 34.90497691421092
1133, 34.78732095956113
1133.5, 34.66984848688324
1134, 34.53091669248461
1134.5, 34.34288494530979
1135, 34.11866163060398
1135.5, 33.925836556503796
1136, 33.78541789510781
1136.5, 33.674637326763744
1137, 33.551739882372715
1137.5, 33.39015275960088
1138, 33.26196460561434
1138.5, 33.20377959407551
1139, 33.11202490255681
1139.5, 32.93957009612697
1140, 32.7412087337479
1140.5, 32.58046754415648
1141, 32.50795054791425
1141.5, 32.4681254213627
1142, 32.37618311301051
1142.5, 32.22195326006555
1143, 32.0404272074902
1143.5, 31.92282761399717
1144, 31.88252813584316
1144.5, 31.831010259155676
1145, 31.779590981525402
1145.5, 31.795477255628427
1146, 31.77576532404194
1146.5, 31.606118253905635
1147, 31.410752342724493
1147.5, 31.301926894309332
1148, 31.246268562082776
1148.5, 31.18479089961997
1149, 31.056942029639245
1149.5, 30.89869757642549
1150, 30.797845490296467
1150.5, 30.723230234029202
1151, 30.614451918729173
1151.5, 30.485047064651866
1152, 30.36271074129965
1152.5, 30.26785700784295
1153, 30.15903043783821
1153.5, 29.938368005272935
1154, 29.698988684253933
1154.5, 29.62363625475274
1155, 29.612540573709808
1155.5, 29.517985620693594
1156, 29.413790892347237
1156.5, 29.364271140382627
1157, 29.323580636079413
1157.5, 29.255707193721676
1158, 29.15200278601634
1158.5, 29.030361676255268
1159, 28.92098528689837
1159.5, 28.828224517906094
1160, 28.74512866537536
1160.5, 28.659895778532302
1161, 28.562172650433496
1161.5, 28.446272989412847
1162, 28.310914913713518
1162.5, 28.1600939038959
1163, 28.00998063477938
1163.5, 27.881007920155724
1164, 27.774707750493505
1164.5, 27.692889028116454
1165, 27.65886388438392
1165.5, 27.63304019365404
1166, 27.465123917871125
1166.5, 27.19100523403145
1167, 27.027763508964526
1167.5, 26.951717770388242
1168, 26.819260188052155
1168.5, 26.656456833247603
1169, 26.527870038755154
1169.5, 26.437384480419198
1170, 26.37160137029936
1170.5, 26.30777687688888
1171, 26.239844772542412
1171.5, 26.17523559297885
1172, 26.082184830171286
1172.5, 25.919451418903265
1173, 25.716841861499546
1173.5, 25.52908010189286
1174, 25.41471499240106
1174.5, 25.372703415995602
1175, 25.308128724091276
1175.5, 25.199745680851834
1176, 25.098324719345527
1176.5, 24.99774443351295
1177, 24.87290182033324
1177.5, 24.7691289518325
1178, 24.712374311283938
1178.5, 24.616962856627865
1179, 24.445611830893128
1179.5, 24.263225663267406
1180, 24.099220698807983
1180.5, 23.945851528682113
1181, 23.82329551273058
1181.5, 23.752643530588486
1182, 23.68566003779287
1182.5, 23.583939994599632
1183, 23.487414861748775
1183.5, 23.408800777594422
1184, 23.30294192015225
1184.5, 23.144334805463515
1185, 22.933730494032403
1185.5, 22.714826217273796
1186, 22.54178635435919
1186.5, 22.419566671951543
1187, 22.33389981969313
1187.5, 22.257670970528437
1188, 22.174132577087875
1188.5, 22.08373115065271
1189, 21.981707616110782
1189.5, 21.861658596293097
1190, 21.7479201016032
1190.5, 21.665342851236304
1191, 21.576794538070118
1191.5, 21.465388839691116
1192, 21.400200979521216
1192.5, 21.39186759716354
1193, 21.359661318898574
1193.5, 21.30344602398877
1194, 21.284079064467576
1194.5, 21.294909777305165
1195, 21.296929528572377
1195.5, 21.250267508796824
1196, 21.14721314225993
1196.5, 21.05171518869237
1197, 20.975175331976104
1197.5, 20.852642651102713
1198, 20.69360010622198
1198.5, 20.560187108467233
1199, 20.453211503271405
1199.5, 20.351168644986913
1200, 20.253890998832446
1200.5, 20.15788758175168
1201, 20.04215004473116
1201.5, 19.919749715974177
1202, 19.841928713878218
1202.5, 19.758420038261335
1203, 19.57015027540207
1203.5, 19.369092052315068
1203.9999999999998, 19.27408547837271
1204.5, 19.201566080974914
1205, 19.09102006524266
1205.5, 19.024596278864294
1206, 19.017185538559033
1206.4999999999998, 18.987723784013014
1207, 18.93063666588779
1207.4999999999998, 18.887015657476425
1208, 18.828774091593715
1208.5, 18.730894339778686
1209, 18.679051926627693
1209.5, 18.686402364912496
1209.9999999999998, 18.58037037590651
1210.5, 18.357545142518077
1211, 18.2185742189333
1211.5, 18.17659518275542
1212, 18.128111024248625
1212.4999999999998, 18.079322671319005
1213, 18.06147227608747
1213.4999999999998, 18.044588540004042
1214, 17.999070551534572
1214.5, 17.92134922897546
1215, 17.833957861550047
1215.5, 17.78061975099044
1215.9999999999998, 17.754385432198802
1216.5, 17.71820077836314
1217, 17.655032194929277
1217.5, 17.567192336716047
1218, 17.494551267315273
1218.4999999999998, 17.44952287683097
1219, 17.382663687538013
1219.4999999999998, 17.27757638712164
1220, 17.16048475233073
1220.5, 17.067331360733434
1220.9999999999998, 17.030012268997567
1221.5, 17.030699017349576
1221.9999999999998, 17.03657143309735
1222.5, 17.022508212991255
1223, 16.975137055926567
1223.5, 16.899388802662088
1224, 16.81328272304323
1224.4999999999998, 16.744475326808924
1225, 16.702368732488083
1225.4999999999998, 16.68652424228705
1226, 16.703131065227183
1226.5, 16.737616711053846
1226.9999999999998, 16.709066993370385
1227.5, 16.600060243130258
1227.9999999999998, 16.514316433373182
1228.5, 16.472781468720072
1229, 16.410632326949596
1229.5, 16.317459297952126
1230, 16.218655752002974
1230.4999999999998, 16.15449240120209
1231, 16.126458650340908
1231.4999999999998, 16.017374983629324
1232, 15.849868640064514
1232.5, 15.893332285504911
1248, 15.74364225537353
1248.4999999999998, 15.650985873842373
1249, 15.776597218482081
1249.4999999999998, 15.878778760894505
1250, 15.835121418465803
1250.5, 15.746568088275723
1250.9999999999998, 15.684540331617328
1251.5, 15.675865606791305
1251.9999999999998, 15.678428670634304
1252.5, 15.638095646762793
1253, 15.575816162881083
1253.5, 15.522018343876965
1254, 15.486228996917959
1254.4999999999998, 15.470128242478268
1255, 15.469646525574205
1255.4999999999998, 15.490732493341838
1256, 15.54139884979223
1256.5, 15.588769894152634
1256.9999999999998, 15.59690897921844
1257.5, 15.58590674172325
1257.9999999999998, 15.573016885437852
1258.5, 15.542038470504082
1259, 15.504124237885009
1259.5, 15.504579463310804
1260, 15.526793094544004
1260.4999999999998, 15.521411385281752
1261, 15.529503543623662
1261.4999999999998, 15.597776275290983
1262, 15.656345568266488
1262.5, 15.646933443251413
1262.9999999999998, 15.589215047792635
1263.5, 15.533440506570116
1263.9999999999998, 15.547647117876338
1264.5, 15.609841688304357
1265, 15.642524008538274
1265.5, 15.615522856960894
1266, 15.532982994338312
1266.4999999999998, 15.451238845373737
1267, 15.40275599791076
1267.4999999999998, 15.353701881249393
1268, 15.315744914567532
1268.5, 15.352235711171673
1268.9999999999998, 15.42971505564303
1269.5, 15.464508011433153
1269.9999999999998, 15.46842758754859
1270.5, 15.473913034876816
1271, 15.461537841988886
1271.5, 15.424859221049928
1272, 15.400384266488913
1272.4999999999998, 15.403318269957964
1273, 15.420652203647819
1273.4999999999998, 15.436982744312829
1274, 15.439921801266934
1274.5, 15.438211036412042
1274.9999999999998, 15.440916672812875
1275.5, 15.434263411746997
1275.9999999999998, 15.404401413615773
1276.5, 15.345564018761124
1277, 15.259078462709681
1277.5, 15.159351278933457
1278, 15.131287277300231
1278.4999999999998, 15.262182618437492
1279, 15.41858210272035
1279.4999999999998, 15.463281047938068
1280, 15.474674714195956
1280.5, 15.50098625841457
1280.9999999999998, 15.474369058346994
1281.5, 15.397849130385794
1281.9999999999998, 15.349774383685101
1282.5, 15.346797794417725
1283, 15.366352126072982
1283.5, 15.37795208813192
1284, 15.362868287924996
1284.4999999999998, 15.342893927332028
1285, 15.340068919535184
1285.4999999999998, 15.364031720033282
1286, 15.400547364980184
1286.5, 15.420729560185436
1286.9999999999998, 15.462195971611209
1287.5, 15.575487065789929
1287.9999999999998, 15.689373260512596
1288.5, 15.732911804859171
1289, 15.739440437250067
1289.5, 15.728075999344341
1290, 15.671439814157807
1290.4999999999998, 15.599206580802942
1291, 15.586537528974873
1291.4999999999998, 15.616687541182586
1292, 15.635924756164655
1292.5, 15.651351114216297
1292.9999999999998, 15.681194611426875
1293.5, 15.725139810517177
1293.9999999999998, 15.776386218785916
1294.5, 15.822998631601294
1295, 15.854331866050046
1295.5, 15.86316708233062
1296, 15.858835479431121
1296.4999999999998, 15.861015683855683
1297, 15.89830623640502
1297.4999999999998, 15.972976656241883
1298, 16.016522165730308
1298.5, 15.997441435405406
1298.9999999999998, 15.954328898886956
1299.5, 15.960333036912573
1299.9999999999998, 16.091283517117972
1300.5, 16.24647100108311
1301, 16.286965855372543
1301.5, 16.279656811769527
1302, 16.299345050365048
1302.4999999999998, 16.30812681110922
1303, 16.28830649967125
1303.4999999999998, 16.269177108353887
1304, 16.233951216167952
1304.5, 16.13898009014453
1304.9999999999998, 16.039462274665013
1305.5, 16.009128684821732
1305.9999999999998, 16.007493381167507
1306.5, 15.98185006777922
1307, 15.919713099308296
1307.4999999999998, 15.859942611573402
1308, 15.89331868461204
1308.5, 15.992135833522667
1309, 16.047102401604874
1309.5, 16.03860971378603
1310, 15.985536807558532
1310.5, 15.89778029901646
1311, 15.792772054095977
1311.5, 15.70847044722413
1312, 15.660437678056596
1312.5, 15.633358960452057
1313, 15.619497189286761
1313.5, 15.617205814007306
1314, 15.618331057627444
1314.5, 15.610702780363098
1315, 15.577832708170206
1315.5, 15.522641085560707
1316, 15.488946204399596
1316.5, 15.47772055623993
1317, 15.437484579273786
1317.5, 15.383712689228602
1318, 15.370301747356095
1318.5, 15.378173941010346
1319, 15.368617274013303
1319.5, 15.339527032872184
1320, 15.30288634831038
1320.5, 15.281439027838417
1321, 15.26833656812741
1321.5, 15.227222408170206
1322, 15.196170682385258
1322.5, 15.248335312760219
1323, 15.354152774770014
1323.5, 15.458005283393334
1324, 15.551492094547271
1324.5, 15.625939319263352
1325, 15.654609953499644
1325.5, 15.64862627873886
1326, 15.65674940383336
1326.5, 15.653573709240433
1327, 15.585705951164755
1327.5, 15.526897816157287
1328, 15.559613038865322
1328.5, 15.642335281801522
1329, 15.717036443613111
1329.5, 15.742626581483123
1330, 15.7193564790838
1330.5, 15.6865312903235
1331, 15.65283428192204
1331.5, 15.612034566247033
1332, 15.587693886115332
1332.5, 15.593202193985888
1333, 15.578606785474719
1333.5, 15.524182503454853
1334, 15.482099680054802
1334.5, 15.469772863179315
1335, 15.464382991974603
1335.5, 15.466883951327475
1336, 15.49436469574249
1336.5, 15.568943784631585
1337, 15.68410648512723
1337.5, 15.745494978246015
1338, 15.710341243229294
1338.5, 15.646127143422675
1339, 15.580332065814218
1339.5, 15.495446298298376
1340, 15.413354168396268
1340.5, 15.369123785967815
1341, 15.345071421505665
1341.5, 15.329109100256431
1342, 15.371421583089301
1342.5, 15.478169442499933
1343, 15.57138480267524
1343.5, 15.632082790165882
1344, 15.696482763705674
1344.5, 15.738044556703699
1345, 15.714033055513838
1345.5, 15.675058453753635
1346, 15.664418134621172
1346.5, 15.630479961597885
1347, 15.557621664793885
1347.5, 15.506598590144321
1348, 15.496850833403172
1348.5, 15.504473271526095
1349, 15.499383195292381
1349.5, 15.462540833174018
1350, 15.437472270437297
1350.5, 15.455243921548202
1351, 15.469380536236386
1351.5, 15.451825678262551
1352, 15.418952845405997
1352.5, 15.385155211478533
1353, 15.359683188319963
1353.5, 15.348132598162039
1354, 15.35470980005499
1354.5, 15.385111908635054
1355, 15.428143884940837
1355.5, 15.432439576555481
1356, 15.43147380926952
1356.5, 15.57268704563026
1357, 15.793244131918556
1357.5, 15.878192943607814
1358, 15.829997411442108
1358.5, 15.749423802322525
1359, 15.70578804016536
1359.5, 15.706111934532075
1360, 15.635804866655121
1360.5, 15.513261986303206
1361, 15.54213517012684
1361.5, 15.686034238063584
1362, 15.73829856176954
1362.5, 15.708506328247609
1363, 15.686039253300208
1363.5, 15.67692615978423
1364, 15.664841631849697
1364.5, 15.631147245062948
1365, 15.578060292877112
1365.5, 15.533407934545167
1366, 15.50322309648628
1366.5, 15.478410166529954
1367, 15.468210943142196
1367.5, 15.487784271570916
1368, 15.543661336254416
1368.5, 15.61927979180966
1369, 15.654806171414364
1369.5, 15.632967132459015
1370, 15.593025578133265
1370.5, 15.54022733280891
1371, 15.461906689499429
1371.5, 15.40751919320003
1372, 15.42738093521308
1372.5, 15.480392427723316
1373, 15.528916990211812
1373.5, 15.583913631187286
1374, 15.637011059463632
1374.5, 15.653908926770711
1375, 15.648219335853753
1375.5, 15.659964639114065
1376, 15.679042053188411
1376.5, 15.683000248235572
1377, 15.676253127558539
1377.5, 15.662335883283163
1378, 15.632421202910919
1378.5, 15.596325640465139
1379, 15.583547761095062
1379.5, 15.588029484628706
1380, 15.585545152486276
1380.5, 15.589255797629221
1381, 15.617719416608352
1381.5, 15.66006244075841
1382, 15.69772723444352
1382.5, 15.709756587863211
1383, 15.690048756530274
1383.5, 15.650360673241366
1384, 15.61960324550813
1384.5, 15.627620026437754
1385, 15.64960429991973
1385.5, 15.653401986618391
1386, 15.64602100293618
1386.5, 15.642895465997412
1387, 15.659436241431223
1387.5, 15.679271302792756
1388, 15.659151191891425
1388.5, 15.620935978532088
1389, 15.614135792582829
1389.5, 15.617942573147957
1390, 15.609280572237665
1390.5, 15.630957326442939
1391, 15.689222532517192
1391.5, 15.711555623211154
1392, 15.720427855377366
1392.5, 15.818820434406277
1393, 15.891732585951928
1393.5, 15.758659678809082
1394, 15.573088234711975
1394.5, 15.509731228736115
1395, 15.489335828327285
1395.5, 15.45097481855062
1396, 15.435731721183785
1396.5, 15.457978081318089
1397, 15.497133931393222
1397.5, 15.527149358531858
1398, 15.528941224929099
1398.5, 15.52972588736236
1399, 15.55787661912035
1399.5, 15.605270185448276
1400, 15.657120798694962
1238.3471074380166, 15.473032714412028
1246.280991735537, 15.64986737400531
1243.6363636363635, 15.473032714412028
1235.7024793388427, 15.738284703801952
