299.5, 44.381614942494146
300, 44.47820519594113
300.5, 44.579927212529896
301, 44.56670873367605
301.5, 44.54542523407958
302, 44.55754103028189
302.5, 44.60526000213452
303, 44.651862906942505
303.5, 44.66722480342738
304, 44.68607307003829
304.5, 44.73428665751406
305, 44.783665572194366
305.5, 44.815858677921184
306, 44.842104621581996
306.5, 44.87342229834295
307, 44.916538394604274
307.5, 44.96632178480872
308, 45.008503975252836
309, 45.05338971183815
309.5, 45.069709095400846
310, 45.09914863614232
310.5, 45.13337437515472
311, 45.16352173492152
311.5, 45.1994080921064
312, 45.2472899728349
312.5, 45.29713461679489
313, 45.34429826254552
313.5, 45.39568441359114
314, 45.44585661884103
314.5, 45.476618939676364
315, 45.5063659795507
315.5, 45.57674304295257
316, 45.66133846077445
316.5, 45.70573101227314
317, 45.73088070036454
317.5, 45.77605824535306
318, 45.826257936984945
318.5, 45.86093093229314
319, 45.88840686025826
319.5, 45.919073819590466
320, 45.956182328719365
320.5, 46.00284088530971
321, 46.06286038903096
321.5, 46.12899801507361
322, 46.18359020898998
322.5, 46.2295472806686
323, 46.28262451389279
323.5, 46.32878005221096
324, 46.34591957887259
324.5, 46.362606330316474
325, 46.41080521520357
325.5, 46.45672059011793
326, 46.471738220681694
326.5, 46.49046281183671
327, 46.537276717840044
327.5, 46.5942378303047
328, 46.64409703041366
328.5, 46.67839919635807
329, 46.707869717665766
329.5, 46.75945572525097
330, 46.82773712494195
330.5, 46.88602584556578
331, 46.929450934092685
331.5, 46.964162702462545
332, 46.99427875681982
332.5, 47.02385489565693
333, 47.0596387703432
333.5, 47.10588870407066
334, 47.158438405531584
334.5, 47.20939017277505
335, 47.24689133532946
335.5, 47.27573589169264
336, 47.32225336767542
336.5, 47.38966984433915
337, 47.45876716952342
337.5, 47.52159148602812
338, 47.57778454598938
338.5, 47.62171205279577
339, 47.65014113392306
339.5, 47.686670382712485
340, 47.75068820766389
340.5, 47.81360323991276
341, 47.850096005829684
341.5, 47.87058102956923
342, 47.89613474109611
342.5, 47.95585594836415
343, 48.04212534818567
343.5, 48.102645148446555
344, 48.128971872444296
344.5, 48.15291381753848
345, 48.18755749993198
345.5, 48.232434018828954
346, 48.28230693599194
346.5, 48.33108437188817
347, 48.37869866543625
347.5, 48.42662048280406
348, 48.47512474155631
348.5, 48.52371005358129
349, 48.57069189834553
349.5, 48.617573280918755
350, 48.6713192540435
350.5, 48.73562033040096
351, 48.808784980365374
351.5, 48.87345572432977
352, 48.90473826934413
352.5, 48.93607023239416
353, 49.022516775256236
353.5, 49.12318040889607
354, 49.173281753032455
354.5, 49.18823476786451
355, 49.200728739198944
355.5, 49.22330908293893
356, 49.2647325724407
356.5, 49.333954486553786
357, 49.41964947891045
357.5, 49.47997228881926
358, 49.507845732248434
358.5, 49.53715024888335
359, 49.58829733391591
359.5, 49.66630265579508
360, 49.74770867123374
360.5, 49.80105228092785
361, 49.846741644945816
361.5, 49.913232472776926
362, 49.972981983277734
362.5, 50.00299458030173
363, 50.04007999630493
363.5, 50.106001848097506
364, 50.16819500606246
364.5, 50.21364525428645
365, 50.267411577401674
365.5, 50.33402436079098
366, 50.39495870950323
366.5, 50.4585041321747
367, 50.54927005225492
367.5, 50.6479905097343
368, 50.716838261930405
368.5, 50.74976960975417
369, 50.763808072272404
369.5, 50.821481481512095
370, 50.95411565448211
370.5, 51.072423595882796
371, 51.121543942105866
371.5, 51.155162145004056
372, 51.20489364798633
372.5, 51.25515607551081
373, 51.31688234404685
373.5, 51.425401365327296
374, 51.54201528663072
374.5, 51.587167137094404
375, 51.58985215581515
375.5, 51.62173581231268
376, 51.68219221583466
376.5, 51.74825618370877
377, 51.80961181565257
377.5, 51.86087432950972
378, 51.90172660415842
378.5, 51.943368622024025
379, 52.01596026626823
379.5, 52.117315437064306
380, 52.20183653890003
380.5, 52.261678483177654
381, 52.324946939207564
381.5, 52.39008905464128
382, 52.43889504667237
382.5, 52.48704316164652
383, 52.559694857596625
383.5, 52.645796654090134
384, 52.727498626846284
384.5, 52.805777936866285
385, 52.885064940061184
385.5, 52.96773071409235
386, 53.05042449038215
386.5, 53.12081531464607
387, 53.18230290367902
387.5, 53.257440414822526
388, 53.340489430098955
388.5, 53.40227479474428
389, 53.4456501086472
389.5, 53.49161276220716
390, 53.54087964942087
390.5, 53.587419518596725
391, 53.63752699595016
391.5, 53.69846700316926
392, 53.76778287243487
392.5, 53.836849332141846
393, 53.887656830898585
393.5, 53.9177671740103
394, 53.95247537318991
394.5, 54.014956351928305
395, 54.12103880816037
395.5, 54.25521739252765
396, 54.3775737305848
396.5, 54.46489774866668
397, 54.51167450221784
397.5, 54.562128551491234
398, 54.664095610417455
398.5, 54.785032814331906
399, 54.885064517105214
399.5, 54.97522818254574
400, 55.06233470882363
400.5, 55.12210209303807
401, 55.15133832823438
401.5, 55.185149186848285
402, 55.235491176739735
402.5, 55.28679062596248
403, 55.35146403947852
403.5, 55.46040457417131
404, 55.59669461617532
404.5, 55.718211214770776
405, 55.79650976908684
405.5, 55.824592883222536
406, 55.86477938509337
406.5, 55.962193757368574
407, 56.054755779214275
407.5, 56.10181337722568
408, 56.14788844256991
408.5, 56.22572441617913
409, 56.33498463827174
409.5, 56.46581967013518
410, 56.60039018764875
410.5, 56.7095721801529
411, 56.7642446595858
411.5, 56.80952546927461
412, 56.91494927040861
412.5, 57.0588886183964
413, 57.19484230832576
413.5, 57.31373713290539
414, 57.41567731251697
414.5, 57.49976821673797
415, 57.575236543920404
415.5, 57.67098673629006
416, 57.799420404486064
416.5, 57.94672485462405
417, 58.09287510785593
417.5, 58.21360807204001
418, 58.284765040511544
418.5, 58.292922254430366
419, 58.313473847915716
419.5, 58.437514535152296
420, 58.59425367206398
420.5, 58.688940214982864
421, 58.751800088603446
421.5, 58.82731910237427
422, 58.91888915609828
422.5, 59.01777919295557
423, 59.10600144529941
423.5, 59.19550253583395
424, 59.33517178519367
424.5, 59.504310450150754
425, 59.620424080922064
425.5, 59.66911942609216
426, 59.687980214212885
426.5, 59.752738571022334
427, 59.928410747614365
427.5, 60.1310935954873
428, 60.26255676586314
428.5, 60.348165676189865
429, 60.42789364390159
429.5, 60.509636868475134
430, 60.6110248782385
430.5, 60.773509405561306
431, 60.989629575052874
431.5, 61.19074501156198
432, 61.34557727520949
432.5, 61.46007375225082
433, 61.550231932774565
433.5, 61.63956112077501
434, 61.7660482379629
434.5, 61.9560888925936
435, 62.14752842563486
435.5, 62.27624548195884
436, 62.362903209112446
436.5, 62.44032160401043
437, 62.528183145798685
437.5, 62.637801116871444
438, 62.769602579871524
438.5, 62.91581462227914
439, 63.060295965778124
439.5, 63.18703971978128
440, 63.28430753097176
440.5, 63.37959533491516
441, 63.514100129351625
441.5, 63.6636941202408
442, 63.7908333188286
442.5, 63.92247587249802
443, 64.08450225767086
443.5, 64.24094167305648
444, 64.36837459839634
444.5, 64.49693680300994
445, 64.64253534391203
445.5, 64.78832350432616
446, 64.91748576054056
446.5, 65.01838819990708
447, 65.11157097966444
447.5, 65.2360552298276
448, 65.36640075364605
448.5, 65.45638197987937
449, 65.55962548004281
449.5, 65.73662236944871
450, 65.90758931069821
450.5, 66.00395869466894
451, 66.10184297216468
451.5, 66.25022318801993
452, 66.38870025296971
452.5, 66.49528466751418
453, 66.62083888083536
453.5, 66.75639682647153
454, 66.83359977810136
454.5, 66.90815391516925
455, 67.10650987374778
455.5, 67.34273195598938
456, 67.45323302479702
456.5, 67.48615646063114
457, 67.55102434827795
457.5, 67.68825694856156
458, 67.88978340317361
458.5, 68.06220773661175
459, 68.16647542404463
459.5, 68.2953795788193
460, 68.47953574008329
460.5, 68.64581702291989
461, 68.76874355738235
461.5, 68.87525081979292
462, 68.96952538077842
462.5, 69.0450166940563
463, 69.15193420727827
463.5, 69.34355140399946
464, 69.5320780439201
464.5, 69.62438059005663
465, 69.69233991476071
465.5, 69.8043330607804
466, 69.91816982301367
466.5, 70.00966908775904
467, 70.11886873166615
467.5, 70.25232219955913
468, 70.36574537335021
468.5, 70.44168311096062
469, 70.49294392674071
469.5, 70.55935053763227
470, 70.6871854153378
470.5, 70.83954771784116
471, 70.95359207261163
471.5, 71.03482953678288
472, 71.09928910667581
472.5, 71.12140420193265
473, 71.11930692460507
473.5, 71.2388792598992
474, 71.50194689006007
474.5, 71.6888622249138
475, 71.72346369986361
475.5, 71.73117914447712
476, 71.78405582526473
476.5, 71.89298255715202
477, 72.02860272089909
477.5, 72.14557348221611
478, 72.25585185302131
478.5, 72.38611134177955
479, 72.51095908536674
479.5, 72.6063579290006
480, 72.70556426113777
480.5, 72.82540788160837
481, 72.91822052824736
481.5, 72.97477238977054
482, 73.06063662657355
482.5, 73.18101910004175
483, 73.26780845141138
483.5, 73.32453761540329
484, 73.41034009879012
484.5, 73.51117787191508
485, 73.57713906986717
485.5, 73.61448564989855
486, 73.6478372686838
486.5, 73.67834426942623
487, 73.7058277584708
487.5, 73.74687895079235
488, 73.81002802352982
488.5, 73.87942212572544
489, 73.9438946883537
489.5, 74.00495763092867
490, 74.08215902330362
490.5, 74.20960668805012
491, 74.36087856946362
491.5, 74.46902841462386
492, 74.53778696524988
492.5, 74.6044800556207
493, 74.66640536542936
493.5, 74.71689779444424
494, 74.79969399543441
494.5, 74.93661819978068
495, 75.04619105281961
495.5, 75.080206032405
496, 75.0959317689078
496.5, 75.12903003665178
497, 75.16576829053146
497.5, 75.19750133109396
498, 75.22425286334709
498.5, 75.23849058258673
499, 75.22948829228139
499.5, 75.21033851062518
500, 75.20003556396945
500.5, 75.17844253641825
501, 75.13091055542893
501.5, 75.12224922861432
502, 75.19042134804475
502.5, 75.24533507163467
503, 75.23078960695678
503.5, 75.19668021445186
504, 75.16795784371708
504.5, 75.1203787008315
505, 75.05280487645085
505.5, 74.98932811894657
506, 74.94486356642587
506.5, 74.92444371360294
507, 74.91031914963813
507.5, 74.87683662220999
508, 74.81628511280141
508.5, 74.738502151115
509, 74.69590198002108
509.5, 74.70050208349046
510, 74.63528624679081
510.5, 74.46286523606535
511, 74.32453072116311
511.5, 74.28193962610986
512, 74.27024664078846
512.5, 74.22236121575865
513, 74.08445586985437
513.5, 73.89425942217194
514, 73.73668890551878
514.5, 73.59862514122787
515, 73.43570642288799
515.5, 73.27964738422725
516, 73.16553196025282
516.5, 73.05390076909924
517, 72.9188796163183
517.5, 72.80667515111793
518, 72.7222486588008
518.5, 72.58426578638465
519, 72.38232045905809
519.5, 72.19916791368577
520, 72.06180865578888
520.5, 71.94343880184415
521, 71.81233358308877
521.5, 71.6424953180394
522, 71.46298299300129
522.5, 71.31012862027329
523, 71.13914208200423
523.5, 70.91205927204174
524, 70.69415822258317
524.5, 70.53184221362312
525, 70.38043335584999
525.5, 70.216102745497
526, 70.0675823843983
526.5, 69.928650414562
527, 69.75147721297459
527.5, 69.55238548854996
528, 69.39407659729294
528.5, 69.25555951823367
529, 69.0826763819174
529.5, 68.93276203640275
530, 68.86790595828752
530.5, 68.76329348409995
531, 68.5207959218687
531.5, 68.28807344185935
532, 68.17102426982386
532.5, 68.08502821204812
533, 67.97184949267017
533.5, 67.84948543189755
534, 67.70869291980473
534.5, 67.50931128070381
535, 67.29376494033826
535.5, 67.15734577075926
536, 67.07784020297096
536.5, 66.9762229801729
537, 66.8286235884705
537.5, 66.63980134007899
538, 66.44456024507089
538.5, 66.27509410777603
539, 66.13294536958205
539.5, 66.01556021457972
540, 65.92306449313334
540.5, 65.84541939903198
541, 65.75795668343082
541.5, 65.64460606572743
542, 65.5014278979707
542.5, 65.35482491940014
543, 65.24798494355065
543.5, 65.17971883545768
544, 65.12160461964284
544.5, 65.02210947133447
545, 64.84809169252875
545.5, 64.67244249408326
546, 64.5622775401968
546.5, 64.49711043849854
547, 64.43099912150191
547.5, 64.29942981694236
548, 64.11080696947863
548.5, 63.970844106143986
549, 63.90112393230994
549.5, 63.838019733724586
550, 63.753252546931904
550.5, 63.64693686401002
551, 63.53176074025158
551.5, 63.425118444621724
552, 63.33797114871717
552.5, 63.27282698528297
553, 63.20894691266559
553.5, 63.13019694478552
554, 63.04602309712849
554.5, 62.96521437957561
555, 62.888016720852164
555.5, 62.80918404048844
556, 62.71836553739811
556.5, 62.62014963488117
557, 62.53437140742465
557.5, 62.496214928032465
558, 62.539488159975306
558.5, 62.61388897438715
559, 62.65020712836117
559.5, 62.680929004553036
560, 62.74706915960385
560.5, 62.80601128265833
561, 62.8167738825247
561.5, 62.786250719122215
562, 62.73506454736857
562.5, 62.694238563232645
563, 62.66593058956855
563.5, 62.61809368451585
564, 62.54984656886164
564.5, 62.4862089396615
565, 62.42227904023896
565.5, 62.34238212828144
566, 62.28899140793155
566.5, 62.31287767051322
567, 62.38336215629081
567.5, 62.45402067311554
568, 62.50678364122891
568.5, 62.538966634779705
569, 62.56921290645306
569.5, 62.593595104420835
570, 62.56955465388682
570.5, 62.512245233565984
571, 62.50181826123125
571.5, 62.544277005603995
572, 62.58627965151874
572.5, 62.614512058554986
573, 62.63758564050476
573.5, 62.648668501938474
574, 62.63860133516205
574.5, 62.616539994469136
575, 62.59607476884562
575.5, 62.58860165639174
576, 62.60087666445183
576.5, 62.63051928453617
577, 62.66585089182788
577.5, 62.683747244760546
578, 62.68116131564976
578.5, 62.67684663492045
579, 62.67787309074676
579.5, 62.68287008673482
580, 62.703413603508004
580.5, 62.751632678362874
581, 62.798402653780535
581.5, 62.80966336249399
582, 62.79706737967413
582.5, 62.78008072968478
583, 62.765952280940866
583.5, 62.7444794224053
584, 62.676172324269984
584.5, 62.581563697290285
585, 62.565554685804
585.5, 62.59863911963539
586, 62.522618353137055
586.5, 62.374904874520276
587, 62.319217859963985
587.5, 62.344518313395085
588, 62.360462435312726
588.5, 62.348077337324995
589, 62.31663067394316
589.5, 62.28453801847466
590, 62.26573388587209
590.5, 62.255952067576004
591, 62.244088042975704
591.5, 62.21232981378495
592, 62.16147924950238
592.5, 62.11738411621757
593, 62.08735306107427
593.5, 62.0595686229953
594, 62.02643791450661
594.5, 61.98215910423841
595, 61.90766536812853
595.5, 61.786757928661956
596, 61.653815466064216
596.5, 61.54820869119599
597, 61.46476101472414
597.5, 61.394596165840525
598, 61.34528320288862
598.5, 61.30543626912996
599, 61.22672647276697
599.5, 61.10766882697632
600, 61.008728300360275
600.5, 60.95004398648421
601, 60.91080386282691
601.5, 60.860768855380236
602, 60.771957816322406
602.5, 60.67230593251827
603, 60.60290418675306
603.5, 60.54195910981327
604, 60.45114253950488
604.5, 60.304004425318
605, 60.112626443342016
605.5, 59.97396593512891
606, 59.927883719189985
606.5, 59.898674932818835
607, 59.8352589638711
607.5, 59.73109488742254
608, 59.61424297567683
608.5, 59.532712109423976
609, 59.45427697489584
609.5, 59.30947936860892
610, 59.11463965823077
610.5, 58.92032270926717
611, 58.7634169772965
611.5, 58.6603236854017
612, 58.574348551470756
612.5, 58.46148358727444
613, 58.28605843966908
613.5, 58.05510729177373
614, 57.83979062376446
614.5, 57.66715409653766
615, 57.510612279964526
615.5, 57.38433480501007
616, 57.32639869789619
616.5, 57.26116167706233
617, 57.07402690603536
617.5, 56.82763190474067
618, 56.63457607502457
618.5, 56.51007739160819
619, 56.431880280956086
619.5, 56.34648320364277
620, 56.22928989056258
620.5, 56.128391974688206
621, 56.054917618850844
621.5, 55.95314210781221
622, 55.818331289058555
622.5, 55.70275111040218
623, 55.61191569251211
623.5, 55.51867128976245
624, 55.44372395823948
624.5, 55.418545988245704
625, 55.37834344444207
625.5, 55.255730070555046
626, 55.12501839345776
626.5, 55.05608493185578
627, 55.00107317497675
627.5, 54.92104326153395
628, 54.83568961422533
628.5, 54.745155892563474
629, 54.614079725358096
629.5, 54.447487158283465
630, 54.290863931893306
630.5, 54.15025437781429
631, 54.00699015615478
631.5, 53.885670891234874
632, 53.818634781630834
632.5, 53.75392721425378
633, 53.63868864428544
633.5, 53.5339029688876
634, 53.49381605595923
634.5, 53.48043331411104
635, 53.462763121369605
635.5, 53.45077805271812
636, 53.427094519702564
636.5, 53.33563915955644
637, 53.19652154702594
637.5, 53.098166701270586
638, 53.044900569620154
638.5, 52.98738298624163
639, 52.919885672073896
639.5, 52.85531671933403
640, 52.79116338326612
640.5, 52.72383517905989
641, 52.664792744382744
641.5, 52.618838179515606
642, 52.56556632788012
642.5, 52.498524247169954
643, 52.44206572595462
643.5, 52.39751310569729
644, 52.334776252214475
644.5, 52.25082803344829
645, 52.1686240198674
645.5, 52.109502404505584
646, 52.08516892640368
646.5, 52.04750201513676
647, 51.94295806614749
647.5, 51.82676055657114
648, 51.75885270462916
648.5, 51.698451634522925
649, 51.61368586847668
649.5, 51.54437710803203
650, 51.51225037405145
650.5, 51.49149762758262
651, 51.44756946256454
651.5, 51.345232246268345
652, 51.22510788474607
652.5, 51.1833106441215
653, 51.22012903631553
653.5, 51.27653327344188
654, 51.29227630549027
654.5, 51.22698488578197
655, 51.13461476779303
655.5, 51.0704254464955
656, 51.00487985392074
656.5, 50.91101729820042
657, 50.805524507056155
657.5, 50.7171192394439
658, 50.68245697938282
658.5, 50.68993699291836
659, 50.6768385417612
659.5, 50.63894460685612
660, 50.618112474157584
660.5, 50.62617326431744
661, 50.65284551093566
661.5, 50.66041737590707
662, 50.61306531993128
662.5, 50.531311831607006
663, 50.44645543839813
663.5, 50.375422213533795
664, 50.324990329108516
664.5, 50.28641544341675
665, 50.253656058948295
665.5, 50.22763850717049
666, 50.21157618480098
666.5, 50.20950748016426
667, 50.21088194634029
667.5, 50.19549465536501
668, 50.156281739397635
668.5, 50.09854670284528
669, 50.05899405691853
669.5, 50.06909546441538
670, 50.09008248829178
670.5, 50.08153850374101
671, 50.049626079468375
671.5, 50.004022234324424
672, 49.94535313435721
672.5, 49.879522971557805
673, 49.82085546781358
673.5, 49.77395577258899
674, 49.733704018091345
674.5, 49.703197526271516
675, 49.6887867777343
675.5, 49.67181514333696
676, 49.63158489291216
676.5, 49.60819319180723
677, 49.639241661532886
677.5, 49.66956565574271
678, 49.65441409703235
678.5, 49.63586410593364
679, 49.629937080841465
679.5, 49.579469032870854
680, 49.48838571098571
680.5, 49.447969651083405
681, 49.474173140264504
681.5, 49.509670136124605
682, 49.540231838050516
682.5, 49.580921566531615
683, 49.632882831499074
683.5, 49.6849836355306
684, 49.69754985759906
684.5, 49.64746494377864
685, 49.60572590592655
685.5, 49.62189226554956
686, 49.63929765608835
686.5, 49.622380570327564
687, 49.60043657219552
687.5, 49.58623993613131
688, 49.564440196262275
688.5, 49.53059206123806
689, 49.49064596258102
689.5, 49.440222366110774
690, 49.3723079395431
690.5, 49.31086806212994
691, 49.29199329580764
691.5, 49.34268684337008
692, 49.46143845096594
692.5, 49.55969329713174
693, 49.56492397449166
693.5, 49.48581612382833
694, 49.36476200980449
694.5, 49.279224905755385
695, 49.26532878062781
695.5, 49.305373550420505
696, 49.3580693019093
696.5, 49.371628143067305
697, 49.36596553300524
697.5, 49.39304223415428
698, 49.427011272345425
698.5, 49.42622468504302
699, 49.42967477245381
699.5, 49.475747544515464
700, 49.526114622161465
700.5, 49.55464524235275
701, 49.595281161159264
701.5, 49.661853428976876
702, 49.7246087862424
702.5, 49.75758283629942
703, 49.74540750757141
703.5, 49.70738527347259
704, 49.68338193841884
704.5, 49.64864486893569
705, 49.55675124734018
705.5, 49.459887041010376
706, 49.43109663361295
706.5, 49.462879603712246
707, 49.5259500409244
707.5, 49.59173216713759
708, 49.63387684463942
708.5, 49.630779761434205
709, 49.58185765082109
709.5, 49.51657921951364
710, 49.46653597219333
710.5, 49.46007358785037
711, 49.48286899416761
711.5, 49.493027139306896
712, 49.48859149009576
712.5, 49.486613763649
713, 49.487937506307894
713.5, 49.4838635907273
714, 49.4517015970546
714.5, 49.38425038184131
715, 49.32753314709251
715.5, 49.30971327468296
716, 49.30630064817608
716.5, 49.30445575860151
717, 49.315200442099425
717.5, 49.3335232345203
718, 49.33876037028861
718.5, 49.336579009833144
719, 49.34836371741468
719.5, 49.366332636998024
720, 49.37173489220274
720.5, 49.36768399183002
721, 49.3643186255479
721.5, 49.36920972089953
722, 49.38483889232328
722.5, 49.40198507337281
723, 49.416596140019905
723.5, 49.43723078617557
724, 49.457032998117505
724.5, 49.44923099857677
725, 49.42829735287897
725.5, 49.44351449143474
726, 49.481905560792114
726.5, 49.49483116584975
727, 49.48838122673428
727.5, 49.488528088594975
728, 49.48768803468778
728.5, 49.4733786256571
729, 49.45529665029154
729.5, 49.44817678604744
730, 49.46664480743862
730.5, 49.50421328515698
731, 49.5187303424958
731.5, 49.49934594965689
732, 49.47715229994623
732.5, 49.46262948638594
733, 49.44663280355014
733.5, 49.430384747475486
734, 49.42418190643682
734.5, 49.453662656402045
735, 49.53574334869083
735.5, 49.61081888349073
736, 49.62257022425643
736.5, 49.60507418090173
737, 49.59908023080871
737.5, 49.616466568561385
738, 49.651396198645585
738.5, 49.67656790498881
739, 49.68943576792387
739.5, 49.71668346355849
740, 49.751655165655635
740.5, 49.762377358211396
741, 49.758106633633034
741.5, 49.7681505982151
742, 49.787580630421495
742.5, 49.80203670087311
743, 49.82043981558394
743.5, 49.85187866358248
744, 49.884719807899636
744.5, 49.905555629348356
745, 49.90635936590271
745.5, 49.8999132375993
746, 49.928185194080484
746.5, 49.983392916947466
747, 50.0044893260718
747.5, 49.997461129600865
748, 50.016901552448715
748.5, 50.05432625588443
749, 50.070339715315846
749.5, 50.059426344996595
750, 50.034575096915454
750.5, 50.030483466179376
751, 50.06529049881538
751.5, 50.09093990595072
752, 50.07637958805722
752.5, 50.05040574030278
753, 50.03392465849937
753.5, 50.02517061678695
754, 50.01082747213099
754.5, 49.969987627340565
755, 49.91843217502022
755.5, 49.89378163327177
756, 49.881514300425174
756.5, 49.84863770374575
757, 49.818531420078024
757.5, 49.82866167646524
758, 49.88872595146827
758.5, 49.98782464003895
759, 50.07768801721075
759.5, 50.13755698642719
760, 50.21190926637143
760.5, 50.324357145983875
761, 50.45910396208013
761.5, 50.589698192660336
762, 50.68426078662276
762.5, 50.7402703779701
763, 50.77575487418645
763.5, 50.80633530684038
764, 50.845352225880944
764.5, 50.90131205811032
765, 50.972567510951215
765.5, 51.02529890766433
766, 51.04058000702958
766.5, 51.05797420459971
767, 51.09503835308445
767.5, 51.11320711956591
768, 51.120011120241664
768.5000000000001, 51.186804885289185
769, 51.30962777560532
769.5, 51.41526605726964
770.0000000000001, 51.48757635038286
770.5, 51.54692392427141
771, 51.58891893578189
771.5, 51.6010312504087
772, 51.59060074410586
772.5, 51.571865853005875
773, 51.56050288733945
773.5, 51.56951165848753
774, 51.604496247246885
774.5, 51.66607345883787
775, 51.7475108002069
775.5, 51.81852394415648
776, 51.824708892786205
776.5000000000001, 51.7824179325974
777, 51.76484712939154
777.5, 51.77149632481194
778.0000000000001, 51.76601194962284
778.5, 51.79619555388845
779, 51.91841013452529
779.5, 52.04766365327436
780, 52.10067890279648
780.5, 52.143882371368335
781, 52.228487620273626
781.5, 52.299316194670936
782, 52.32886661200962
782.5, 52.35806265350709
783, 52.40757043379986
783.5, 52.46675244197006
784, 52.51469802581295
784.5000000000001, 52.52898939218134
785, 52.54480357165726
785.5, 52.61419259030287
786.0000000000001, 52.67242028550222
786.5, 52.63847736396313
787, 52.57967421690428
787.5, 52.57766872450893
788, 52.62602818415548
788.5, 52.69552934369886
789, 52.745240534849934
789.5, 52.7601829520848
790, 52.76661196641616
790.5, 52.76878988761873
791, 52.745369227369245
791.5, 52.70960217988343
792, 52.699914111328866
792.5000000000001, 52.72631361454921
793, 52.78152508890828
793.5, 52.851562929008004
794.0000000000001, 52.91667047024818
794.5, 52.94328073495433
795, 52.91495035294828
795.5000000000001, 52.876196608979
796, 52.859317710809066
796.5, 52.84909159028153
797, 52.833316067781276
797.5, 52.81281390328288
798, 52.795726556212955
798.5, 52.79589383204563
799, 52.81569623303859
799.5, 52.84814419914031
800, 52.880052556361996
800.5, 52.89876175460572
801, 52.913312295911716
801.5, 52.933866568400944
802, 52.943120233890205
802.5, 52.93501385968014
803, 52.95313786012801
803.5, 53.00888296415416
804, 53.03659527551315
804.5, 53.01571774841197
805, 52.99818308139012
805.5, 53.016412323068494
806, 53.07455340204712
806.5, 53.12300919993829
807, 53.08888346685335
807.5, 53.01061243927566
808, 52.965840673658334
808.5, 52.94286415275703
809, 52.910400882227904
809.5, 52.8796560873437
810, 52.8559399111387
810.5, 52.803793865619305
811, 52.71716257001013
811.5, 52.65378444956149
812, 52.62719954536157
812.5, 52.58717666762459
813, 52.51874881547503
813.5, 52.44201178837289
814, 52.36099882923949
814.5, 52.27173111736842
815, 52.196827419594875
815.5, 52.16046030898151
816, 52.13030962660507
816.5, 52.07095696859188
817, 52.00044560067509
817.5, 51.944331810174106
818, 51.917470843972026
818.5, 51.908762286924684
819, 51.866795138528566
819.5, 51.781685409260675
820, 51.69835879075356
820.5, 51.653352173305834
821, 51.66647170639586
821.5, 51.685246519710965
822, 51.624256323610815
822.5, 51.48209750642972
823, 51.30210724962251
823.5, 51.164889662638046
824, 51.123615470447724
824.5, 51.10376192413201
825, 51.04290230343799
825.5, 50.9663878195011
826, 50.899967208384865
826.5, 50.849815343273086
827, 50.804725231432535
827.5, 50.737513251981056
828, 50.65331263386857
828.5, 50.579949475425046
829, 50.49778372198129
829.5, 50.370857969150606
830, 50.24336649643304
830.5, 50.171178597132375
831, 50.112764324004566
831.5, 50.01516077924468
832, 49.87581844890776
832.5, 49.719759551031466
833, 49.60934942777262
833.5, 49.55310710223873
834, 49.472373306906455
834.5, 49.33883308340103
835, 49.18630663586664
835.5, 49.04254788545962
836, 48.92627000818131
836.5, 48.83812929352436
837, 48.76594717222845
837.5, 48.67886960649375
838, 48.55291279092065
838.5, 48.42383819296572
839, 48.32459791022065
839.5, 48.233866403982475
840, 48.1356665533963
840.5, 48.04448122513485
841, 47.965414513893364
841.5, 47.88485164483347
842, 47.78873444773786
842.5, 47.6650216073079
843, 47.51547762793963
843.5, 47.352478583803006
844, 47.193183258207036
844.5, 47.05407159395544
845, 46.933769393813165
845.5, 46.823131275354804
846, 46.70794093803191
846.5, 46.58652903105489
847, 46.494615706179566
847.5, 46.437806431231955
848, 46.35358217683723
848.5, 46.23292582000599
849, 46.1467554290266
849.5, 46.10610114760902
850, 46.060873721243006
850.5, 45.99158905706794
851, 45.900295790125824
851.5, 45.77738675608361
852, 45.61945006531245
852.5, 45.4896031749175
853, 45.44396627336401
853.5, 45.427888453639504
854, 45.38533737745224
854.5, 45.32302237770844
855, 45.25669412842746
855.5, 45.20017403609814
856, 45.153817444326805
856.5, 45.10078978339234
857, 45.019305573012396
857.5, 44.8897350405942
858, 44.759446688974684
858.5, 44.70432100842823
859, 44.68351337768356
859.5, 44.62317911016754
860, 44.558133931185964
860.5, 44.536048595971295
861, 44.52773196512422
861.5, 44.50794123455162
862, 44.50118444169529
862.5, 44.518516160526566
863, 44.53673472135305
863.5, 44.563260857799314
864, 44.642444057317434
864.5, 44.746853029535856
865, 44.79250124817907
865.5, 44.77650818910257
866, 44.743539037914466
866.5, 44.712133817084606
867, 44.68524794876181
867.5, 44.646991914149496
868, 44.59066687941986
868.5, 44.55808951038027
869, 44.58067363889923
869.5, 44.64356580900719
870, 44.71502064290947
870.5, 44.74807684017653
871, 44.74197504945806
871.5, 44.747267324505124
872, 44.767263065335975
872.5, 44.76913168108505
873, 44.76795044209588
873.5, 44.80049383496967
874, 44.858254971143495
874.5, 44.91957127197561
875, 44.987356235741196
875.5, 45.060831072977834
876, 45.10666846523151
876.5, 45.10027533392024
877, 45.0494449584804
877.5, 44.9905279139663
878, 44.994658176188764
878.5, 45.08158957834622
879, 45.21229819692973
879.5, 45.34225352264208
880, 45.43195670087667
880.5, 45.508053722442774
881, 45.61967204228442
881.5, 45.730518243296785
882, 45.790082147622755
882.5, 45.826565534705544
883, 45.87399453764207
883.5, 45.92342135171388
884, 45.96885387990349
884.5, 46.02489457085887
885, 46.06925654289737
885.5, 46.028722543225086
886, 45.94835923066588
886.5, 45.98484163432988
887, 46.12047400825232
887.5, 46.22044500634913
888, 46.26832775134531
888.5, 46.30730713257805
889, 46.36333410187809
889.5, 46.46403268479196
890, 46.66877464093596
890.5, 46.97899803512357
891, 47.21910258043491
891.5, 47.29966556145484
892, 47.348591847329
892.5, 47.433657759371755
893, 47.511780720382205
893.5, 47.58757233680456
894, 47.71302628186607
894.5, 47.864871901739896
895, 47.9769376303167
895.5, 48.0657602391585
896, 48.17648564707434
896.5, 48.28864661168112
897, 48.37774598235165
897.5, 48.486666857391576
898, 48.638335210425154
898.5, 48.76586532492571
899, 48.841053025506405
899.5, 48.9283227768843
900, 49.04635211422984
900.5, 49.14596856202042
901, 49.22129242439973
901.5, 49.30572365198356
902, 49.385835389373916
902.5, 49.427819165169396
903, 49.48066277017431
903.5, 49.60921813158739
904, 49.76522932166241
904.5, 49.891620897767204
905, 50.0251399145539
905.5, 50.183605504523115
906, 50.2919246148977
906.5, 50.33108490820356
907, 50.396878672542215
907.5, 50.516765555534896
908, 50.62725497790799
908.5, 50.735277709750264
909, 50.9013510186383
909.5, 51.0623247373913
910, 51.107763542518754
910.5, 51.13552704410457
911, 51.29097592354815
911.5, 51.5166787790596
912, 51.720517119113715
912.5, 51.89386034310785
913, 52.03552516845715
913.5, 52.12353310402585
914, 52.166290078147235
914.5, 52.2240710435453
915, 52.3364527063463
915.5, 52.51064913253257
916, 52.69294928374515
916.5, 52.796905648236496
917, 52.88878281249515
917.5, 53.08713200443975
918, 53.27034872186859
918.5, 53.29816677708091
919, 53.382196032442124
919.5, 53.687228673176385
920, 53.937470851416386
920.5, 53.94645021677215
921, 53.892400404832934
921.5, 53.92681202114548
922, 54.088087514772724
922.5, 54.31361261634768
923, 54.45341248511847
923.5, 54.51544326276419
924, 54.62030058708701
924.5, 54.781508231986464
925, 54.957341033873135
925.5, 55.13429439779405
926, 55.306187958893446
926.5, 55.45169131319757
927, 55.56248983570943
927.5, 55.67855187102184
928, 55.814756128186886
928.5, 55.91960901261011
929, 55.968014915677266
929.5, 55.98459950501475
930, 56.027443375869694
930.5, 56.17438120311102
931, 56.36399852944264
931.5, 56.45828408877315
932, 56.532625379583166
932.5, 56.73243175179346
933, 56.971218041546315
933.5, 57.12660886538765
934, 57.26089314556959
934.5, 57.425671264643356
935, 57.52358991238326
935.5, 57.54370756701066
936, 57.678989473329466
936.5, 57.94685756210754
937, 58.11133247473545
937.5, 58.1505976034104
938, 58.24931415241266
938.5, 58.41009395871678
939, 58.5246480882732
939.5, 58.63694719176465
940, 58.83561211556068
940.5, 59.04821352783765
941, 59.181663607703456
941.5, 59.265538375306896
942, 59.351250543026566
942.5, 59.47406736022004
943, 59.63771399828384
943.5, 59.79560896980344
944, 59.93573602607504
944.5, 60.09285446962684
945, 60.24151794264928
945.5, 60.30994030398895
946, 60.34892150045575
946.5, 60.46638389935576
947, 60.59873811165759
947.5, 60.63675884291414
948, 60.63623595319579
948.5, 60.676070716196854
949, 60.736088218635835
949.5, 60.8091561126162
950, 60.96814314687348
950.5, 61.199566997760954
951, 61.33164528328647
951.5, 61.34403620436365
952, 61.40617250564208
952.5, 61.55023386125564
953, 61.68933490498528
953.5, 61.81333445213405
954, 61.954568905599324
954.5, 62.10031572724543
955, 62.2277626435515
955.5, 62.35857832662338
956, 62.515379574858066
956.5, 62.681602135233234
957, 62.842052848278726
957.5, 63.00205518844462
958, 63.16364777731954
958.5, 63.31942435968107
959, 63.46385443147746
959.5, 63.59420186150297
960, 63.703921185362645
960.5, 63.786362720458726
961, 63.865424520279795
961.5, 63.97652916058218
962, 64.11609380582908
962.5, 64.26069748982788
963, 64.36877498724056
963.5, 64.42480171948344
964, 64.50670985090954
964.5, 64.66314879737745
965, 64.84475793439535
965.5, 65.00880617701971
966, 65.14100505239942
966.5, 65.23561820016924
967, 65.29581244213297
967.5, 65.35813900103342
968, 65.47634334177823
968.5, 65.63202284176863
969, 65.77715554591336
969.5, 65.92205258966813
970, 66.08235002820112
970.5, 66.20416958243706
971, 66.2594378635373
971.5, 66.34370578607388
972, 66.50731853837958
972.5, 66.66953669441197
973, 66.7935089014061
973.5, 66.9238115105092
974, 67.07171547661159
974.5, 67.20955346767337
975, 67.31633814107495
975.5, 67.38260496668552
976, 67.44612134384408
976.5, 67.55371110414771
977, 67.66755912958885
977.5, 67.73919281456921
978, 67.79522578312026
978.5, 67.8758643989454
979, 68.00857638157427
979.5, 68.17099389686065
980, 68.25490530980065
980.5, 68.26731534196577
981, 68.37251638890218
981.5, 68.5841984493986
982, 68.77263669701674
982.5, 68.92333696881083
983, 69.09249763335973
983.5, 69.2477348687871
984, 69.33142565295091
984.5, 69.38104674362691
985, 69.45652504918661
985.5, 69.58424680136282
986, 69.77634931552932
986.5, 70.02790895942483
987, 70.29026331456598
987.5, 70.44503198024185
988, 70.45502040973524
988.5, 70.39570590905477
989, 70.39220071561836
989.5, 70.5858338818025
990, 70.86794590651849
990.5, 71.00783324169922
991, 71.05698150595131
991.5, 71.15531435183571
992, 71.24483510287034
992.5, 71.24456393179818
993, 71.20577232959253
993.5, 71.18475287523549
994, 71.18377706798353
994.5, 71.21839405711783
995, 71.33647352014374
995.5, 71.51014506791445
996, 71.62341145472314
996.5, 71.64098538455163
997, 71.60994163712517
997.5, 71.6824797933232
998, 72.01820457973405
998.5, 72.39998812951866
999, 72.53625898025534
999.5, 72.53426531234317
1000, 72.56090559268469
1000.5, 72.60130108940992
1001, 72.63704360806608
1001.5, 72.72101497111424
1002, 72.85808755148383
1002.5, 72.96568565238262
1003, 73.0229856395973
1003.5, 73.08228460049435
1004, 73.13193260481206
1004.5, 73.11616302433409
1005, 73.0769765518671
1005.5, 73.09477016237909
1006, 73.13450528092692
1006.5, 73.14502961284373
1007, 73.20677876115543
1007.5, 73.38042065513368
1008, 73.55982307185553
1008.5, 73.6553295630431
1009, 73.67650371495401
1009.5, 73.6564081388582
1010, 73.64398824123522
1010.5, 73.6762429613872
1011, 73.77321052731102
1011.5, 73.91062168693954
1012, 74.03632995542569
1012.5, 74.14285746574552
1013, 74.24410097410579
1013.5, 74.3363743889155
1014, 74.41497234034347
1014.5, 74.49829866057495
1015, 74.59755709593192
1015.5, 74.68719755116123
1016, 74.75209140372841
1016.5, 74.80967808654877
1017, 74.86176587597792
1017.5, 74.88439669605512
1018, 74.88017112428601
1018.5, 74.87791794324268
1019, 74.87918683303906
1019.5, 74.86987731851914
1020, 74.87453152338716
1020.5, 74.92344625333195
1021, 74.96832089822189
1021.5, 74.96281181414075
1022, 74.97419714216285
1022.5, 75.05341032035683
1023, 75.13654796508844
1023.5, 75.17386471966849
1024, 75.17658784961725
1024.5, 75.17187872479508
1025, 75.19855827546631
1025.5, 75.28306735488677
1026, 75.43445104278463
1026.5, 75.60003375916176
1027, 75.70061497572647
1027.5, 75.77118731984626
1028, 75.87762348754485
1028.5, 75.9610751609442
1029, 75.97198682179511
1029.5, 76.04223289269208
1030, 76.24593891554632
1030.5, 76.41420979411193
1031, 76.45807010538195
1031.5, 76.4898496868669
1032, 76.55984062786312
1032.5, 76.61827041036149
1033, 76.64604891163745
1033.5, 76.65608408107428
1034, 76.65301154045153
1034.5, 76.63719770280899
1035, 76.62133122566505
1035.5, 76.61897268777847
1036, 76.62059285328716
1036.5, 76.61692382165312
1037, 76.62365986949682
1037.5, 76.66019349703048
1038, 76.74192266935277
1038.5, 76.8588999493545
1039, 76.96177900838013
1039.5, 77.038047732123
1040, 77.12027125870148
1040.5, 77.20262141459267
1041, 77.24816062204303
1041.5, 77.25358378090279
1042, 77.23702772480088
1042.5, 77.22188736200741
1043, 77.23252936807454
1043.5, 77.2881346506378
1044, 77.38832460131768
1044.5, 77.47579391332843
1045, 77.5203634231224
1045.5, 77.57524604217684
1046, 77.66051229136264
1046.5, 77.72841125750445
1047, 77.74425731814185
1047.5, 77.69643180439627
1048, 77.60784741415061
1048.5, 77.52507984685178
1049, 77.46819691484754
1049.5, 77.4401270308412
1050, 77.43202834908188
1050.5, 77.43165500514188
1051, 77.43185010807913
1051.5, 77.44230347521194
1052, 77.51819018116241
1052.5, 77.66160024147209
1053, 77.74978272106937
1053.5, 77.75283445945428
1054, 77.79480784946092
1054.5, 77.90213894759968
1055, 77.99150111192458
1055.5, 78.04841622752275
1056, 78.10779709146676
1056.5, 78.15109311604556
1057, 78.14015508476734
1057.5, 78.09328329314351
1058, 78.04790585845309
1058.5, 78.03377239150913
1059, 78.06261050097054
1059.5, 78.10157779273463
1060, 78.13090560790197
1060.5, 78.17119325418206
1061, 78.24640223981277
1061.5, 78.37640426772015
1062, 78.52875111699873
1062.5, 78.62519394078079
1063, 78.6597205225196
1063.5, 78.6716930206638
1064, 78.64189085764905
1064.5, 78.54130156032784
1065, 78.45287009502123
1065.5, 78.45812254519402
1066, 78.48464437479502
1066.5, 78.46026251116521
1067, 78.40920846594548
1067.5, 78.35957873738498
1068, 78.317957056841
1068.5, 78.2858078861635
1069, 78.2617795214415
1069.5, 78.26184117280663
1070, 78.31329654484887
1070.5, 78.38306778120229
1071, 78.40701066680978
1071.5, 78.39481284631957
1072, 78.39304904396774
1072.5, 78.45797781630385
1073, 78.61084496012158
1073.5, 78.73708863361364
1074, 78.75093241138629
1074.5, 78.71141096154693
1075, 78.66615335799803
1075.5, 78.60632388205525
1076, 78.5510868246692
1076.5, 78.55726393189367
1077, 78.61542325518914
1077.5, 78.66101517361348
1078, 78.68808783749898
1078.5, 78.7232174856908
1079, 78.7529986525719
1079.5, 78.75545695505146
1080, 78.75458727009298
1080.5, 78.76783452378456
1081, 78.74376919638738
1081.5, 78.65903697771311
1082, 78.58790637068986
1082.5, 78.58176564637616
1083, 78.63203125087956
1083.5, 78.71589548148016
1084, 78.80176705336302
1084.5, 78.88048221144949
1085, 78.95934312919766
1085.5, 79.01876820445484
1086, 79.03112279177486
1086.5, 79.02439703719115
1087, 79.03381867413349
1087.5, 79.02120206692477
1088, 78.96154274670182
1088.5, 78.93696776586523
1089, 78.98976055209573
1089.5, 79.03098746362943
1090, 79.01341309695631
1090.5, 78.97931178581851
1091, 78.94867631015427
1091.5, 78.90844946667313
1092, 78.84075178781764
1092.5, 78.73249704209641
1093, 78.64042593288609
1093.5, 78.64420649464614
1094, 78.72172115454705
1094.5, 78.81435152580917
1095, 78.87838228609324
1095.5, 78.89553259620433
1096, 78.91027262089708
1096.5, 78.94710963450419
1097, 78.96672012440082
1097.5, 78.95007540458552
1098, 78.91903496848488
1098.5, 78.90120525914632
1099, 78.92106534598112
1099.5, 78.9215781438899
1100, 78.80493710051438
1100.5, 78.64831989435878
1101, 78.58929692418168
1101.5, 78.57384534398925
1102, 78.5113415779983
1102.5, 78.44841447155191
1103, 78.43873414756038
1103.5, 78.45999401233911
1104, 78.48985917996876
1104.5, 78.53108851275142
1105, 78.59240882575756
1105.5, 78.68343014693245
1106, 78.73925258593381
1106.5, 78.6373560807394
1107, 78.45473652846148
1107.5, 78.3831786164845
1108, 78.39336947669341
1108.5, 78.36970515166568
1109, 78.33297203249228
1109.5, 78.33543238102382
1110, 78.36958320484621
1110.5, 78.4031844382859
1111, 78.37694989906606
1111.5, 78.27702429422708
1112, 78.17871085109925
1112.5, 78.1171798760902
1113, 78.06477497717019
1113.5, 78.0156701607439
1114, 77.98776833820156
1114.5, 77.9954703022596
1115, 78.0463139558293
1115.5, 78.11719049297955
1116, 78.16863347591796
1116.5, 78.15027330295446
1117, 78.04010941208344
1117.5, 77.92867757905852
1118, 77.87303146857897
1118.5, 77.78883677733613
1119, 77.63858873044157
1119.5, 77.498606560707
1120, 77.36699141776357
1120.5, 77.14118284290798
1121, 76.86841758793129
1121.5, 76.716667791058
1122, 76.68304946616959
1122.5, 76.66951140748111
1123, 76.67832032404789
1123.5, 76.73983685671519
1124, 76.80362241970704
1124.5, 76.81629053155122
1125, 76.79602795402847
1125.5, 76.75078707608202
1126, 76.63217370380156
1126.5, 76.45561139287227
1127, 76.34845264748357
1127.5, 76.32976942536374
1128, 76.28761294748482
1128.5, 76.19793621931737
1129, 76.10779684744337
1129.5, 75.9883584677124
1130, 75.78738858054331
1130.5, 75.60409052491453
1131, 75.5531895738677
1131.5, 75.53470278537515
1132, 75.43666832547713
1132.5, 75.29967243211978
1133, 75.16244468993779
1133.5, 74.99692115674988
1134, 74.82107264566422
1134.5, 74.73289273331567
1135, 74.744574289994
1135.5, 74.77234628962074
1136, 74.80287764829193
1136.5, 74.87446739955665
1137, 74.95854949368764
1137.5, 74.99560070589376
1138, 74.9693203743017
1138.5, 74.8859704516767
1139, 74.77590003083449
1139.5, 74.66526009226622
1140, 74.54924503410348
1140.5, 74.41369108801688
1141, 74.23758560742745
1141.5, 74.0365328637931
1142, 73.87812971678412
1142.5, 73.78755186884493
1143, 73.74086128480207
1143.5, 73.69454643475217
1144, 73.602169784367
1144.5, 73.50424686462357
1145, 73.46955240784001
1145.5, 73.46570699205485
1146, 73.43934348397414
1146.5, 73.4008907048271
1147, 73.34218954511043
1147.5, 73.16160979636271
1148, 72.86107221552776
1148.5, 72.66621151961928
1149, 72.62543242699921
1149.5, 72.52144247504872
1150, 72.3247710499177
1150.5, 72.19433960053529
1151, 72.13092575522148
1151.5, 72.03371961656232
1152, 71.9143495932215
1152.5, 71.83038454636068
1153, 71.78224042872284
1153.5, 71.75563644265337
1154, 71.75486567530862
1154.5, 71.77561662579433
1155, 71.78051572881154
1155.5, 71.74973655533587
1156, 71.70359813907602
1156.5, 71.63120114639823
1157, 71.47885936581037
1157.5, 71.24305434843552
1158, 70.9697929559273
1158.5, 70.71635005513139
1159, 70.53882350303209
1159.5, 70.43686641066704
1160, 70.37528947551945
1160.5, 70.27410349954842
1161, 70.07618729406168
1161.5, 69.85470338687563
1162, 69.68886479436996
1162.5, 69.6032043600652
1163, 69.58775259770114
1163.5, 69.58840911942936
1164, 69.57248688010519
1164.5, 69.53853407492198
1165, 69.48829520166808
1165.5, 69.42387133689395
1166, 69.33866150169926
1166.5, 69.22576276820385
1167, 69.11464034254053
1167.5, 69.0286092997657
1168, 68.88502301474435
1168.5, 68.62029883957635
1169, 68.33804204702493
1169.5, 68.13047923278575
1170, 67.98598098280162
1170.5, 67.87548815457521
1171, 67.76590817465939
1171.5, 67.65088910678392
1172, 67.55288959522785
1172.5, 67.45925568118678
1173, 67.33359778831056
1173.5, 67.20347590841817
1174, 67.12264777856736
1174.5, 67.06804626686204
1175, 66.99946291997745
1175.5, 66.94193022335591
1176, 66.89822582014457
1176.5, 66.74651410833314
1177, 66.46224652404916
1177.5, 66.276584201204
1178, 66.2524682315893
1178.5, 66.15596768227505
1179, 65.9277529396371
1179.5, 65.71757844840397
1180, 65.5870070043677
1180.5, 65.51764574775052
1181, 65.45578425358566
1181.5, 65.34296587333665
1182, 65.20508242019679
1182.5, 65.08747833744243
1183, 64.9804149316619
1183.5, 64.86143026117317
1184, 64.71349333916658
1184.5, 64.53595785809877
1185, 64.35885791243892
1185.5, 64.19852517232995
1186, 64.04627025795683
1186.5, 63.8869513623984
1187, 63.70408455909347
1187.5, 63.526555148654765
1188, 63.40745289973126
1188.5, 63.32137653061368
1189, 63.21378822001377
1189.5, 63.09901274230605
1190, 63.00372505024615
1190.5, 62.904636134614
1191, 62.786269447725424
1191.5, 62.687560728810226
1192, 62.61671985591938
1192.5, 62.50790304429386
1193, 62.35424202278157
1193.5, 62.23603069941334
1194, 62.16409624632784
1194.5, 62.07934666094055
1195, 61.95954427334286
1195.5, 61.810564659612446
1196, 61.644457276403514
1196.5, 61.47964310339384
1197, 61.35431830903846
1197.5, 61.285189956205954
1198, 61.18461670590501
1198.5, 61.00159182177449
1199, 60.839534337249006
1199.5, 60.768215532854754
1200, 60.753056575677775
1200.5, 60.71903072584138
1201, 60.56153183563483
1201.5, 60.333218396663995
1202, 60.216235362446795
1202.5, 60.212359602007034
1203, 60.20637440774602
1203.5, 60.10882242507242
1204, 59.869159359799404
1204.5, 59.57026616038575
1205, 59.321568242242705
1205.5, 59.177309544934865
1206, 59.14107908821833
1206.5, 59.124163863567965
1207, 59.05453123906478
1207.5, 58.91244930697062
1208, 58.72706023088697
1208.5, 58.576386174206725
1209, 58.47248797616159
1209.5, 58.36933644098296
1210, 58.23287682705523
1210.5, 58.04846489549525
1211, 57.878640173158445
1211.5, 57.79425177407332
1212, 57.74719268243783
1212.5, 57.66350534286375
1213, 57.50083057418253
1213.5, 57.26655760175635
1214, 57.06493375599164
1214.5, 56.96112574786715
1215, 56.935487014715626
1215.5, 56.915725646052614
1216, 56.787127037645796
1216.5, 56.57592111886245
1217, 56.411987273111656
1217.5, 56.29774252966057
1218, 56.1684263850191
1218.5, 56.014237511643174
1219, 55.8453659167262
1219.5, 55.66009199219344
1220, 55.46788605692345
1220.5, 55.32241096874392
1221, 55.252150624653034
1221.5, 55.21398446129673
1222, 55.13667202145118
1222.5, 54.926046222200846
1223, 54.631391251238604
1223.5, 54.44605785494211
1224, 54.392347091476466
1224.5, 54.358687926246596
1225, 54.259135611982835
1225.5, 54.049632351832074
1226, 53.84692262542974
1226.5, 53.77270840502815
1227, 53.71320030519676
1227.5, 53.552352314220876
1228, 53.3442988184169
1228.5, 53.16507808010482
1229, 53.07181385881783
1229.5, 53.01690978321553
1230, 52.81645313544465
1230.5, 52.485143567944945
1231, 52.23575561001119
1231.5, 52.10024595455084
1232, 51.98298996369729
1232.5, 51.872915658503835
1233, 51.78442385346146
1233.5, 51.61968470329051
1234, 51.31014776502387
1234.5, 51.05995278651007
1235, 51.01841350045401
1235.5, 51.00817531818106
1236, 50.881395094663496
1236.5, 50.64904907643755
1237, 50.378417023654976
1237.5, 50.18337623430911
1238, 50.06904254506225
1238.5, 49.942898139388205
1239, 49.83072402161407
1239.5, 49.820173610287235
1240, 49.823910191460385
1240.5, 49.71099676748135
1241, 49.57547319901797
1241.5, 49.51441241038972
1242, 49.35802407717545
1242.5, 49.01491034520532
1243, 48.744594148690375
1243.5, 48.66493612980758
1244, 48.55100900608904
1244.5, 48.33809275383161
1245, 48.20093380400714
1245.5000000000002, 48.187034843058534
1246, 48.215470723497624
1246.5, 48.20839252556634
1247.0000000000002, 48.10760065119346
1247.5, 47.96534411622537
1248, 47.86595390958554
1248.5, 47.80241092600445
1249, 47.743041339602335
1249.5, 47.67068173847724
1250, 47.57768620414832
1250.5, 47.47157208679802
1251, 47.35951018456416
1251.5, 47.24447781853677
1252, 47.13131782962665
1252.5, 47.027985527674346
1253, 46.949779808976245
1253.5, 46.9133167115174
1254, 46.88373783966524
1254.5, 46.80811289427493
1255, 46.72668874474313
1255.5, 46.69967338907119
1256, 46.69233027184629
1256.5, 46.65595772033161
1257, 46.587459828227075
1257.5, 46.49432670602938
1258, 46.38730533888138
1258.5, 46.28529266967969
1259, 46.218382088112406
1259.5, 46.18986881745196
1260.0000000000002, 46.17192776142555
1260.5, 46.13852019658734
1261, 46.071809129589525
1261.5000000000002, 46.00797733277177
1262, 46.002168583252775
1262.5, 46.031533824433765
1263.0000000000002, 46.04770894909477
1263.5, 46.02887138789009
1264, 45.97619066468943
1264.5000000000002, 45.93798114186849
1265, 45.94772029084458
1265.5, 45.98858893648853
1266, 46.01707188720223
1266.5, 45.96218272214893
1267, 45.82338114653457
1267.5, 45.67564715106597
1268, 45.56941322054987
1268.5, 45.528018033279594
1269, 45.52276292933993
1269.5, 45.506745859992
1270, 45.4916895633304
1270.5, 45.50220036568989
1271, 45.524015727156964
1271.5, 45.534012594780535
1272, 45.51272063852462
1272.5, 45.46130960406677
1273, 45.4199693277828
1273.5, 45.40551531722383
1274, 45.395999880292834
1274.5, 45.379367139294665
1275, 45.35607334103175
1275.5, 45.3221825453835
1276.0000000000002, 45.268880645713416
1276.5, 45.17594640159131
1277, 45.05824585821154
1277.5000000000002, 45.164235413649195
1281, 45.44423600678974
1281.5, 45.31929449631622
1282, 45.37222543625002
1282.5, 45.38762190291369
1283, 45.4013472839627
1285, 45.06373767900796
1285.5, 44.98987759040029
1286, 45.048863274649506
1286.5, 45.06003106009323
1287, 45.030216082669824
1287.5, 44.983794952326356
1288, 44.925587509656836
1288.5, 44.8730721481903
1289, 44.86003032977553
1289.5, 44.88225941098536
1290, 44.90190905368491
1290.5, 44.89610054994336
1291, 44.8563215394402
1291.5, 44.80400443579424
1292.0000000000002, 44.767089767429084
1292.5, 44.7389070967879
1293, 44.70684373700263
1293.5000000000002, 44.674973007120904
1294, 44.65278040822513
1294.5, 44.65400052449758
1295.0000000000002, 44.68410944827071
1295.5, 44.73401653700993
1296, 44.79815403963844
1296.5000000000002, 44.87534060325781
1297, 44.94032176615068
1297.5, 44.95242599448221
1298.0000000000002, 44.925951472243256
1298.5, 44.90094158856974
1299, 44.86366734152354
1299.5, 44.78884006703251
1300, 44.70478137479124
1300.5, 44.640331489198275
1301, 44.575874031745315
1301.5, 44.5193174282761
1302, 44.55948144160754
1302.5, 44.701243230734796
1303, 44.805343437501506
1303.5, 44.841307531686596
1304, 44.90728291884381
1304.5, 44.99532124344396
1305, 45.01411558236149
1305.5, 44.94000263197102
1306, 44.79640957422868
1306.5, 44.65377579935919
1307, 44.5852053787242
1307.5, 44.59402042160314
1308.0000000000002, 44.65619241414238
1308.5, 44.72322838443599
1309, 44.760569061089164
1309.5000000000002, 44.7723310557005
1310, 44.770828160605674
1310.5, 44.77256243536399
1311.0000000000002, 44.774681987503044
1311.5, 44.755410993755945
1312.0000000000002, 44.71950579444245
1312.5000000000002, 44.69096192141261
1313, 44.680279337509646
1313.5000000000002, 44.68609617491941
1314.0000000000002, 44.6805962523953
1314.5, 44.63836315443112
1315.0000000000002, 44.5844778412103
1315.5, 44.547074373427854
1316, 44.526279467119366
1316.5000000000002, 44.512813142422615
1317, 44.48916291776133
1317.5, 44.465859384142
1318.0000000000002, 44.49150790671406
1318.5, 44.563258328296996
1319, 44.627294114612795
1319.5000000000002, 44.67085802262414
1320, 44.70960007199957
1320.5, 44.73848866408399
1321.0000000000002, 44.74554318539645
1321.5, 44.74040001484102
1322, 44.73763712764756
1322.5000000000002, 44.74145623802212
1323, 44.7472196012544
1323.5, 44.73372844450756
1324.0000000000002, 44.697989042052406
1324.5, 44.67505417622325
1325, 44.67716145234449
1325.5000000000002, 44.68121244476485
1326, 44.66462631440366
1326.5, 44.612030667267845
1327.0000000000002, 44.562952744770925
1327.5, 44.58228132958753
1328.0000000000002, 44.644728500996905
1328.5000000000002, 44.69104823402423
1329, 44.7107164606439
1329.5000000000002, 44.711776242970686
1330.0000000000002, 44.71090038998786
1330.5, 44.71533241357733
1331.0000000000002, 44.70426409189505
1331.5000000000002, 44.67069770881742
1332, 44.6391769715517
1332.5000000000002, 44.63589350424996
1333, 44.6826178655084
1333.5, 44.75348767938115
1334.0000000000002, 44.787083623635176
1334.5, 44.796314787603556
1335, 44.83346179300226
1335.5000000000002, 44.8872712792867
1336, 44.91794485782366
1336.5, 44.886652560271656
1337.0000000000002, 44.77898722521461
1337.5, 44.66188318860242
1338, 44.59004532125363
1338.5000000000002, 44.549627211264124
1339, 44.52938121891217
1339.5, 44.53797926365059
1340.0000000000002, 44.572238074661726
1340.5, 44.613094907712295
1341, 44.64454466178226
1341.5000000000002, 44.65548924661326
1342, 44.65144693765496
1342.5, 44.64687530722636
1343.0000000000002, 44.64988275306255
1343.5, 44.65978969630734
1344.0000000000002, 44.647755088053664
1344.5000000000002, 44.59132278880481
1345, 44.51416717960139
1345.5000000000002, 44.44415552359976
1346.0000000000002, 44.39814237158054
1346.5, 44.381036105242664
1347.0000000000002, 44.381352275987155
1347.5000000000002, 44.38318588869407
1348, 44.37009267393938
1348.5000000000002, 44.36932634031358
1349, 44.433225623077455
1349.5, 44.52053435976294
1350.0000000000002, 44.553278225617305
1350.5, 44.55969813718093
1351, 44.59605731765064
1351.5000000000002, 44.65684550994108
1352, 44.716664909079526
1352.5, 44.74113999476122
1353.0000000000002, 44.71401377924941
1353.5, 44.65994614844631
1354, 44.60763633991757
1354.5000000000002, 44.583242255289775
1355, 44.586926818858544
1355.5, 44.594025063811614
1356.0000000000002, 44.61063898532263
1356.5, 44.660305361242756
1357, 44.707819490629
1357.5000000000002, 44.70155886798106
1358, 44.68040100417981
1358.5, 44.695451228437605
1359.0000000000002, 44.71026494639182
1359.5, 44.68570992811167
1360, 44.63750173057995
1360.5000000000002, 44.59568214749801
1361, 44.59890199958417
1361.5000000000002, 44.65073887425693
1362.0000000000002, 44.705217516725234
1362.5, 44.720971999623714
1363.0000000000002, 44.6691969313691
1363.5000000000002, 44.579520741972935
1364, 44.51895407563708
1364.5000000000002, 44.52445329580714
1365.0000000000002, 44.606303202463224
1365.5, 44.71186495234396
1366.0000000000002, 44.7799971075555
1366.5, 44.80072151942938
1367, 44.785171222677526
1367.5000000000002, 44.76753318770833
1368, 44.758293768796634
1368.5, 44.71866857660354
1369.0000000000002, 44.648274300856286
1369.5, 44.60156481809601
1370, 44.590952546804786
1370.5000000000002, 44.58811698406222
1371, 44.58851006264559
1371.5, 44.6020248460888
1372.0000000000002, 44.619190874564524
1372.5, 44.62456746027132
1373, 44.62002047342374
1373.5000000000002, 44.60957201171954
1374, 44.584655914187934
1374.5, 44.53961593917679
1375.0000000000002, 44.4830732171055
1375.5, 44.43982263354051
1376, 44.457311295167734
1376.5000000000002, 44.52947429985782
1377, 44.58482374756321
1377.5000000000002, 44.610954625075536
1378.0000000000002, 44.64794161494559
1378.5, 44.700068848196146
1379.0000000000002, 44.74541007142029
1379.5000000000002, 44.74355203211397
1380, 44.66656160829359
1380.5000000000002, 44.587353003796686
1381.0000000000002, 44.576403586246364
1381.5, 44.59233903604231
1382.0000000000002, 44.593186178099195
1382.5000000000002, 44.589699996787466
1383, 44.59047743385712
1383.5000000000002, 44.58838996054266
1384, 44.57345139319379
1384.5, 44.53695068824102
1385.0000000000002, 44.51942615107872
1385.5, 44.59060061062511
1386, 44.697482324339255
1386.5000000000002, 44.73202818213055
1387, 44.71155939254851
1387.5, 44.69763835858128
1388.0000000000002, 44.71302723302874
1388.5, 44.75970324070174
1389, 44.80961950603456
1389.5000000000002, 44.84285410119098
1390, 44.86977863210883
1390.5, 44.89019496812537
1391.0000000000002, 44.8823564662442
1391.5, 44.846853034303486
1392, 44.809662300336946
1392.5000000000002, 44.77891754010949
1393, 44.74816036027507
1393.5000000000002, 44.71551753369859
1394.0000000000002, 44.68496022854359
1394.5, 44.679904799158535
1395.0000000000002, 44.7199850731455
1395.5000000000002, 44.775722274698495
1396, 44.81447490288231
1396.5000000000002, 44.83332553980272
1397.0000000000002, 44.83560016202328
1397.5, 44.82624501160636
1398.0000000000002, 44.81008946845598
1398.5000000000002, 44.79151632890819
1399, 44.775175771367394
1399.5000000000002, 44.76596492594273
1400, 44.767832442016214
