301, 11.657894933773164
301.5, 11.658236953640085
302, 11.67024165672045
302.5, 11.689070358756666
303, 11.705858750661122
303.5, 11.722838020613096
304, 11.741488550191178
304.5, 11.752626889979226
305, 11.752377293457386
305.5, 11.747651162435545
306, 11.748025306865202
306.5, 11.76240208819415
307, 11.779729941919555
307.5, 11.7834142462211
308, 11.779860205666878
308.5, 11.77891018739723
309, 11.78185964763469
309.5, 11.795809803026359
310, 11.836850287968915
310.5, 11.890245223532943
311, 11.918709188199514
311.5, 11.929950201980688
312, 11.947792518712234
312.5, 11.961725010465699
313, 11.961410975074855
313.5, 11.962228621007142
314, 11.977745108866017
314.5, 12.011767002969748
315, 12.046362513544324
315.5, 12.051647548449182
316, 12.050269917572905
316.5, 12.07883762845681
317, 12.115823110508998
317.5, 12.135465917581058
318, 12.142707323543291
318.5, 12.143063126079355
319, 12.136818654014405
319.5, 12.137210585488006
320, 12.164284988346822
320.5, 12.200084076445961
321, 12.217729837700332
321.5, 12.235269994214207
322, 12.26919187951897
322.5, 12.30150153528929
323, 12.318613219846668
323.5, 12.321157566751495
324, 12.320068265346762
324.5, 12.33146930430459
325, 12.350779395720679
325.5, 12.366919921352633
326, 12.385008944350616
326.5, 12.405850189178082
327, 12.409468551596461
327.5, 12.390997196253608
328, 12.371148514391322
328.5, 12.374665324010579
329, 12.420803698752323
329.5, 12.470845150045292
330, 12.477050192302713
330.5, 12.472224481487018
331, 12.488794656823046
331.5, 12.507315153986497
332, 12.521609394719533
332.5, 12.552054211091942
333, 12.587221596083836
333.5, 12.594657386214934
334, 12.59163404287986
334.5, 12.607614130092202
335, 12.62319441046499
335.5, 12.622047314706094
336, 12.624814440532461
336.5, 12.642385051234498
337, 12.665205374244849
337.5, 12.680801064381683
338, 12.679456398448522
338.5, 12.681712649378369
339, 12.71140846735257
339.5, 12.74802531558673
340, 12.768570744876712
340.5, 12.771033237365813
341, 12.768197669926423
341.5, 12.786724734415614
342, 12.82435374164939
342.5, 12.858648918298087
343, 12.892064013274435
343.5, 12.931416573949207
344, 12.95414147645458
344.5, 12.951103687696587
345, 12.959628299284518
345.5, 12.995237765914567
346, 13.036969367646819
346.5, 13.068456069135948
347, 13.080147556494197
347.5, 13.072543555880173
348, 13.053415058945717
348.5, 13.041803764324172
349, 13.053471957000156
349.5, 13.09042240522301
350, 13.142769911036027
350.5, 13.188591077275177
351, 13.218708758189308
351.5, 13.235732759322772
352, 13.253044199788775
352.5, 13.278332455098209
353, 13.27906159917272
353.5, 13.242170507550895
354, 13.217411619780762
354.5, 13.221242208871814
355, 13.220251879187202
355.5, 13.219847702186186
356, 13.249238360133177
356.5, 13.283196389878782
357, 13.287245670586529
357.5, 13.283061800967587
358, 13.295883281186363
358.5, 13.329134320402332
359, 13.366024347910198
359.5, 13.372136478356751
360, 13.36949162852315
360.5, 13.41050539791307
361, 13.463977500235657
361.5, 13.483236406882753
362, 13.498797292363975
362.5, 13.534461952303701
363, 13.562281481732995
363.5, 13.576092093804434
364, 13.602302448282387
364.5, 13.638149497697157
365, 13.66165032916605
365.5, 13.673861637287175
366, 13.686088310882738
366.5, 13.711055965280408
367, 13.748107710297276
367.5, 13.768924611165659
368, 13.766279369170803
368.5, 13.761532216772167
369, 13.763032151689814
369.5, 13.770391622312573
370, 13.795022536615662
370.5, 13.844407045258237
371, 13.893886948450643
371.5, 13.927030900304516
372, 13.958624119065306
372.5, 13.993183733587628
373, 14.019154649502056
373.5, 14.032946785500627
374, 14.037156481360483
374.5, 14.033990730153121
375, 14.028837238514384
375.5, 14.039092601769681
376, 14.072228603609346
376.5, 14.110769906103684
377, 14.143858431181371
377.5, 14.171207113885842
378, 14.184574566417183
378.5, 14.173728457608902
379, 14.153696401640858
379.5, 14.146088318907445
380, 14.16023081745655
380.5, 14.19412037052787
381, 14.2292773426243
381.5, 14.261415930728177
382, 14.30373151404504
382.5, 14.356488738182023
383, 14.410544189930391
383.5, 14.456962169102184
384, 14.491267037805457
384.5, 14.523739507741922
385, 14.559014590360263
385.5, 14.585065502778036
386, 14.600264132587256
386.5, 14.616020712671215
387, 14.633083265934857
387.5, 14.646869099179142
388, 14.666859110861296
388.5, 14.700772734157383
389, 14.73208116814304
389.5, 14.749325992910912
390, 14.760500124437684
390.5, 14.77670755866653
391, 14.808169875427325
391.5, 14.842242878992323
392, 14.858220187642985
392.5, 14.877704246062152
393, 14.924859570600745
393.5, 14.979234258964425
394, 15.017025342121784
394.5, 15.026428764378863
395, 15.022661464431067
395.5, 15.044822433867807
396, 15.082250750958138
396.5, 15.100300563102323
397, 15.118106314512914
397.5, 15.156593731144625
398, 15.177344334497477
398.5, 15.15968996507948
399, 15.137474778925977
399.5, 15.1383421378833
400, 15.174450767855475
400.5, 15.229653046097454
401, 15.277240391852814
401.5, 15.331366995605876
402, 15.40446687726481
402.5, 15.455994485077696
403, 15.469559996685973
403.5, 15.490098988115207
404, 15.527098584775871
404.5, 15.549114063000346
405, 15.563965050027079
405.5, 15.597278557112318
406, 15.628548963072689
406.5, 15.639499795448288
407, 15.6706803803755
407.5, 15.740076506977985
408, 15.806184943092674
408.5, 15.853512913539333
409, 15.897604122228003
409.5, 15.92649151235723
410, 15.918292222114815
410.5, 15.89590080613928
411, 15.889564490900256
411.5, 15.903463021700333
412, 15.935524515837841
412.5, 15.98135735571715
413, 16.032627049905486
413.5, 16.077400888673083
414, 16.106019749966038
414.5, 16.116588579394303
415, 16.142050445060633
415.5, 16.207202956877566
416, 16.27608331602896
416.5, 16.32533039168419
417, 16.372446072844852
417.5, 16.423525970658616
418, 16.468878016032676
418.5, 16.497044786656858
419, 16.500739441580848
419.5, 16.498812190319825
420, 16.51156335359505
420.5, 16.537273451182415
421, 16.570602598892265
421.5, 16.606934195598086
422, 16.640402376962314
422.5, 16.664384776726095
423, 16.677945736449544
423.5, 16.682882563364984
424, 16.67768910329424
424.5, 16.669091954297684
425, 16.690674517879174
425.5, 16.74587406595633
426, 16.78271754943796
426.5, 16.811393586670235
427, 16.897650056708315
427.5, 17.00247457199906
428, 17.04773433525746
428.5, 17.073888891195452
429, 17.13532378607151
429.5, 17.214563549308465
430, 17.28500189624434
430.5, 17.327647431105248
431, 17.357383411506902
431.5, 17.415254172646556
432, 17.485316471443298
432.5, 17.528168671350528
433, 17.553108153872117
433.5, 17.58193869503374
434, 17.627088630038514
434.5, 17.681508166539047
435, 17.711413040592873
435.5, 17.723814181742668
436, 17.761477852474428
436.5, 17.81679242962565
437, 17.85864222656909
437.5, 17.88311265451236
438, 17.898043984507353
438.5, 17.91966702088972
439, 17.953927001554916
439.5, 17.988690972941058
440, 18.021482772685744
440.5, 18.058581328377514
441, 18.089743080407757
441.5, 18.103276147600297
442, 18.126119684377116
442.5, 18.177541807565618
443, 18.223798984647516
443.5, 18.253300940758862
444, 18.301302020906462
444.5, 18.372375142423678
445, 18.44167748521467
445.5, 18.507512599333054
446, 18.57734009019461
446.5, 18.639555905234772
447, 18.687590147102355
447.5, 18.74338264227346
448, 18.800805998656884
448.5, 18.8072944290124
449, 18.782877915981004
449.5, 18.80686894173904
450, 18.86898006681487
450.5, 18.92147988111779
451, 18.970251053884112
451.5, 19.024811230692137
452, 19.06224320669945
452.5, 19.07664115694594
453, 19.09496033227167
453.5, 19.131053055963662
454, 19.182781500589286
454.5, 19.231244877215303
455, 19.259841214657158
455.5, 19.302321659257103
456, 19.376534536251228
456.5, 19.422039067393143
457, 19.417488742155797
457.5, 19.416089892315313
458, 19.43684121516327
458.5, 19.465207606924608
459, 19.50161931439858
459.5, 19.550989962404927
460, 19.600861044900284
460.5, 19.637998495336134
461, 19.660092034445228
461.5, 19.674771183785538
462, 19.700558436582583
462.5, 19.73613843864375
463, 19.76572598396187
463.5, 19.80216224961063
464, 19.864676260070667
464.5, 19.935040916873177
465, 19.990521483341283
465.5, 20.023788048363585
466, 20.03911055310573
466.5, 20.053300961541623
467, 20.070786831340698
467.5, 20.085953596757946
468, 20.103903286427553
468.5, 20.1329958172784
469, 20.17174568566618
469.5, 20.210547456491753
470, 20.22740760363989
470.5, 20.23657279978009
471, 20.30071967250649
471.5, 20.391711705348044
472, 20.419639197148356
472.5, 20.433901702355158
473, 20.516700072968277
473.5, 20.59333708952437
474, 20.59695396827604
474.5, 20.581984088519718
475, 20.583633074366233
475.5, 20.586233496058014
476, 20.585389968518072
476.5, 20.589850975094222
477, 20.61466305143317
477.5, 20.67694078510344
478, 20.790447717850526
478.5, 20.94578753371499
479, 21.08220573834548
479.5, 21.191535876727087
480, 21.341217465380197
480.5, 21.495194719857153
481, 21.546086809683914
481.5, 21.517762065235047
482, 21.477503250233866
482.5, 21.411171631262704
483, 21.308127207857567
483.5, 21.21528440779352
484, 21.164708333832138
484.5, 21.156743167596787
485, 21.17963175499753
485.5, 21.214354328130142
486, 21.246406745759643
486.5, 21.266613629832406
487, 21.27875992353698
487.5, 21.292108727853915
488, 21.320320747365017
488.5, 21.357095170668728
489, 21.37122002806089
489.5, 21.366990658552993
490, 21.374343015708817
490.5, 21.39682656112224
491, 21.42728550294123
491.5, 21.46515246538405
492, 21.51247259193397
492.5, 21.57314007557983
493, 21.64172015556609
493.5, 21.70124018616218
494, 21.74878535241288
494.5, 21.793387060591286
495, 21.84785836511118
495.5, 21.918217449025192
496, 21.977369594230765
496.5, 22.000990103721378
497, 21.989275196851906
497.5, 21.953698322642893
498, 21.91519260865327
498.5, 21.883165908342377
499, 21.861275977036826
499.5, 21.87817667545704
500, 21.95549819339098
500.5, 22.04444713930353
501, 22.10037828171933
501.5, 22.125676640452298
502, 22.15333064471635
502.5, 22.24030480979107
503, 22.346003091857696
503.5, 22.376980724882003
504, 22.38926329056629
504.5, 22.467179050498416
505, 22.553938625738127
505.5, 22.59280779051676
506, 22.599432815839435
506.5, 22.59743567339855
507, 22.607151963906958
507.5, 22.62611659951888
508, 22.642152971853335
508.5, 22.690878444924266
509, 22.798532241741
509.5, 22.879715153633157
510, 22.880422888751085
510.5, 22.866329288438322
511, 22.869395984423946
511.5, 22.864783951081336
512, 22.865594252089792
512.5, 22.906083578353034
513, 22.960851268065298
513.5, 22.989179878896167
514, 22.986616043472182
514.5, 22.96651116855712
515, 22.960945270639925
515.5, 22.980081410790092
516, 23.006415442213623
516.5, 23.041767116214345
517, 23.09968258212325
517.5, 23.17245685236044
518, 23.24424378965169
518.5, 23.301733779780918
519, 23.33782654837033
519.5, 23.35706580983826
520, 23.372019715945058
520.5, 23.40104330624432
521, 23.436037671058088
521.5, 23.455356945461972
522, 23.47139641957999
522.5, 23.502516595250583
523, 23.539078850950446
523.5, 23.572116342482545
524, 23.60621734202485
524.5, 23.64037567139853
525, 23.665698493052346
525.5, 23.679600255782873
526, 23.68406338229107
526.5, 23.680557412867074
527, 23.674625801215825
527.5, 23.68673014865564
528, 23.722242464742294
528.5, 23.75136006261279
529, 23.765691502242262
529.5, 23.78404660419882
530, 23.80030172212956
530.5, 23.79422686999395
531, 23.769508559329182
531.5, 23.74326981318484
532, 23.746157514919346
532.5, 23.78345266923617
533, 23.807721136286816
533.5, 23.819220876347416
534, 23.87235405208922
534.5, 23.944009917963754
535, 23.971877021942674
535.5, 23.982610486999093
536, 24.016797397936628
536.5, 24.046482864941268
537, 24.048153736018932
537.5, 24.03400833456479
538, 24.016581296876566
538.5, 24.0045514693319
539, 24.008868668684713
539.5, 24.041112221195164
540, 24.106843364054868
540.5, 24.197321953585018
541, 24.264304745030756
541.5, 24.282063987330318
542, 24.28149793669992
542.5, 24.281716634885925
543, 24.282172870935696
543.5, 24.282000346600043
544, 24.281176254872065
544.5, 24.282096990827085
545, 24.284782717393853
545.5, 24.27874716056911
546, 24.261025156847396
546.5, 24.246229907719524
547, 24.246894622335574
547.5, 24.269957145751633
548, 24.30718063115539
548.5, 24.339548751430584
549, 24.340299632467804
549.5, 24.29495764509238
550, 24.236894758661208
550.5, 24.198807395603183
551, 24.194192359979425
551.5, 24.214692133142933
552, 24.231706636599625
552.5, 24.224892404653886
553, 24.187868560211342
553.5, 24.161283549926125
554, 24.17771275233808
554.5, 24.19247806830674
555, 24.175594542051655
555.5, 24.14962815530012
556, 24.133313368651145
556.5, 24.13355842903364
557, 24.133139772563425
557.5, 24.10708305282205
558, 24.068276097790474
558.5, 24.03495030340926
559, 24.000963770698263
559.5, 23.965218556260155
560, 23.94269651945173
560.5, 23.9282932860974
561, 23.898035546917313
561.5, 23.863690282939984
562, 23.856953530973414
562.5, 23.897483799684565
563, 23.976430475361454
563.5, 24.012403053613653
564, 23.974310487075442
564.5, 23.938236547192744
565, 23.926427687500322
565.5, 23.900330991755013
566, 23.86417278961197
566.5, 23.84313447731077
567, 23.82957029031347
567.5, 23.811644725400456
568, 23.79822922931467
568.5, 23.797132298004172
569, 23.807758790527643
569.5, 23.825587991574267
570, 23.841718338249862
570.5, 23.834141902247993
571, 23.784929356483957
571.5, 23.737998408941735
572, 23.733747918230904
572.5, 23.742779349365364
573, 23.742213474414868
573.5, 23.740670677085546
574, 23.741187559216797
574.5, 23.739397895517314
575, 23.740394038570273
575.5, 23.748807161001423
576, 23.73756177933376
576.5, 23.688333021676527
577, 23.63725696885055
577.5, 23.616638648655496
578, 23.63539137803454
578.5, 23.673125068964808
579, 23.68785666049682
579.5, 23.681494863404865
580, 23.677683462545772
580.5, 23.681747761269406
581, 23.694588078028488
581.5, 23.721218666573094
582, 23.756925715779502
582.5, 23.780563592662205
583, 23.777539061027483
583.5, 23.742486910341725
584, 23.685576204653316
584.5, 23.626223468019347
585, 23.587908212335222
585.5, 23.583676199361108
586, 23.594327784132005
586.5, 23.597374507687576
587, 23.57523393555978
587.5, 23.53842075696791
588, 23.518460470020813
588.5, 23.50249818433035
589, 23.4608301692751
589.5, 23.40256490354382
590, 23.347426164787294
590.5, 23.311063427407376
591, 23.295435354100107
591.5, 23.28360423585636
592, 23.28391937460971
592.5, 23.323667305767728
593, 23.377671325456404
593.5, 23.403255765315663
594, 23.411500705441327
594.5, 23.41712665936575
595, 23.40137431020264
595.5, 23.36434920640511
596, 23.3421111664522
596.5, 23.346416893812773
597, 23.36201943587143
597.5, 23.352594303059703
598, 23.28863419631101
598.5, 23.223615448176503
599, 23.196574248894365
599.5, 23.145129782588413
600, 23.05357161246907
600.5, 22.997546246621397
601, 22.98983262743313
601.5, 22.983910729555788
602, 22.961300643795866
602.5, 22.919701309888893
603, 22.859282712309636
603.5, 22.788293164213727
604, 22.733380321439355
604.5, 22.68965191244415
605, 22.60518608821387
605.5, 22.498804448779225
606, 22.443659276645448
606.5, 22.420114678009
607, 22.374728001911365
607.5, 22.320908020380713
608, 22.282914594624046
608.5, 22.263246271906965
609, 22.23716945037519
609.5, 22.149683358299654
610, 22.023783245522253
610.5, 21.93993873602554
611, 21.880541647451906
611.5, 21.79582721550925
612, 21.717485838448994
612.5, 21.679126984586233
613, 21.662265910468747
613.5, 21.659394260983106
614, 21.686817996430236
614.5, 21.70437096020767
615, 21.63631982272996
615.5, 21.520696505884516
616, 21.431715179443998
616.5, 21.352504576314175
617, 21.263162297990164
617.5, 21.197228276885667
618, 21.15349527872482
618.5, 21.07540823713296
619, 20.987663401448998
619.5, 20.970397767510164
620, 20.9767316434544
620.5, 20.923625520287246
621, 20.84259327075901
621.5, 20.783327002416954
622, 20.763948229337828
622.5, 20.78237727806831
623, 20.815520409232406
623.5, 20.84907523406953
624, 20.87654351222227
624.5, 20.886141378005945
625, 20.865914354005227
625.5, 20.814448700114966
626, 20.7435772563621
626.5, 20.68934213315842
627, 20.67259906993631
627.5, 20.688402813981952
628, 20.726099386158822
628.5, 20.77054305992931
629, 20.795817167350293
629.5, 20.77812073128044
630, 20.72341050717283
630.5, 20.64356093521245
631, 20.545941672857808
631.5, 20.430237216676815
632, 20.289239922948667
632.5, 20.155761560321466
633, 20.081358179836585
633.5, 20.015371065116113
634, 19.893607479468585
634.5, 19.79093985645298
635, 19.768808689939846
635.5, 19.777124537048877
636, 19.77723859907995
636.5, 19.766399385171084
637, 19.748128113812925
637.5, 19.728816366718803
638, 19.714052356929088
638.5, 19.703646431562802
639, 19.675817454941736
639.5, 19.622913055593514
640, 19.58052343587707
640.5, 19.565456443204482
641, 19.56288125243475
641.5, 19.563543810736405
642, 19.564325813617003
642.5, 19.56375981454967
643, 19.557032695829832
643.5, 19.52353935120631
644, 19.456445739509505
644.5, 19.38711518845618
645, 19.323191685901378
645.5, 19.23756580508521
646, 19.132954474717835
646.5, 19.035222467220038
647, 18.962184224800254
647.5, 18.91641748551467
648, 18.85613993681868
648.5, 18.756213114604478
649, 18.650511384525444
649.5, 18.566524685491657
650, 18.51425740397262
650.5, 18.50701686617181
651, 18.553122166263876
651.5, 18.602525429046608
652, 18.599586284724168
652.5, 18.56307052522631
653, 18.516054774659253
653.5, 18.453451647651434
654, 18.383835260732923
654.5, 18.335074724238595
655, 18.306352143147905
655.5, 18.277019245270964
656, 18.240606221684516
656.5, 18.19569311005756
657, 18.136611295292496
657.5, 18.066787157979633
658, 18.00993214534668
658.5, 17.96337643869326
659, 17.892369465989532
659.5, 17.804670801954117
660, 17.736507117070218
660.5, 17.699971195309175
661, 17.69352007265634
661.5, 17.70336749251537
662, 17.70934826367244
662.5, 17.684813304100913
663, 17.63079696785799
663.5, 17.58116893180825
664, 17.552734307705038
664.5, 17.543740445552345
665, 17.51857756817101
665.5, 17.45002341676522
666, 17.390337612030336
666.5, 17.373928532957578
667, 17.363279044815982
667.5, 17.329501862936695
668, 17.266448107704335
668.5, 17.19817276043632
669, 17.159860589639905
669.5, 17.12779104227404
670, 17.06163655341045
670.5, 16.946733136606127
671, 16.803092975598545
671.5, 16.706030406271367
672, 16.664388062651966
672.5, 16.606530340156354
673, 16.51440504017387
673.5, 16.412909057655867
674, 16.34666711903178
674.5, 16.337344652368316
675, 16.301303770888424
675.5, 16.20600053552161
676, 16.16078603781726
676.5, 16.20359066850564
677, 16.272797615457904
677.5, 16.316422175601204
678, 16.308357315173097
678.5, 16.32114011516157
679, 16.42009961423905
679.5, 16.51616547525309
680, 16.548427435069016
680.5, 16.572044161657445
681, 16.608606675553474
681.5, 16.630186544590288
682, 16.645155613261053
682.5, 16.676377895923693
683, 16.67662367189969
683.5, 16.60146704874019
684, 16.505817802053315
684.5, 16.44688682338618
685, 16.445598070207566
685.5, 16.48525173937125
686, 16.515491903481603
686.5, 16.527296286216625
687, 16.531983883895663
687.5, 16.493636179104655
688, 16.389931240376796
688.5, 16.301583552480096
689, 16.271884052014713
689.5, 16.23719478038494
690, 16.182178477087433
690.5, 16.15221322760776
691, 16.140297043686445
691.5, 16.11138364397884
692, 16.0755431263389
692.5, 16.05367579335828
693, 16.047352625102505
693.5, 16.04912889425715
694, 16.04327207200862
694.5, 16.040923298680596
695, 16.077890009509147
695.5, 16.13268977625802
696, 16.157765363170796
696.5, 16.169187460659245
697, 16.184097748719637
697.5, 16.150017391400837
698, 16.05792324077062
698.5, 15.999214432050437
699, 16.007247017483195
699.5, 16.04525418431534
700, 16.10006340774177
700.5, 16.17088236685281
701, 16.23186265123374
701.5, 16.25143431860704
702, 16.208560966534222
702.5, 16.118340517722046
703, 16.054150511228983
703.5, 16.04383129425584
704, 16.061444680959667
704.5, 16.077394543447838
705, 16.067911288707222
705.5, 16.045873402613807
706, 16.022513013282165
706.5, 15.965366218675754
707, 15.874331515899314
707.5, 15.817635803425219
708, 15.808312359878641
708.5, 15.797680309706038
709, 15.754440328972805
709.5, 15.673448700408542
710, 15.626648125371972
710.5, 15.66994606254191
711, 15.732171210590366
711.5, 15.752991477298778
712, 15.731667871206952
712.5, 15.677620939672181
713, 15.605669405351435
713.5, 15.54154358090409
714, 15.507359796436106
714.5, 15.471580649923723
715, 15.40506060161016
715.5, 15.33895298917625
716, 15.301974693111276
716.5, 15.299388794708207
717, 15.319786016591124
717.5, 15.339479602748014
718, 15.354967852560534
718.5, 15.376534068372536
719, 15.423565260771028
719.5, 15.498181054662325
720, 15.544226668708546
720.5, 15.529280281313476
721, 15.478670757418314
721.5, 15.44373131519852
722, 15.485458512726623
722.5, 15.561884844156637
723, 15.587905315519095
723.5, 15.562142760507058
724, 15.511272612923833
724.5, 15.463680010275155
725, 15.431271650469014
725.5, 15.399267447035328
726, 15.36502970478098
726.5, 15.339292590735269
727, 15.326844353606049
727.5, 15.326562015042484
728, 15.32580851090384
728.5, 15.319821870446006
729, 15.335675194360007
729.5, 15.37431493022018
730, 15.38787118326934
730.5, 15.36537558489998
731, 15.332944304118456
731.5, 15.299058455823314
732, 15.2632453692474
732.5, 15.233174030970773
733, 15.222162545217046
733.5, 15.251422774047029
734, 15.308679062090292
734.5, 15.32962175833076
735, 15.304965280094407
735.5, 15.280009471655177
736, 15.293229871387041
736.5, 15.361660436291999
737, 15.420734940103813
737.5, 15.420997495605363
738, 15.420571552557263
738.5, 15.431556826750054
739, 15.372098857284499
739.5, 15.260081738417625
740, 15.201292562860644
740.5, 15.204945674356466
741, 15.232429878742138
741.5, 15.272555040949868
742, 15.321762566737661
742.5, 15.374406214802093
743, 15.425168738584318
743.5, 15.469655720033899
744, 15.50156227138892
744.5, 15.513745468513335
745, 15.50754481250911
745.5, 15.49016240236601
746, 15.475309232856304
746.5, 15.473131161280122
747, 15.479358586799606
747.5, 15.482026528519214
748, 15.461558262915972
748.5, 15.406383196634692
749, 15.317478289039116
749.5, 15.238801420442854
750, 15.225033837510196
750.5, 15.27803967679327
751, 15.361187621318066
751.5, 15.380033309020575
752, 15.306934948654657
752.5, 15.223337695233639
753, 15.160594442832661
753.5, 15.099705048300336
754, 15.029374022979042
754.5, 14.95097401228476
755, 14.901815331830534
755.5, 14.893979250771324
756, 14.851522456069944
756.5, 14.758872477774034
757, 14.704323133907039
757.5, 14.716072478798154
758, 14.765835902574267
758.5, 14.842203473376145
759, 14.93562603910408
759.5, 15.002952367248824
760, 15.028288593315935
760.5, 15.085297661612728
761, 15.19307386479214
761.5, 15.276797809525064
762, 15.318783903054324
762.5, 15.350154218405706
763, 15.357096744061622
763.5, 15.320254811183702
764, 15.296590781044088
764.5, 15.328100322940188
765, 15.369556608672696
765.5, 15.386791155921642
766, 15.380072419975093
766.5, 15.360750441044331
767, 15.347057494889341
767.5, 15.35583261321267
768, 15.392671817101828
768.5, 15.41799136434669
769, 15.403605798433887
769.5, 15.376957450623394
770, 15.333786362595319
770.5, 15.221627878938563
771, 15.099276886544686
771.5, 15.097502837575433
772, 15.174712091239158
772.5, 15.236241044265185
773, 15.31479078817111
773.5, 15.428841510880986
774, 15.485532614435868
774.5, 15.460304680462158
775, 15.438112786219037
775.5, 15.424562535532274
776, 15.366374033626329
776.5, 15.297076604979267
777, 15.27686724923494
777.5, 15.304376644635283
778, 15.356914240209079
778.5, 15.400146647083943
779, 15.416327946045541
779.5, 15.410927666259056
780, 15.37157464889387
780.5, 15.281409029589966
781, 15.206486825333329
781.5, 15.221063225352623
782, 15.276571628600564
782.5, 15.306376589552684
783, 15.275481051239524
783.5, 15.200844169585466
784, 15.158419026978208
784.5, 15.169556820672526
785, 15.208306197849424
785.5, 15.236284918631668
786, 15.22466715660127
786.5, 15.203277885370682
787, 15.200912776632663
787.5, 15.210932136237403
788, 15.213768747081772
788.5, 15.18192406160037
789, 15.126316992040884
789.5, 15.083193734795373
790, 15.055875259862603
790.5, 15.040820521928069
791, 15.066209748514183
791.5, 15.146276465196891
792, 15.247496745186055
792.5, 15.333693473084722
793, 15.376101348950812
793.5, 15.385287786571979
794, 15.394194987989806
794.5, 15.386242063665975
795, 15.327811456745081
795.5, 15.204236917274343
796, 15.03149632578878
796.5, 14.880524985393109
797, 14.78359456393575
797.5, 14.71544505962315
798, 14.649250452483685
798.5, 14.56537176555753
799, 14.48383852472729
799.5, 14.44074567070831
800, 14.468494693907218
800.5, 14.559170549911286
800.9999999999999, 14.622852343580561
801.5, 14.618339901794712
802, 14.576997783755516
802.5, 14.52427328394289
803, 14.475035596862497
803.4999999999999, 14.423574767176333
804, 14.354167581216501
804.5, 14.246019885016196
805, 14.114594497930128
805.5, 14.050731596075252
806, 14.061916386601041
806.5, 14.049904771394935
806.9999999999999, 14.009268338357387
807.5, 13.996429173108936
808, 14.004381873630905
808.5, 14.006561043793354
809, 14.00320197703958
809.4999999999999, 13.991850859642597
810, 13.952925008618635
810.5, 13.898034493692634
811, 13.87485610991385
811.5, 13.882329529619838
812, 13.884457148944051
812.5, 13.851870547645632
813, 13.766662789056682
813.5, 13.641337981447123
814, 13.492637512129946
814.5, 13.332763030162752
815, 13.195354125057221
815.4999999999999, 13.134335142331665
816, 13.132104454143203
816.5, 13.124089585690896
817, 13.068923086446873
817.5, 12.960274431457975
818, 12.880817294295838
818.5, 12.85990550649801
819, 12.785739496605487
819.5, 12.64016649638944
820, 12.526743654697867
820.5, 12.475466607704107
821, 12.456338211422832
821.4999999999999, 12.407314106965515
822, 12.29470893976115
822.5, 12.2247815443678
823, 12.258594010879662
823.5, 12.311345386284088
824, 12.326186037552944
824.5, 12.300032558675468
825, 12.264117695970938
825.5, 12.259884993789129
826, 12.260433042799619
826.5, 12.230012305523118
827, 12.192885003415142
827.4999999999999, 12.163552431254033
828, 12.113864974346654
828.5, 12.027924381836911
829, 11.909611801362644
829.5, 11.770648951591284
829.9999999999999, 11.628012363124455
830.5, 11.503321940074315
831, 11.405821412738149
831.5, 11.298033782407913
832, 11.182156679642858
832.5, 11.150343818993264
833, 11.212888608694527
833.4999999999999, 11.28771571374179
834, 11.397169146449897
834.5, 11.604215149098977
835, 11.787992028075834
835.5, 11.818636587918178
835.9999999999999, 11.76281731114193
836.5, 11.695269718780125
837, 11.630986475322459
837.5, 11.58099638690041
838, 11.558267497789501
838.5, 11.566708853217023
839, 11.6039541247916
839.5, 11.665235403321617
840, 11.757484881259643
840.5, 11.92748060272622
841, 12.170949658121273
841.5, 12.378081191851493
841.9999999999999, 12.487126115064669
842.5, 12.509786002567907
843, 12.57185237695073
843.5, 12.653250855976282
844, 12.739982960364614
844.5, 12.832772377895822
845, 12.919500732606792
845.5, 12.988049648534485
846, 13.032095015654022
846.5, 12.902529172442414
847, 12.666698305332957
847.5, 12.458326888142338
847.9999999999999, 12.373184063733063
848.5, 12.348681356256208
849, 12.300197972772452
849.5, 12.24834171663214
850, 12.225641096686218
850.4999999999999, 12.24789691453509
851, 12.286902895393041
851.5, 12.277995544245258
852, 12.23520633003045
852.5, 12.211138156830629
853, 12.199875115060053
853.5, 12.183056524011306
853.9999999999999, 12.16696799462673
854.5, 12.152634220863007
855, 12.124126709113796
855.5, 12.071798189281097
856, 11.995470922304847
856.4999999999999, 11.909220698501414
857, 11.829525076136989
857.5, 11.740530178499895
858, 11.633123536142037
858.5, 11.55135346495068
859, 11.528926042242574
859.5, 11.56423399453675
859.9999999999999, 11.636616774868898
860.5, 11.711691407312387
861, 11.774859313476526
861.5, 11.82199607226515
862, 11.840578288660012
862.4999999999999, 11.812181849876126
863, 11.71018556947601
863.5, 11.562628034685218
864, 11.487087556311096
864.5, 11.501390318073632
865, 11.523244174348747
865.5, 11.537971353563009
866, 11.574921085955069
866.5, 11.675545614777946
867, 11.8556209865216
867.5, 12.04604715371147
868, 12.198097025434024
868.4999999999999, 12.321418653510847
869, 12.419238788378877
869.5, 12.486791711351216
870, 12.554243202676517
870.5, 12.656655817188039
871, 12.750094920233465
871.5, 12.797798945753073
872, 12.855629134759084
872.5, 12.95677487966293
873, 13.071295649225362
873.5, 13.170587579204053
874, 13.23792218020914
874.4999999999999, 13.305743788427662
875, 13.417766982030983
875.5, 13.535857993034242
876, 13.613376766140433
876.5, 13.652967043472728
876.9999999999999, 13.680530321934853
877.5, 13.743534048878175
878, 13.850655639447439
878.5, 13.970910386729102
879, 14.060279202319848
879.5, 14.089508405349434
880, 14.134767192484006
880.4999999999999, 14.261090355913623
881, 14.413053566759274
881.5, 14.53505322854123
882, 14.606376459179799
882.5, 14.668125599247958
882.9999999999999, 14.801669814780695
883.5, 14.95749541131184
884, 15.04155335281682
884.5, 15.094134513206555
885, 15.165218214900577
885.5, 15.220116302119933
886, 15.248599529015024
886.4999999999999, 15.29762718289335
887, 15.369315526019548
887.5, 15.42754783047475
888, 15.500385764589637
888.5, 15.630539302687978
888.9999999999999, 15.762667413421
889.5, 15.87007417939256
890, 16.078064647237895
890.5, 16.410278930624585
891, 16.703307235034274
891.5, 16.886663000126433
892, 16.998232690665304
892.5, 17.174294994341267
893, 17.530899351652437
893.5, 17.85398656126543
894, 17.96536360804994
894.5, 18.031947217997214
894.9999999999999, 18.156199686695487
895.5, 18.263950686457193
896, 18.32266400345118
896.5, 18.351487772644077
897, 18.388841638764916
897.4999999999999, 18.489823831430712
898, 18.744698896106783
898.5, 19.14608722013466
899, 19.415214708507705
899.5, 19.46118331539064
900, 19.52259743284661
900.5, 19.67370527702289
900.9999999999999, 19.826577434016457
901.5, 19.92218789989184
902, 19.94987318901626
902.5, 20.039622595528698
903, 20.26506977818744
903.4999999999999, 20.4602412570965
904, 20.550792176662455
904.5, 20.643755320911154
905, 20.767444987471166
905.5, 20.874164128781132
906, 20.94431224135039
906.5, 20.98011465116305
906.9999999999999, 21.013154533247274
907.5, 21.080920229586226
908, 21.213972814619837
908.5, 21.377773847608097
909, 21.456165355261703
909.4999999999999, 21.494332705928784
910, 21.651928096783763
910.5, 21.871756393057694
911, 22.02430412319191
911.5, 22.137818849793618
912, 22.274130010050598
912.5, 22.469772436078642
912.9999999999999, 22.69831684273501
913.5, 22.856554518905213
914, 22.94178212483294
914.5, 23.0335600358991
915, 23.166093555728864
915.4999999999999, 23.333169055892867
916, 23.45423006588662
916.5, 23.511030303014593
917, 23.677766664860073
917.5, 23.982431589164165
918, 24.224666182769752
918.5, 24.390852205041128
919, 24.616514333217566
919.5, 24.9073292565308
920, 25.202051539015727
920.5, 25.42609699281121
921, 25.5647240937152
921.4999999999999, 25.74823600083046
922, 25.984638777696475
922.5, 26.09910492975422
923, 26.08931319485518
923.5, 26.084802021573395
923.9999999999999, 26.085248939982435
924.5, 26.049318919124687
925, 26.0241598405362
925.5, 26.051697907053267
926, 26.10896092105284
926.5, 26.175968166248936
927, 26.250502635056634
927.4999999999999, 26.35588656343468
928, 26.522175012529345
928.5, 26.68525912402329
929, 26.773080340741814
929.5, 26.85749359256438
929.9999999999999, 27.003093848216366
930.5, 27.174907074032006
931, 27.328888166525914
931.5, 27.429981858011658
932, 27.48737785073017
932.5, 27.541883448594277
933, 27.61764371461645
933.4999999999999, 27.715229477677767
934, 27.77267960110997
934.5, 27.765445484943427
935, 27.785746685562216
935.5, 27.88802443829954
935.9999999999999, 28.05577525521916
936.5, 28.244709875202233
937, 28.39743592918306
937.5, 28.489515891100012
938, 28.535271862113916
938.5, 28.642843374619503
939, 28.845986740590348
939.4999999999999, 28.969109300315793
940, 28.955210448589085
940.5, 28.928994009737366
941, 28.957295459761653
941.5, 29.047082653747722
941.9999999999999, 29.151376579409785
942.5, 29.226367979227533
943, 29.328453039147917
943.5, 29.485918444046845
944, 29.616801250234033
944.4999999999999, 29.707963937557977
945, 29.845061395793422
945.5, 30.04256684130395
946, 30.25187503991195
946.5, 30.38350935710025
947, 30.372559129159427
947.5, 30.310958398905285
947.9999999999999, 30.305660983528426
948.5, 30.414900739054374
949, 30.625762433753152
949.5, 30.848926922365578
950, 31.042696456165075
950.4999999999999, 31.211031070845237
951, 31.41000335482522
951.5, 31.67587146893736
952, 31.891768596124265
952.5, 31.990435752461934
953, 32.078977129932596
953.5, 32.187683815051145
953.9999999999999, 32.23518318578458
954.5, 32.24162353962153
955, 32.2932575560927
955.5, 32.399743232756094
956, 32.54666823683462
956.4999999999999, 32.749290846145996
957, 32.98384535033446
957.5, 33.13704678736768
958, 33.220505240837596
958.5, 33.393201544859025
959, 33.625674938802874
959.5, 33.775609888595994
959.9999999999999, 33.872195022191775
960.5, 33.983039623962384
961, 34.06040833034049
961.5, 34.075459273577295
962, 34.088020675418164
962.4999999999999, 34.124590837882124
963, 34.162956837433015
963.5, 34.21654492553641
964, 34.31732415321592
964.5, 34.44488027155897
965, 34.565869717032925
965.5, 34.67555968670611
965.9999999999999, 34.766614102330706
966.5, 34.81467201184098
967, 34.81130355153097
967.5, 34.772604550499764
968, 34.76288936947772
968.4999999999999, 34.86252761626049
969, 35.050816040669105
969.5, 35.26516162841423
970, 35.436273347640395
970.5, 35.55651362397377
970.9999999999999, 35.73642485689122
971.5, 35.96813723487823
972, 36.10291556709136
972.5, 36.10155927368514
973, 36.01251822002341
973.5, 35.94064293229302
974, 35.96546180895629
974.4999999999999, 36.00952768858615
975, 36.040442863389316
975.5, 36.170176624590326
976, 36.37243304019802
976.5, 36.46726682349511
976.9999999999999, 36.50157296495618
977.5, 36.6404437842425
978, 36.82324858522527
978.5, 36.940767638123056
979, 37.00947957385915
979.5, 37.060499980269995
980, 37.10295694226728
980.4999999999999, 37.13637305856388
981, 37.155673248900754
981.5, 37.194380662216965
982, 37.30032194029276
982.5, 37.455777274060246
982.9999999999999, 37.617951253170745
983.5, 37.74241595953497
984, 37.81111325679955
984.5, 37.85512804199053
985, 37.9042847431949
985.5, 37.97692466366637
986, 38.04127139150531
986.4999999999999, 38.0461829095158
987, 38.01291812109243
987.5, 37.99148262734538
988, 38.03825500625796
988.5, 38.160152325259965
988.9999999999999, 38.27538011262354
989.5, 38.38546412136857
990, 38.576727157532645
990.5, 38.77965462578922
991, 38.856577235675864
991.4999999999999, 38.85703463635924
992, 38.863315083258705
992.5, 38.848135477073285
993, 38.816688824068486
993.5, 38.866593854378294
994, 38.99725257403138
994.5, 39.098991049881754
994.9999999999999, 39.10471982036958
995.5, 38.997786904222515
996, 38.8801973651341
996.5, 38.849452918146596
997, 38.86069789902841
997.4999999999999, 38.895717666685776
998, 39.026423343961355
998.5, 39.20808796567552
999, 39.284994470264884
999.5, 39.302305990254425
1000, 39.39431193259644
1000.5, 39.49400621691404
1000.9999999999999, 39.5083625206054
1001.5, 39.47877989020179
1002, 39.45731729524227
1002.5, 39.46908998855644
1003, 39.50704606961927
1003.4999999999999, 39.53482828134535
1004, 39.52272619370476
1004.5, 39.45792192288043
1005, 39.39386766653762
1005.5, 39.37611460848745
1006, 39.35968196155735
1006.5, 39.31060938544533
1006.9999999999999, 39.24375085673319
1007.5, 39.20954711044507
1008, 39.277016586640876
1008.5, 39.38953492922885
1009, 39.4411898859715
1009.4999999999999, 39.46081511436225
1010, 39.49687402072258
1010.5, 39.52264645591499
1011, 39.51036227238857
1011.5, 39.45621331504545
1012, 39.418862740045405
1012.5, 39.49935262184477
1012.9999999999999, 39.629811561756725
1013.5, 39.67915054004123
1014, 39.70360949286064
1014.5, 39.78860793287874
1015, 39.92519476902504
1015.4999999999999, 40.06894624626325
1016, 40.147915851937334
1016.5, 40.15352313416573
1017, 40.13775021149745
1017.5, 40.120725096724165
1017.9999999999999, 40.103277526843875
1018.5, 40.08753482308719
1019, 40.080177840083756
1019.5, 40.09918124900616
1020, 40.14951651776125
1020.5, 40.2124476765241
1021, 40.27955529410511
1021.4999999999999, 40.350597074772075
1022, 40.38964249950541
1022.5, 40.35656603751446
1023, 40.29222620264589
1023.5, 40.25646105394026
1023.9999999999999, 40.289367764749116
1024.5, 40.357048310178655
1025, 40.3205182081614
1025.5, 40.184478410333924
1026, 40.082157741101724
1026.5, 40.00591965615666
1027, 39.88978041105011
1027.5, 39.77705615253938
1028, 39.72574113909604
1028.5, 39.73991897898293
1029, 39.782862055661674
1029.5, 39.77261574718718
1030, 39.71230734308106
1030.5, 39.67661515018615
1031, 39.64251243642043
1031.5, 39.564969997931435
1032, 39.55696542573612
1032.5, 39.693322138560724
1033, 39.81843189103988
1033.5, 39.85870352281481
1034, 39.919615120743316
1034.5, 39.993143915364705
1035, 39.97217301615171
1035.5, 39.91076725978712
1036, 39.917245461285155
1036.5, 39.93925572644427
1037, 39.91914801821369
1037.5, 39.91136459589898
1038, 39.8981682809035
1038.5, 39.73476960743807
1039, 39.460372362661566
1039.5, 39.267190142597876
1040, 39.16253332173304
1040.5, 39.07560138055009
1041, 39.037079081886
1041.5, 39.093842459510135
1042, 39.25608311734119
1042.5, 39.495538183850776
1043, 39.735167786555934
1043.5, 39.89234434361093
1044, 39.89870722747937
1044.5, 39.822130096382324
1045, 39.77542909431542
1045.5, 39.755968883962716
1046, 39.73046264680506
1046.5, 39.673384624383296
1047, 39.58634778813934
1047.5, 39.50721517669632
1048, 39.443558264376996
1048.5, 39.37681613701195
1049, 39.310400498258986
1049.5, 39.256048283525736
1050, 39.21080897529974
1050.5, 39.17285850145879
1051, 39.15321868442429
1051.5, 39.14143428930443
1052, 39.09600636019204
1052.5, 39.02324616425791
1053, 38.96632678379591
1053.5, 38.91907622788642
1054, 38.86149948617004
1054.5, 38.8239818509357
1055, 38.80915413316293
1055.5, 38.71977101493488
1056, 38.59222828426596
1056.5, 38.65768493766382
1057, 38.87500334690575
1057.5, 38.992717371373594
1058, 39.0072211837453
1058.5, 39.01927057784446
1059, 39.0413114080114
1059.5, 39.04484503094614
1060, 38.963234905412925
1060.5, 38.815026508542715
1061, 38.736557643217864
1061.5, 38.71715513377296
1062, 38.63918030167729
1062.5, 38.55738722982712
1063, 38.54411227879073
1063.5, 38.384979404616175
1064, 37.99349966457048
1064.5, 37.76204690820178
1065, 37.77258963081218
1065.5, 37.61389390051387
1066, 37.32984433916002
1066.5, 37.30270500015611
1067, 37.44259716086879
1067.5, 37.489453444669024
1068, 37.42725776207787
1068.5, 37.31709808440925
1069, 37.247768237690785
1069.5, 37.25207285580795
1070, 37.28123852950489
1070.5, 37.275900324852316
1071, 37.1904125466381
1071.5, 37.114279756000904
1072, 37.136968939098715
1072.5, 37.08888683323218
1073, 36.87345506521523
1073.5, 36.71171446707143
1074, 36.69278992077689
1074.5, 36.67859824119769
1075, 36.63864790987116
1075.5, 36.62693584873312
1076, 36.6034722859014
1076.5, 36.51145333433793
1077, 36.40453945522006
1077.5, 36.34286831117615
1078, 36.33727625598648
1078.5, 36.37420341381245
1079, 36.41806979216189
1079.5, 36.4489057553092
1080, 36.460704419282635
1080.5, 36.452898074737874
1081, 36.42682139782873
1081.5, 36.38229421673179
1082, 36.3190634261633
1082.5, 36.23821400077405
1083, 36.16590306855717
1083.5, 36.155004257882595
1084, 36.18050753685249
1084.5, 36.16777588757678
1085, 36.121999184445386
1085.5, 36.08512463460477
1086, 36.1026098926897
1086.5, 36.19555410701348
1087, 36.329081630002875
1087.5, 36.423699463534774
1088, 36.36466658840908
1088.5, 36.207823352384295
1089, 36.107716267063424
1089.5, 35.999970670903394
1090, 35.782444402914265
1090.5, 35.57695024845437
1091, 35.484717390155666
1091.5, 35.44791414506544
1092, 35.41574340635408
1092.5, 35.37414038045445
1093, 35.34241401377089
1093.5, 35.355910523162976
1094, 35.40209479839258
1094.5, 35.43677024752627
1095, 35.37451915515656
1095.5, 35.20746084916411
1096, 35.107852947502096
1096.5, 35.136998465111006
1097, 35.192596331628735
1097.5, 35.17721606998474
1098, 35.02912590610572
1098.5, 34.85694735440583
1099, 34.811143113201794
1099.5, 34.93307558397399
1100, 35.15990609976318
1100.5, 35.27015888998763
1101, 35.18685604003706
1101.5, 35.026000795317216
1102, 34.83581117909563
1102.5, 34.61144557176901
1103, 34.37181984836597
1103.5, 34.14385537079811
1104, 33.94646370755895
1104.5, 33.828149629606855
1105, 33.89602226471048
1105.5, 34.08937068060315
1106, 34.15679247022099
1106.5, 34.06878898521809
1107, 33.94430839899766
1107.5, 33.80240936888897
1108, 33.63324166914221
1108.5, 33.47267148469042
1109, 33.36000433309452
1109.5, 33.319441058202145
1110, 33.327468115323626
1110.5, 33.31242326807374
1111, 33.27273043461547
1111.5, 33.2466058766684
1112, 33.20434098307261
1112.5, 33.115942548104584
1113, 33.0459380084602
1113.5, 33.021666511983966
1114, 32.95966275834361
1114.5, 32.86516048480553
1115, 32.850118258359714
1115.5, 32.90007400887983
1116, 32.92614562600927
1116.5, 32.93783548630735
1117, 32.95731010361875
1117.5, 32.91640867728911
1118, 32.792741142480395
1118.5, 32.68785784886957
1119, 32.64429929814624
1119.5, 32.620633948884034
1120, 32.5613924543088
1120.5, 32.41910387883624
1121, 32.2355587777878
1121.5, 32.078995981313454
1122, 31.99094704550538
1122.5, 31.97459273554219
1123, 31.97201626000306
1123.5, 31.95349110694515
1124, 31.92740993424478
1124.5, 31.89141928309759
1125, 31.83933399950449
1125.5, 31.79273374556223
1126, 31.760017474789606
1126.5, 31.671459862355803
1127, 31.50064097037216
1127.5, 31.330693491333165
1128, 31.20141801765378
1128.5, 31.089795367784248
1129, 30.947826892909205
1129.5, 30.73980751690071
1130, 30.58788576032609
1130.5, 30.608797617559233
1131, 30.71092343578455
1131.5, 30.768468130110122
1132, 30.676724781985868
1132.5, 30.488414873472564
1133, 30.400110014385945
1133.5, 30.340322018927225
1134, 30.120134469256598
1134.5, 29.890193100358218
1135, 29.833718223259652
1135.5, 29.840522630040553
1136, 29.829429163293767
1136.5, 29.87389884751397
1137, 29.952191431391853
1137.5, 29.935886741192732
1138, 29.82675785767769
1138.5, 29.69582020819304
1139, 29.524461204211917
1139.5, 29.296791866663014
1140, 29.10681541638988
1140.5, 28.99570301740394
1141, 28.87437468276606
1141.5, 28.701324468783383
1142, 28.501177969792224
1142.5, 28.324639475546036
1143, 28.217489148096902
1143.5, 28.117657669846608
1144, 27.95852970744879
1144.5, 27.77646533383279
1145, 27.618622105073882
1145.5, 27.516547843047874
1146, 27.505851478827807
1146.5, 27.61489401083169
1147, 27.73279093641267
1147.5, 27.709498296742282
1148, 27.64493215341153
1148.5, 27.646390909890187
1149, 27.582481486593352
1149.5, 27.40181787151026
1150, 27.263776763254995
1150.5, 27.227404209602568
1151, 27.227251771306257
1151.5, 27.178314139872725
1152, 27.018354098527197
1152.5, 26.854594176898487
1153, 26.79311052237621
1153.5, 26.766158957387404
1154, 26.727058397433908
1154.5, 26.71881451645487
1155, 26.774902109616633
1155.5, 26.89797901213217
1156, 26.961052742290363
1156.5, 26.816448256818106
1157, 26.608147529103874
1157.5, 26.484348956668143
1158, 26.32241307816348
1158.5, 26.073195737525296
1159, 25.8867494069801
1159.5, 25.802341309327574
1160, 25.739824059141057
1160.5, 25.6958905619057
1161, 25.690542009050077
1161.5, 25.61841375430737
1162, 25.41928455363515
1162.5, 25.2785442176189
1163, 25.252052222080266
1163.5, 25.1225215667087
1164, 24.898984823852643
1164.5, 24.81130289029973
1165, 24.874351885175898
1165.5, 24.975266514338728
1166, 24.99804309748299
1166.5, 24.88709965695095
1167, 24.757565300223987
1167.5, 24.655010061100526
1168, 24.47091931912341
1168.5, 24.222381386907884
1169, 24.046207538288442
1169.5, 23.956354461007862
1170, 23.909079181390098
1170.5, 23.928893954068528
1171, 24.021270363045474
1171.5, 24.07973283410142
1172, 24.057780596469215
1172.5, 24.03072563122005
1173, 24.000315179373075
1173.5, 23.899179705715696
1174, 23.75133454509141
1174.5, 23.61717711296636
1175, 23.48150518915179
1175.5, 23.30403577107252
1176, 23.04155244017896
1176.5, 22.724821901132742
1177, 22.494143764422958
1177.5, 22.361711483910852
1178, 22.2232861453311
1178.5, 22.067827289210328
1179, 21.93724472402083
1179.5, 21.874811268340963
1180, 21.883470253509813
1180.5, 21.858742571542848
1181, 21.75403352655198
1181.5, 21.635269023931826
1182, 21.502367411836943
1182.5, 21.29268425713323
1183, 20.996084465622346
1183.5, 20.64957990775582
1184, 20.376413741770378
1184.5, 20.25928170442529
1185, 20.207180685946895
1185.5, 20.13033762817973
1186, 19.988203813992527
1186.5, 19.83121876563854
1187, 19.76017554926412
1187.5, 19.636912200716523
1188, 19.291918396907832
1188.5, 18.99785569344695
1189, 18.967593000285646
1189.5, 18.927775247408462
1190, 18.756058412397692
1190.5, 18.66000423708337
1191, 18.682607350614163
1191.5, 18.71213573587501
1192, 18.74939980311447
1192.5, 18.82559269025188
1193, 18.83353732910021
1193.5, 18.7109187527071
1194, 18.608999930794184
1194.5, 18.612409677456682
1195, 18.66081517302314
1195.5, 18.71162502795488
1196, 18.74988300562636
1196.5, 18.781072411537664
1197, 18.807063625668334
1197.5, 18.76892576616723
1198, 18.636908128591628
1198.5, 18.495782506159287
1199, 18.384237203894102
1199.5, 18.252273567459056
1200, 18.096727574677644
1200.5, 17.957522067001534
1201, 17.853678248844304
1201.5, 17.762060791211212
1202, 17.521899818077273
1202.5, 17.07948335801545
1203, 16.73283062931074
1203.5, 16.6134967080138
1204, 16.549656960392554
1204.5, 16.4800353720579
1205, 16.45021261029099
1205.5, 16.46737355367813
1206, 16.524969657217042
1206.5, 16.6450661913414
1207, 16.804747564297827
1207.5, 16.856508703715562
1208, 16.761067072145977
1208.5, 16.650165568197608
1209, 16.573723188567385
1209.5, 16.506196188712224
1210, 16.43983079418372
1210.5, 16.374900122315893
1211, 16.304882901209282
1211.5, 16.21543926361751
1212, 16.079514849036784
1212.5, 15.932734511146364
1213, 15.88809969335449
1213.5, 15.883423952179513
1214, 15.744801401889504
1214.5, 15.568787844122639
1215, 15.518858484868886
1215.5, 15.497645354445623
1216, 15.419797075190118
1216.5, 15.384541020940361
1217, 15.373292471658104
1217.5, 15.191062675850915
1218, 14.916659791770911
1218.5, 14.80870934969876
1219, 14.756681981237023
1219.5, 14.555922033887711
1220, 14.328759993240809
1220.5, 14.202799792226529
1221, 14.125127479474727
1221.5, 14.05667796156726
1222, 14.009065614800576
1222.5, 13.979483195987797
1223, 13.949115364159368
1223.5, 13.884345375691126
1224, 13.770744031520707
1224.5, 13.697794241121855
1225, 13.716540436683616
1225.5, 13.734161554571017
1226, 13.711563494091749
1226.5, 13.701751147268112
1227, 13.705253911465505
1227.5, 13.67821682156115
1228, 13.583145687732653
1228.5, 13.406655214625445
1229, 13.217671207315803
1229.5, 13.076025761761969
1230, 12.976327541516767
1230.5, 12.909800210867829
1231, 12.87190476521549
1231.5, 12.81982712531287
1232, 12.69988199371275
1232.5, 12.591256005425564
1233, 12.579224629004969
1233.5, 12.544499457616936
1234, 12.41574974927073
1234.5, 12.331825653570874
1235, 12.356412425809197
1235.5, 12.420133260457604
1236, 12.40491748675393
1236.5, 12.202702415714782
1237, 11.988934921541855
1237.5, 11.951874919577747
1238, 11.860238052665991
1238.5, 11.591872975974752
1239, 11.463707533614183
1239.5, 11.517655198423697
1240, 11.408636938585474
1240.5, 11.135309600400873
1241, 10.931403344997989
1241.5, 10.785423691011403
1242, 10.618812773786189
1242.5, 10.501564642654515
1243, 10.48190139949692
1243.5, 10.491579539914753
1244, 10.547353436914051
1244.5, 10.770921322710038
1245, 11.054215994221508
1245.5, 11.167137037653916
1246, 11.21171111698348
1246.5, 11.357373030519838
1247, 11.505898484604359
1247.5, 11.57256767360748
1248, 11.627121627046677
1248.5, 11.712858929221085
1249, 11.816131314655294
1249.5, 11.894202920954996
1250, 11.89906888249503
1250.5, 11.869761342811458
1251, 11.846362006098857
1251.5, 11.743566480657336
1252, 11.542506275580095
1252.5, 11.413266138145516
1253, 11.425170586707637
1253.5, 11.501266398560176
1254, 11.565419018239268
1254.5, 11.560142593458849
1255, 11.507596801813918
1255.5, 11.447398340254466
1256, 11.367573414634748
1256.5, 11.274045226148345
1257, 11.229355998409275
1257.5, 11.237371432504716
1258, 11.23381604120361
1258.5, 11.256406262791316
1259, 11.386085180634495
1259.5, 11.512915977494231
1260, 11.518209402036774
1260.5, 11.51793768536146
1261, 11.591177463580905
1261.5, 11.64602420178204
1262, 11.63995785552487
1262.5, 11.608771873631952
1263, 11.574700094683294
1263.5, 11.538526924182278
1264, 11.442087387690947
1264.5, 11.244927068856327
1265, 11.045303477429584
1265.5, 10.921026157896236
1266, 10.85324553147207
1266.5, 10.822301503683022
1267, 10.821814131761428
1267.5, 10.866851738428196
1268, 10.971871120056221
1268.5, 11.061942264038507
1269, 11.068693955035585
1269.5, 11.060791014566135
1270, 11.083151553499505
1270.5, 11.082988155473998
1271, 11.059890704864756
1271.5, 11.078384272556733
1272, 11.139778716480862
1272.5, 11.210171524489226
1273, 11.307154502219504
1273.5, 11.439299388355039
1274, 11.520689911543798
1274.5, 11.47468471499802
1275, 11.282209315255457
1275.5, 11.03136134086111
1276, 10.904929849256177
1276.5, 10.90546152604901
1277, 10.934810831255987
1277.5, 11.006484647361006
1278, 11.131033626008573
1278.5, 11.174203222028808
1279, 11.072109659217162
1279.5, 10.94254065376137
1280, 10.878119758370289
1280.5, 10.914958561610561
1281, 10.99240465812268
1281.5, 11.011528186636085
1282, 10.998470542001641
1282.5, 10.994989894173727
1283, 10.947669002807757
1283.5, 10.850999402239324
1284, 10.81624642435628
1284.5, 10.86201433408442
1285, 10.907903374890708
1285.5, 11.007067695481553
1286, 11.251328360852511
1286.5, 11.458675999032735
1287, 11.49704004126049
1287.5, 11.694109900931792
1288, 12.133423007930674
1288.5, 12.323670994691781
1289, 12.186560878096998
1289.5, 12.105448495882001
1290, 12.137185712909869
1290.5, 12.14858967040226
1291, 12.140741625034252
1291.5, 12.151146039306127
1292, 12.171668225375285
1292.5, 12.17400209781897
1293, 12.176397773768286
1293.5, 12.178846732771333
1294, 12.181340454376198
1294.5, 12.183870418130923
1295, 12.186428103583552
1295.5, 12.189004990282186
1296, 12.191592557774882
1296.5, 12.194182285609713
1297, 12.196765653334737
1297.5, 12.199334140498024
1298, 12.201879226647591
1298.5, 12.20439239133158
1299, 12.206865114098022
1299.5, 12.209288874494973
1300, 12.21165515207052
1300.5, 12.21395542637272
1301, 12.216181176949632
1301.5, 12.218323883349314
1302, 12.220375025119864
1302.5, 12.222326081809342
1303, 12.224168532965777
1303.5, 12.22589385813724
1304, 12.227493536871847
1304.5, 12.228959048717613
1305, 12.230281873222651
1305.5, 12.23483816762294
1306, 12.233419272980512
1306.5, 12.231215211289282
1307, 12.232496159758199
1307.5, 12.222018315333585
1308, 12.202728790980345
1308.5, 12.189772804365859
1309, 12.204883086063575
1309.5, 12.241410947282546
1310, 12.2066147732384
1310.5, 12.079762498452425
1311, 11.97867311927564
1311.5, 11.938581935411278
1312, 11.903387395147234
1312.5, 11.82080971714403
1313, 11.653589009424323
1313.5, 11.419711063021381
1314, 11.174953441581494
1314.5, 11.030468857132291
1314.9999999999998, 11.018836010591372
1315.5, 11.033984528494372
1316, 11.030309780322256
1316.5, 11.027056286677478
1317, 11.002967005722823
1317.5, 10.931048531318538
1318, 10.875970689035512
1318.4999999999998, 10.890070580474188
1319, 10.91266715708035
1319.5, 10.920950668169354
1320, 10.978564798507122
1320.5, 11.07057945502163
1321, 11.112339529422144
1321.5, 11.118300797307143
1321.9999999999998, 11.136955202063447
1322.5, 11.10987244402736
1323, 11.008652629805141
1323.5, 10.97506585692122
1324, 11.090243023317981
1324.5, 11.294387202191075
1325, 11.480861835318706
1325.5, 11.537343671205534
1326, 11.590703382016102
1326.5, 11.820733284390371
1326.9999999999998, 12.039120888479118
1327.5, 12.060121815901525
1328, 12.002055032738468
1328.5, 11.955510712579965
1329, 11.895480152042538
1329.5, 11.861805058276104
1330, 11.944148438867515
1330.4999999999998, 12.07496174104891
1331, 12.132964612289456
1331.5, 12.141668291225614
1332, 12.13828661986858
1332.5, 12.083166292375438
1333, 11.963688720540773
1333.5, 11.826259557464454
1334, 11.71175054970817
1334.5, 11.6480495636403
1335, 11.630158273238692
1335.4999999999998, 11.6297861723978
1336, 11.588797688813173
1336.5, 11.498789697585508
1337, 11.499302567254318
1337.5, 11.616147286091518
1338, 11.680057491703352
1338.5, 11.663823097917174
1338.9999999999998, 11.666726011820117
1339.5, 11.689502872693453
1340, 11.69236211574335
1340.5, 11.69090865008873
1341, 11.697673459591314
1341.5, 11.677332599298708
1342, 11.610565075236764
1342.4999999999998, 11.513711877483217
1343, 11.430493806728876
1343.5, 11.414184850169036
1344, 11.42031660641348
1344.5, 11.378300045744481
1345, 11.322139354702784
1345.5, 11.305628808285874
1346, 11.357237297968268
1346.5, 11.45078190074284
1347, 11.492717568636238
1347.4999999999998, 11.48149741877549
1348, 11.490953235102111
1348.5, 11.537845734224959
1349, 11.606600317504714
1349.5, 11.66877694031973
1350, 11.713414247608583
1350.5, 11.77937675081074
1350.9999999999998, 11.843387232145147
1351.5, 11.792603005818506
1352, 11.656964299757917
1352.5, 11.57377499921256
1353, 11.540793703214547
1353.5, 11.498266295307431
1354, 11.438391901124987
1354.5, 11.370049201751243
1355, 11.30836668540806
1355.5, 11.284970691471798
1355.9999999999998, 11.347865774371058
1356.5, 11.459339223428586
1357, 11.522767650208237
1357.5, 11.539701483199494
1358, 11.552636145566368
1358.5, 11.57483917195978
1359, 11.590897272487794
1359.4999999999998, 11.538047116473123
1360, 11.426085187460899
1360.5, 11.365289941010701
1361, 11.341477888376858
1361.5, 11.253489438828126
1362, 11.150296146101127
1362.5, 11.135117237414278
1362.9999999999998, 11.237779715505539
1363.5, 11.437990934061332
1364, 11.644835546941465
1364.5, 11.796456288157472
1365, 11.882757641795749
1365.5, 11.883917500629195
1366, 11.777463709773698
1366.5, 11.601708339258735
1367, 11.419308454325659
1367.5, 11.27729223216869
1367.9999999999998, 11.200567788627566
1368.5, 11.1728545282147
1369, 11.174300193481415
1369.5, 11.190526984975648
1370, 11.247616829690102
1370.5, 11.387788675143057
1371, 11.539587320021766
1371.4999999999998, 11.600475887721274
1372, 11.551786347232891
1372.5, 11.418730733728637
1373, 11.27657132626166
1373.5, 11.175745289362368
1374, 11.125736649603297
1374.5, 11.138085282977002
1374.9999999999998, 11.223551917755799
1375.5, 11.36010045303776
1376, 11.508105894715484
1376.5, 11.616435703737466
1377, 11.665859153245137
1377.5, 11.71197863304917
1378, 11.753704839210414
1378.5, 11.712089839197262
1379, 11.615430911376762
1379.5, 11.569970238635307
1379.9999999999998, 11.631250116498919
1380.5, 11.800087068509512
1381, 11.95479230263065
1381.5, 12.028929224867582
1382, 12.136404418483849
1382.5, 12.271148507185359
1383, 12.261807069470294
1383.4999999999998, 12.154446966713067
1384, 12.131550504297081
1384.5, 12.140551693337002
1385, 12.085696941647399
1385.5, 12.098203777745312
1386, 12.245165351145147
1386.5, 12.344759193817936
1387, 12.303125942273212
1387.5, 12.174993039809522
1388, 12.017897911216878
1388.4999999999998, 11.880128704051828
1389, 11.77853624512663
1389.5, 11.720714885103376
1390, 11.728951592828139
1390.5, 11.789254966917369
1391, 11.808515279419396
1391.5, 11.823820943364026
1391.9999999999998, 12.022452905257524
1392.5, 12.313382445994947
1393, 12.441201691949402
1393.5, 12.441143569546554
1394, 12.433255460360769
1394.5, 12.398509975064442
1395, 12.305958904715212
1395.4999999999998, 12.167057492969647
1396, 12.026936937202564
1396.5, 11.960252074634639
1397, 11.980861680368307
1397.5, 12.05355928467732
