301.5, 59.26230214537305
302, 59.26229426864781
302.5, 59.2689912291379
303, 59.27776879807116
303.5, 59.29526707108573
304, 59.31036439464546
304.5, 59.32873321707488
305, 59.343998438444295
305.5, 59.3626869188912
306, 59.37242297812515
306.5, 59.381544849337
307, 59.38235329614557
307.5, 59.382747341882876
308, 59.39148081412734
308.5, 59.399061241505
309, 59.40825749107637
309.5, 59.41591174671295
310, 59.42526481155447
310.5, 59.43774056116382
311, 59.45585368149418
311.5, 59.47142739893979
312, 59.48829735129046
312.5, 59.50596433137793
313, 59.520906530223485
313.5, 59.53932442013976
314, 59.55457889489811
314.5, 59.57324671149435
315, 59.58294743699493
315.5, 59.592015431184436
316, 59.60670593659102
316.5, 59.62393428376684
317, 59.65036695866873
317.5, 59.66960995199568
318, 59.67891378812033
318.5, 59.68313063463334
319, 59.68307422760833
319.5, 59.68824961224374
320, 59.697245197403234
320.5, 59.71200645547098
321, 59.729232485342656
321.5, 59.755787186090046
322, 59.77824332386232
322.5, 59.80601825851115
323, 59.82537129577735
323.5, 59.84394956845371
324, 59.85351063608398
324.5, 59.862550802686386
325, 59.87040263864365
325.5, 59.87877532600042
326, 59.88769904948214
326.5, 59.896847783455
327, 59.915330906114164
327.5, 59.93053855812551
328, 59.94916216733645
328.5, 59.95341177500496
329, 59.95346602171863
329.5, 59.953258465925906
330, 59.95435791613731
330.5, 59.97208609419821
331, 59.988902995546404
331.5, 60.01673570900872
332, 60.0359714853087
332.5, 60.05452661198416
333, 60.06936523656751
333.5, 60.08732708705817
334, 60.09577556720309
334.5, 60.10471949280975
335, 60.122526460122366
335.5, 60.13746075700109
336, 60.15606240642899
336.5, 60.16763106931718
337, 60.176865215141454
337.5, 60.18426529680255
338, 60.19323277284297
338.5, 60.193750637983854
339, 60.19440769869048
339.5, 60.203329238576735
340, 60.212669642460256
340.5, 60.23121046817091
341, 60.24644810056471
341.5, 60.26503994076856
342, 60.27998812318919
342.5, 60.29785573844899
343, 60.313721972831054
343.5, 60.330300215353596
344, 60.348271738433354
344.5, 60.364936985771934
345, 60.392777584610144
345.5, 60.415624087754985
346, 60.443480991446975
346.5, 60.460411109307465
347, 60.478249500204846
347.5, 60.501570301773526
348, 60.52634034914235
348.5, 60.553282474098374
349, 60.57343648174055
349.5, 60.59202288885665
350, 60.60727682905146
350.5, 60.62582838317369
351, 60.63519016588601
351.5, 60.64412436055862
352, 60.644637001145504
352.5, 60.64466995856597
353, 60.64469655100378
353.5, 60.64662011214911
354, 60.65577246058145
354.5, 60.67117822622986
355, 60.699131348911735
355.5, 60.716040753968485
356, 60.73382428635081
356.5, 60.742189873152945
357, 60.751232630925365
357.5, 60.76926044158156
358, 60.786088634862736
358.5, 60.81400299944798
359, 60.836852949551144
359.5, 60.86462727523944
360, 60.88144725429148
360.5, 60.899184997187255
361, 60.90775516455109
361.5, 60.91518161310667
362, 60.9152829901668
362.5, 60.919386253909394
363, 60.93800147534991
363.5, 60.95320780944942
364, 60.97170362087735
364.5, 60.9810374670099
365, 60.98985516417019
365.5, 61.013092865675496
366, 61.038469615387505
366.5, 61.07465801208636
367, 61.104048876456545
367.5, 61.14133477431375
368, 61.17183878309931
368.5, 61.20878995922834
369, 61.23314824641985
369.5, 61.259578287388045
370, 61.28368399916336
370.5, 61.3090952466872
371, 61.34529870104639
371.5, 61.37034690999073
372, 61.38914876488558
372.5, 61.39617029529684
373, 61.39600743308232
373.5, 61.38996085841762
374, 61.38126590194762
374.5, 61.388839326733084
375, 61.399271039050916
375.5, 61.43543689849512
376, 61.46287026668827
376.5, 61.49100882482948
377, 61.505578667797835
377.5, 61.514632878916316
378, 61.527697086361485
378.5, 61.54550916250089
379, 61.57834803572802
379.5, 61.60975928406351
380, 61.645967757379886
380.5, 61.673380580186766
381, 61.701534497285266
381.5, 61.71599946398818
382, 61.725038937982085
382.5, 61.73817766887733
383, 61.755952376070766
383.5, 61.788922715670736
384, 61.81937634005428
384.5, 61.846596177987955
385, 61.86880220482712
385.5, 61.896840364992826
386, 61.91973762551121
386.5, 61.94731320284483
387, 61.963909817691345
387.5, 61.981466696287214
388, 61.990314562587834
388.5, 61.99889668128725
389, 62.017093060251696
389.5, 62.031840530194735
390, 62.05054189839248
390.5, 62.065864079372794
391, 62.08422190102555
391.5, 62.1112970851682
392, 62.146365569660496
392.5, 62.18031717172636
393, 62.211289004723454
393.5, 62.24770778774791
394, 62.274819358225834
394.5, 62.30295441999535
395, 62.32147575382471
395.5, 62.33972283229812
396, 62.3484509516868
396.5, 62.35741129465416
397, 62.38245064025924
397.5, 62.40783984037422
398, 62.45344212356024
398.5, 62.48535309719128
399, 62.51356554625181
399.5, 62.52765178173738
400, 62.536626591634416
400.5, 62.55621684206058
401, 62.58254283787832
401.5, 62.62469737762772
402, 62.662386063767904
402.5, 62.6989291309582
403, 62.72584902025651
403.5, 62.75395156504517
404, 62.77692148004991
404.5, 62.80433779010599
405, 62.82689717190845
405.5, 62.85312888058446
406, 62.88718463237663
406.5, 62.91912920835325
407, 62.96488325190362
407.5, 62.99648874503464
408, 63.02466608386126
408.5, 63.04310614944521
409, 63.0612626363348
409.5, 63.08254738458208
410, 63.1086802843161
410.5, 63.14283492079136
411, 63.173628132992405
411.5, 63.210327508322244
412, 63.239751459838494
412.5, 63.2772832454311
413, 63.30328896169995
413.5, 63.33052860190673
414, 63.35306251662599
414.5, 63.37925298808502
415, 63.42200473285915
415.5, 63.46047465795654
416, 63.50637497888884
416.5, 63.53777634928896
417, 63.566018630522045
417.5, 63.57968125745667
418, 63.5885887310023
418.5, 63.60243554463982
419, 63.61978624339257
419.5, 63.64554173100985
420, 63.667343237130765
420.5, 63.68576920293765
421, 63.7029876108514
421.5, 63.73090826664566
422, 63.772871577051745
422.5, 63.836800662096344
423, 63.88408493592
423.5, 63.93543462177471
424, 63.96166751431957
424.5, 63.98296338788761
425, 64.00137099551074
425.5, 64.01308760135396
426, 64.02233889134448
426.5, 64.04448268031918
427, 64.08100552509597
427.5, 64.12464453476207
428, 64.1761402534159
428.5, 64.22825138449682
429, 64.2752077431238
429.5, 64.3398316491787
430, 64.3910297760742
430.5, 64.45667660945742
431, 64.51039674612782
431.5, 64.57373692162393
432, 64.61449199488595
432.5, 64.65680867309064
433, 64.67452595953172
433.5, 64.69077493997656
434, 64.71853370791843
434.5, 64.74323480288957
435, 64.78065060800726
435.5, 64.8212407684792
436, 64.87560685460247
436.5, 64.92853213641608
437, 64.98785307802703
437.5, 65.03160900913505
438, 65.06650355703893
438.5, 65.09429460410782
439, 65.11914317360315
439.5, 65.15660584200286
440, 65.1923163122379
440.5, 65.23748512187377
441, 65.26948657213529
441.5, 65.30306952792486
442, 65.32068462308332
442.5, 65.33273647794795
443, 65.33277843671414
443.5, 65.33870570636405
444, 65.35735573960851
444.5, 65.38283694279762
445, 65.41899933909902
445.5, 65.46328821808743
446, 65.51451408306473
446.5, 65.57580601324574
447, 65.62703514685978
447.5, 65.68207785890299
448, 65.72793888041016
448.5, 65.78404662502162
449, 65.82333960218014
449.5, 65.8688795068868
450, 65.90063694634694
450.5, 65.93523754024898
451, 65.98781427820194
451.5, 66.03154751451238
452, 66.07764843920803
452.5, 66.10924209571837
453, 66.13717606916359
453.5, 66.16428857764177
454, 66.20059716830085
454.5, 66.23168597464331
455, 66.2654998355483
455.5, 66.30079373527794
456, 66.33226928325188
456.5, 66.37826388743484
457, 66.41643092765467
457.5, 66.46314536809169
458, 66.50014590270474
458.5, 66.5454762002528
459, 66.58465024427282
459.5, 66.62599039294557
460, 66.65265393410925
460.5, 66.67483886633414
461, 66.70239089566797
461.5, 66.72869012998126
462, 66.76608417723803
462.5, 66.7854688502032
463, 66.80361828849927
463.5, 66.81903942014746
464, 66.83674665805265
464.5, 66.87206282849584
465, 66.903672426955
465.5, 66.94970236248702
466, 66.99136368681803
466.5, 67.04743025833463
467, 67.10234047823
467.5, 67.1745543705312
468, 67.21635866677394
468.5, 67.25695011561834
469, 67.2750062187863
469.5, 67.29468170943294
470, 67.34092317921282
470.5, 67.37548689768064
471, 67.41271995230291
471.5, 67.44242546948192
472, 67.4784543820463
472.5, 67.51719438044412
473, 67.55795327000642
473.5, 67.58472848817081
474, 67.60337034549191
474.5, 67.61261931498049
475, 67.62031947580894
475.5, 67.62965051530591
476, 67.64774148259386
476.5, 67.67466084096942
477, 67.69795257667745
477.5, 67.72465326994384
478, 67.7779720168734
478.5, 67.8227692980264
479, 67.87837531034478
479.5, 67.92050473936983
480, 67.96698657941174
480.5, 68.00411796481275
481, 68.0490235675776
481.5, 68.05922660787934
482, 68.06945562786905
482.5, 68.10507933932803
483, 68.13863457630565
483.5, 68.1942913599091
484, 68.23632570408168
484.5, 68.28276800710833
485, 68.31998292404865
485.5, 68.36477505460037
486, 68.38257086959396
486.5, 68.3986384602856
487, 68.40768488320712
487.5, 68.41692034552564
488, 68.43561305504724
488.5, 68.44334455463913
489, 68.44320242675431
489.5, 68.44321925351731
490, 68.44316310735474
490.5, 68.47215820238176
491, 68.50786355032967
491.5, 68.57949438188572
492, 68.64278048932006
492.5, 68.73575154151254
493, 68.8043398331327
493.5, 68.8784694191888
494, 68.92717910689096
494.5, 68.98068409462972
495, 69.02866850607147
495.5, 69.07681486484569
496, 69.11275893506064
496.5, 69.13220093720732
497, 69.122862155285
497.5, 69.11925622108333
498, 69.11934644236959
498.5, 69.14192282432418
499, 69.17732858759182
499.5, 69.22420545421221
500, 69.27361211753824
500.5, 69.32767743094011
501, 69.37177208963116
501.5, 69.42750522086185
502, 69.477115592444
502.5, 69.54204444136927
503, 69.57180067070665
503.5, 69.5986056210673
504, 69.57694932867713
504.5, 69.55563084945807
505, 69.56465471261363
505.5, 69.5867841959207
506, 69.66127512066319
506.5, 69.71819531752658
507, 69.78291868041309
507.5, 69.82981291528885
508, 69.88291018517704
508.5, 69.9237028625716
509, 69.9631019136609
509.5, 69.99030367886081
510, 70.01002552212827
510.5, 70.02866300234278
511, 70.04395714650413
511.5, 70.06245364180451
512, 70.08334046715848
512.5, 70.1097692072254
513, 70.13414368052442
513.5, 70.15697287444118
514, 70.1661477213694
514.5, 70.175329352764
515, 70.19376854973778
515.5, 70.22128227781226
516, 70.26770385902412
516.5, 70.31141758948831
517, 70.36418373263783
517.5, 70.40502697981233
518, 70.4449882524274
518.5, 70.48131385234106
519, 70.50832418272284
519.5, 70.53638472345665
520, 70.55513906103259
520.5, 70.57350696138248
521, 70.5823834686951
521.5, 70.59142027449522
522, 70.615790279285
522.5, 70.64107841155644
523, 70.68637126046539
523.5, 70.72801712351516
524, 70.79354126948762
524.5, 70.83427000175624
525, 70.87087508088472
525.5, 70.87084791593949
526, 70.86252335536044
526.5, 70.8941598969932
527, 70.92587231785123
527.5, 70.96211775735496
528, 70.99159949080942
528.5, 71.02878151524932
529, 71.07202139929979
529.5, 71.13668040644298
530, 71.17154466651311
530.5, 71.20676198612531
531, 71.22439123301369
531.5, 71.23884072457386
532, 71.24788707160539
532.5, 71.25303973856553
533, 71.25316935959923
533.5, 71.24459178489084
534, 71.22604462858224
534.5, 71.21669448039108
535, 71.20810609670303
535.5, 71.22398579786602
536, 71.23888429601915
536.5, 71.2479716988256
537, 71.25528784022639
537.5, 71.26452217316759
538, 71.28090815435961
538.5, 71.3086081417522
539, 71.3372343026637
539.5, 71.37231603847816
540, 71.40628693694211
540.5, 71.43724417417573
541, 71.47367691856304
541.5, 71.50086410150953
542, 71.52911606515845
542.5, 71.53877269406907
543, 71.53851589694847
543.5, 71.52622692857808
544, 71.50877489171964
544.5, 71.49180679324776
545, 71.47842462794439
545.5, 71.47859045741762
546, 71.49358495454742
546.5, 71.5497416246908
547, 71.59088722509918
547.5, 71.63656796882424
548, 71.61897246768544
548.5, 71.58413234906338
549, 71.53347151406028
549.5, 71.49022345343424
550, 71.46285356079706
550.5, 71.44590902569898
551, 71.43663055790462
551.5, 71.41982463749657
552, 71.39224688579093
552.5, 71.35085897333582
553, 71.29869541454443
553.5, 71.24741085316214
554, 71.20461540804541
554.5, 71.17724342312978
555, 71.16543004926493
555.5, 71.17464576957913
556, 71.1913991311496
556.5, 71.21894789436931
557, 71.23582931745332
557.5, 71.25285122610265
558, 71.23635182817442
558.5, 71.22061787747835
559, 71.20231240447397
559.5, 71.19297482235896
560, 71.19300157498905
560.5, 71.188288567875
561, 71.1790983955223
561.5, 71.15929675407854
562, 71.13288718791192
562.5, 71.06482381157628
563, 71.00908324790629
563.5, 70.98172348093404
564, 70.9812666053144
564.5, 71.02807999611314
565, 71.06157116699163
565.5, 71.09785465515428
566, 71.12215698872072
566.5, 71.14779220839696
567, 71.14800416658679
567.5, 71.14399634485179
568, 71.11631739523969
568.5, 71.08899036777964
569, 71.04223443762166
569.5, 70.99447688924651
570, 70.93073907207386
570.5, 70.90277502919113
571, 70.87735260090889
571.5, 70.88562038224062
572, 70.89364775353441
572.5, 70.90289180417913
573, 70.91301783869282
573.5, 70.93175823319321
574, 70.94709752517024
574.5, 70.96521811225529
575, 70.98090850315592
575.5, 70.99741207771756
576, 70.98033074411313
576.5, 70.9607791950236
577, 70.91464621319363
577.5, 70.8837291877481
578, 70.85547815446854
578.5, 70.84215222810307
579, 70.83329810692697
579.5, 70.82588517812334
580, 70.81691912016657
580.5, 70.79094744338103
581, 70.7666390525872
581.5, 70.72971671733269
582, 70.70910739348541
582.5, 70.69960025118655
583, 70.70170990452566
583.5, 70.71093565997609
584, 70.7120106516061
584.5, 70.7120427694654
585, 70.71207379579386
585.5, 70.7134969096617
586, 70.72280620628212
586.5, 70.73627981444086
587, 70.76459301860253
587.5, 70.76264660824928
588, 70.7441674284306
588.5, 70.7084629877111
589, 70.66623919359078
589.5, 70.63116570342245
590, 70.60251424165001
590.5, 70.57481227049577
591, 70.56794683018181
591.5, 70.58663013883047
592, 70.60189940812836
592.5, 70.61990873125983
593, 70.61525807957355
593.5, 70.60624001656153
594, 70.58004982610045
594.5, 70.55589059449484
595, 70.5192694881789
595.5, 70.4854574273179
596, 70.43864795862943
596.5, 70.40669298102938
597, 70.37026688506539
597.5, 70.34615929209889
598, 70.32036839662437
598.5, 70.28516541935129
599, 70.25050715476704
599.5, 70.18601447281291
600, 70.13932309773311
600.5, 70.09274451959959
601, 70.07595023120047
601.5, 70.06680263846069
602, 70.03157301127877
602.5, 69.98907557605017
603, 69.93629150748045
603.5, 69.89445212385104
604, 69.85772776781991
604.5, 69.8237732891665
605, 69.77701249989939
605.5, 69.74506301720288
606, 69.70878494083398
606.5, 69.67801617673
607, 69.64265197662357
607.5, 69.57218977708854
608, 69.51042581787472
608.5, 69.42734396168815
609, 69.36554350541891
609.5, 69.30032622704057
610, 69.25368913329486
610.5, 69.19939691134026
611, 69.15270749631601
611.5, 69.10137809903314
612, 69.03062327763004
612.5, 68.97082269667126
613, 68.89702662971222
613.5, 68.83588186581136
614, 68.76120384934705
614.5, 68.67577848968635
615, 68.55855593272244
615.5, 68.47041277770411
616, 68.38008510588287
616.5, 68.31756696881008
617, 68.26242894936951
617.5, 68.17915038181054
618, 68.11770389204678
618.5, 68.05261851847965
619, 68.03238296246187
619.5, 68.02319361659053
620, 68.02967488523984
620.5, 68.03745394455326
621, 68.03754977704503
621.5, 68.0392609245493
622, 68.04866115631862
622.5, 68.04903747601536
623, 68.03957277938866
623.5, 68.0213295764143
624, 67.99444590111648
624.5, 67.95633544627034
625, 67.91527057402703
625.5, 67.87968663916305
626, 67.86085924255434
626.5, 67.87943026364087
627, 67.89088923529272
627.5, 67.90011795823084
628, 67.89662904134993
628.5, 67.88777893973506
629, 67.84407623305503
629.5, 67.79190962951935
630, 67.70282754787021
630.5, 67.63412588283691
631, 67.56962400013336
631.5, 67.49764793075127
632, 67.38569474129858
632.5, 67.30150060503249
633, 67.20297671127142
633.5, 67.15981204193696
634, 67.11750261094478
634.5, 67.06385081549546
635, 67.02308343902885
635.5, 66.9857483347893
636, 66.96649253403189
636.5, 66.95741534987945
637, 66.94997967279018
637.5, 66.94109754670987
638, 66.91126477472173
638.5, 66.87688139437432
639, 66.82314890122308
639.5, 66.7806004892348
640, 66.73409737647575
640.5, 66.69976059538149
641, 66.66269853273802
641.5, 66.6327488048226
642, 66.59714567563063
642.5, 66.55818617855032
643, 66.514767685057
643.5, 66.44297991836734
644, 66.38561896799392
644.5, 66.32027172256912
645, 66.28237101050581
645.5, 66.25484848448244
646, 66.23809284584655
646.5, 66.22031612604528
647, 66.197288366509
647.5, 66.16956604200406
648, 66.10664093038865
648.5, 66.0526432135605
649, 65.97795301746167
649.5, 65.93269387440446
650, 65.89594244645643
650.5, 65.87737975688458
651, 65.85962107949788
651.5, 65.83604732647814
652, 65.81140395248659
652.5, 65.78425583580122
653, 65.75813548143421
653.5, 65.71166833819055
654, 65.66959395566442
654.5, 65.6139879144601
655, 65.57457474319868
655.5, 65.5303231076411
656, 65.50527283092762
656.5, 65.48142623953817
657, 65.46317428340993
657.5, 65.44006162843776
658, 65.38405151831293
658.5, 65.34649139032051
659, 65.30967710360393
659.5, 65.3026580175697
660, 65.30266752095328
660.5, 65.2493897303742
661, 65.18882266175419
661.5, 65.08944705023973
662, 65.0214087659766
662.5, 64.97454674668205
663, 64.94855349058008
663.5, 64.93032317736541
664, 64.90945446230482
664.5, 64.88309211583075
665, 64.86669812517648
665.5, 64.84941131701996
666, 64.82215667299374
666.5, 64.7956292184839
667, 64.74886348963607
667.5, 64.71903192571688
668, 64.6915231447397
668.5, 64.66932232337793
669, 64.64266973023072
669.5, 64.60924279836651
670, 64.5713540242109
670.5, 64.4627321663718
671, 64.37620492633685
671.5, 64.27342817354003
672, 64.19363068498029
672.5, 64.10159806574579
673, 64.02619352895029
673.5, 63.938414419855086
674, 63.918227811418056
674.5, 63.9017622911269
675, 63.86545300191937
675.5, 63.83350290940416
676, 63.7866750068912
676.5, 63.757102230501644
677, 63.72967125780619
677.5, 63.7305481395308
678, 63.73964212465456
678.5, 63.788487330380065
679, 63.83564910612095
679.5, 63.89009566407085
680, 63.929725577876354
680.5, 63.9671364239456
681, 63.997729354134634
681.5, 64.0344769240762
682, 64.06494583194377
682.5, 64.09972010318525
683, 64.09283523455078
683.5, 64.08173809693974
684, 64.04531285165257
684.5, 64.0158943145956
685, 63.97854115344159
685.5, 63.94361866579282
686, 63.89766120445796
686.5, 63.86641754687736
687, 63.83104449328524
687.5, 63.772553512179776
688, 63.7210570860173
688.5, 63.68473814244929
689, 63.66751631099033
689.5, 63.67687805307236
690, 63.67999673917748
690.5, 63.679913789824504
691, 63.67367555735708
691.5, 63.6650405463492
692, 63.664776040652285
692.5, 63.664863418833626
693, 63.66478829665689
693.5, 63.65731129671072
694, 63.62931388425048
694.5, 63.602024990404395
695, 63.56533763455339
695.5, 63.5656180418473
696, 63.574555408118265
696.5, 63.61631722818532
697, 63.65415133379821
697.5, 63.69067103833741
698, 63.7126339901652
698.5, 63.72224753814157
699, 63.71183813451408
699.5, 63.68407526201908
700, 63.67980155842505
700.5, 63.67989377353968
701, 63.696542344056894
701.5, 63.70876895866885
702, 63.69951275950819
702.5, 63.68445004746944
703, 63.64706358116055
703.5, 63.61196082773621
704, 63.566263315652556
704.5, 63.55313884696259
705, 63.54472062443651
705.5, 63.56987526455546
706, 63.59441206306415
706.5, 63.63104407205698
707, 63.65004797770918
707.5, 63.650400366899866
708, 63.622523913703525
708.5, 63.567353467128626
709, 63.520955390896056
709.5, 63.469703020997514
710, 63.47748176660946
710.5, 63.48818828414531
711, 63.515615129613316
711.5, 63.51880808810151
712, 63.48159800145461
712.5, 63.43222251153739
713, 63.3591336524022
713.5, 63.31018728888712
714, 63.25918808570906
714.5, 63.27575926892259
715, 63.295524207565414
715.5, 63.341490340029225
716, 63.36738139811796
716.5, 63.37714125531791
717, 63.35140064237752
717.5, 63.29632926002234
718, 63.22441083745274
718.5, 63.13859810730038
719, 63.06063747074735
719.5, 62.99736128050802
720, 62.95142183473443
720.5, 62.934271857332014
721, 62.952793763001104
721.5, 62.982529828884786
722, 63.02809956392175
722.5, 63.0667973196598
723, 63.10901568229443
723.5, 63.11799143519977
724, 63.12122491580259
724.5, 63.1027894599554
725, 63.09384210395415
725.5, 63.09372729060621
726, 63.10338102312735
726.5, 63.121676098504565
727, 63.110764159414046
727.5, 63.09356716591027
728, 63.06776385794854
728.5, 63.05588871166548
729, 63.10215691657301
729.5, 63.13892032025702
730, 63.18611155563835
730.5, 63.189904358324824
731, 63.17120715587252
731.5, 63.135739211247525
732, 63.09314912697613
732.5, 63.04949973736192
733, 63.01310183345752
733.5, 62.97619017156384
734, 62.96460162140636
734.5, 62.98315009318475
735, 63.013432917367986
735.5, 63.05876420857989
736, 63.09092187026442
736.5, 63.124164123653934
737, 63.1330906643974
737.5, 63.13595896281733
738, 63.11738437069731
738.5, 63.09971092177731
739, 63.071509082663596
739.5, 63.05868435073357
740, 63.04983560275543
740.5, 63.08968609004017
741, 63.140094594537956
741.5, 63.1839643832647
742, 63.215626715970295
742.5, 63.22514287318399
743, 63.219725892608196
743.5, 63.19144551099086
744, 63.17417222670444
744.5, 63.15592949967895
745, 63.161326100257135
745.5, 63.1683062822291
746, 63.142186283084506
746.5, 63.11772403564828
747, 63.0807064700458
747.5, 63.0602253750173
748, 63.05107893469694
748.5, 63.05387969800407
749, 63.06292397768359
749.5, 63.05721985570767
750, 63.0476759121177
750.5, 63.01252355056344
751, 62.9776104696054
751.5, 62.913101755102055
752, 62.8631962061099
752.5, 62.80726653976353
753, 62.79351459437231
753.5, 62.7933769053931
754, 62.779753806058
754.5, 62.761707612002034
755, 62.71773228347944
755.5, 62.68170992833555
756, 62.644765207004774
756.5, 62.61765738521408
757, 62.58971688604866
757.5, 62.56760569041743
758, 62.54044317422473
758.5, 62.544625662424956
759, 62.554750883619946
759.5, 62.59896644912234
760, 62.64654172518399
760.5, 62.74811131970873
761, 62.82828556348845
761.5, 62.92142852170781
762, 62.94335000419668
762.5, 62.94360553371312
763, 62.95018954128934
763.5, 62.96101431774698
764, 63.01399147735497
764.5, 63.05923453633036
765, 63.115057989079176
765.5, 63.143011498863004
766, 63.1519796788233
766.5, 63.143390255693575
767, 63.125438780653205
767.5, 63.12411220084124
768, 63.123518048581346
768.5, 63.11464767320332
769, 63.10532148486333
769.5, 63.086671213411186
770, 63.0786858973357
770.5, 63.0788348600731
771, 63.08965882018858
771.5, 63.10754653739823
772, 63.13823716496798
772.5, 63.16867458784911
773, 63.16006406502315
773.5, 63.152025685290525
774, 63.14238676093131
774.5, 63.15299329211366
775, 63.190535310208546
775.5, 63.193448193902846
776, 63.184663371605886
776.5, 63.154674510193225
777, 63.1233266260729
777.5, 63.11422780070656
778, 63.10901131464263
778.5, 63.10915814039854
779, 63.10168533369545
779.5, 63.0829404507854
780, 63.06250500126207
780.5, 63.03567673461095
781, 63.026333366829284
781.5, 63.01925886536385
782, 63.027994433252445
782.5, 63.028056757315916
783, 63.00031369903435
783.5, 62.97380048110971
784, 62.93658513596799
784.5, 62.92870836542032
785, 62.9286115161358
785.5, 62.921327372391744
786, 62.91239810503778
786.5, 62.894516121093346
787, 62.8815377841277
787.5, 62.87210103818582
788, 62.87211304702684
788.5, 62.8815418265094
789, 62.88908440698832
789.5, 62.898000753891985
790, 62.89852863610456
790.5, 62.89855117694171
791, 62.898500300069905
791.5, 62.89480469231971
792, 62.876724705462294
792.5, 62.83422789422368
793, 62.75022784400356
793.5, 62.65418776693336
794, 62.53002739332142
794.5, 62.41750378747906
795, 62.30680270600499
795.5, 62.23457308168838
796, 62.192399147518536
796.5, 62.192143951144615
797, 62.20375096095246
797.5, 62.23175617555228
798, 62.23149694848062
798.5, 62.22282102065211
799, 62.18434315172292
799.5, 62.14498666442682
800, 62.117840567279806
800.5, 62.100104232445666
800.9999999999999, 62.09071199819496
801.5, 62.0870438521602
802, 62.08712166300965
802.5, 62.087156680618065
803, 62.08715656576697
803.4999999999999, 62.08737896240916
804, 62.08567855857258
804.5, 62.067586812966795
805, 62.04642238614028
805.5, 61.99991710364606
806, 61.957823641799244
806.5, 61.90229460939493
806.9999999999999, 61.874510414685915
807.5, 61.84795698572076
808, 61.839473094697844
808.5, 61.828550379659106
809, 61.79222126361361
809.4999999999999, 61.74743971825769
810, 61.644847655414615
810.5, 61.56515689692495
811, 61.47291673464991
811.5, 61.4089636383295
812, 61.33872502968812
812.5, 61.227232214947605
813, 61.11593448822429
813.5, 61.0160542909103
814, 60.949215413404616
814.5, 60.90250947567897
815, 60.86423167161019
815.4999999999999, 60.8181284944503
816, 60.77539571842977
816.5, 60.72199992395953
817, 60.639692500677846
817.5, 60.56285506061357
818, 60.490656451125204
818.5, 60.44748621372136
819, 60.43846389475885
819.5, 60.405360554359895
820, 60.34040426842851
820.5, 60.2696967005662
821, 60.181894914510096
821.4999999999999, 60.14584659215511
822, 60.11791795174549
822.5, 60.10890456954752
823, 60.10398003249253
823.5, 60.10427785458892
824, 60.08280694927629
824.5, 60.03640376050448
825, 59.96900228065017
825.5, 59.88109446759954
826, 59.8046302785778
826.5, 59.73480607147235
827, 59.65307802387473
827.4999999999999, 59.591268640964685
828, 59.525746461172155
828.5, 59.47661669459584
829, 59.42159339314154
829.5, 59.394163518719516
829.9999999999999, 59.368110891952696
830.5, 59.38335706034381
831, 59.39747597211053
831.5, 59.39740840557339
832, 59.39266528556851
832.5, 59.3740377331425
833, 59.35430000172834
833.4999999999999, 59.32670175786494
834, 59.27369919852007
834.5, 59.2037813358301
835, 59.14416355895924
835.5, 59.09608811755189
835.9999999999999, 59.08708600437092
836.5, 59.08680255378332
837, 59.10525826686581
837.5, 59.13842384129753
838, 59.19371247996446
838.5, 59.28801228444683
839, 59.410223179093954
839.5, 59.52935367735042
840, 59.630182822545414
840.5, 59.69429457986493
841, 59.76612021108456
841.5, 59.906465057617474
841.9999999999999, 60.021055715500495
842.5, 60.158235349564876
843, 60.25925715819418
843.5, 60.372532079071846
844, 60.46668154109914
844.5, 60.53929459583876
845, 60.53910441617517
845.5, 60.52668750187213
846, 60.4801306288135
846.5, 60.42372555936239
847, 60.34119166197022
847.5, 60.27312734869675
847.9999999999999, 60.194735577359275
848.5, 60.109262021330004
849, 60.03462353775358
849.5, 59.961409753197536
850, 59.91553784083081
850.4999999999999, 59.88721502386468
851, 59.878034504583006
851.5, 59.878300526199894
852, 59.890586992811436
852.5, 59.90826594114361
853, 59.959313206651984
853.5, 60.00915297589499
853.9999999999999, 60.091701858473186
854.5, 60.1449475534442
855, 60.18309993270948
855.5, 60.157721895512054
856, 60.08383741031224
856.4999999999999, 59.99035518740751
857, 59.878624289185304
857.5, 59.81779542690214
858, 59.77453948602549
858.5, 59.78389234693962
859, 59.8046634241728
859.5, 59.860842637550576
859.9999999999999, 59.906795030900476
860.5, 59.961308887606776
861, 60.013208794416585
861.5, 60.07379508975387
862, 60.1515284599544
862.4999999999999, 60.22536833083474
863, 60.34504875288962
863.5, 60.42942472226423
864, 60.51414200745418
864.5, 60.55467608200784
865, 60.58130319977586
865.5, 60.63649051201321
866, 60.70515459256991
866.5, 60.774420675423585
867, 60.831445640240815
867.5, 60.877519368850855
868, 60.908634793691185
868.4999999999999, 60.93688516360776
869, 60.95031104280882
869.5, 60.959166522827054
870, 60.97884501418057
870.5, 61.00632462557892
871, 61.11849873476617
871.5, 61.22223213780671
872, 61.369902474992934
872.5, 61.46663458525463
873, 61.55105338056537
873.5, 61.63021912765871
874, 61.72978064875008
874.4999999999999, 61.853896064644424
875, 61.99892126177409
875.5, 62.1383096069904
876, 62.2512631037602
876.5, 62.34379367689367
876.9999999999999, 62.4198068582347
877.5, 62.52288260365717
878, 62.617312806078004
878.5, 62.73478406032347
879, 62.82098741348891
879.5, 62.915887223315295
880, 63.04673735913405
880.4999999999999, 63.16489469472349
881, 63.33154265357468
881.5, 63.447658278179645
882, 63.56938908792346
882.5, 63.70450274722285
882.9999999999999, 63.885257562395715
883.5, 64.02053230404331
884, 64.16185409570326
884.5, 64.20696677838856
885, 64.25682913815942
885.5, 64.38675362586412
886, 64.49496975369705
886.4999999999999, 64.64512595866363
887, 64.75311939980847
887.5, 64.86964238108403
888, 64.9635153278683
888.5, 65.06441389628054
888.9999999999999, 65.14401868676535
889.5, 65.22601739508104
890, 65.40029576773316
890.5, 65.55184534919314
891, 65.74830314798831
891.5, 65.89378509440881
892, 66.06645904954726
892.5, 66.30386836431231
893, 66.57141951662835
893.5, 66.78318447786992
894, 66.94974392211424
894.5, 67.09626643846134
894.9999999999999, 67.24196532053142
895.5, 67.45725131848798
896, 67.58716386658298
896.5, 67.7234734516787
897, 67.84603518283411
897.4999999999999, 67.98534029171871
898, 68.2226391068184
898.5, 68.4131640519077
899, 68.5887387614517
899.5, 68.70689924089898
900, 68.80922248897603
900.5, 68.94152878952116
900.9999999999999, 69.13145023248211
901.5, 69.28230556822285
902, 69.43845206719148
902.5, 69.52756033501667
903, 69.59813883539461
903.4999999999999, 69.67204249098964
904, 69.72634556174602
904.5, 69.78227789397592
905, 69.86309754792947
905.5, 69.98033272841113
906, 70.1246129157933
906.5, 70.28209857660339
906.9999999999999, 70.41537744191119
907.5, 70.52321768141076
908, 70.64279943895251
908.5, 70.75963076050898
909, 70.92785394794289
909.4999999999999, 71.06687742237395
910, 71.23824895454116
910.5, 71.35839242311661
911, 71.48664263959488
911.5, 71.66408903974599
912, 71.81173000578559
912.5, 71.98783583315713
912.9999999999999, 72.10817272140662
913.5, 72.2196841448659
914, 72.40413004632968
914.5, 72.67357697954593
915, 72.93313845631454
915.4999999999999, 73.19742011138094
916, 73.30603872581585
916.5, 73.41219764529377
917, 73.62438667144198
917.5, 73.8248410831379
918, 74.10465789065057
918.5, 74.2802751254902
919, 74.4690141086927
919.5, 74.67833607853218
920, 74.90082079973872
920.5, 75.1062958035301
921, 75.26570117211885
921.4999999999999, 75.42361182504335
922, 75.53122641270261
922.5, 75.63312654910418
923, 75.67707962903394
923.5, 75.71306549822927
923.9999999999999, 75.76619960485658
924.5, 75.8261724144792
925, 75.91573035130642
925.5, 76.00650830552216
926, 76.18246124050646
926.5, 76.33452706839148
927, 76.5298702102617
927.4999999999999, 76.63743715384956
928, 76.7450055199782
928.5, 76.8100874223659
929, 76.8811184119684
929.5, 77.01520008385
929.9999999999999, 77.1246775023507
930.5, 77.25459316565227
931, 77.36155631733946
931.5, 77.49165221851602
932, 77.64607982210102
932.5, 77.8510502597334
933, 77.975068929302
933.4999999999999, 78.0973028267707
934, 78.20527556367544
934.5, 78.29162452130265
935, 78.39401592252355
935.5, 78.46654248951927
935.9999999999999, 78.54059818544991
936.5, 78.63971265562978
937, 78.77291437328512
937.5, 78.91419627816522
938, 79.06700969215075
938.5, 79.28251330911577
939, 79.44036361232058
939.4999999999999, 79.57163807620114
940, 79.62024328355027
940.5, 79.60986027096294
941, 79.61900799139516
941.5, 79.63652282139724
941.9999999999999, 79.71980375851072
942.5, 79.81241266512475
943, 79.93849757957781
943.5, 80.03742450387962
944, 80.14881883815377
944.4999999999999, 80.25615293073884
945, 80.40463228329196
945.5, 80.51375788496661
946, 80.6376918721934
946.5, 80.7729046721536
947, 80.91079470339938
947.5, 81.04618864400935
947.9999999999999, 81.13520576090482
948.5, 81.18176519220123
949, 81.22413934264962
949.5, 81.27973044978752
950, 81.3423816890663
950.4999999999999, 81.42170708826173
951, 81.5169833647402
951.5, 81.61524880003547
952, 81.7239511137014
952.5, 81.81571244431697
953, 81.94544303507486
953.5, 82.0967976924823
953.9999999999999, 82.32867173961436
954.5, 82.4884048325823
955, 82.66479639631963
955.5, 82.77180480242048
956, 82.88186767434573
956.4999999999999, 83.03584597685752
957, 83.15607183393492
957.5, 83.2957275954639
958, 83.4265462339437
958.5, 83.60221792197525
959, 83.69852314877421
959.5, 83.79562082035486
959.9999999999999, 83.77535588328993
960.5, 83.75690660824507
961, 83.78407888998116
961.5, 83.81925851046658
962, 83.90224861342233
962.4999999999999, 84.03353175322795
963, 84.25600535529908
963.5, 84.47232237528507
964, 84.73629105302412
964.5, 84.83692397366613
965, 84.91744175266363
965.5, 84.98071058106963
965.9999999999999, 85.02605426177772
966.5, 85.06380872854734
967, 85.06919364466734
967.5, 85.05029218924999
968, 85.08178293588041
968.4999999999999, 85.13498945181502
969, 85.23386891296734
969.5, 85.32793144353052
970, 85.43677373752747
970.5, 85.52333820753856
970.9999999999999, 85.62632179084147
971.5, 85.69750939007994
972, 85.77081701627982
972.5, 85.83034340174407
973, 85.90104947492974
973.5, 85.99301278870226
974, 86.07782485287017
974.4999999999999, 86.16858694758719
975, 86.23068349847333
975.5, 86.27759967727202
976, 86.30724777368677
976.5, 86.33462271087754
976.9999999999999, 86.36958942435075
977.5, 86.4130534506382
978, 86.41469481029716
978.5, 86.4152082863602
979, 86.42472971103422
979.5, 86.47064457571402
980, 86.62916444594335
980.4999999999999, 86.78511169669274
981, 86.99653114980975
981.5, 87.13401729536272
982, 87.28242606992296
982.5, 87.3528871915586
982.9999999999999, 87.40781068033246
983.5, 87.42606574444022
984, 87.4458355579635
984.5, 87.48319325460866
985, 87.51826078458404
985.5, 87.56412403173287
986, 87.61983659150732
986.4999999999999, 87.69003661732391
987, 87.79150210029664
987.5, 87.88859334567378
988, 88.03473863162864
988.5, 88.14017501489502
988.9999999999999, 88.24366096269742
989.5, 88.29175756041454
990, 88.31848638699057
990.5, 88.3162313952404
991, 88.3075379434793
991.4999999999999, 88.29080531680077
992, 88.28072921596961
992.5, 88.30822530056268
993, 88.32998619919081
993.5, 88.35787162426564
994, 88.39917406858899
994.5, 88.46341525869713
994.9999999999999, 88.54199921104825
995.5, 88.63705870666573
996, 88.68924825973
996.5, 88.7280221057256
997, 88.72789162014881
997.4999999999999, 88.71750042264232
998, 88.6800690246154
998.5, 88.64965515937854
999, 88.61317513362255
999.5, 88.63288645642687
1000, 88.667814132192
1000.5, 88.74441381959844
1000.9999999999999, 88.81153412368093
1001.5, 88.87587706196267
1002, 88.93274516555722
1002.5, 89.01717169848877
1003, 89.07659798540197
1003.4999999999999, 89.14013421720638
1004, 89.14326490561697
1004.5, 89.13386151807941
1005, 89.04007636157799
1005.5, 88.9526008994336
1006, 88.83312215200748
1006.5, 88.7536252829535
1006.9999999999999, 88.68734626591878
1007.5, 88.69049925298056
1008, 88.73699947158966
1008.5, 88.80844918965127
1009, 88.89345209668758
1009.4999999999999, 88.90283786441006
1010, 88.90327624724583
1010.5, 88.86637223498316
1011, 88.8340287466506
1011.5, 88.78683319374326
1012, 88.78216670237491
1012.5, 88.80091730889298
1012.9999999999999, 88.8621265434832
1013.5, 88.9388379010649
1014, 88.9909878551606
1014.5, 89.02854713752203
1015, 89.0285054433227
1015.4999999999999, 89.02579140254923
1016, 89.01642788739731
1016.5, 89.00876188914388
1017, 88.99971088636322
1017.5, 88.99175143083826
1017.9999999999999, 88.98374226808973
1018.5, 89.00098117031361
1019, 89.02183705864825
1019.5, 89.0772523403545
1020, 89.11549128857534
1020.5, 89.15320651480374
1021, 89.16445915208233
1021.4999999999999, 89.16404731331386
1022, 89.19705873496726
1022.5, 89.23964514534771
1023, 89.2829487647647
1023.5, 89.30687697274595
1023.9999999999999, 89.26033371710031
1024.5, 89.19174992855218
1025, 89.04187961482093
1025.5, 88.91431397128524
1026, 88.7608283200953
1026.5, 88.72276366241032
1027, 88.6988152820846
1027.5, 88.74180277983066
1028, 88.77889148643114
1028.5, 88.8156653357767
1029, 88.8063767863341
1029.5, 88.72239367304212
1030, 88.62328024772563
1030.5, 88.48766139284609
1031, 88.40551110910391
1031.5, 88.32062923886217
1032, 88.24181329290005
1032.5, 88.18290129216538
1033, 88.15527135057806
1033.5, 88.16068863678782
1034, 88.21686492089994
1034.5, 88.2576924759054
1035, 88.30258049382878
1035.5, 88.27959575184138
1036, 88.24725008099422
1036.5, 88.24698806145791
1037, 88.25052135456266
1037.5, 88.26939816697187
1038, 88.26469440319349
1038.5, 88.22688273162306
1039, 88.16700439490253
1039.5, 88.07626109652608
1040, 88.01158215398146
1040.5, 87.94639691565565
1041, 87.93708976815635
1041.5, 87.93337409343779
1042, 87.94265541778734
1042.5, 87.94679809031096
1043, 87.94668216229303
1043.5, 87.91607684129582
1044, 87.86185711684686
1044.5, 87.78065974493211
1045, 87.68762178337187
1045.5, 87.58176641465592
1046, 87.4952003774025
1046.5, 87.40319903883491
1047, 87.3233413400753
1047.5, 87.22053030018422
1048, 87.12364529140156
1048.5, 86.99697372205011
1049, 86.90121361945195
1049.5, 86.80193168075769
1050, 86.73086334662247
1050.5, 86.67476956662338
1051, 86.6192848760505
1051.5, 86.58040337958444
1052, 86.54321046730122
1052.5, 86.5188418693171
1053, 86.49170397075036
1053.5, 86.47568724579018
1054, 86.4569609462334
1054.5, 86.40370648895446
1055, 86.34163963492551
1055.5, 86.19315870476561
1056, 86.10668804173767
1056.5, 86.05148346745024
1057, 86.07563513467457
1057.5, 86.1383831707638
1058, 86.20155355689496
1058.5, 86.26284147231468
1059, 86.23639470283952
1059.5, 86.18214560992848
1060, 85.98802675389332
1060.5, 85.83183586384175
1061, 85.64557223204858
1061.5, 85.53937102613965
1062, 85.43118829418566
1062.5, 85.35106025153613
1063, 85.26750569959793
1063.5, 85.17839432699807
1064, 85.10621967813049
1064.5, 85.02348437074822
1065, 84.92938646648939
1065.5, 84.77991992426357
1066, 84.66064422638202
1066.5, 84.51692146689025
1067, 84.45450633427632
1067.5, 84.40237141396592
1068, 84.43744426660597
1068.5, 84.4701275111618
1069, 84.51696948178372
1069.5, 84.52924349159451
1070, 84.51012944199904
1070.5, 84.47862155573561
1071, 84.4339363239882
1071.5, 84.38711193318105
1072, 84.33726950269902
1072.5, 84.28335788796858
1073, 84.22597561454121
1073.5, 84.10539514583571
1074, 84.00999581550396
1074.5, 83.89847744876886
1075, 83.7759327160452
1075.5, 83.61524919429533
1076, 83.48640732482467
1076.5, 83.35838106982351
1077, 83.2773461678577
1077.5, 83.21902306320347
1078, 83.17230768448998
1078.5, 83.14917528479094
1079, 83.14014754468968
1079.5, 83.09955480030612
1080, 83.03730052499333
1080.5, 82.99600760597538
1081, 82.95741359815312
1081.5, 82.94823439054167
1082, 82.94336183089945
1082.5, 82.94371968386893
1083, 82.92430956281922
1083.5, 82.87751124896185
1084, 82.79488885498478
1084.5, 82.67956105138092
1085, 82.55293614283741
1085.5, 82.4247614543469
1086, 82.32555868903198
1086.5, 82.25494224578371
1087, 82.19891148766986
1087.5, 82.16479266138111
1088, 82.13721550073772
1088.5, 82.12029331770478
1089, 82.1026368359546
1089.5, 82.03461123017408
1090, 81.95609056999747
1090.5, 81.82114158236074
1091, 81.71909208970384
1091.5, 81.61759421584955
1092, 81.48221031435293
1092.5, 81.25900580730197
1093, 81.10139959514913
1093.5, 80.92397743480875
1094, 80.92392518878326
1094.5, 80.9233251982489
1095, 80.84236530865671
1095.5, 80.77116611710868
1096, 80.66851920288106
1096.5, 80.59678544551694
1097, 80.52304042665519
1097.5, 80.4977689676483
1098, 80.47981031396729
1098.5, 80.5256608024253
1099, 80.56852528210996
1099.5, 80.55953812763096
1100, 80.53241137134623
1100.5, 80.43939544953695
1101, 80.3551900062199
1101.5, 80.24417539751289
1102, 80.1827570482903
1102.5, 80.12098520666902
1103, 80.07252270834375
1103.5, 80.02076557358227
1104, 79.9393063527272
1104.5, 79.87969051506931
1105, 79.82357048969749
1105.5, 79.7859626463648
1106, 79.74921088295035
1106.5, 79.71369264597958
1107, 79.66938166561037
1107.5, 79.62733025028362
1108, 79.58663075517808
1108.5, 79.52338680027741
1109, 79.4760089824848
1109.5, 79.42932125636966
1110, 79.39108273126719
1110.5, 79.3449990869731
1111, 79.29655749620711
1111.5, 79.23423680602188
1112, 79.12725646174955
1112.5, 79.02355357059967
1113, 78.88788079514084
1113.5, 78.79542061721753
1114, 78.73034184722523
1114.5, 78.65123703391943
1115, 78.5310820106689
1115.5, 78.40339937652209
1116, 78.24529086501809
1116.5, 78.15798558278512
1117, 78.0871779792181
1117.5, 78.06006842060494
1118, 78.042716699507
1118.5, 78.03377635706433
1119, 77.99601264685974
1119.5, 77.92188864662717
1120, 77.84924571756488
1120.5, 77.76173406904891
1121, 77.72576890548615
1121.5, 77.69533198127445
1122, 77.65890812304747
1122.5, 77.62473056635679
1123, 77.56882362652449
1123.5, 77.50988069378323
1124, 77.42700894746638
1124.5, 77.33516110540751
1125, 77.22118537484398
1125.5, 77.11902235252637
1126, 77.02620356132282
1126.5, 76.91695687387042
1127, 76.83579614483213
1127.5, 76.75162356631276
1128, 76.67835166577805
1128.5, 76.5866005190222
1129, 76.50537613331055
1129.5, 76.40895622733635
1130, 76.3070466219249
1130.5, 76.21220952458249
1131, 76.08439219273191
1131.5, 75.97870779605512
1132, 75.83821193218307
1132.5, 75.73233342135748
1133, 75.6135214369332
1133.5, 75.48504823426973
1134, 75.32775306316971
1134.5, 75.1579934618549
1135, 75.01834608860189
1135.5, 74.96377980107366
1136, 74.93962098395205
1136.5, 74.95825847496359
1137, 74.9733580451757
1137.5, 74.9916489385291
1138, 74.98182246260518
1138.5, 74.96460276902326
1139, 74.95577701423356
1139.5, 74.94598182955714
1140, 74.91839467351363
1140.5, 74.88608354623112
1141, 74.82061540168442
1141.5, 74.7624096825579
1142, 74.68933047995547
1142.5, 74.59741415335674
1143, 74.48458461417006
1143.5, 74.37302580264969
1144, 74.27323494701574
1144.5, 74.15382219550328
1145, 74.04237665410375
1145.5, 73.86426329090412
1146, 73.73284926316322
1146.5, 73.58732702446406
1147, 73.50943857410417
1147.5, 73.4321073209995
1148, 73.43091099474155
1148.5, 73.43531748510881
1149, 73.46273248421332
1149.5, 73.46631315088338
1150, 73.42935586673511
1150.5, 73.35666928965668
1151, 73.2375926409297
1151.5, 73.15781985954148
1152, 73.07120187104971
1152.5, 72.97625214401036
1153, 72.88726471369654
1153.5, 72.74934134139949
1154, 72.65606431349289
1154.5, 72.57175520203972
1155, 72.48849656021406
1155.5, 72.37924566738901
1156, 72.31384573382202
1156.5, 72.24440136529982
1157, 72.14918355538825
1157.5, 72.05241435065356
1158, 71.8589737530445
1158.5, 71.72445549039382
1159, 71.59267051507446
1159.5, 71.52852113027313
1160, 71.48400290766541
1160.5, 71.49900248068978
1161, 71.52310481833406
1161.5, 71.47155006538486
1162, 71.41063393706992
1162.5, 71.25376510648985
1163, 71.14064384555978
1163.5, 71.01840566288674
1164, 70.94781734348243
1164.5, 70.88501114780969
1165, 70.87804361522576
1165.5, 70.87687042418804
1166, 70.83378500433544
1166.5, 70.79400606608051
1167, 70.73863426476693
1167.5, 70.70668154413337
1168, 70.68812370205187
1168.5, 70.64316037561407
1169, 70.5703551718693
1169.5, 70.49640520890405
1170, 70.40918456495723
1170.5, 70.25279679871623
1171, 70.11428784161133
1171.5, 69.93863365740243
1172, 69.82919277888976
1172.5, 69.74454630952894
1173, 69.68520326015982
1173.5, 69.62228190799846
1174, 69.58978130890513
1174.5, 69.55244734162173
1175, 69.41334711969596
1175.5, 69.28402125627542
1176, 69.0895657915694
1176.5, 68.96316592929456
1177, 68.8503564862208
1177.5, 68.77282265954862
1178, 68.69219640403827
1178.5, 68.5831764961049
1179, 68.45349576808073
1179.5, 68.25245490826927
1180, 68.08019305680669
1180.5, 67.87795508682555
1181, 67.72608529327182
1181.5, 67.56735225368942
1182, 67.4321420145585
1182.5, 67.25927014231446
1183, 67.10462970570221
1183.5, 66.93678427002418
1184, 66.8042350447115
1184.5, 66.67999842656694
1185, 66.46795330649263
1185.5, 66.32246850019176
1186, 66.19225199847816
1186.5, 66.15437994655325
1187, 66.14503307169002
1187.5, 66.08286713018828
1188, 66.00479820362965
1188.5, 65.87292130744154
1189, 65.75368426402386
1189.5, 65.57824475067824
1190, 65.4603660517078
1190.5, 65.35818204363352
1191, 65.3330856401677
1191.5, 65.33280428572338
1192, 65.33202074579506
1192.5, 65.334862083608
1193, 65.39625202257247
1193.5, 65.4526793642872
1194, 65.53638953017945
1194.5, 65.57086051782805
1195, 65.56092226373596
1195.5, 65.56868495125951
1196, 65.58662572987507
1196.5, 65.65234727916143
1197, 65.72292768615111
1197.5, 65.70558308336572
1198, 65.66516263795967
1198.5, 65.50848870736962
1199, 65.37559358192362
1199.5, 65.20759536284922
1200, 65.09493101012859
1200.5, 64.96834897464842
1201, 64.89437854045954
1201.5, 64.81681248666312
1202, 64.70159002309384
1202.5, 64.59947608273586
1203, 64.45182862134952
1203.5, 64.32624930548779
1204, 64.16766319698326
1204.5, 64.04148979389478
1205, 63.888210540441555
1205.5, 63.81162572958763
1206, 63.73610964692478
1206.5, 63.65627368350375
1207, 63.60472690680834
1207.5, 63.60415845886462
1208, 63.628984722794776
1208.5, 63.69463128997415
1209, 63.7094198823424
1209.5, 63.70977947173882
1210, 63.60969483686548
1210.5, 63.49163299958157
1211, 63.340451310196265
1211.5, 63.22825381116032
1212, 63.144859729642924
1212.5, 63.07975563927819
1213, 63.00536680621394
1213.5, 62.938305505912496
1214, 62.86080479209337
1214.5, 62.75748316589913
1215, 62.638638468790695
1215.5, 62.50770154717701
1216, 62.36810324746703
1216.5, 62.22327441606977
1217, 62.07664589939415
1217.5, 61.931648543849136
1218, 61.791713195843684
1218.5, 61.66027070178677
1219, 61.54075190808737
1219.5, 61.43658766115442
1220, 61.339788868063046
1220.5, 61.26228518522804
1221, 61.19678567357749
1221.5, 61.17345064438599
1222, 61.18331391634133
1222.5, 61.190974141103965
1223, 61.19997803473858
1223.5, 61.17157292176871
1224, 61.13590700038516
1224.5, 61.064340681466284
1225, 61.005059845362155
1225.5, 60.931012866544656
1226, 60.858648236314885
1226.5, 60.75630607926926
1227, 60.69600507886999
1227.5, 60.63356917985145
1228, 60.556356277987746
1228.5, 60.46887048744976
1229, 60.31659327454359
1229.5, 60.2062186914021
1230, 60.12218840419275
1230.5, 60.07286554714801
1231, 60.03617154278685
1231.5, 60.056993238258684
1232, 60.10114912286228
1232.5, 60.15741434130127
1233, 60.20531409090651
1233.5, 60.151623388762516
1234, 60.084220430983905
1234.5, 59.92610974845286
1235, 59.800664828131886
1235.5, 59.652484632623604
1236, 59.57202108751807
1236.5, 59.492063874806206
1237, 59.4059239089772
1237.5, 59.308406870404916
1238, 59.128243884987306
1238.5, 58.976444680758625
1239, 58.77168151086726
1239.5, 58.603940620387284
1240, 58.400282518617246
1240.5, 58.25204942798415
1241, 58.08384727586043
1241.5, 57.976129991795005
1242, 57.87510315098612
1242.5, 57.82082854444507
1243, 57.80243166514816
1243.5, 57.85783643065132
1244, 57.92764553032244
1244.5, 58.03909721147994
1245, 58.153018647033576
1245.5, 58.29401229245382
1246, 58.43091966479869
1246.5, 58.56663986355042
1247, 58.68471463725578
1247.5, 58.788190007641546
1248, 58.94664361904941
1248.5, 59.076167758440704
1249, 59.233177418780116
1249.5, 59.3204691391066
1250, 59.40872092908471
1250.5, 59.45288570897514
1251, 59.47751557994428
1251.5, 59.360126631502744
1252, 59.25182745091657
1252.5, 59.082904355347885
1253, 59.011858966136906
1253.5, 58.99469691787323
1254, 59.003509784950545
1254.5, 59.0211329330917
1255, 59.037990358357476
1255.5, 59.055238411835255
1256, 59.09140350428514
1256.5, 59.11867658103382
1257, 59.146566255053514
1257.5, 59.17779590339797
1258, 59.22402454647938
1258.5, 59.23852419783632
1259, 59.24703716053775
1259.5, 59.20766188723641
1260, 59.174816034761676
1260.5, 59.20202863029627
1261, 59.219719649669024
1261.5, 59.22944716636113
1262, 59.211743860678766
1262.5, 59.16523956149847
1263, 59.16319763909535
1263.5, 59.17184075949696
1264, 59.18015546986709
1264.5, 59.18437909347018
1265, 59.157101236136505
1265.5, 59.13461278856711
1266, 59.10602917950551
1266.5, 59.12192957650452
1267, 59.17782449147443
1267.5, 59.248317111646784
1268, 59.335080414918465
1268.5, 59.3058675897348
1269, 59.26876818528205
1269.5, 59.18714145729296
1270, 59.1470628247654
1270.5, 59.1655412572106
1271, 59.18927665504352
1271.5, 59.22616288826479
1272, 59.22682314620487
1272.5, 59.21752588851064
1273, 59.14357484088169
1273.5, 59.07312211664242
1274, 58.99135914183917
1274.5, 58.94972030256804
1275, 58.95931696977463
1275.5, 58.94022829564821
1276, 58.89389932368107
1276.5, 58.83123281765754
1277, 58.75297211196458
1277.5, 58.717366519128355
1278, 58.680895745816656
1278.5, 58.58952427159246
1279, 58.51326179858372
1279.5, 58.41002681871337
1280, 58.34842827404082
1280.5, 58.29394729182045
1281, 58.297346968684636
1281.5, 58.315288662908934
1282, 58.39857487334833
1282.5, 58.470094786974336
1283, 58.50658585753196
1283.5, 58.5306736028829
1284, 58.548991230544985
1284.5, 58.60065976910955
1285, 58.69272176024887
1285.5, 58.799678995446676
1286, 58.9300899968276
1286.5, 59.05022260595866
1287, 59.15992371979178
1287.5, 59.306428425582574
1288, 59.413842733185454
1288.5, 59.5265658071298
1289, 59.59543199217209
1289.5, 59.65885912494337
1290, 59.668169245472484
1290.5, 59.66799766849822
1291, 59.63446055460637
1291.5, 59.60797541360922
1292, 59.608142092628874
1292.5, 59.62379705017359
1293, 59.679796500527445
1293.5, 59.739413519740864
1294, 59.82168646471679
1294.5, 59.83309189589909
1295, 59.833267149712604
1295.5, 59.824951854638584
1296, 59.82312388907182
1296.5, 59.859914978456
1297, 59.889203015158564
1297.5, 59.92674392522372
1298, 59.952747278227
1298.5, 59.97992537510871
1299, 60.015423058154866
1299.5, 60.05864512547153
1300, 60.11007605366099
1300.5, 60.14490528496235
1301, 60.11715178497187
1301.5, 60.084045234036346
1302, 60.018185473828375
1302.5, 59.993149542021825
1303, 59.984611981685845
1303.5, 59.99650551139761
1304, 60.013643448555314
1304.5, 60.030900263716475
1305, 60.04358879103489
1305.5, 60.04355593130427
1306, 60.040536222280714
1306.5, 60.030943139519216
1307, 60.047370205571966
1307.5, 60.08407486002303
1308, 60.121875428528064
1308.5, 60.16379520198788
1309, 60.15568050235221
1309.5, 60.14746866847736
1310, 60.13819091811673
1310.5, 60.12543332326536
1311, 60.097549519634896
1311.5, 60.0500144844156
1312, 59.977230778729144
1312.5, 59.86392866584601
1313, 59.72572491867674
1313.5, 59.52585449875882
1314, 59.339745659483306
1314.5, 59.05323787430285
1314.9999999999998, 58.84646455791038
1315.5, 58.62075365186123
1316, 58.495425553969774
1316.5, 58.38820474321311
1317, 58.33534049832848
1317.5, 58.28580752668409
1318, 58.30270291180562
1318.4999999999998, 58.3256202630759
1319, 58.39026276424954
1319.5, 58.417919454929724
1320, 58.40885808749254
1320.5, 58.37680289977354
1321, 58.322109017246085
1321.5, 58.415633071931424
1321.9999999999998, 58.54518223507558
1322.5, 58.754278794679664
1323, 58.926414488605566
1323.5, 59.08395658022902
1324, 59.199551308924605
1324.5, 59.3311876154171
1325, 59.40355362414504
1325.5, 59.465881117744324
1326, 59.46608184537167
1326.5, 59.456601351916774
1326.9999999999998, 59.41305521670644
1327.5, 59.374859829476534
1328, 59.328211281649956
1328.5, 59.31960774720944
1329, 59.35762409053616
1329.5, 59.42747344637067
1330, 59.53642820913366
1330.4999999999998, 59.65130857839363
1331, 59.77385265853965
1331.5, 59.79211738422235
1332, 59.786181620515194
1332.5, 59.68485472295979
1333, 59.61110426823594
1333.5, 59.536530483097316
1334, 59.492664706565336
1334.5, 59.44717400279806
1335, 59.41505477322944
1335.4999999999998, 59.381607537824976
1336, 59.355155737804104
1336.5, 59.33737640435799
1337, 59.33712495603831
1337.5, 59.34726423206682
1338, 59.375503012076706
1338.5, 59.413199001082155
1338.9999999999998, 59.46747345625557
1339.5, 59.53527888643974
1340, 59.61019141846791
1340.5, 59.67197024923228
1341, 59.709854203365204
1341.5, 59.69192807860609
1342, 59.656229699670604
1342.4999999999998, 59.58116801460095
1343, 59.52702232640563
1343.5, 59.463565251230726
1344, 59.4857937948737
1344.5, 59.5194900570549
1345, 59.563150526528744
1345.5, 59.5678131120523
1346, 59.42987881126288
1346.5, 59.29853437052312
1347, 59.11171074763013
1347.4999999999998, 59.031347374690355
1348, 58.96758782462592
1348.5, 59.06071767462584
1349, 59.17889004058785
1349.5, 59.329303560418786
1350, 59.43442418650485
1350.5, 59.4721873010551
1350.9999999999998, 59.46749972339131
1351.5, 59.410888393594654
1352, 59.36084050480574
1352.5, 59.2976934981846
1353, 59.31501941788344
1353.5, 59.33456022393018
1354, 59.27276648712902
1354.5, 59.2109277394974
1355, 59.099362728488856
1355.5, 59.036748124335084
1355.9999999999998, 59.00004839780268
1356.5, 58.992119877617974
1357, 58.99191655611949
1357.5, 59.05056707156834
1358, 59.110862857911265
1358.5, 59.08455025397365
1359, 59.04530912286011
1359.4999999999998, 58.934334756279604
1360, 58.83945615783763
1360.5, 58.718427342205175
1361, 58.67036883712103
1361.5, 58.63406136655
1362, 58.71079679477332
1362.5, 58.803710467839224
1362.9999999999998, 58.92897938718071
1363.5, 59.05141444120274
1364, 59.274373362088426
1364.5, 59.42741701507941
1365, 59.57561065914651
1365.5, 59.634689223619716
1366, 59.6797731719019
1366.5, 59.691584382382736
1367, 59.691704796780044
1367.5, 59.5848719649273
1367.9999999999998, 59.489307165281794
1368.5, 59.34996160537543
1369, 59.24688152213102
1369.5, 59.135580699731925
1370, 59.04571724295899
1370.5, 58.9387436174842
1371, 58.76911775702695
1371.4999999999998, 58.59138331064648
1372, 58.44808918407439
1372.5, 58.37867723090081
1373, 58.46219440669015
1373.5, 58.52642586957854
1374, 58.600590953288076
1374.5, 58.61041836070217
1374.9999999999998, 58.60170456533998
1375.5, 58.62282024835677
1376, 58.651789887994255
1376.5, 58.73251014213572
1377, 58.80501144994661
1377.5, 58.916089076815815
1378, 59.03072016837746
1378.5, 59.19809996341809
1379, 59.31058291238777
1379.5, 59.43523639547027
1379.9999999999998, 59.46511420404563
1380.5, 59.487135960403585
1381, 59.478297217173775
1381.5, 59.468146831356705
1382, 59.44877712856475
1382.5, 59.476795318793336
1383, 59.56103108380548
1383.4999999999998, 59.65174260032024
1384, 59.766893552055876
1384.5, 59.84256303268036
1385, 59.90393584112154
1385.5, 59.841302444340144
1386, 59.77342114684873
1386.5, 59.642033509461
1387, 59.599078460185474
1387.5, 59.61882200021888
1388, 59.64580724109105
1388.4999999999998, 59.68119943870861
1389, 59.675166354732866
1389.5, 59.66793023097398
1390, 59.66780702520143
1390.5, 59.66175533105709
1391, 59.6341626222241
1391.5, 59.59112292076345
1391.9999999999998, 59.51676586016012
1392.5, 59.45050847523345
1393, 59.371142779687645
1393.5, 59.32076818899568
1394, 59.27859042742511
1394.5, 59.29647391705379
1395, 59.32037180501208
1395.4999999999998, 59.37615368977308
1396, 59.43008004720636
1396.5, 59.50411948634954
1397, 59.57042163137252
1397.5, 59.64959629603153
1398, 59.6917265327235
1398.5, 59.72986753694537
1399, 59.74780737848023
1399.5, 59.73349421408393
1400, 59.63102326815152
