294, 49.256571298112085
294.5, 49.31882293438668
295, 49.33300140802376
295.5, 49.350445672900854
296, 49.36973101600012
296.5, 49.38943272430371
297, 49.40812608479375
297.5, 49.42438638445239
298, 49.43783976205327
298.5, 49.452677225157686
299, 49.44224632148665
299.5, 49.362863996012535
300, 49.26814511563673
300.5, 49.16188043248436
301, 49.047860698680566
301.5, 48.92987666635053
302, 48.81171908761938
302.5, 48.69717871461226
303, 48.590046299454336
303.5, 48.494112594270746
304, 48.413168351186634
304.5, 48.39434183007239
305, 48.42486346651136
305.5, 48.46981482489023
306, 48.50926559673664
306.5, 48.55013786841484
307, 48.57702472132988
307.5, 48.601056800956535
308, 48.63849250601172
308.5, 48.67100440262829
309, 48.71786562542143
309.5, 48.75672146365917
310, 48.800952767568866
310.5, 48.84755031325666
311, 48.898079464812795
311.5, 48.960688191179884
312, 49.01100969874407
312.5, 49.067268588141715
313, 49.11095183602591
313.5, 49.16714961791574
314, 49.213930296223815
314.5, 49.26667549998126
315, 49.32188199374497
315.5, 49.3790662339267
316, 49.43317178415465
316.5, 49.479627610322765
317, 49.545380630238085
317.5, 49.59628985557607
318, 49.66176746113619
318.5, 49.716497719355566
319, 49.777644493665356
319.5, 49.83381507689412
320, 49.89058986390121
320.5, 49.94500502531814
321, 49.995405603893325
321.5, 50.079507156392665
322, 50.136070719288576
322.5, 50.19134939695481
323, 50.23080548104023
323.5, 50.2748571860391
324, 50.33058412657816
324.5, 50.38868147039711
325, 50.461325824711594
325.5, 50.51779027839614
326, 50.58325275270411
326.5, 50.6326301096285
327, 50.68789499483383
327.5, 50.745389080208994
328, 50.81535492797289
328.5, 50.872623470375366
329, 50.92958037371281
329.5, 50.993476004961565
330, 51.044598905092904
330.5, 51.1101517313329
331, 51.15937376696299
331.5, 51.21444650085648
332, 51.26026930331755
332.5, 51.31234258973248
333, 51.377533364180444
333.5, 51.44331797583292
334, 51.52576595346725
334.5, 51.5914299868596
335, 51.67585511532889
335.5, 51.73575401631837
336, 51.79969902826841
336.5, 51.82826796034545
337, 51.85414872076841
337.5, 51.91136998020368
338, 51.97128346764139
338.5, 52.063115259095156
339, 52.12812430668367
339.5, 52.193799341759885
340, 52.24751869953191
340.5, 52.31137424868298
341, 52.36543200015496
341.5, 52.42524751700875
342, 52.49200347501202
342.5, 52.55603075251056
343, 52.62980657507529
343.5, 52.682122936654515
344, 52.73830537870068
344.5, 52.798713635678276
345, 52.88073439140946
345.5, 52.95721743101164
346, 53.04187585149289
346.5, 53.100607659532564
347, 53.157961733117006
347.5, 53.23204869491613
348, 53.295789982008294
348.5, 53.38972247970453
349, 53.456798134200916
349.5, 53.52894568220017
350, 53.583737282587485
350.5, 53.64360118318137
351, 53.70481282744746
351.5, 53.757863368043616
352, 53.822810400722794
352.5, 53.87687162301168
353, 53.951887337805864
353.5, 54.023636396782
354, 54.113806174214766
354.5, 54.184790608835016
355, 54.25990694170304
355.5, 54.304304242591435
356, 54.34473965676633
356.5, 54.40993895268493
357, 54.47050500760884
357.5, 54.564395265554275
358, 54.631236155025206
358.5, 54.702633273347956
359, 54.76476491581227
359.5, 54.83263844970786
360, 54.91227699389635
360.5, 54.97993706191165
361, 55.06392052416321
361.5, 55.12952453781496
362, 55.213968367588095
362.5, 55.283721072343766
363, 55.36380406597354
363.5, 55.441440974654505
364, 55.525171275695236
364.5, 55.6142050383524
365, 55.685393882731226
365.5, 55.76024272690659
366, 55.81847480542339
366.5, 55.893454863330476
367, 55.961107206136745
367.5, 56.04083113801494
368, 56.11166381781397
368.5, 56.18779746251827
369, 56.286193407983866
369.5, 56.3663497214215
370, 56.46005974286792
370.5, 56.522030446064804
371, 56.58758875765044
371.5, 56.659134961110375
372, 56.74734710390117
372.5, 56.83462610270203
373, 56.923454848904065
373.5, 56.99566124310952
374, 57.05473704907017
374.5, 57.12987597399911
375, 57.184392636908264
375.5, 57.24988677666381
376, 57.30465871413903
376.5, 57.365773019453954
377, 57.42952910742109
377.5, 57.494469062751726
378, 57.557857536251156
378.5, 57.60902077302393
379, 57.674025922961214
379.5, 57.74370536263038
380, 57.84578766472416
380.5, 57.93478711811558
381, 58.04056853633897
381.5, 58.099162766809165
382, 58.15472843951197
382.5, 58.20039450922713
383, 58.247788161718546
383.5, 58.340914361802035
384, 58.434004234857326
384.5, 58.56345174070388
385, 58.66384505902965
385.5, 58.77766105238585
386, 58.86025162095412
386.5, 58.938593966959445
387, 59.00267962903949
387.5, 59.06042988274033
388, 59.15378875371386
388.5, 59.24315455540716
389, 59.36290158705246
389.5, 59.437583825661854
390, 59.515899821053885
390.5, 59.57350456565612
391, 59.63244153411688
391.5, 59.71489797481761
392, 59.78302287190881
392.5, 59.87669635717016
393, 59.95324267000674
393.5, 60.04482146187441
394, 60.11527956409868
394.5, 60.192857433622244
395, 60.266905490416356
395.5, 60.34428317881975
396, 60.46377841525074
396.5, 60.558687535448534
397, 60.680853662600356
397.5, 60.75746436526127
398, 60.82997822068632
398.5, 60.898214518675104
399, 60.974967090236746
399.5, 61.09204984830031
400, 61.201276433127184
400.5, 61.31194058685133
401, 61.38503823582711
401.5, 61.450834024516425
402, 61.500008578954365
402.5, 61.554379079570694
403, 61.634073301843266
403.5, 61.72714932746186
404, 61.828563353471345
404.5, 61.91977249696944
405, 62.00309761837423
405.5, 62.06520948341611
406, 62.140450232271135
406.5, 62.18741124941627
407, 62.2322860746721
407.5, 62.31041754594173
408, 62.40447839498028
408.5, 62.50925666295567
409, 62.595987216589116
409.5, 62.67951350276292
410, 62.75125732438836
410.5, 62.85442350202126
411, 62.94937174420358
411.5, 63.066486869896195
412, 63.18066910673847
412.5, 63.30790837596621
413, 63.43993986366463
413.5, 63.551461020402314
414, 63.68165413187228
414.5, 63.77129414713723
415, 63.86522794190063
415.5, 63.94262990044262
416, 64.03207493227714
416.5, 64.1306866807247
417, 64.24060102886408
417.5, 64.36446306983058
418, 64.46462327680453
418.5, 64.5672426919279
419, 64.64092856172803
419.5, 64.72540539529032
420, 64.79518865119547
420.5, 64.87525334205503
421, 64.95280780621881
421.5, 65.0370376683891
422, 65.13493460737196
422.5, 65.21367890656227
423, 65.29791161186972
423.5, 65.3668966934324
424, 65.46063162529444
424.5, 65.53832651095067
425, 65.62677260612347
425.5, 65.70582651228376
426, 65.78844195654489
426.5, 65.86931997445691
427, 65.94771421008488
427.5, 66.0883881152931
428, 66.2049269005547
428.5, 66.36422052349491
429, 66.4628286827174
429.5, 66.55886104738163
430, 66.65326317405109
430.5, 66.75534610067565
431, 66.89930363459904
431.5, 67.02237970684396
432, 67.19141306179195
432.5, 67.30790956772962
433, 67.43900547495893
433.5, 67.51953623806371
434, 67.59757470534963
434.5, 67.66932357708869
435, 67.74575827628479
435.5, 67.85419772503757
436, 67.94047053501023
436.5, 68.043061610394
437, 68.12707829851969
437.5, 68.22882763482781
438, 68.30038529189434
438.5, 68.3796387024982
439, 68.4831040495006
439.5, 68.5910634910322
440, 68.72714943169348
440.5, 68.81923246486598
441, 68.88469504806397
441.5, 68.93846879987571
442, 69.00302612781654
442.5, 69.09825562310266
443, 69.22047369611876
443.5, 69.342640713701
444, 69.46250327070457
444.5, 69.58129799665831
445, 69.67846275647793
445.5, 69.80963197048276
446, 69.90368876937391
446.5, 70.004530067871
447, 70.08231500247378
447.5, 70.169132439663
448, 70.25930491888168
448.5, 70.34820201790221
449, 70.44893414872114
449.5, 70.51910893129259
450, 70.5848424644756
450.5, 70.62965328497184
451, 70.67524923419943
451.5, 70.74517695365468
452, 70.83114141191297
452.5, 70.92202736809283
453, 71.01172474887781
453.5, 71.12205219185164
454, 71.20408319405672
454.5, 71.29798664706985
455, 71.36547319407522
455.5, 71.43824495363704
456, 71.50646937893704
456.5, 71.58330162898864
457, 71.66703647290065
457.5, 71.74434117745407
458, 71.81816818281199
458.5, 71.87040176571976
459, 71.92668230538915
459.5, 71.9775873110649
460, 72.04123503398993
460.5, 72.10223439004508
461, 72.16993670854683
461.5, 72.2291017188813
462, 72.28196265095826
462.5, 72.32825191172806
463, 72.36141433389075
463.5, 72.39901999530487
464, 72.42495820468372
464.5, 72.45195801347565
465, 72.49464096003261
465.5, 72.54655159422663
466, 72.62508519990251
466.5, 72.69640200172398
467, 72.79836805414972
467.5, 72.86708405180245
468, 72.93313807699889
468.5, 72.95165749981143
469, 72.95099569806362
469.5, 72.93013867543002
470, 72.90579196945795
470.5, 72.90578908453665
471, 72.91850961676043
471.5, 72.99296421038628
472, 73.05142850973319
472.5, 73.1266593245462
473, 73.16762778517608
473.5, 73.20302035644156
474, 73.2271476016343
474.5, 73.25245468065569
475, 73.27900887876636
475.5, 73.29986612438591
476, 73.31857499388698
476.5, 73.3394893707345
477, 73.37686469602981
477.5, 73.4293652003903
478, 73.50089295165536
478.5, 73.59235018298918
479, 73.69164708717247
479.5, 73.78079393338312
480, 73.8481731795768
480.5, 73.90432895730292
481, 73.94827533088976
481.5, 74.00460000139769
482, 74.03468305369283
482.5, 74.06091249625662
483, 74.07686491864698
483.5, 74.09602311162841
484, 74.14964279482822
484.5, 74.20040441487389
485, 74.28477375314111
485.5, 74.34660279871001
486, 74.42152273147764
486.5, 74.48945832424049
487, 74.5687035878834
487.5, 74.61094041185774
488, 74.65025178122701
488.5, 74.66854397206531
489, 74.69125176885329
489.5, 74.7475857900596
490, 74.78740851163958
490.5, 74.83417533758347
491, 74.87917379117405
491.5, 74.93160152868138
492, 75.00299711144568
492.5, 75.07274938366213
493, 75.10900390615375
493.5, 75.1231859889159
494, 75.09532148327284
494.5, 75.06847918952555
495, 75.03140273172912
495.5, 75.00700408794488
496, 74.98054012868886
496.5, 74.96423494219304
497, 74.94599699368072
497.5, 74.90962690161422
498, 74.87368718951188
498.5, 74.80862663898485
499, 74.73409238217083
499.5, 74.6230302685832
500, 74.50778017586298
500.5, 74.36789848024151
501, 74.27684179380337
501.5, 74.18829561015356
502, 74.09678393531675
502.5, 74.00970048575259
503, 73.85997540152988
503.5, 73.74206230983391
504, 73.6043058629876
504.5, 73.50805088485244
505, 73.40399404479375
505.5, 73.24115391765207
506, 73.07857157180503
506.5, 72.88617603595107
507, 72.7432930395256
507.5, 72.58397569342564
508, 72.45371539497145
508.5, 72.2980821793813
509, 72.16747218849822
509.5, 72.02113174933879
510, 71.86380171741783
510.5, 71.71229371299881
511, 71.54670495544502
511.5, 71.42165387451072
512, 71.27184250703284
512.5, 71.12591173039668
513, 70.93398692960409
513.5, 70.75879474596388
514, 70.56233897012105
514.5, 70.39550914168426
515, 70.23263567398176
515.5, 70.02961942986347
516, 69.87531675900692
516.5, 69.68727765547578
517, 69.56701201041412
517.5, 69.44965235438353
518, 69.33550955647425
518.5, 69.20853556563758
519, 69.07380967995981
519.5, 68.94488968242423
520, 68.78748928692504
520.5, 68.66412752947856
521, 68.50419523363698
521.5, 68.41271299493226
522, 68.33216031862642
522.5, 68.25062626411678
523, 68.15474961510523
523.5, 67.98930585393155
524, 67.850452647229
524.5, 67.71146234725272
525, 67.62608532205071
525.5, 67.56039760497586
526, 67.485924742094
526.5, 67.386671504829
527, 67.26711632660519
527.5, 67.13256435768167
528, 67.01781454876343
528.5, 66.92009822282859
529, 66.7990511005889
529.5, 66.69771500800931
530, 66.55684557765412
530.5, 66.4565937099641
531, 66.34955623946372
531.5, 66.26341002443719
532, 66.16940970905115
532.5, 66.04557794045147
533, 65.94194698984282
533.5, 65.8206623889128
534, 65.73580637457985
534.5, 65.64196353274814
535, 65.5590398273694
535.5, 65.46112170947208
536, 65.36771248197252
536.5, 65.26729650279336
537, 65.16031747849263
537.5, 65.0706602195489
538, 64.95838500858319
538.5, 64.87442589022643
539, 64.7712860033339
539.5, 64.68582480909426
540, 64.58855492255724
540.5, 64.51578012257391
541, 64.44336945873238
541.5, 64.39836506327615
542, 64.36532533093036
542.5, 64.33712425206969
543, 64.30483820233746
543.5, 64.24878683662975
544, 64.1793715186617
544.5, 64.09111280553508
545, 64.00417340084391
545.5, 63.91255607765414
546, 63.804565639017746
546.5, 63.72161965796375
547, 63.637050718641085
547.5, 63.575094305288
548, 63.50023012994166
548.5, 63.44913904740439
549, 63.39707829206885
549.5, 63.311387732096435
550, 63.218688317949855
550.5, 63.09223729617277
551, 63.001902276893716
551.5, 62.92724336057401
552, 62.86600369339461
552.5, 62.792016465422364
553, 62.725531923521025
553.5, 62.64642493039428
554, 62.53480614724576
554.5, 62.421493549931405
555, 62.30327255065027
555.5, 62.21276909983202
556, 62.11003282084167
556.5, 62.02170916378347
557, 61.91099402644989
557.5, 61.81990911489972
558, 61.714897828551926
558.5, 61.6637708371308
559, 61.62103760363643
559.5, 61.62075720167661
560, 61.61433654537642
560.5, 61.58653235924667
561, 61.546077707613
561.5, 61.48142464853545
562, 61.37854880996027
562.5, 61.24857501711263
563, 61.14867585145059
563.5, 61.05958382881719
564, 61.01349434949103
564.5, 60.97289384767414
565, 60.90755161915237
565.5, 60.836065288802594
566, 60.735017467241235
566.5, 60.6694671469002
567, 60.60043556096994
567.5, 60.558992374317945
568, 60.51621979102092
568.5, 60.45194638474776
569, 60.41154489868977
569.5, 60.38341493287011
570, 60.35564913246249
570.5, 60.31910397987372
571, 60.26889555546403
571.5, 60.20906394881061
572, 60.200857753091775
572.5, 60.191306861451835
573, 60.17278455683789
573.5, 60.149916256051675
574, 60.10298697312768
574.5, 60.069335570048054
575, 60.033134111383866
575.5, 59.982242195869716
576, 59.92318732197365
576.5, 59.889777728468616
577, 59.85486481977912
577.5, 59.79927673994617
578, 59.74999407430965
578.5, 59.67492053388197
579, 59.61342184830561
579.5, 59.54113023207492
580, 59.49241254354363
580.5, 59.44237983961378
581, 59.43312643062458
581.5, 59.42312872371944
582, 59.395219578443466
582.5, 59.36427554573882
583, 59.30798936177799
583.5, 59.26188500540196
584, 59.20789747101488
584.5, 59.20183219015773
585, 59.20336806924995
585.5, 59.24698557166584
586, 59.283570428179345
586.5, 59.32076407916037
587, 59.34383927431712
587.5, 59.362747601646525
588, 59.36250227867541
588.5, 59.35328733638109
589, 59.32485210097638
589.5, 59.28993838202474
590, 59.22810540429771
590.5, 59.17535362433682
591, 59.11013139468659
591.5, 59.078669864805974
592, 59.06909540994331
592.5, 59.07742861494634
593, 59.09549889589367
593.5, 59.12548476461777
594, 59.1588935107771
594.5, 59.194472805216
595, 59.218935432330284
595.5, 59.22826436650288
596, 59.22893115665046
596.5, 59.21966698919498
597, 59.195384751838645
597.5, 59.1597050509725
598, 59.135019024278165
598.5, 59.111929527127934
599, 59.11177909772247
599.5, 59.11399489600033
600, 59.123409914098104
600.5, 59.13799375850428
601, 59.16610624518817
601.5, 59.172357935969124
602, 59.17211396131231
602.5, 59.135229846984124
603, 59.09188048148001
603.5, 59.02005467868862
604, 58.968694278595805
604.5, 58.93115748925333
605, 58.91714053318659
605.5, 58.91713136358277
606, 58.887788752181436
606.5, 58.843781687971
607, 58.734984836926934
607.5, 58.62273179998636
608, 58.52314942954735
608.5, 58.455639199595204
609, 58.409360662133466
609.5, 58.34660017552108
610, 58.24440122391795
610.5, 58.143401671933354
611, 58.020273537814425
611.5, 57.90698983468416
612, 57.79263807844769
612.5, 57.665391137886736
613, 57.57183603235227
613.5, 57.47817080486972
614, 57.414133557621106
614.5, 57.349844451663216
615, 57.248506385703905
615.5, 57.11770183019868
616, 56.97913427096011
616.5, 56.84524323226543
617, 56.726406390522044
617.5, 56.63658744332644
618, 56.53350809276184
618.5, 56.45792210922092
619, 56.37541487226683
619.5, 56.27582056782501
620, 56.15453901181783
620.5, 56.03877682729349
621, 55.93253501059223
621.5, 55.859082108369805
622, 55.808934722643635
622.5, 55.762110046107495
623, 55.71927236856009
623.5, 55.66427190382433
624, 55.618122046196724
624.5, 55.56650959417681
625, 55.50867974820828
625.5, 55.45118081496038
626, 55.37762427947041
626.5, 55.32476289795773
627, 55.26846862403584
627.5, 55.2223770946819
628, 55.1676935828482
628.5, 55.108279640503945
629, 55.040135810555405
629.5, 54.94805091685835
630, 54.86147938007546
630.5, 54.76910287600282
631, 54.69397441313166
631.5, 54.590711965496894
632, 54.51100644317304
632.5, 54.420344456341105
633, 54.342574291930156
633.5, 54.25788145103212
634, 54.156426552089265
634.5, 54.063886150757014
635, 53.97129968630728
635.5, 53.90480948415663
636, 53.82955222279889
636.5, 53.782777735623206
637, 53.73789286239401
637.5, 53.706464216912124
638, 53.67152342129266
638.5, 53.61052753251336
639, 53.558712958972
639.5, 53.50309765784314
640, 53.468413909958755
640.5, 53.440278939310026
641, 53.40689585415447
641.5, 53.3617780680118
642, 53.3090752275511
642.5, 53.250830588047755
643, 53.21539937991922
643.5, 53.188651229362456
644, 53.16994437727119
644.5, 53.1427948775136
645, 53.08660962974615
645.5, 53.02983903570573
646, 52.95810545893184
646.5, 52.90270086328865
647, 52.84372488031087
647.5, 52.78168505360533
648, 52.730879814033564
648.5, 52.67490231882691
649, 52.63768700963589
649.5, 52.60009699969263
650, 52.574396284442635
650.5, 52.547853078161076
651, 52.51027557829811
651.5, 52.46743663750318
652, 52.405167253557195
652.5, 52.354481073858594
653, 52.29827983383769
653.5, 52.2477105771978
654, 52.172755167136884
654.5, 52.11063186619132
655, 52.039913618152696
655.5, 51.9911493354403
656, 51.94184561123373
656.5, 51.89697601314799
657, 51.86183757607347
657.5, 51.82440744017
658, 51.812877090335704
658.5, 51.82206732330607
659, 51.85238388986139
659.5, 51.89678632762129
660, 51.8998676043084
660.5, 51.89707977794231
661, 51.86117930275777
661.5, 51.82705009203951
662, 51.770656251954996
662.5, 51.72339446429394
663, 51.657973268364294
663.5, 51.59746070873791
664, 51.527529158158245
664.5, 51.48568952619092
665, 51.44785470233924
665.5, 51.43853077723058
666, 51.42512007052203
666.5, 51.38776164999784
667, 51.361305507730115
667.5, 51.3336419447557
668, 51.30507937658287
668.5, 51.26993377852782
669, 51.229584159781616
669.5, 51.19064883847504
670, 51.163276013745815
670.5, 51.14154569999005
671, 51.113575428762964
671.5, 51.08632860243176
672, 51.04937280650074
672.5, 50.98877170375816
673, 50.91031021805522
673.5, 50.82887898327188
674, 50.74873332576192
674.5, 50.66652147597293
675, 50.60537136267155
675.5, 50.53936381916533
676, 50.520761572366254
676.5, 50.530625326546854
677, 50.57560615169674
677.5, 50.636111220642675
678, 50.701730926806405
678.5, 50.7663349927648
679, 50.83968481619794
679.5, 50.89545181142171
680, 50.96116584159955
680.5, 51.005712236242445
681, 51.05129893007165
681.5, 51.06427397153341
682, 51.073043065352
682.5, 51.06478789065191
683, 51.058040880617355
683.5, 51.05792280952237
684, 51.04761246395965
684.5, 51.01029792371642
685, 50.96579612550144
685.5, 50.90171502025754
686, 50.86711717905925
686.5, 50.83279295201639
687, 50.832612934169575
687.5, 50.83523493573529
688, 50.85362738456457
688.5, 50.8629386161371
689, 50.863153736191414
689.5, 50.84394550212238
690, 50.80729126614353
690.5, 50.756158281079664
691, 50.69703080220491
691.5, 50.63764963233739
692, 50.586388842592335
692.5, 50.549379194623114
693, 50.52917580188223
693.5, 50.51957532236707
694, 50.53168117923946
694.5, 50.559133430506485
695, 50.60919771193665
695.5, 50.66829828680708
696, 50.71213840340702
696.5, 50.74396490165646
697, 50.75322073292966
697.5, 50.757630376356204
698, 50.75768433182364
698.5, 50.752613528049736
699, 50.743528204851636
699.5, 50.73607961363472
700, 50.726552055341365
700.5, 50.69150433532305
701, 50.65956487122957
701.5, 50.61316125673238
702, 50.59866976624925
702.5, 50.61722560164474
703, 50.64834976636206
703.5, 50.69332505331873
704, 50.746953606236055
704.5, 50.803152786652255
705, 50.81219414729043
705.5, 50.803954337047415
706, 50.729369497003965
706.5, 50.68647044337085
707, 50.657633645348945
707.5, 50.74729613836803
708, 50.90943458391624
708.5, 51.04558917559037
709, 51.17921816444517
709.5, 51.18922358453718
710, 51.19700824228332
710.5, 51.21568825682697
711, 51.22391512349643
711.5, 51.224169238021304
712, 51.17421394896682
712.5, 51.09388492352365
713, 50.956342840979005
713.5, 50.81083108885226
714, 50.70310133041883
714.5, 50.631769580958164
715, 50.60360656044168
715.5, 50.58532919572265
716, 50.566620459253635
716.5, 50.53962925042118
717, 50.50432004587921
717.5, 50.46466742088525
718, 50.42559994336292
718.5, 50.407439216482295
719, 50.39493472455218
719.5, 50.38552932041535
720, 50.37797331301435
720.5, 50.36856711925046
721, 50.3840766262409
721.5, 50.410649129034134
722, 50.44269164070645
722.5, 50.47299845704767
723, 50.48216675767466
723.5, 50.487031902010386
724, 50.4869047375779
724.5, 50.49511440212761
725, 50.51376739754674
725.5, 50.540675390566044
726, 50.575839507904846
726.5, 50.59315246971196
727, 50.605768342432285
727.5, 50.58767306657382
728, 50.56802139802413
728.5, 50.53040197221753
729, 50.51681301278839
729.5, 50.51714461900621
730, 50.54137114865738
730.5, 50.57621248281276
731, 50.601159094863725
731.5, 50.62344639053504
732, 50.63260056927893
732.5, 50.63509532916283
733, 50.62593245986895
733.5, 50.605180597467864
734, 50.568188509171435
734.5, 50.52542642661516
735, 50.47323159379104
735.5, 50.511508962362996
736, 50.56309996356198
736.5, 50.70024831752187
737, 50.79270961655129
737.5, 50.867916769329504
738, 50.91582221723595
738.5, 50.96129907757994
739, 51.01200414082946
739.5, 51.07245839037163
740, 51.02416590106498
740.5, 50.97003346857191
741, 50.869095764162054
741.5, 50.81245368090781
742, 50.793382286178
742.5, 50.796585060086315
743, 50.81516603309888
743.5, 50.850245325599204
744, 50.892777800463286
744.5, 50.943663918854284
745, 50.98336677662742
745.5, 50.98345525175106
746, 50.982735572056654
746.5, 50.98249995857968
747, 51.00648952537129
747.5, 51.05231814695105
748, 51.09128973746252
748.5, 51.13353270103307
749, 51.167710678897414
749.5, 51.19360045128301
750, 51.19356832913705
750.5, 51.18456320653608
751, 51.15644066077117
751.5, 51.13342968338231
752, 51.10632558029876
752.5, 51.09649006464057
753, 51.088163871697745
753.5, 51.08813643028711
754.0000000000001, 51.09115317652858
754.5, 51.10972000581843
755, 51.124128978703155
755.5, 51.142791575225985
756, 51.173515190164444
756.5, 51.218723786896895
757, 51.264441158126104
757.5, 51.31491048103106
758, 51.35922234142908
758.5, 51.40464629659
759, 51.49769986987379
759.5, 51.561174381709904
760, 51.62699281390014
760.5000000000001, 51.67075258918419
761, 51.71520229802054
761.5, 51.775544536265855
762, 51.841005710236466
762.5, 51.87677978696661
763, 51.906433393680075
763.5, 51.94387000093549
764, 51.986355031994414
764.5, 52.061390005000824
765, 52.11271265729278
765.5, 52.165766828040155
766, 52.24845787967053
766.5, 52.340829952016065
767, 52.447746797445966
767.5, 52.53205988597572
768, 52.616442305276436
768.5, 52.70279995896097
769, 52.84333727174491
769.5, 52.948696394242994
770, 53.06339001971493
770.5000000000001, 53.12238114845835
771, 53.18071710366116
771.5, 53.24348976750448
772, 53.293620085399326
772.5, 53.349911882766506
773, 53.39320194746945
773.5, 53.44926577334033
774, 53.53026602807716
774.5, 53.63615702305419
775, 53.76173964074822
775.5, 53.89301805743335
776, 54.02821892957426
776.5, 54.1310611678137
777, 54.23445551890638
777.5, 54.31075895295283
778, 54.40426338036426
778.5, 54.48829900374702
779, 54.584347734241796
779.5, 54.649611817449184
780, 54.7170643868369
780.5000000000001, 54.8076033906168
781, 54.883326109567676
781.5, 54.98601324302501
782, 55.065978250995656
782.5, 55.158343840770414
783, 55.23987761899963
783.5, 55.33658159703852
784, 55.42555699731765
784.5, 55.51630275882233
785, 55.62544973190373
785.5, 55.71111141212616
786, 55.81405177945304
786.5, 55.889850832809636
787.0000000000001, 55.97262609456944
787.5, 56.08326597993031
788, 56.22278260951543
788.5, 56.346347587688584
789, 56.4597698346544
789.5, 56.52405727846934
790, 56.57906642512837
790.5, 56.663109913896925
791, 56.74494995850827
791.5, 56.855405366122156
792, 56.916123130074794
792.5, 56.97706842054259
793, 56.98622179733675
793.5, 56.994466986036436
794, 57.003640668751814
794.5, 57.01076806655787
795, 57.01997415025999
795.5, 57.041174140083626
796, 57.07803167754659
796.5, 57.10875482564607
797.0000000000001, 57.143248731806544
797.5, 57.14271841536113
798, 57.15170630141087
798.5, 57.215989023576256
799, 57.26506252917952
799.5, 57.32175804913292
800, 57.33060041247737
800.5, 57.3116403426379
801.0000000000001, 57.315467133291996
801.5, 57.32392680407594
802, 57.32367816415636
802.5, 57.32648746245624
803, 57.3450036548369
803.5000000000001, 57.36800661587008
804.0000000000001, 57.414938885819254
804.5000000000001, 57.44853564930404
805, 57.484721727373774
805.5, 57.52237171459635
806, 57.56442302061044
806.5, 57.57321592408877
807.0000000000001, 57.575312103097616
807.5000000000001, 57.547579215784104
808, 57.52845459052779
808.5, 57.50962131463266
809, 57.49916395218594
809.5, 57.49023110522507
810, 57.483378614863796
810.5000000000001, 57.47271606949342
811.0000000000001, 57.394430664043185
811.5, 57.31974139493151
812, 57.19917685652072
812.5, 57.12244686041282
813, 57.05659784548033
813.5000000000001, 57.00750030804806
814.0000000000001, 56.953746869609624
814.5000000000001, 56.87286664386338
815, 56.78056866120861
815.5, 56.70145927179374
816, 56.656009664877985
816.5, 56.70259444681674
817.0000000000001, 56.74268211232675
817.5000000000001, 56.799379351992506
818, 56.782795904531646
818.5, 56.72800357793929
819, 56.666926647786724
819.5, 56.60010019707825
820.0000000000001, 56.53779995618296
820.5000000000001, 56.4786206929247
821.0000000000001, 56.37591919103871
821.5, 56.298965047399285
822, 56.20505413114161
822.5, 56.143653588244334
823, 56.08178686672489
823.5000000000001, 56.01970389976444
824.0000000000001, 55.95285527497285
824.5, 55.88148900800277
825, 55.82355980787542
825.5, 55.75798388469908
826, 55.70041929699314
826.5, 55.61621789027031
827.0000000000001, 55.518523778117576
827.5000000000001, 55.39439098676
828, 55.276070138418945
828.5, 55.152773134183
829, 55.03606254401515
829.5, 54.943446744567495
830.0000000000001, 54.8402535210935
830.5000000000001, 54.76408465891847
831.0000000000001, 54.67053385628506
831.5, 54.56410974410297
832, 54.43194099589021
832.5, 54.32651478077908
833, 54.224300252763044
833.5000000000001, 54.169735937001995
834.0000000000001, 54.11964950861247
834.5, 54.03499685192612
835, 53.954406893546114
835.5, 53.832894942454324
836, 53.754675804921234
836.5000000000001, 53.67656915890209
837.0000000000001, 53.65002126937673
837.5000000000001, 53.625212067016555
838, 53.5979192975631
838.5, 53.56746870279848
839, 53.50238089584628
839.5, 53.436829740369504
840.0000000000001, 53.34417407495227
840.5000000000001, 53.30956492876905
841.0000000000001, 53.28302300453804
841.5, 53.243833645553856
842, 53.19740508987517
842.5, 53.0976214969902
843, 53.02599829942336
843.5000000000001, 52.96091346702552
844.0000000000001, 52.881824065870816
844.5, 52.761547272703325
845, 52.62608386985827
845.5, 52.460503561178754
846, 52.265976747672696
846.5000000000001, 52.069219428141054
847.0000000000001, 51.831813889601186
847.5000000000001, 51.65862916978186
848, 51.48042112451684
848.5, 51.35667179174332
849, 51.22856212059647
849.5, 51.08424081760338
850.0000000000001, 50.91132767892164
850.5000000000001, 50.68128226103933
851, 50.46359722122499
851.5, 50.27094860557714
852, 50.14133020451766
852.5, 50.02856046051794
853.0000000000001, 49.95444768767511
853.5000000000001, 49.88164236909086
854.0000000000001, 49.78205338245755
854.5, 49.661948327256155
855, 49.52872542247193
855.5, 49.406615529796795
856, 49.305295737072875
856.5000000000001, 49.233763199872456
857.0000000000001, 49.158593697685994
857.5000000000001, 49.10625054226755
858, 49.05182192406372
858.5, 48.927326257706284
859, 48.774278874203354
859.5, 48.6143207012602
860.0000000000001, 48.473526819517296
860.5000000000001, 48.37184004006067
861, 48.29850707409226
861.5, 48.214110049370575
862, 48.1353287764286
862.5, 48.035375281043656
863.0000000000001, 47.9565914446028
863.5000000000001, 47.87240559985923
864.0000000000001, 47.84713984399977
864.5, 47.82459504949148
865, 47.806122757774354
865.5, 47.80021697021853
866, 47.80935209633047
866.5000000000001, 47.84176742139634
867.0000000000001, 47.89641396568569
867.5000000000001, 47.936642974985176
868, 47.977690986737564
868.5, 47.96929493628891
869, 47.953825742892825
869.5, 47.898172931990466
870.0000000000001, 47.86311593901836
870.5000000000001, 47.83460267138586
871, 47.85227669310745
871.5, 47.89795316357206
872, 47.95043038050411
872.5, 48.010013351115845
873.0000000000001, 48.08038080471802
873.5000000000001, 48.13431049062329
874.0000000000001, 48.17139415099077
874.5, 48.17498382436192
875, 48.137440688747894
875.5, 48.12773662768552
876, 48.12807422580524
876.5000000000001, 48.170347470657894
877.0000000000001, 48.21973686148999
877.5, 48.25529108335464
878, 48.28000408635006
878.5, 48.28941160844051
879, 48.30657524460735
879.5000000000001, 48.343987727141986
880.0000000000001, 48.385858902896445
880.5000000000001, 48.439310550061144
881, 48.51476910605853
881.5, 48.59988615978812
882, 48.715760138115414
882.5, 48.8149130757701
883.0000000000001, 48.94599106669041
883.5000000000001, 49.04802581455684
884.0000000000001, 49.17928968527496
884.5, 49.2770411708535
885, 49.38279417708898
885.5, 49.46417667515367
886, 49.54083799049052
886.5000000000001, 49.54153799965673
887.0000000000001, 49.54849659850961
887.5, 49.58616313234054
888, 49.64411664610798
888.5, 49.756359102116626
889, 49.83281746090431
889.5000000000001, 49.911448629863315
890.0000000000001, 49.983379637085456
890.5000000000001, 50.05616293353464
891, 50.11927256027757
891.5, 50.160653662250205
892, 50.179556305974636
892.5, 50.20910757817995
893.0000000000001, 50.267827443360396
893.5000000000001, 50.42065295734099
894.0000000000001, 50.63162227929292
894.5, 50.84672550007635
895, 51.0523118797403
895.5, 51.152552980012594
896.0000000000001, 51.21872547769358
896.5000000000001, 51.26495930981116
897.0000000000001, 51.33191486470182
897.5, 51.44337396656419
898, 51.53422755163818
898.5, 51.63987187304397
899, 51.6669113284158
899.5000000000001, 51.6935712150179
900.0000000000001, 51.73909500612845
900.5000000000001, 51.78271205682618
901, 51.85759027304551
901.5, 51.91025485873684
902, 51.9653674870156
902.5, 52.01706175757968
903.0000000000001, 52.07807642680689
903.5000000000001, 52.15133134602365
904, 52.222201650129705
904.5, 52.28625717353138
905, 52.33698022884042
905.5, 52.40232975264895
906.0000000000001, 52.46905655643718
906.5000000000001, 52.561116775933115
907.0000000000001, 52.64384071673493
907.5, 52.73913299148029
908, 52.812957212536666
908.5, 52.89152267819483
909, 53.019921133775874
909.5000000000001, 53.1274744506715
910.0000000000001, 53.2777844423692
910.5000000000001, 53.36858581155036
911, 53.450287304134385
911.5, 53.49388908117609
912, 53.53696970696217
912.5000000000001, 53.57802469319212
913.0000000000001, 53.62327324349874
913.5000000000001, 53.7059765304801
914, 53.76084606092437
914.5, 53.8076910037963
915, 53.85561856776213
915.5, 53.919524247861176
916.0000000000001, 54.02591921700278
916.5000000000001, 54.1534268131351
917.0000000000001, 54.30408164854399
917.5, 54.449312070388025
918, 54.62493381792159
918.5, 54.77354446031512
919, 54.989260297809984
919.5000000000001, 55.175523751073754
920.0000000000001, 55.40242146796598
920.5000000000001, 55.576841759962534
921, 55.76242151845654
921.5, 55.88994404959106
922, 55.99590758692641
922.5000000000001, 56.05139924568302
923.0000000000001, 56.070896633556394
923.5000000000001, 56.05235664866676
924, 56.02231014718492
924.5, 55.976852781100206
925, 55.97856706980074
925.5, 55.986635919030846
926.0000000000001, 55.9866294389526
926.5000000000001, 55.98213885114786
927.0000000000001, 55.954342301237304
927.5, 55.94140535288295
928, 55.94120758592382
928.5, 55.96172998371166
929.0000000000001, 55.99799253076528
929.5000000000001, 56.06955009346519
930.0000000000001, 56.15621888079147
930.5, 56.29676284874227
931, 56.40983492371549
931.5, 56.51228097664626
932, 56.589204754882914
932.5000000000001, 56.68294805991447
933.0000000000001, 56.78121786799053
933.5000000000001, 56.90670190951656
934, 56.98119620049236
934.5, 57.05612920469531
935, 57.1184423938246
935.5, 57.1724019429368
936.0000000000001, 57.24706560802133
936.5000000000001, 57.29561710533136
937.0000000000001, 57.34268358278467
937.5, 57.3599988285215
938, 57.368409188401124
938.5, 57.41137323158845
939.0000000000001, 57.464672646137096
939.5000000000001, 57.57136106392002
940.0000000000001, 57.65780209989119
940.5, 57.75138629029692
941, 57.81385526905022
941.5, 57.87951803657864
942, 57.93385747946267
942.5000000000001, 57.99571963411983
943.0000000000001, 58.00700447268721
943.5000000000001, 58.0168183985651
944, 58.04394722187103
944.5, 58.08787142486464
945, 58.21913486363479
945.5000000000001, 58.31022705308242
946.0000000000001, 58.41331691050698
946.5000000000001, 58.4819134632353
947.0000000000001, 58.551855117239185
947.5, 58.5636384409844
948, 58.569881304112975
948.5, 58.55230187005935
949.0000000000001, 58.56010780228562
949.5000000000001, 58.6447597150095
950.0000000000001, 58.73286465702765
950.5, 58.87304059497019
951, 58.955376302904696
951.5, 59.03309317434233
952, 59.12016408717155
952.5000000000001, 59.21378383054069
953.0000000000001, 59.34968629244784
953.5000000000001, 59.46873576224217
954, 59.64614668210905
954.5, 59.782869437953266
955, 59.93978848265694
955.5000000000001, 60.0094880573446
956.0000000000001, 60.07124542484949
956.5000000000001, 60.1434571580949
957, 60.21776557879343
957.5, 60.308651564817275
958, 60.370677256723965
958.5, 60.41776954918591
959.0000000000001, 60.43498717053309
959.5000000000001, 60.434575879469975
960.0000000000001, 60.47083560021256
960.5, 60.52294186594881
961, 60.595877193526995
961.5, 60.66773334215576
962.0000000000001, 60.74078601695313
962.5000000000001, 60.787408358350376
963.0000000000001, 60.8160661346587
963.5000000000001, 60.799714870608526
964, 60.74386388309396
964.5, 60.72290598586974
965, 60.70515288111256
965.5000000000001, 60.801630500001444
966.0000000000001, 60.90158027797516
966.5000000000001, 61.03902137811001
967, 61.13312415955304
967.5, 61.217537190218025
968, 61.2867067769996
968.5, 61.36898800523419
969.0000000000001, 61.47641963312957
969.5000000000001, 61.6050906191468
970.0000000000001, 61.73056290081378
970.5, 61.840749783609866
971, 61.905262008176805
971.5, 61.9420963860785
972.0000000000001, 61.96091346169404
972.5000000000001, 61.97645569708538
973.0000000000001, 61.99464333262077
973.5000000000001, 62.04934696666532
974, 62.11721544651807
974.5, 62.217816779945274
975, 62.3136776543909
975.5000000000001, 62.424754066409406
976.0000000000001, 62.534420997437785
976.5000000000001, 62.722487966036134
977, 62.827581839496425
977.5, 62.9173855324218
978, 62.901677235427194
978.5, 62.86858279338133
979.0000000000001, 62.876347733227725
979.5000000000001, 62.89486598989215
980.0000000000001, 62.96937946751775
980.5, 63.08292875785315
981, 63.33592991374194
981.5, 63.5680627042005
982.0000000000001, 63.857404459885885
982.5000000000001, 63.99740606263354
983.0000000000001, 64.13259676582541
983.5, 64.22077323063095
984, 64.29428055987151
984.5, 64.37771605832638
985, 64.42259927120308
985.5000000000001, 64.44181974103319
986.0000000000001, 64.41154569530222
986.5000000000001, 64.34773031307249
987, 64.36092801778396
987.5, 64.38931385963767
988, 64.494295516661
988.5000000000001, 64.57433298297012
989.0000000000001, 64.62093968665917
989.5000000000001, 64.66067663233223
990.0000000000001, 64.71694119879683
990.5, 64.76858274387754
991, 64.83119670485256
991.5, 64.87905140505427
992.0000000000001, 64.92860941714513
992.5000000000001, 64.96424003604
993.0000000000001, 64.99235561644045
993.5, 65.02048474875517
994, 65.05868512371418
994.5, 65.13349734617566
995, 65.22255827554748
995.5000000000001, 65.33847486093951
996.0000000000001, 65.4479970132003
996.5000000000001, 65.56435983325593
997, 65.68037034165758
997.5, 65.76814774930419
998, 65.8431184993473
998.5000000000001, 65.90799832312565
999.0000000000001, 66.00154293056829
999.5000000000001, 66.11249347722574
1000.0000000000001, 66.25440007701523
1000.5, 66.3304248881456
1001, 66.40208653063708
1001.5, 66.43837693086002
1002.0000000000001, 66.47349154539432
1002.5000000000001, 66.53909107104374
1003.0000000000001, 66.57556694233674
1003.5, 66.60372788880221
1004, 66.62727430211592
1004.5, 66.65351632758146
1005.0000000000001, 66.70636564813111
1005.5000000000001, 66.77079148344788
1006.0000000000001, 66.91465894707841
1006.5000000000001, 67.0297623659484
1007, 67.16126589082268
1007.5, 67.23649784625542
1008, 67.30198376819916
1008.5000000000001, 67.39768769571302
1009.0000000000001, 67.52047327139451
1009.5000000000001, 67.58028333326853
1010, 67.6327763883524
1010.5, 67.642162375098
1011, 67.65295666866217
1011.5, 67.68041007700613
1012.0000000000001, 67.73619349787822
1012.5000000000001, 67.83847783937253
1013.0000000000001, 67.93959132425334
1013.5, 68.06262973389376
1014, 68.12084707996664
1014.5, 68.18490672397083
1015.0000000000001, 68.31232493956747
1015.5000000000001, 68.43163410627797
1016.0000000000001, 68.62851750407961
1016.5000000000001, 68.74632576918626
1017, 68.84680858162912
1017.5, 68.87578734597423
1018, 68.89340416427592
1018.5000000000001, 68.94153235297777
1019.0000000000001, 68.99006018559035
1019.5000000000001, 69.04474594865613
1020, 69.07158534076213
1020.5, 69.06223334376918
1021, 69.05912029425785
1021.5000000000001, 69.05920123275324
1022.0000000000001, 69.0720363231087
1022.5000000000001, 69.08895689249914
1023.0000000000001, 69.22577665869585
1023.5, 69.37421386260816
1024, 69.6213979256298
1024.5, 69.77818906006102
1025, 69.8817881252267
1025.5, 69.93920385241806
1026, 69.98436769471235
1026.5, 70.0545155891639
1027, 70.14026318760047
1027.5, 70.21518825350093
1028, 70.28620574669748
1028.5, 70.35994538072164
1029, 70.42073242884373
1029.5, 70.50534404926397
1030, 70.55564604147231
1030.5, 70.60081061506607
1031, 70.63293528887986
1031.5, 70.66698542464174
1032, 70.71638409867714
1032.5, 70.77551071929847
1033, 70.9049440236951
1033.5, 71.02672822277735
1034, 71.22401062025719
1034.5, 71.35628228818872
1035, 71.49171294687098
1035.5, 71.58162496589532
1036, 71.67454671381046
1036.5, 71.758910168486
1037, 71.83998449861151
1037.5, 71.94188001295397
1038, 72.01577140385875
1038.5, 72.1004583587013
1039, 72.14999270824993
1039.5, 72.19468576384944
1040, 72.2606946514233
1040.5, 72.33529339939368
1041, 72.35316148283637
1041.5, 72.35430265921002
1042, 72.28935959780506
1042.5, 72.25001563000303
1043, 72.22137934661585
1043.5, 72.25456893054246
1044, 72.3274264204425
1044.5, 72.41721325985299
1045, 72.51829190842203
1045.5, 72.61558652375327
1046, 72.70465499824572
1046.5, 72.84436980348956
1047, 72.94784522048735
1047.5, 73.07018226459523
1048, 73.12322336197823
1048.5, 73.15809707276907
1049, 73.13911282361597
1049.5, 73.11827887606907
1050, 73.17104194267037
1050.5, 73.22369111655733
1051, 73.31706746511468
1051.5, 73.38313750847891
1052, 73.45818402276176
1052.5, 73.52558680818885
1053, 73.60561921741494
1053.5, 73.64759565486241
1054, 73.69002748736187
1054.5, 73.74349756408216
1055, 73.78465730612528
1055.5, 73.8220677810478
1056, 73.84113202583242
1056.5, 73.85067455609388
1057, 73.83064905085146
1057.5, 73.79485053518074
1058, 73.75535895151603
1058.5, 73.71650611182339
1059, 73.70721062945299
1059.5, 73.6942925427514
1060, 73.65684220599786
1060.5, 73.6420214125803
1061, 73.64188965835612
1061.5, 73.65893230388163
1062, 73.68558213090049
1062.5, 73.69403769103845
1063, 73.70610443227757
1063.5, 73.75977941678445
1064, 73.78787397395699
1064.5, 73.76891814535928
1065, 73.71289325384558
1065.5, 73.59153302706744
1066, 73.52496927974168
1066.5, 73.46468749520099
1067, 73.40092554617226
1067.5, 73.33454275526584
1068, 73.25332216105541
1068.5, 73.21523541956476
1069, 73.2523406246808
1069.5, 73.2908553319211
1070, 73.34644774440926
1070.5, 73.3744733259686
1071, 73.40071664572962
1071.5, 73.50365872879068
1072, 73.60355028345049
1072.5, 73.66721795976775
1073, 73.69028791858375
1073.5, 73.64339565912401
1074, 73.62248180178943
1074.5, 73.6136026748804
1075, 73.64248545400342
1075.5, 73.68593115371351
1076, 73.7188499179312
1076.5, 73.7513076418224
1077, 73.78782070941689
1077.5, 73.81032127863817
1078, 73.82046893208097
1078.5, 73.77105867640104
1079, 73.65982002524885
1079.5, 73.58016314682168
1080, 73.49347076531451
1080.5, 73.44336347641341
1081, 73.39602353729265
1081.5, 73.35011896334424
1082, 73.31640328257693
1082.5, 73.27890067639756
1083, 73.248299216965
1083.5, 73.21172652611568
1084, 73.20017565969854
1084.5, 73.1914040677596
1085, 73.21601681850356
1085.5, 73.2412684750143
1086, 73.27805120339976
1086.5, 73.30184762883745
1087, 73.32068546646015
1087.5, 73.3312052552425
1088, 73.34024821988388
1088.5, 73.29578164862772
1089, 73.23637183191362
1089.5, 73.20213340331057
1090, 73.17984508147481
1090.5, 73.20726032230094
1091, 73.20426160248867
1091.5, 73.1480202401768
1092, 73.10711835660462
1092.5, 73.06182657741239
1093, 73.10308565166403
1093.5, 73.16162469084021
1094, 73.19592959304843
1094.5, 73.22024904637259
1095, 73.21104461140771
1095.5, 73.20648564981416
1096, 73.20655302475362
1096.5, 73.1965645396219
1097, 73.17833909530209
1097.5, 73.15658551531065
1098, 73.12992478408424
1098.5, 73.06882468582252
1099, 73.01399568777106
1099.5, 72.93956177325113
1100, 72.86548467431287
1100.5, 72.74329477940111
1101, 72.67383379235245
1101.5, 72.6115792397225
1102, 72.57850499929076
1102.5, 72.54272471541478
1103, 72.46391841750193
1103.5, 72.41015776536574
1104, 72.41017380185548
1104.5, 72.41343790597014
1105, 72.42293480530093
1105.5, 72.40959668097409
1106, 72.38240744692168
1106.5, 72.36615457881763
1107, 72.34836933915565
1107.5, 72.31286240759137
1108, 72.27583157394957
1108.5, 72.20111586185601
1109, 72.14672012721681
1109.5, 72.08126604323134
1110, 71.983677678534
1110.5, 71.84970133231178
1111, 71.759164959194
1111.5, 71.67339829988136
1112, 71.67277817557796
1112.5, 71.67933899204701
1113, 71.7074698820446
1113.5, 71.73664770105147
1114, 71.78362602387986
1114.5, 71.7833171008507
1115, 71.76506788431242
1115.5, 71.68293039795272
1116, 71.59324026324174
1116.5, 71.51237632519563
1117, 71.45161210004271
1117.5, 71.39539668239354
1118, 71.37329744598304
1118.5, 71.37316205185769
1119, 71.3786467547595
1119.5, 71.38762765981595
1120, 71.3430852340722
1120.5, 71.29459939214473
1121, 71.24969343929789
1121.5, 71.23369703381671
1122, 71.28074537824044
1122.5, 71.33698689407127
1123, 71.43058624795268
1123.5, 71.39722796359949
1124, 71.3169596536581
1124.5, 71.1911592098082
1125, 71.05838276495982
1125.5, 70.89494628538387
1126, 70.74078844247465
1126.5, 70.47892304860753
1127, 70.30239767921908
1127.5, 70.12761747305846
1128, 70.05497291836072
1128.5, 69.9931745572581
1129, 69.93591354946008
1129.5, 69.88275724046287
1130, 69.8555404394132
1130.5, 69.85697897644683
1131, 69.92252938488686
1131.5, 69.96286620624078
1132, 69.9994464679494
1132.5, 69.95066750789977
1133, 69.87275675380675
1133.5, 69.73565797197952
1134, 69.59694773812943
1134.5, 69.43232987408093
1135, 69.3010065107528
1135.5, 69.13236157154392
1136, 69.00343888645608
1136.5, 68.8568029251416
1137, 68.74695579102747
1137.5, 68.62567190969123
1138, 68.55024679621332
1138.5, 68.48342382265923
1139, 68.44658905963432
1139.5, 68.42009225036347
1140, 68.39152980434035
1140.5, 68.40495699647381
1141, 68.45136046831576
1141.5, 68.50905418796164
1142, 68.57776828553291
1142.5, 68.59638716642759
1143, 68.5931574900363
1143.5, 68.47352243297627
1144, 68.36205839835537
1144.5, 68.1838932590839
1145, 68.03814820692712
1145.5, 67.86520968580021
1146, 67.71181411569593
1146.5, 67.54147363970823
1147, 67.45664835138436
1147.5, 67.39198305054308
1148, 67.40115268606868
1148.5, 67.41827068731185
1149, 67.45632672063009
1149.5, 67.42884473097148
1150, 67.35526589783038
1150.5, 67.24601946331089
1151, 67.12012800651696
1151.5, 67.05265826859362
1152, 66.98882939971065
1152.5, 66.91459661095843
1153, 66.84753119694734
1153.5, 66.74393637335622
1154, 66.70377351035778
1154.5, 66.68670896901415
1155, 66.57086544009356
1155.5, 66.42599086892363
1156, 66.26004063818436
1156.5, 66.14598742545466
1157, 66.15515564774775
1157.5, 66.14354772115882
1158, 66.09662597037432
1158.5, 66.06845815888167
1159, 66.0417002730257
1159.5, 66.04679243875613
1160, 66.05210612091838
1160.5, 65.99078874198852
1161, 65.93092234415896
1161.5, 65.8283739784262
1162, 65.74209881814771
1162.5, 65.62028748146084
1163, 65.4933962654132
1163.5, 65.33224077062725
1164, 65.21168965132165
1164.5, 65.08980676304677
1165, 65.03588864526834
1165.5, 64.99350931586497
1166, 64.94676616510364
1166.5, 64.9072268383816
1167, 64.85107878803571
1167.5, 64.78278420755419
1168, 64.69367861407886
1168.5, 64.5996295908131
1169, 64.50462183535666
1169.5, 64.47735551870214
1170, 64.46316588031749
1170.5, 64.47246214242905
1171, 64.46968317416004
1171.5, 64.45115647525552
1172, 64.39634484750047
1172.5, 64.31640064534571
1173, 64.16385122302134
1173.5, 64.0009090967207
1174, 63.856999983371644
1174.5, 63.74235859135731
1175, 63.61087769650121
1175.5, 63.497419889223266
1176, 63.33817216725075
1176.5, 63.26829535596582
1177, 63.21699081473318
1177.5, 63.125436184020806
1178, 63.01828381044003
1178.5, 62.81147743326669
1179, 62.663179874676835
1179.5, 62.550219696611684
1180, 62.45186729409173
1180.5, 62.31181406188037
1181, 62.15949081789592
1181.5, 61.97583669415997
1182, 61.92859856526265
1182.5, 61.89232835014058
1183, 61.90091827428343
1183.5, 61.89146369771918
1184, 61.826248491884705
1184.5, 61.768826786382746
1185, 61.69485493388308
1185.5, 61.651754410210124
1186, 61.60794786122109
1186.5, 61.4977891908195
1187, 61.37811576822163
1187.5, 61.1963078122119
1188, 61.06619217476169
1188.5, 60.94525757041507
1189, 60.79885979399952
1189.5, 60.576986301215825
1190, 60.40037557659507
1190.5, 60.19955282208606
1191, 60.146067944702246
1191.5, 60.10345629783247
1192, 60.103468907978005
1192.5, 60.12319920076395
1193, 60.19785316708221
1193.5, 60.27210453129082
1194, 60.37328517988404
1194.5, 60.43258661570722
1195, 60.49330961240955
1195.5, 60.527824515970785
1196, 60.54823588259568
1196.5, 60.49313791699993
1197, 60.42310908338746
1197.5, 60.27308114024488
1198, 60.16430949324106
1198.5, 60.045763472145765
1199, 59.958596044602594
1199.5, 59.86409155129851
1200, 59.796647342983064
1200.5, 59.74142594216442
1201, 59.731992509841824
1201.5, 59.71607623493653
1202, 59.670715247391044
1202.5, 59.491491208710755
1203, 59.170225333471336
1203.5, 58.89263145616147
1204, 58.586006156974385
1204.5, 58.51090636140874
1205, 58.44254629570334
1205.5, 58.38713118373874
1206, 58.3549956062886
1206.5, 58.33599068238254
1207, 58.339777474255776
1207.5, 58.3583150113382
1208, 58.327079594647266
1208.5, 58.285103617535334
1209, 58.24156737836901
1209.5, 58.21855957185415
1210, 58.27401214403793
1210.5, 58.30683546586858
1211, 58.326003112796634
1211.5000000000002, 58.301409458364155
1212, 58.2465844349239
1212.5, 58.154228059517344
1213, 58.04054523418384
1213.5, 57.83055597127835
1214, 57.6347284216184
1214.5, 57.328256404427414
1215, 57.111276061423965
1215.5, 56.87597326589974
1216, 56.749543980860764
1216.5, 56.64322477896631
1217, 56.52205569616699
1217.5, 56.38957477943765
1218.0000000000002, 56.30995065393576
1218.5, 56.26557350690362
1219, 56.31240790672206
1219.5, 56.38527347374176
1220, 56.53598406964981
1220.5, 56.53772713031896
1221, 56.473159438327976
1221.5, 56.28286798126419
1222, 56.072123502747296
1222.5, 55.97331520374726
1223, 55.89221010589798
1223.5, 55.78912099453619
1224, 55.661901590712276
1224.5, 55.42756511688313
1225, 55.25577828155372
1225.5, 55.069746392210156
1226, 55.00489589209049
1226.5, 54.947792509776676
1227, 54.91196278695213
1227.5, 54.889826945887926
1228, 54.8898327271229
1228.5, 54.8933114696623
1229, 54.90268541205888
1229.5, 54.90481013636972
1230, 54.9047448237406
1230.5, 54.883564622432296
1231, 54.85342991548194
1231.5000000000002, 54.75516008529885
1232, 54.68066808895355
1232.5, 54.6150709166031
1233, 54.58958674020626
1233.5, 54.58949154118681
1234, 54.56923015773853
1234.5, 54.496832007430484
1235, 54.39216872738574
1235.5, 54.278337923602024
1236, 54.156020372579675
1236.5, 54.025896850819024
1237, 53.8886481348204
1237.5, 53.74495500108413
1238.0000000000002, 53.59549822611056
1238.5, 53.4409585864
1239, 53.282016858452785
1239.5, 53.11935381876925
1240, 52.953650243849715
1240.5, 52.785586910194525
1241, 52.615844594303994
1241.5, 52.44510407267848
1242, 52.27404612181827
1242.5, 52.10335151822374
1243, 51.93370103839518
1243.5, 51.765775458832955
1244, 51.600255556037375
1244.5000000000002, 51.43782210650876
1245, 51.27915588674746
1245.5, 51.12493767325379
1246, 50.975848242528116
1246.5, 50.83256837107072
1247, 50.69577883538195
1247.5, 50.566160411962144
1248, 50.44439387731163
1248.5, 50.33116000793073
1249, 50.227139580319786
1249.5, 50.12389044674937
1250, 50.1490556067843
1250.5, 50.121051443609836
1251, 50.09830267700772
1251.5, 50.070776181748045
1252, 50.0725815993595
1252.5, 50.08126770989232
1253, 50.03311604368403
1253.5, 49.98018215883392
1254, 49.88853788103599
1254.5, 49.825677366666476
1255, 49.769280977781584
1255.5, 49.73241571147974
1256, 49.696038397693
1256.5, 49.68449626058912
1257, 49.675804533393574
1257.5, 49.676222757124734
1258.0000000000002, 49.67094603930489
1258.5, 49.63400943243411
1259, 49.588458149601244
1259.5, 49.494570507151415
1260, 49.431925544838165
1260.5, 49.36852033860763
1261, 49.288263841231405
1261.5, 49.1947930940293
1262, 49.134691642434376
1262.5, 49.09707116520188
1263, 49.15235283856809
1263.5, 49.19446037941178
1264, 49.24186234947837
1264.5000000000002, 49.23173371341828
1265, 49.18552875575822
1265.5, 49.11279561767063
1266, 49.02855431550574
1266.5, 48.93579803432804
1267, 48.84382259217753
1267.5, 48.71413328116482
1268, 48.624806598727645
1268.5, 48.531027901881885
1269, 48.43418628273169
1269.5, 48.307524396278254
1270, 48.265541205727914
1270.5, 48.23470615980929
1271.0000000000002, 48.3038348920027
1271.5, 48.360987094001516
1272, 48.40756499595569
1272.5, 48.45982579677467
1273, 48.55381151762007
1273.5, 48.6049142627923
1274, 48.649396176873275
1274.5, 48.58515434510027
1275, 48.49989955685756
1275.5, 48.38530605834869
1276, 48.28885409378425
1276.5, 48.176977317428324
1277, 48.086168711343134
1277.5000000000002, 47.96415097263697
1278, 47.869037599992424
1278.5, 47.762011575231526
1279, 47.730333533047826
1279.5, 47.71060873191808
1280, 47.789671276853404
1280.5, 47.852880963024035
1281, 47.90872036037187
1281.5, 47.912576731562645
1282, 47.8566537232632
1282.5, 47.78318167158888
1283, 47.68504177612159
1283.5, 47.640607571950405
1284, 47.60388196472127
1284.5, 47.639095565484254
1285, 47.671601731573205
1285.5, 47.71842074763386
1286, 47.751249341992214
1286.5, 47.78872574609695
1287, 47.82557656869017
1287.5, 47.86967969909373
1288, 47.94618951605256
1288.5, 48.02829301534755
1289, 48.109205920119784
1289.5, 48.17405418030448
1290, 48.2492576508444
1290.5, 48.32587761064636
1291.0000000000002, 48.447510983118505
1291.5, 48.525991245841155
1292, 48.604406833473554
1292.5, 48.66124424161879
1293, 48.71896301707399
1293.5, 48.781966831475536
1294, 48.816920245028385
1294.5, 48.80749187946315
1295, 48.78474021328959
1295.5, 48.738004345234515
1296, 48.74598438456793
1296.5, 48.77290313137892
1297, 48.81320943684756
1297.5000000000002, 48.84797177366813
1298, 48.82996546688797
1298.5, 48.80151206128373
1299, 48.72667600504367
1299.5, 48.67801227542782
1300, 48.6320759018781
1300.5, 48.58832673401057
1301, 48.53572087994988
1301.5, 48.48633269151363
1302, 48.443322236055664
1302.5, 48.443097692940576
1303, 48.44347329168996
1303.5, 48.44328834300681
1304.0000000000002, 48.45621131977772
1304.5, 48.484076267590915
1305, 48.53730217357652
1305.5, 48.60698049823057
1306, 48.61732443917566
1306.5, 48.61908151325925
1307, 48.57340890599462
1307.5, 48.52672596906104
1308, 48.44242886598798
1308.5, 48.378197207357886
1309, 48.304899400259025
1309.5, 48.29986071364483
1310, 48.30823424619232
1310.5000000000002, 48.317848179804145
1311, 48.31146327708061
1311.5, 48.21031709793363
1312, 48.08836775249836
1312.5, 47.835279487762335
1313, 47.642560810122845
1313.5, 47.42352159220607
1314, 47.32817859618744
1314.5, 47.24216759868572
1315, 47.10959847152121
1315.5, 46.97768142044683
1316, 46.803359056918936
1316.5, 46.74838366046569
1317, 46.86023669768974
1317.5000000000002, 46.984469758667416
1318.0000000000002, 47.158056887401635
1318.5000000000002, 47.18750689507358
1319.0000000000002, 47.19653039796874
1319.5, 47.22960590758894
1320, 47.26850489977716
1320.5, 47.35147029905838
1321, 47.394610803782086
1321.5, 47.4042847550525
1322, 47.39284589264316
1322.5, 47.36524866475714
1323, 47.39551787018494
1323.5, 47.43755983840501
1324.0000000000002, 47.49583498193132
1324.5000000000002, 47.56521575549491
1325.0000000000002, 47.71349801883726
1325.5000000000002, 47.82751457996504
1326.0000000000002, 47.968926160898675
1326.5, 48.01450143330249
1327, 48.022161685243944
1327.5, 48.02857643120496
1328, 48.04003921002961
1328.5, 48.13573313710978
1329, 48.21670272783381
1329.5, 48.30008645911637
1330, 48.329118344599266
1330.5000000000002, 48.301328220129925
1331.0000000000002, 48.25247036010436
1331.5000000000002, 48.18028093062237
1332.0000000000002, 48.08266824356246
1332.5000000000002, 47.97644992559057
1333, 47.940735373703454
1333.5, 47.92935532393522
1334, 47.994644057906434
1334.5, 48.05216865796838
1335, 48.13672274097026
1335.5, 48.18497981163138
1336, 48.229258985215886
1336.5, 48.20497407635167
1337.0000000000002, 48.17117799167079
1337.5000000000002, 48.126914197209
1338.0000000000002, 48.09630881321035
1338.5000000000002, 48.08686919734457
1339.0000000000002, 48.06602619221772
1339.5, 48.01917773975048
1340, 47.98595442748718
1340.5, 47.95054132650388
1341, 47.948619506609305
1341.5, 47.944463998232976
1342, 47.88237590126384
1342.5, 47.833380234644615
1343, 47.78678210926303
1343.5, 47.79564484047229
1344.0000000000002, 47.87031351504488
1344.5000000000002, 47.94348943274862
1345.0000000000002, 48.031904178668455
1345.5000000000002, 48.06741242006872
1346, 48.098711165613594
1346.5, 48.10781484003625
1347, 48.11104033119998
1347.5, 48.10173502028525
1348, 48.10863255624292
1348.5, 48.13652688926738
1349, 48.19426350170204
1349.5, 48.27375429818914
1350, 48.317204832781776
1350.5000000000002, 48.3476223013213
1351.0000000000002, 48.266846578292736
1351.5000000000002, 48.1863940673452
1352.0000000000002, 48.04546609439501
1352.5000000000002, 47.95920583798608
1353, 47.875009072333185
1353.5, 47.792683531876236
1354, 47.69679822246814
1354.5, 47.62267374655962
1355, 47.55589948403026
1355.5, 47.546341721614596
1356, 47.5286637526034
1356.5, 47.47248585899632
1357.0000000000002, 47.43937813982436
1357.5000000000002, 47.41193926823271
1358.0000000000002, 47.466288481309945
1358.5000000000002, 47.55381494488891
1359.0000000000002, 47.55712586621507
1359.5, 47.55451563239106
1360, 47.527596518861934
1360.5, 47.533207347880605
1361, 47.617385603763616
1361.5, 47.677622232630576
1362, 47.741885359144035
1362.5, 47.84392384177801
1363, 47.974315654546515
1363.5000000000002, 48.09025533142403
1364.0000000000002, 48.192815261897415
1364.5000000000002, 48.22973931097178
1365.0000000000002, 48.2586400394061
1365.5000000000002, 48.29684486452334
1366, 48.26979739255554
1366.5, 48.18615200270338
1367, 48.067061594627354
1367.5, 47.92019207167107
1368, 47.85195117338701
1368.5, 47.799219124928925
1369, 47.81737297503967
1369.5, 47.835464094353625
1370.0000000000002, 47.86379342744889
1370.5000000000002, 47.868400766471595
1371.0000000000002, 47.85892332609395
1371.5000000000002, 47.819342172920784
1372.0000000000002, 47.76781410315614
1372.5, 47.799739559333865
1373, 47.84328833183156
1373.5, 47.96274414451794
1374, 48.03363614966906
1374.5, 48.07147513098248
1375, 48.083349006934796
1375.5, 48.08299873678173
1376, 48.05009587478966
1376.5, 48.00774697552904
1377.0000000000002, 47.965434336301996
1377.5000000000002, 47.92976815735836
1378.0000000000002, 47.91116079326671
1378.5000000000002, 47.88808749447969
1379.0000000000002, 47.840880225475345
1379.5, 47.83664021414863
1380, 47.85536839351538
1380.5, 47.91826255212443
1381, 47.994281748654444
1381.5, 48.11248403581456
1382, 48.22966904308095
1382.5, 48.39629623167717
1383, 48.49158458310374
1383.5000000000002, 48.54845538191025
1384.0000000000002, 48.549794187811386
1384.5000000000002, 48.521882953553906
1385.0000000000002, 48.49856151707696
1385.5000000000002, 48.47303315749878
1386, 48.44668112928876
1386.5, 48.4239857391056
1387, 48.39598902159985
1387.5, 48.35868479898766
1388, 48.28369464235019
1388.5, 48.21725467891602
1389, 48.136300614768935
1389.5, 48.19659485967814
1390.0000000000002, 48.28365417128653
1390.5000000000002, 48.44196617328239
1391.0000000000002, 48.56828954172858
1391.5000000000002, 48.68012013509816
1392.0000000000002, 48.75953233762815
1392.5, 48.8448304620206
1393, 48.78195243513516
1393.5, 48.636812715142945
1394, 48.481311239547416
1394.5, 48.32178699793584
1395, 48.29395309457905
1395.5, 48.27479203255824
1396, 48.25601248586072
1396.5000000000002, 48.22804548067238
1397.0000000000002, 48.17187387034405
1397.5000000000002, 48.120061476887315
1398.0000000000002, 48.05782275650159
1398.5000000000002, 48.053137850316915
