299, 1.935761558778168
299.5, 1.8889166355195357
300, 1.9303741194208328
300.5, 1.9991911371604232
301, 2.0480350734196975
301.5, 2.042818898457128
302, 2.0947771371224775
303, 2.231493781418507
303.5, 2.2630622639193234
304, 2.2918072035619304
304.5, 2.3564646020400772
305, 2.445728405403557
305.5, 2.5108466933416764
306, 2.553204577121477
306.5, 2.5970991226338356
307, 2.6563581172092086
307.5, 2.7284551829824153
308, 2.779307362731629
308.5, 2.807653574262062
309, 2.860725527355271
309.5, 2.9322199190484213
310, 2.9765931151559784
310.5, 3.0047111444521732
311, 3.047682489961005
311.5, 3.107715471235167
312, 3.1762931987837533
312.5, 3.237934418907713
313, 3.287208820161595
313.5, 3.333252539344116
314, 3.3843287501403125
314.5, 3.446131100447971
315, 3.5161533092791046
315.5, 3.587070224324904
316, 3.6470481154069034
316.5, 3.694606518897942
317, 3.752898023251177
317.5, 3.8228990078163605
318, 3.876032442173326
318.5, 3.9246645070624453
319, 4.00441831745259
319.5, 4.088200996070441
320, 4.1341784105143375
320.5, 4.148530925733013
321, 4.157425916921682
321.5, 4.203507824403985
322, 4.277609665870159
322.5, 4.31239547083095
323, 4.344217233099442
323.5, 4.463110910429137
324, 4.601361012246983
324.5, 4.664218006210689
325, 4.697101724563808
325.5, 4.7472078707740195
326, 4.801295697003482
326.5, 4.850788792628919
327, 4.900717695473517
327.5, 4.951000549810914
328, 4.998977526667687
328.5, 5.051508016015333
329, 5.1157921845809256
329.5, 5.187090162746173
330, 5.256438261590475
330.5, 5.312301399430567
331, 5.360228484742208
331.5, 5.422737012308872
332, 5.491175193656204
332.5, 5.542315195377569
333, 5.593554547410051
333.5, 5.669555105687181
334, 5.767820641874124
334.5, 5.872461506646545
335, 5.954416009304893
335.5, 6.017284403397085
336, 6.097242871588875
336.5, 6.182028841679312
337, 6.237325599106384
337.5, 6.285397001089066
338, 6.353070261535464
338.5, 6.416891466963989
339, 6.46472012918656
339.5, 6.521192472754606
340, 6.590492910604695
340.5, 6.65431000615655
341, 6.722773798048664
341.5, 6.813531457973127
342, 6.886419735118764
342.5, 6.913663247916929
343, 6.964364914344301
343.5, 7.0693975060430745
344, 7.165444205716028
344.5, 7.2274831990076365
345, 7.27700892196944
345.5, 7.327650160523092
346, 7.387101184700455
346.5, 7.462147070034575
347, 7.550109523842153
347.5, 7.622213165774866
348, 7.669821242548366
348.5, 7.723708097504414
349, 7.793211776742453
349.5, 7.864323635254834
350, 7.92910696886679
350.5, 7.988216680627161
351, 8.06580357104474
351.5, 8.17167240770408
352, 8.25655993872823
352.5, 8.302841326620069
353, 8.356251896661135
353.5, 8.426655198064637
354, 8.487933975883749
354.5, 8.53248927359607
355, 8.565303606961933
355.5, 8.600648630490213
356, 8.649091070449188
356.5, 8.704402481386168
357, 8.768524935236528
357.5, 8.858205803303889
358, 8.961913309017177
358.5, 9.045450956932115
359, 9.103529703929993
359.5, 9.153408806852156
360, 9.24567217990625
360.5, 9.392544333753492
361, 9.487679164319317
361.5, 9.496232550634403
362, 9.509573301155754
362.5, 9.56777173651274
363, 9.658497503059834
363.5, 9.763729631676057
364, 9.866557383247027
364.5, 9.963629619461486
365, 10.060176165000115
365.5, 10.172593268908727
366, 10.293987670967297
366.5, 10.385408846441536
367, 10.445914076505304
367.5, 10.505276966952252
368, 10.577143016222365
368.5, 10.662385568832406
369, 10.742105301825276
369.5, 10.80682178143472
370, 10.879996752589165
370.5, 10.9662762553654
371, 11.040990231796911
371.5, 11.105421902504773
372, 11.180371926705647
372.5, 11.269617884981514
373, 11.363332886916297
373.5, 11.429176694843179
374, 11.458192203354855
374.5, 11.504216182755997
375, 11.590810290921809
375.5, 11.691764036298679
376, 11.771208343709077
376.5, 11.801022303127809
377, 11.841799416193467
377.5, 11.956308505171748
378, 12.070816739818866
378.5, 12.124606640044561
379, 12.152745637998692
379.5, 12.200047740231298
380, 12.30301089253551
380.5, 12.425149430571935
381, 12.49289825405127
381.5, 12.53324739993171
382, 12.60244632498491
382.5, 12.71106073319747
383, 12.847234946587704
383.5, 12.975329115272288
384, 13.074378528970982
384.5, 13.14558743094608
385, 13.210979082997454
385.5, 13.300494944487468
386, 13.40853552222022
386.5, 13.51553623176244
387, 13.602516344478445
387.5, 13.667260120573403
388, 13.738862704176029
388.5, 13.824864445134523
389, 13.905190390403732
389.5, 13.967311485902087
390, 14.010487125042147
390.5, 14.069483966776986
391, 14.17033411828264
391.5, 14.266622017555292
392, 14.331305985119613
392.5, 14.39987339738012
393, 14.485995305035644
393.5, 14.5733643098134
394, 14.655528413766021
394.5, 14.734875681505159
395, 14.823354351431249
395.5, 14.926546133835444
396, 15.01956715758402
396.5, 15.097984757189977
397, 15.202200536536978
397.5, 15.324520879682822
398, 15.409115995065804
398.5, 15.46933312999775
399, 15.554104663148152
399.5, 15.669080122880928
400, 15.795782692593633
400.5, 15.889020628168424
401, 15.935988883771472
401.5, 15.985919176126487
402, 16.0561195936899
402.5, 16.12732957812328
403, 16.19229161243419
403.5, 16.25397528543583
404, 16.3275422042841
404.5, 16.424300463924695
405, 16.533038760203894
405.5, 16.6366301832372
406, 16.71613679888118
406.5, 16.779580410476683
407, 16.859088898240827
407.5, 16.969515446980935
408, 17.10791173287457
408.5, 17.23307669906852
409, 17.30963482140055
409.5, 17.351292988392572
410, 17.39387115096936
410.5, 17.491426762610075
411, 17.634111192485562
411.5, 17.7574469013434
412, 17.846283264059437
412.5, 17.91427243221996
413, 17.981369117255568
413.5, 18.07004140968155
414, 18.203821405046696
414.5, 18.363448970992636
415, 18.469838722124237
415.5, 18.526430616977677
416, 18.606129817147107
416.5, 18.71704894380848
417, 18.831029345927348
417.5, 18.911654284568044
418, 18.95289397143162
418.5, 19.029518886483388
419, 19.16830051776779
419.5, 19.310630416292895
420, 19.422676955660933
420.5, 19.500019245490662
421, 19.56189575574608
421.5, 19.635401439616373
422, 19.733139348943652
422.5, 19.85235045861738
423, 19.9632561642254
423.5, 20.04711597401628
424, 20.106491772576206
424.5, 20.154123675739626
425, 20.208960712238436
425.5, 20.283833192547704
426, 20.387478452258904
426.5, 20.523828009602866
427, 20.671827723154465
427.5, 20.75815658674422
428, 20.79490951243288
428.5, 20.909151098090135
429, 21.112403843987366
429.5, 21.323572784414793
430, 21.48738162548159
430.5, 21.580321103166597
431, 21.654432709984135
431.5, 21.762386854225994
432, 21.916132077947694
432.5, 22.08975077016082
433, 22.21953534251388
433.5, 22.29012407408119
434, 22.328293952557516
434.5, 22.39037238649442
435, 22.513244499189454
435.5, 22.614013919834505
436, 22.662231234822528
436.5, 22.792799700714383
437, 22.9968471598918
437.5, 23.082751800587786
438, 23.09808216884454
438.5, 23.23159422345013
439, 23.415563078137694
439.5, 23.51938751317377
440, 23.57179420653297
440.5, 23.6203236913601
441, 23.67793623218975
441.5, 23.76074828982162
442, 23.88887342760188
442.5, 24.024808863156053
443, 24.106112283811413
443.5, 24.165158149548773
444, 24.249447858938453
444.5, 24.329326987630736
445, 24.39040857675866
445.5, 24.478394690261766
446, 24.600632811553254
446.5, 24.71603911601491
447, 24.81099370327395
447.5, 24.893170763944227
448, 24.979201564512138
448.5, 25.080137305847316
449, 25.178118650339968
449.5, 25.2616526451301
450, 25.34234365438816
450.5, 25.442224733589114
451, 25.584862001155912
451.5, 25.714550215005147
452, 25.75740568786364
452.5, 25.825156824367
453, 26.0160221897833
453.5, 26.176399260157837
454, 26.20933864840393
454.5, 26.204767349495867
455, 26.239637830237797
455.5, 26.34847633297393
456, 26.46745989153702
456.5, 26.498045915086195
457, 26.473016369121993
457.5, 26.466352174862365
458, 26.538739276750206
458.5, 26.683250990998943
459, 26.786616891860987
459.5, 26.825886671252064
460, 26.872992155648163
460.5, 26.948614926427624
461, 27.038438273433613
461.5, 27.113404173818225
462, 27.159764413923597
462.5, 27.2206139415226
463, 27.309354844207974
463.5, 27.376961946028473
464, 27.422118791587124
464.5, 27.48787526386033
465, 27.554123180994722
465.5, 27.578656860790076
466, 27.59009515031137
466.5, 27.621853466192363
467, 27.659557538260827
467.5, 27.692310705955705
468, 27.726814283506698
468.5, 27.760652650180717
469, 27.78315511444015
469.5, 27.797184142392155
470, 27.816200379571285
470.5, 27.868951183469093
471, 27.96801839023904
471.5, 28.072125940779003
472, 28.155391039492258
472.5, 28.22681259060016
473, 28.27446406775148
473.5, 28.269815065046032
474, 28.22140720577032
474.5, 28.1642236729668
475, 28.16585015192834
475.5, 28.252953637832846
476, 28.327796432169905
476.5, 28.340882842231963
477, 28.338796995628073
477.5, 28.358748017052832
478, 28.418079164868587
478.5, 28.487559047625325
479, 28.52789743087682
479.5, 28.55412742267812
480, 28.586682122511675
480.5, 28.62336191991899
481, 28.657677228408673
481.5, 28.68327235037853
482, 28.71752174145118
482.5, 28.790260530153432
483, 28.87882003594227
483.5, 28.94799392157516
484, 29.013554795671794
484.5, 29.086047485927878
485, 29.134234402877254
485.5, 29.14837554964771
486, 29.154475029374808
486.5, 29.17361072468863
487, 29.21746663442653
487.5, 29.270661638853753
488, 29.315868517016355
488.5, 29.375732183229715
489, 29.461687572985426
489.5, 29.539319892660387
490, 29.588513270435016
490.5, 29.615229399014964
491, 29.62910063492997
491.5, 29.641147935747497
492, 29.661713499406545
492.5, 29.695504413542338
493, 29.727122038011075
493.5, 29.74497304417936
494, 29.755164671089446
494.5, 29.756096905608217
495, 29.735375970376595
495.5, 29.697946076052673
496, 29.663297839696057
496.5, 29.66208411381662
497, 29.699419486619263
497.5, 29.672778425098997
498, 29.54484241353704
498.5, 29.45436719331255
499, 29.43338438571027
499.5, 29.372394542762322
500, 29.25877326470946
500.5, 29.146631046244295
501, 29.056255781456926
501.5, 28.988123338412734
502, 28.922137354719922
502.5, 28.841156893709012
503, 28.742268513606277
503.5, 28.624171900068873
504, 28.487420173539803
504.5, 28.354757141007255
505, 28.256855763090286
505.5, 28.184162396381183
506, 28.104261975015277
506.5, 27.96008757312643
507, 27.749502992911943
507.5, 27.57778068295788
508, 27.470391215597104
508.5, 27.356752098091818
509, 27.191758843540853
509.5, 26.965742070492823
510, 26.76346805636385
510.5, 26.656044078700916
511, 26.566260432893884
511.5, 26.433724668780386
512, 26.279138832031805
512.5, 26.12780973908697
513, 25.997181778421847
513.5, 25.861446730974166
514, 25.682487890209302
514.5, 25.497586885471307
515, 25.346118648929334
515.5, 25.19609473252953
516, 25.01610507686175
516.5, 24.800562530270625
517, 24.59629210877803
517.5, 24.485775403087075
518, 24.411788549571114
518.5, 24.26379971904464
519, 24.082296124996887
519.5, 23.93615913703033
520, 23.832871656881792
520.5, 23.753483731824574
521, 23.654935622367162
521.5, 23.516058675950788
522, 23.342718870275817
522.5, 23.179908365509206
523, 23.074243773122035
523.5, 22.974365993337997
524, 22.83574794796752
524.5, 22.715725104339484
525, 22.637196123782402
525.5, 22.544664691929498
526, 22.42235474958362
526.5, 22.29822698959083
527, 22.2113522460255
527.5, 22.17988200191074
528, 22.09793887675977
528.5, 21.904140122286037
529, 21.74817435595375
529.5, 21.69172655925334
530, 21.618640783006825
530.5, 21.49159341161794
531, 21.354870197294204
531.5, 21.249916045986836
532, 21.19836083445297
532.5, 21.144675465388232
533, 21.045277454641933
533.5, 20.94089635414852
534, 20.858111800251777
534.5, 20.784268840890107
535, 20.699362110376
535.5, 20.58284212383478
536, 20.439473970117717
536.5, 20.29114001250356
537, 20.180099795258215
537.5, 20.118759810678483
538, 20.036283633968708
538.5, 19.91262335457975
539, 19.811501332507888
539.5, 19.753009233858805
540, 19.714613192893665
540.5, 19.654979079589722
541, 19.54286633756702
541.5, 19.422997613323346
542, 19.335827940387205
542.5, 19.266727641983252
543, 19.186784557624833
543.5, 19.062602257232143
544, 18.924743292904267
544.5, 18.840680516982005
545, 18.782170894694715
545.5, 18.698099991446128
546, 18.618420902555087
546.5, 18.56855925078554
547, 18.52069399613596
547.5, 18.467770551899406
548, 18.43477860763582
548.5, 18.40203963877113
549, 18.326028230881974
549.5, 18.240155226014096
550, 18.183882660960123
550.5, 18.094186585027344
551, 17.938692288295655
551.5, 17.79827997055301
552, 17.70351417968176
552.5, 17.607993590000973
553, 17.48442250557592
553.5, 17.329375952453432
554, 17.18551426442093
554.5, 17.093753062146163
555, 17.021480673314514
555.5, 16.947885075813517
556, 16.908151631460512
556.5, 16.91225008023177
557, 16.931907749560665
557.5, 16.925558665356803
558, 16.85309512078055
558.5, 16.7322507664599
559, 16.603911561661178
559.5, 16.51021660313225
560, 16.462271542847162
560.5, 16.41221148766958
561, 16.3423348247603
561.5, 16.274325370480298
562, 16.207836078494836
562.5, 16.129363972008406
563, 16.041799209072593
563.5, 15.954656796381016
564, 15.878599439281771
564.5, 15.813661556525531
565, 15.741039402153348
565.5, 15.671517697941852
566, 15.645550037107654
566.5, 15.655293878721665
567, 15.664612882989744
567.5, 15.65527712461909
568, 15.616644651843401
568.5, 15.541516375821644
569, 15.449394468297385
569.5, 15.40216703268473
570, 15.377277590038773
570.5, 15.273643932512726
571, 15.128747459224087
571.5, 15.046751740020937
572, 15.025432618514188
572.5, 15.020736669362066
573, 14.974262403458042
573.5, 14.881379145541544
574, 14.828437983009024
574.5, 14.804045231063569
575, 14.706203629844566
575.5, 14.5828274382215
576, 14.54255155361676
576.5, 14.54464863397827
577, 14.520689610124464
577.5, 14.46378631478376
578, 14.392265971364495
578.5, 14.345398197731157
579, 14.316492163183781
579.5, 14.261590567098722
580, 14.215428113164336
580.5, 14.236418659638346
581, 14.278516156676147
581.5, 14.285990071976784
582, 14.266039707849032
582.5, 14.232538957911714
583, 14.19338053430765
583.5, 14.160198346560762
584, 14.14487580416224
584.5, 14.12637850566962
585, 14.077909179867419
585.5, 14.028826477381642
586, 14.008464623914278
586.5, 14.002272034841454
587, 13.988539933268257
587.5, 13.947348187821433
588, 13.89381034880924
588.5, 13.869659407101466
589, 13.88272078984744
589.5, 13.919025682750728
590, 13.94632838633288
590.5, 13.946048087717813
591, 13.94624425766932
591.5, 13.963618551002284
592, 13.988077791157124
592.5, 14.003784514947426
593, 13.995210383020165
593.5, 13.974603343225525
594, 13.960369647290335
594.5, 13.938779572677248
595, 13.9022314862045
595.5, 13.878209995143095
596, 13.879402929176166
596.5, 13.891698855161152
597, 13.9093065545065
597.5, 13.9324795872882
598, 13.944098551574427
598.5, 13.923801379819054
599, 13.871838663126056
599.5, 13.801755732898656
600, 13.744736773220495
600.5, 13.712913834737236
601, 13.690915088970755
601.5, 13.675310820374705
602, 13.671726076382427
602.5, 13.673601681352707
603, 13.672537248619918
603.5, 13.67478639413055
604, 13.67944265909702
604.5, 13.662751904900531
605, 13.625689813189211
605.5, 13.601691112621253
606, 13.587501737523084
606.5, 13.55390314614229
607, 13.49178012913201
607.5, 13.406887211963081
608, 13.32741059225215
608.5, 13.264615721106395
609, 13.183856664352135
609.5, 13.065181994392049
610, 12.915211581035578
610.5, 12.764175858491498
611, 12.65310307438753
611.5, 12.590269693019096
612, 12.560997438067119
612.5, 12.516850716404363
613, 12.422935713502568
613.5, 12.287105346923042
614, 12.133093162435557
614.5, 11.995338668701834
615, 11.885133644152177
615.5, 11.790087296022676
616, 11.650699487331437
616.5, 11.435444986135394
617, 11.270821421846037
617.5, 11.223970502346603
618, 11.185257501951995
618.5, 11.096707227515807
619, 10.980729372827525
619.5, 10.863404471900566
620, 10.770461746604582
620.5, 10.727742546230871
621, 10.736048918228605
621.5, 10.714596933210657
622, 10.62664563363549
622.5, 10.545238980220887
623, 10.499900513873328
623.5, 10.46137316460397
624, 10.406506830000708
624.5, 10.320854442032484
625, 10.207455716544061
625.5, 10.076018081469897
626, 9.93776657754914
626.5, 9.813343452211555
627, 9.737965922430632
627.5, 9.711168872486425
628, 9.694577156473727
628.5, 9.653630981138022
629, 9.565748047659028
629.5, 9.45570179575671
630, 9.360420057638692
630.5, 9.304324666376104
631, 9.266447613516306
631.5, 9.158555977803431
632, 9.012741391016718
632.5, 8.96674979767755
633, 8.96014285280421
633.5, 8.85248383901697
634, 8.699028082078698
634.5, 8.58748148037715
635, 8.5145542673976
635.5, 8.452491617086352
636, 8.362532096554645
636.5, 8.257551611485098
637, 8.19453591443866
637.5, 8.174698567404164
638, 8.166905711006521
638.5, 8.137948220205047
639, 8.072145706355741
639.5, 8.002609858295187
640, 7.940187635335718
640.5, 7.850775340649832
641, 7.746125617018535
641.5, 7.676875433340641
642, 7.635536912755043
642.5, 7.589215225533579
643, 7.534860175702576
643.5, 7.480860596651411
644, 7.441909558011929
644.5, 7.424904966124117
645, 7.422428534728283
645.5, 7.404857301945086
646, 7.333157955145722
646.5, 7.245403479042281
647, 7.196594815044008
647.5, 7.139547502287982
648, 7.044367488394585
648.5, 6.995284187861657
649, 7.019055933974627
649.5, 7.038770299393818
650, 7.033483907144372
650.5, 7.029736662190842
651, 7.003544581769631
651.5, 6.923950553116825
652, 6.83962987979092
652.5, 6.789823474501077
653, 6.740291364837603
653.5, 6.671864442650431
654, 6.600255371793352
654.5, 6.534442071995969
655, 6.476384630734643
655.5, 6.431492050721687
656, 6.400930064464589
656.5, 6.361334168645087
657, 6.2964573957309256
657.5, 6.22076067266083
658, 6.152237433005894
658.5, 6.106440922418287
659, 6.076583606647105
659.5, 6.045030618830111
660, 6.040544921051804
660.5, 6.09062846302929
661, 6.135629764097402
661.5, 6.125537866956918
662, 6.078148860884227
662.5, 6.0106367581580855
663, 5.929785707828245
663.5, 5.866087957618191
664, 5.851135440455735
664.5, 5.79762479638741
665, 5.631651918405808
665.5, 5.520512692235741
666, 5.570532457289687
666.5, 5.64418480758313
667, 5.657151718854493
667.5, 5.626583362041771
668, 5.570460112693894
668.5, 5.502894956131641
669, 5.43719965858665
669.5, 5.383229164585984
670, 5.339428191420126
670.5, 5.294346187521825
671, 5.223005275341109
671.5, 5.13468819380212
672, 5.076768605668704
672.5, 5.051546823540633
673, 5.032801677501695
673.5, 5.018113969306043
674, 5.007609122481412
674.5, 4.977670347448495
675, 4.923573484452916
675.5, 4.885362624966788
676, 4.872394124019692
676.5, 4.856637816084913
677, 4.839561942500396
677.5, 4.83808557967987
678, 4.837845517814941
678.5, 4.822043646466355
679, 4.804499696829581
679.5, 4.801269144578754
680, 4.820511568167589
680.5, 4.85646148633829
681, 4.892576213585372
681.5, 4.9484879460589895
682, 5.051872992414445
682.5, 5.14391004688305
683, 5.1680883209417345
683.5, 5.171385800012118
684, 5.1788673931182245
684.5, 5.143805232385617
685, 5.069728589472547
685.5, 5.013156481007073
686, 4.965098848572708
686.5, 4.886773885909463
687, 4.800674027882593
687.5, 4.740884062403708
688, 4.712847801909533
688.5, 4.689708737516398
689, 4.603896586470626
689.5, 4.493590163575064
690, 4.489305705953143
690.5, 4.561884024003646
691, 4.607947339342289
691.5, 4.630600780541343
692, 4.660027207828833
692.5, 4.70359446889843
693, 4.755833846006894
693.5, 4.797213327590853
694, 4.811045878511038
694.5, 4.7879188400967365
695, 4.7504122360429335
695.5, 4.730093537820352
696, 4.715755974928712
696.5, 4.6876993083735385
697, 4.639745884654104
697.5, 4.584877087978839
698, 4.560289911036406
698.5, 4.5658822936872525
699, 4.569094496964894
699.5, 4.5677914568489655
700, 4.571519952047382
700.5, 4.5656179468348626
701, 4.551784367080302
701.5, 4.591818839726983
702, 4.685957092568145
702.5, 4.733522758715779
703, 4.721918857058284
703.5, 4.720022515501171
704, 4.774267026366459
704.5, 4.8964095956227
705, 4.999218267066084
705.5, 5.0195244071245355
706, 5.022529727227365
706.5, 5.030355680474159
707, 4.979372676391719
707.5, 4.867081247088038
708, 4.746420826333576
708.5, 4.659525783510702
709, 4.6299840147228934
709.5, 4.6275782929678115
710, 4.616280136600977
710.5, 4.5818057533890055
711, 4.555439268076839
711.5, 4.618787685334382
712, 4.731297057099198
712.5, 4.771759941532267
713, 4.777965490976285
713.5, 4.824887009556349
714, 4.830757074802534
714.5, 4.743042514195537
715, 4.666716623849055
715.5, 4.6682403623722735
716, 4.732168720726804
716.5, 4.801356986432083
717, 4.805109547061974
717.5, 4.778166620833829
718, 4.779043232213297
718.5, 4.774045398333726
719, 4.737724298512532
719.5, 4.711377323108451
720, 4.713801222083745
720.5, 4.72434749442202
721, 4.721635880949279
721.5, 4.691198044545658
722, 4.65758006692981
722.5, 4.6509862945651435
723, 4.660577059358275
723.5, 4.674943442328413
724, 4.70126818077371
724.5, 4.736513522230254
725, 4.763404421466518
725.5, 4.776975573739037
726, 4.781273041441281
726.5, 4.778000940448138
727, 4.766350661594501
727.5, 4.740301994179703
728, 4.703682244140211
728.5, 4.681749836449768
729, 4.683832194907467
729.5, 4.698061276005163
730, 4.715586675894926
730.5, 4.7316530823520395
731, 4.74924914861883
731.5, 4.769691977848765
732, 4.778480930561955
732.5, 4.77466674261737
733, 4.788719645637585
733.5, 4.825538709768836
734, 4.858345575523273
734.5, 4.86921920770115
735, 4.852834976244068
735.5, 4.83826804106242
736, 4.852326813671397
736.5, 4.872907434612841
737, 4.886809443939811
737.5, 4.913838697068641
738, 4.934184631374151
738.5, 4.89006591520868
739, 4.814999688754142
739.5, 4.787818649391241
740, 4.811657357868398
740.5, 4.861679273771756
741, 4.911023928355547
741.5, 4.944963224853666
742, 4.971021876640805
742.5, 5.004044901536844
743, 5.061384193081537
743.5, 5.131925831287589
744, 5.190838269812659
744.5, 5.232400433557771
745, 5.255968594270769
745.5, 5.256695173012147
746, 5.249885062387548
746.5, 5.283832619280545
747, 5.357711034309887
747.5, 5.422762996311249
748, 5.466321732226305
748.5, 5.498598353957789
749, 5.534340347010186
749.5, 5.583193068834817
750, 5.636240518947034
750.5, 5.674857182733703
751, 5.671630143067432
751.5, 5.6320493918291135
752, 5.589152174955046
752.5, 5.534775385418158
753, 5.449203878704395
753.5, 5.371615161101033
754.0000000000001, 5.342903372349895
754.5, 5.358549739055249
755, 5.395714032911158
755.5, 5.417347754747624
756, 5.431073150803002
756.5, 5.480301293757819
757, 5.55534952347756
757.5, 5.620280899056752
758, 5.651468756565507
758.5, 5.648033113047404
759, 5.658000444212647
759.5, 5.708343442010417
760, 5.784166987068559
760.5000000000001, 5.888163745398117
761, 6.032769870446899
761.5, 6.157362379377261
762, 6.201012154235173
762.5, 6.269893544420071
763, 6.440568792659391
763.5, 6.59988699492807
764, 6.6810034996371
764.5, 6.724380465604725
765, 6.774847134724439
765.5, 6.863898929702557
766, 6.940970820739054
766.5, 6.950435649756315
767, 6.9860768953662955
767.5, 7.117744063680135
768, 7.26336435341662
768.5, 7.36385715726415
769, 7.422169133145218
769.5, 7.449625261265268
770, 7.461781213228107
770.5000000000001, 7.482576835532214
771, 7.530031075508347
771.5, 7.582043363959997
772, 7.6351211027646
772.5, 7.749551891800621
773, 7.912068992008784
773.5, 8.010470787786161
774, 8.066634285836884
774.5, 8.189028653933818
775, 8.324963357121888
775.5, 8.390795792027035
776, 8.467148670590987
776.5, 8.607984313892516
777, 8.723303984814734
777.5, 8.78285740004263
778, 8.852659007595236
778.5, 8.961711797668329
779, 9.101817979749526
779.5, 9.228081192080523
780, 9.30137367719827
780.5000000000001, 9.361355963531494
781, 9.44352935116828
781.5, 9.536571582241578
782, 9.636131359531973
782.5, 9.751596520916408
783, 9.869410745388976
783.5, 9.963812509855345
784, 10.040047328429822
784.5, 10.116641339763987
785, 10.21385315444681
785.5, 10.333845890812626
786, 10.442158956290967
786.5, 10.508549961537582
787.0000000000001, 10.518946095081716
787.5, 10.53749399521466
788, 10.654648366779497
788.5, 10.794278367621217
789, 10.8631832337976
789.5, 10.932010745683357
790, 11.05162261370539
790.5, 11.169164247930965
791, 11.25038729069108
791.5, 11.296220868755626
792, 11.32533583938428
792.5, 11.360942528486717
793, 11.391028284845902
793.5, 11.397438896450979
794, 11.384949630408613
794.5, 11.366047491080963
795, 11.358631582959433
795.5, 11.376800399983523
796, 11.429834012566943
796.5, 11.525405145778123
797.0000000000001, 11.658316564980794
797.5, 11.754563548256513
798, 11.752781505570695
798.5, 11.706921241342044
799, 11.681341056045568
799.5, 11.71747720451009
800, 11.809212707190454
800.5, 11.902986115022756
801.0000000000001, 11.933809408706523
801.5, 11.861476556183717
802, 11.811532905033971
802.5, 11.890235939375529
803, 11.980210473485627
803.5000000000001, 12.008475039501988
804.0000000000001, 12.043495944490914
804.5000000000001, 12.098716360847831
805, 12.124342180078301
805.5, 12.113034438460417
806, 12.082644631455821
806.5, 12.04675345098164
807.0000000000001, 12.01345275591622
807.5000000000001, 11.979544417735923
808, 11.944982091745302
808.5, 11.917822253807714
809, 11.902576402928005
809.5, 11.899030424846032
810, 11.90050893635393
810.5000000000001, 11.89946825116995
811.0000000000001, 11.901256847972675
811.5, 11.90643782076809
812, 11.89211774492557
812.5, 11.855515388543125
813, 11.8277630946382
813.5000000000001, 11.777853567152974
814.0000000000001, 11.631642922251956
814.5000000000001, 11.457445149711745
815, 11.372014127901863
815.5, 11.360442063065307
816, 11.368821855565642
816.5, 11.344357428168749
817.0000000000001, 11.27395099072423
817.5000000000001, 11.202922850548305
818, 11.175143656442117
818.5, 11.216125999683456
819, 11.240763488011552
819.5, 11.151621644138217
820.0000000000001, 11.047414453349148
820.5000000000001, 11.015607646126028
821.0000000000001, 10.978973337748982
821.5, 10.879682434974029
822, 10.724938149555967
822.5, 10.55334110774163
823, 10.42752057878964
823.5000000000001, 10.425727279404427
824.0000000000001, 10.586675339359687
824.5, 10.74782570050634
825, 10.777407635613088
825.5, 10.743993083194425
826, 10.6831028795701
826.5, 10.549128657983857
827.0000000000001, 10.352123984148633
827.5000000000001, 10.151615682581578
828, 10.008138260586222
828.5, 9.953472311751398
829, 9.902155129424543
829.5, 9.796631817567004
830.0000000000001, 9.709210405636
830.5000000000001, 9.651491591858573
831.0000000000001, 9.53839814339959
831.5, 9.376614969804237
832, 9.239568458766556
832.5, 9.135148698978767
833, 9.040492813878728
833.5000000000001, 8.929658988226649
834.0000000000001, 8.803177094582537
834.5, 8.718900734249956
835, 8.676912360188552
835.5, 8.600906668247106
836, 8.492750161715307
836.5000000000001, 8.405569675416771
837.0000000000001, 8.322222924278122
837.5000000000001, 8.209426516708135
838, 8.087354756597136
838.5, 7.981895340534805
839, 7.904067299262664
839.5, 7.840895943351853
840.0000000000001, 7.755659986257541
840.5000000000001, 7.650393187947927
841.0000000000001, 7.553626685748043
841.5, 7.480706555855974
842, 7.438079762550231
842.5, 7.4202606669999795
843, 7.399615315925573
843.5000000000001, 7.312677766848168
844.0000000000001, 7.18367616752316
844.5, 7.128543380510379
845, 7.080668455041504
845.5, 6.881375424750985
846, 6.596533564851626
846.5000000000001, 6.353120952111681
847.0000000000001, 6.185560941266843
847.5000000000001, 6.064922798378831
848, 5.883015966529456
848.5, 5.636189450244331
849, 5.436874936415919
849.5, 5.2811417087829255
850.0000000000001, 5.100333147278633
850.5000000000001, 4.916906536030723
851, 4.7661663296022
851.5, 4.613906944940979
852, 4.452985635915681
852.5, 4.3484997776875645
853.0000000000001, 4.2913666594344875
853.5000000000001, 4.192603188256655
854.0000000000001, 4.045383486160489
854.5, 3.8916597095522434
855, 3.7442824818302114
855.5, 3.6061330396412075
856, 3.48187463142402
856.5000000000001, 3.356232832704862
857.0000000000001, 3.1811492160068155
857.5000000000001, 2.9725732746625937
858, 2.8096678587635324
858.5, 2.7117597186136067
859, 2.6612030812342766
859.5, 2.643971530713557
860.0000000000001, 2.6380676249178237
860.5000000000001, 2.5942979496485776
861, 2.5045890188534656
861.5, 2.435392012107286
862, 2.3912036809301327
862.5, 2.3161907553768373
863.0000000000001, 2.2297837753212093
863.5000000000001, 2.1793729889002122
864.0000000000001, 2.124985068068753
864.5, 2.0335550661172164
865, 1.9715688761406085
865.5, 1.9732088422310596
866, 1.9929116158844806
866.5000000000001, 1.9912125858868563
867.0000000000001, 1.947118784550966
867.5000000000001, 1.8955135370338354
868, 1.8863338684404312
868.5, 1.8933621077156317
869, 1.8810161194930828
869.5, 1.8524332352308335
870.0000000000001, 1.8179180930660976
870.5000000000001, 1.7886982857373397
871, 1.7737560527732228
871.5, 1.7789880596110237
872, 1.8015027322361448
872.5, 1.8294181015345004
873.0000000000001, 1.8300704922106235
873.5000000000001, 1.7839918148731186
874.0000000000001, 1.7217733419476247
874.5, 1.682521113318515
875, 1.7037668476576187
875.5, 1.7806732559846097
876, 1.872929209092817
876.5000000000001, 1.9508884529052466
877.0000000000001, 2.0008908850165312
877.5, 2.0542479247383483
878, 2.1281015962678254
878.5, 2.1739251828143296
879, 2.1714211063038107
879.5000000000001, 2.1535315755997146
880.0000000000001, 2.1371650964432547
880.5000000000001, 2.1244039004975974
881, 2.1329943020919444
881.5, 2.1831763996925133
882, 2.2722545396320726
882.5, 2.379607253167933
883.0000000000001, 2.457561544771977
883.5000000000001, 2.4885672805030765
884.0000000000001, 2.503143068839549
884.5, 2.55972322600482
885, 2.7168963356871103
885.5, 2.8839636778730124
886, 2.9325554154371787
886.5000000000001, 2.864248509985728
887.0000000000001, 2.7361597428120774
887.5, 2.6534348492685353
888, 2.644807784228135
888.5, 2.6384333569413343
889, 2.6791934777763657
889.5000000000001, 2.879538978369524
890.0000000000001, 3.1519081387972676
890.5000000000001, 3.353539218885075
891, 3.4767412988380215
891.5, 3.584066861645283
892, 3.8137063158231257
892.5, 4.1387208036512675
893.0000000000001, 4.3264954057272575
893.5000000000001, 4.336202701056351
894.0000000000001, 4.27584195653057
894.5, 4.237290420767366
895, 4.270206674842754
895.5, 4.298124158292268
896.0000000000001, 4.29364681334269
896.5000000000001, 4.388234837104704
897.0000000000001, 4.589531728391378
897.5, 4.739950352851309
898, 4.7807919421583875
898.5, 4.749979299019813
899, 4.815226192571686
899.5000000000001, 5.091749081713331
900.0000000000001, 5.323650515671019
900.5000000000001, 5.34188031268549
901, 5.3115456545961734
901.5, 5.332917968625637
902, 5.384857024371257
902.5, 5.434430528326843
903.0000000000001, 5.457225990778511
903.5000000000001, 5.503950359168414
904, 5.613919855611812
904.5, 5.689125226383268
905, 5.671940811122681
905.5, 5.636281786717461
906.0000000000001, 5.637632155067024
906.5000000000001, 5.6906406436325625
907.0000000000001, 5.762341050878931
907.5, 5.805658023347135
908, 5.866613681869779
908.5, 5.988155134642412
909, 6.091091806011335
909.5000000000001, 6.125034215542286
910.0000000000001, 6.136984921080071
910.5000000000001, 6.1705572430347075
911, 6.249147715143039
911.5, 6.33408944424724
912, 6.364676715447516
912.5000000000001, 6.372350986255626
913.0000000000001, 6.402520097335781
913.5000000000001, 6.442254636632967
914, 6.4870823806922715
914.5, 6.5648929286902415
915, 6.65376538622435
915.5, 6.690526170812603
916.0000000000001, 6.748431953067708
916.5000000000001, 6.939588252645308
917.0000000000001, 7.136496686875162
917.5, 7.2030694251357374
918, 7.218644176089171
918.5, 7.263959079922756
919, 7.353030320348424
919.5000000000001, 7.4411502335768205
920.0000000000001, 7.449697543848231
920.5000000000001, 7.473737153749354
921, 7.655681962032489
921.5, 7.861668518461514
922, 7.951786642595835
922.5000000000001, 8.021726174005977
923.0000000000001, 8.129244981208856
923.5000000000001, 8.20703397032166
924, 8.2324617446086
924.5, 8.232693779765782
925, 8.2073519536508
925.5, 8.146706109631694
926.0000000000001, 8.075070999022245
926.5000000000001, 8.019306828651196
927.0000000000001, 7.984905884224645
927.5, 7.992555577230405
928, 8.089160788316377
928.5, 8.270294450499293
929.0000000000001, 8.481073577814598
929.5000000000001, 8.648594528698567
930.0000000000001, 8.721471478747404
930.5, 8.790092477462082
931, 8.927071164920662
931.5, 9.052006749408264
932, 9.116979389232412
932.5000000000001, 9.157017474134832
933.0000000000001, 9.189522985144478
933.5000000000001, 9.211461582280606
934, 9.22545402682428
934.5, 9.23366735155551
935, 9.221902387100172
935.5, 9.202455596417778
936.0000000000001, 9.262612665180058
936.5000000000001, 9.40825101714951
937.0000000000001, 9.520628950612107
937.5, 9.59497019933741
938, 9.710670253588177
938.5, 9.79642912805312
939.0000000000001, 9.7463249535773
939.5000000000001, 9.62438257826814
940.0000000000001, 9.540717064602362
940.5, 9.603540903513576
941, 9.803427243681725
941.5, 9.97865351908247
942, 10.080576618287523
942.5000000000001, 10.150401451088143
943.0000000000001, 10.15789676935195
943.5000000000001, 10.067271236748184
944, 9.96030263540547
944.5, 9.932090797999123
945, 10.03702417015623
945.5000000000001, 10.222350667902361
946.0000000000001, 10.314340268177872
946.5000000000001, 10.30895790881381
947.0000000000001, 10.318437716493904
947.5, 10.307369615740853
948, 10.216458952159812
948.5, 10.153790224805121
949.0000000000001, 10.189646336531908
949.5000000000001, 10.226484209532103
950.0000000000001, 10.24901842006463
950.5, 10.363196826934683
951, 10.547127362990821
951.5, 10.693099833391116
952, 10.790578475916732
952.5000000000001, 10.881677872226376
953.0000000000001, 11.047322532475803
953.5000000000001, 11.288109337137954
954, 11.424758754663571
954.5, 11.437417692759013
955, 11.50914044785084
955.5000000000001, 11.619953357315907
956.0000000000001, 11.625882849358447
956.5000000000001, 11.567945999151377
957, 11.544547982872686
957.5, 11.587099219953956
958, 11.688372417093845
958.5, 11.795914299387661
959.0000000000001, 11.908285559517367
959.5000000000001, 12.079529391169146
960.0000000000001, 12.245789374989187
960.5, 12.288391151987213
961, 12.259747671313676
961.5, 12.245975091229141
962.0000000000001, 12.221077424978176
962.5000000000001, 12.177404605303181
963.0000000000001, 12.184803983937456
963.5000000000001, 12.244215990422532
964, 12.279153512199954
964.5, 12.312230594361253
965, 12.410518741331543
965.5000000000001, 12.505683569087026
966.0000000000001, 12.537288290944659
966.5000000000001, 12.633170248385994
967, 12.845515382972238
967.5, 13.02345830964488
968, 13.112000879234145
968.5, 13.175648239149226
969.0000000000001, 13.220387669831183
969.5000000000001, 13.22676396745267
970.0000000000001, 13.25900099990244
970.5, 13.364676197479739
971, 13.44851781827927
971.5, 13.471468377747001
972.0000000000001, 13.536918158866996
972.5000000000001, 13.664545266855455
973.0000000000001, 13.77842996777676
973.5000000000001, 13.849119837337511
974, 13.875806837951615
974.5, 13.848258873248241
975, 13.781500880882191
975.5000000000001, 13.774043651803964
976.0000000000001, 13.862636287893594
976.5000000000001, 13.958867953345873
977, 14.0549423317279
977.5, 14.221746494042677
978, 14.41137839795823
978.5, 14.526844990207309
979.0000000000001, 14.579632234936426
979.5000000000001, 14.625869057310979
980.0000000000001, 14.746865487616901
980.5, 14.943797558441432
981, 15.087692049482627
981.5, 15.157835766143577
982.0000000000001, 15.237136369202105
982.5000000000001, 15.321713953533276
983.0000000000001, 15.368632907001526
983.5, 15.388669720133706
984, 15.41927526793225
984.5, 15.523438994854956
985, 15.688110130774959
985.5000000000001, 15.783264123473899
986.0000000000001, 15.801480956851279
986.5000000000001, 15.842610188428282
987, 15.895613627508425
987.5, 15.905703082990641
988, 15.896702199507544
988.5000000000001, 15.898092235356899
989.0000000000001, 15.895019012791579
989.5000000000001, 15.927557896581106
990.0000000000001, 16.11632403905145
990.5, 16.387866035308505
991, 16.526590536797684
991.5, 16.585356306585766
992.0000000000001, 16.70577168739976
992.5000000000001, 16.808946753762598
993.0000000000001, 16.80672589871277
993.5, 16.74155498561251
994, 16.669710154487973
994.5, 16.63650886595822
995, 16.644511401786588
995.5000000000001, 16.665759116897945
996.0000000000001, 16.707437986629273
996.5000000000001, 16.789826239479353
997, 16.914550982978923
997.5, 17.067672058728533
998, 17.210621776248402
998.5000000000001, 17.31295504254443
999.0000000000001, 17.361721025529178
999.5000000000001, 17.370212530589214
1000.0000000000001, 17.371706904773674
1000.5, 17.3996413181044
1001, 17.474910023799666
1001.5, 17.5679645814117
1002.0000000000001, 17.660520309016192
1002.5000000000001, 17.787697938920317
1003.0000000000001, 17.944770515470225
1003.5, 18.067520187922483
1004, 18.120134947786937
1004.5, 18.09691672386512
1005.0000000000001, 18.030529686030874
1005.5000000000001, 17.972332458698716
1006.0000000000001, 17.981492070954587
1006.5000000000001, 18.088050795045717
1007, 18.25508740465348
1007.5, 18.44220931067497
1008, 18.6190987607459
1008.5000000000001, 18.8043135027921
1009.0000000000001, 19.03262062871579
1009.5000000000001, 19.205435852689263
1010, 19.224438197151386
1010.5, 19.20276348473304
1011, 19.22624591460975
1011.5, 19.224823270335406
1012.0000000000001, 19.198297464189892
1012.5000000000001, 19.246933802027215
1013.0000000000001, 19.38563206673402
1013.5, 19.56332246230545
1014, 19.718966679173434
1014.5, 19.805652366766395
1015.0000000000001, 19.839193119214585
1015.5000000000001, 19.871723124028392
1016.0000000000001, 19.99554169402697
1016.5000000000001, 20.179239912459252
1017, 20.257040449457506
1017.5, 20.230448677706846
1018, 20.20798389398189
1018.5000000000001, 20.227213539184902
1019.0000000000001, 20.288762479987255
1019.5000000000001, 20.364086742212294
1020, 20.441631096205484
1020.5, 20.552393914976122
1021, 20.691442302694156
1021.5000000000001, 20.813596318290564
1022.0000000000001, 20.92891063525596
1022.5000000000001, 21.07449275977328
1023.0000000000001, 21.226643704081326
1023.5, 21.338488189260858
1024, 21.362054240862008
1024.5, 21.29366031532716
1025, 21.208885016085205
1025.5, 21.144679057271986
1026, 21.090716778721955
1026.5, 21.065652374787334
1027, 21.09806544276387
1027.5, 21.16220456927114
1028, 21.25292072023956
1028.5, 21.486547210632878
1029, 21.85064645547726
1029.5, 22.077205821373227
1030, 22.114807452929995
1030.5, 22.144889977116406
1031, 22.203123356423234
1031.5, 22.238525106202275
1032, 22.236395812200186
1032.5, 22.21705003282868
1033, 22.265655981157067
1033.5, 22.39455868262469
1034, 22.478190077161756
1034.5, 22.465494605728352
1035, 22.401545228277016
1035.5, 22.434821499652685
1036, 22.697828201824535
1036.5, 22.94635200353865
1037, 22.982125686890328
1037.5, 23.0759356733887
1038, 23.34871775065153
1038.5, 23.55889222343056
1039, 23.63671159055197
1039.5, 23.695578114249173
1040, 23.76615908578539
1040.5, 23.833463815970447
1041, 23.900475638598394
1041.5, 23.970036716777045
1042, 24.029520745038738
1042.5, 24.077717793690297
1043, 24.134103942025263
1043.5, 24.203237866584388
1044, 24.27472949428578
1044.5, 24.338935577780603
1045, 24.390389765491605
1045.5, 24.440076301610887
1046, 24.49399163237004
1046.5, 24.533561949021376
1047, 24.57480987087034
1047.5, 24.684682575453778
1048, 24.827654608748674
1048.5, 24.892828479419393
1049, 24.91178304815243
1049.5, 24.96750742998516
1050, 25.046023739691705
1050.5, 25.1243786955866
1051, 25.22452447052119
1051.5, 25.358652218359396
1052, 25.513711943870703
1052.5, 25.645039410961118
1053, 25.694529515462165
1053.5, 25.694333803984435
1054, 25.7058652048389
1054.5, 25.728556193782154
1055, 25.74786529437577
1055.5, 25.75607321483882
1056, 25.7681081658244
1056.5, 25.824973357201173
1057, 25.916183699041795
1057.5, 25.99430475119017
1058, 26.054582302543693
1058.5, 26.108644399326735
1059, 26.15260245902371
1059.5, 26.185299750983475
1060, 26.220634175257842
1060.5, 26.270292889615703
1061, 26.33988663745083
1061.5, 26.427261001374916
1062, 26.522156075879607
1062.5, 26.59636229771216
1063, 26.624788664726864
1063.5, 26.625035452182928
1064, 26.621978874535714
1064.5, 26.633120347230488
1065, 26.652968533411368
1065.5, 26.649708604314895
1066, 26.607689058782142
1066.5, 26.531502435763272
1067, 26.475137537184338
1067.5, 26.496819309673853
1068, 26.593486030249252
1068.5, 26.732525131995004
1069, 26.85154570134904
1069.5, 26.945351805182113
1070, 27.07610526028479
1070.5, 27.233308623439868
1071, 27.35914493531493
1071.5, 27.439777115508207
1072, 27.481943692414276
1072.5, 27.500836894185824
1073, 27.514627134226345
1073.5, 27.541913201680927
1074, 27.548033920253616
1074.5, 27.447228180721396
1075, 27.279685232163516
1075.5, 27.158238773162225
1076, 27.105420868482483
1076.5, 27.09572361799289
1077, 27.061595320849108
1077.5, 26.984526283168364
1078, 26.95329515674497
1078.5, 26.995335393806812
1079, 27.056823399749703
1079.5, 27.07967652728813
1080, 27.023468568696686
1080.5, 26.95324689053193
1081, 26.94199864951254
1081.5, 26.96302846456021
1082, 27.00292812651088
1082.5, 27.106148690035923
1083, 27.249376044498405
1083.5, 27.339310712777646
1084, 27.37416965338447
1084.5, 27.400702464626022
1085, 27.40606558093839
1085.5, 27.366893281515033
1086, 27.29331232197984
1086.5, 27.21747395353077
1087, 27.196519325659153
1087.5, 27.238517767648815
1088, 27.301586932507547
1088.5, 27.37004206779659
1089, 27.438648866218287
1089.5, 27.466942878628586
1090, 27.425968321684664
1090.5, 27.35561006674766
1091, 27.288605847650487
1091.5, 27.22522881161447
1092, 27.17549867460039
1092.5, 27.15900177163678
1093, 27.16605770161938
1093.5, 27.168317737616363
1094, 27.128669302437203
1094.5, 27.038159241898896
1095, 26.974250444930917
1095.5, 26.987605943547237
1096, 27.061430835966874
1096.5, 27.167121031670916
1097, 27.273115130329586
1097.5, 27.37073167070841
1098, 27.461600411497344
1098.5, 27.536090101262474
1099, 27.588454048495493
1099.5, 27.632540947348573
1100, 27.669493044020257
1100.5, 27.67797319935849
1101, 27.674367481897818
1101.5, 27.70281937394354
1102, 27.73710442790771
1102.5, 27.733636469122445
1103, 27.74308070034779
1103.5, 27.776892693689405
1104, 27.67763170810045
1104.5, 27.436149769230184
1105, 27.289684698856917
1105.5, 27.283087960651386
1106, 27.29234989923026
1106.5, 27.315206040589985
1107, 27.393399377058785
1107.5, 27.479063413040265
1108, 27.52150837045741
1108.5, 27.525212853119754
1109, 27.50674731584853
1109.5, 27.48607624867668
1110, 27.451136894885906
1110.5, 27.37667388098788
1111, 27.346341040445196
1111.5, 27.43973947798098
1112, 27.494649922183825
1112.5, 27.403464074370603
1113, 27.335546712773095
1113.5, 27.336789454072715
1114, 27.24388376869254
1114.5, 27.07531947649258
1115, 26.989361861629106
1115.5, 27.01617066954121
1116, 27.110792936193846
1116.5, 27.170481812261656
1117, 27.138330457634325
1117.5, 27.091727701142474
1118, 27.049652760453085
1118.5, 26.938940708420105
1119, 26.79676547024758
1119.5, 26.730928396071505
1120, 26.715942096728867
1120.5, 26.696473632022688
1121, 26.73259778066965
1121.5, 26.84470496633857
1122, 26.910094341333277
1122.5, 26.898679408101515
1123, 26.909334484101592
1123.5, 26.90824111725037
1124, 26.783009536208993
1124.5, 26.59132656648562
1125, 26.438359335423925
1125.5, 26.33607785512251
1126, 26.268716468751293
1126.5, 26.209270355766776
1127, 26.17128505951689
1127.5, 26.209675349716505
1128, 26.264531018273615
1128.5, 26.22080521331614
1129, 26.14304182842632
1129.5, 26.130758648301182
1130, 26.148972658851008
1130.5, 26.15237414247693
1131, 26.134381028413216
1131.5, 26.099248451765547
1132, 26.053018517685246
1132.5, 25.934561212502075
1133, 25.669108522478652
1133.5, 25.380358201176264
1134, 25.202746677753836
1134.5, 25.04831269780098
1135, 24.855703335577758
1135.5, 24.70111529449727
1136, 24.62398923530614
1136.5, 24.605217120617127
1137, 24.611833749089172
1137.5, 24.607691316104578
1138, 24.579485273776854
1138.5, 24.529184177909016
1139, 24.48092857557984
1139.5, 24.47965393999347
1140, 24.593493272364427
1140.5, 24.72847368730106
1141, 24.64546215733938
1141.5, 24.42385574647686
1142, 24.295720950069196
1142.5, 24.21254138977612
1143, 24.077291573327813
1143.5, 23.950395361137424
1144, 23.881107260677993
1144.5, 23.846524702204107
1145, 23.815025786012498
1145.5, 23.752245710119624
1146, 23.61116015122937
1146.5, 23.363170348383377
1147, 23.119534736723892
1147.5, 22.97803721759057
1148, 22.859295348011983
1148.5, 22.717755800837097
1149, 22.615361157083015
1149.5, 22.55642044887172
1150, 22.484480261829475
1150.5, 22.39594979075511
1151, 22.31696467497119
1151.5, 22.26389549228341
1152, 22.24243528727567
1152.5, 22.237510189059506
1153, 22.237232474724152
1153.5, 22.240317126304802
1154, 22.24042347584583
1154.5, 22.225493274880762
1155, 22.18256842167277
1155.5, 22.108948803882996
1156, 22.054093678960058
1156.5, 22.045015741750618
1157, 22.006627738707223
1157.5, 21.915415871845198
1158, 21.849352466592137
1158.5, 21.82361600826924
1159, 21.79831038183856
1159.5, 21.814094746333453
1160, 21.915700532155128
1160.5, 21.964428605475803
1161, 21.85602321691202
1161.5, 21.711242956348187
1162, 21.600054450827244
1162.5, 21.469409036702004
1163, 21.332105992990947
1163.5, 21.266992686979123
1164, 21.359304088628832
1164.5, 21.62864463195494
1165, 21.792328037626433
1165.5, 21.67278506560399
1166, 21.55300891711903
1166.5, 21.543366171631803
1167, 21.42760831807192
1167.5, 21.22190637977799
1168, 21.118101404489195
1168.5, 21.010436201427368
1169, 20.720243553939113
1169.5, 20.378939639394616
1170, 20.14703665452265
1170.5, 20.05610509081771
1171, 20.01307271599957
1171.5, 19.800143911680607
1172, 19.491236733089224
1172.5, 19.354979182218543
1173, 19.323656423651684
1173.5, 19.238544234191565
1174, 19.21026316399214
1174.5, 19.307534929300658
1175, 19.354491894793966
1175.5, 19.304387938725725
1176, 19.306128223936526
1176.5, 19.28937674853016
1177, 19.060072983547144
1177.5, 18.811075747184887
1178, 18.791507486235403
1178.5, 18.80242305955116
1179, 18.6615548875063
1179.5, 18.456321877687287
1180, 18.284272800284356
1180.5, 18.20533205611042
1181, 18.186107647676906
1181.5, 18.12721870727877
1182, 17.93354054360391
1182.5, 17.58607151513472
1183, 17.337430655975353
1183.5, 17.306490078000508
1184, 17.21333476038447
1184.5, 16.943873830581182
1185, 16.639496308538426
1185.5, 16.42690973622254
1186, 16.38121533038894
1186.5, 16.37619098641629
1187, 16.263009990771394
1187.5, 16.09807875121588
1188, 15.946833734240826
1188.5, 15.803447184728029
1189, 15.66871217883353
1189.5, 15.55981905517912
1190, 15.484769246522944
1190.5, 15.445453909089082
1191, 15.448071862981152
1191.5, 15.486426497515367
1192, 15.507032915374765
1192.5, 15.476448547553531
1193, 15.41970058394351
1193.5, 15.414647794880537
1194, 15.571739911382295
1194.5, 15.787500667892942
1195, 15.867275212204348
1195.5, 15.902788028634134
1196, 16.009143952532952
1196.5, 16.036308516462682
1197, 15.900242889245746
1197.5, 15.731906942863162
1198, 15.650888673388224
1198.5, 15.72237310048375
1199, 15.808309753433349
1199.5, 15.703199950114666
1200, 15.523851504488334
1200.5, 15.403486339234547
1201, 15.177683954745007
1201.5, 14.790474612649916
1202, 14.466875828881498
1202.5, 14.302461073066823
1203, 14.2310135505533
1203.5, 14.164446949766884
1204, 14.032111464061614
1204.5, 13.904385312569843
1205, 13.865430205330512
1205.5, 13.900539801744799
1206, 13.959831085014528
1206.5, 13.967711370351822
1207, 13.907668647918356
1207.5, 13.823685979062503
1208, 13.765775276157996
1208.5, 13.766588017646384
1209, 13.7591868621234
1209.5, 13.6608886649785
1210, 13.435625078930471
1210.5, 13.13323693130819
1211, 12.920473252096102
1211.5000000000002, 12.823361386427948
1212, 12.733180436211242
1212.5, 12.602351413475347
1213, 12.44334245822644
1213.5, 12.38529243418877
1214, 12.501228438274282
1214.5, 12.620207627561513
1215, 12.647635685488382
1215.5, 12.66376321003412
1216, 12.683235369916275
1216.5, 12.65150189075301
1217, 12.5398894927812
1217.5, 12.35727302188711
1218.0000000000002, 12.218600596356964
1218.5, 12.183145150688873
1219, 12.091036687045005
1219.5, 11.904354255145279
1220, 11.803313306129525
1220.5, 11.77038762869843
1221, 11.631500653621913
1221.5, 11.454474194704758
1222, 11.397487305859812
1222.5, 11.469074228269477
1223, 11.571922501524142
1223.5, 11.457485054902236
1224, 11.107800825700352
1224.5, 10.842884323702336
1225, 10.684183559989094
1225.5, 10.42133644377202
1226, 10.132189825486549
1226.5, 9.991389378121994
1227, 9.982262200310686
1227.5, 10.018410455123842
1228, 9.97251151179951
1228.5, 9.825587588676996
1229, 9.704635616093881
1229.5, 9.611940648554167
1230, 9.462001918069816
1230.5, 9.316581879213558
1231, 9.27269432401647
1231.5000000000002, 9.291117674087147
1232, 9.303880388488011
1232.5, 9.257944046922276
1233, 9.165129075290778
1233.5, 9.112943661767034
1234, 9.106728527420103
1234.5, 9.074120077515914
1235, 8.861444903916734
1235.5, 8.394473399482237
1236, 8.040544029847197
1236.5, 7.997658213008094
1237, 7.884304998600186
1237.5, 7.755041565696075
1238.0000000000002, 8.177788671874666
1238.5, 8.042974654286851
1239, 7.726349481619337
1239.5, 7.652664807888428
1240, 7.574427351286559
1240.5, 7.491853436436557
1241, 7.405159387961291
1241.5, 7.314561530483573
1242, 7.220276188626244
1242.5, 7.122519687012115
1243, 7.021508350264085
1243.5, 6.917458503004937
1244, 6.810586469857512
1244.5000000000002, 6.70110857544465
1245, 6.58924114438922
1245.5, 6.475200501314006
1246, 6.359202970841906
1246.5, 6.241464877595689
1247, 6.12220254619821
1247.5, 6.001632301272352
1248, 5.879970467440899
1248.5, 5.757433369326705
1249, 5.634237331552612
1249.5, 5.510598678741431
1250, 5.386733735516032
1250.5, 5.262858826499212
1251, 5.139190276313855
1251.5, 5.0159444095827865
1252, 4.8933375509288055
1252.5, 4.771586024974766
1253, 4.650906156343538
1253.5, 4.53151426965789
1254, 4.413626689540749
1254.5, 4.297459740614869
1255, 4.1832297475031055
1255.5, 4.071153034828328
1256, 3.9614459272133473
1256.5, 3.8543247492810053
1257, 3.750005825654114
1257.5, 3.6487054809555417
1258.0000000000002, 3.550640039808144
1258.5, 3.45602582683469
1259, 3.3650791666580773
1259.5, 3.278016383901104
1260, 3.1950538031866245
1260.5, 3.1164077491374798
1261, 3.0422945463764677
1261.5, 2.9729305195264857
1262, 2.7639277240016327
1262.5, 2.683014160552517
1263, 3.3121265502174992
1263.5, 3.2969336339839543
1264, 3.184791440404041
1264.5000000000002, 3.231075200889137
1265, 3.2496998893147264
1265.5, 3.217939288571344
1266, 3.192649423260633
1266.5, 3.1088147599841705
1267, 2.928511994440825
1267.5, 2.7983404294543703
1268, 2.787584290866292
1268.5, 2.795230749938284
1269, 2.7913596174899595
1269.5, 2.8172334885554164
1270, 2.8271191041885118
1270.5, 2.753944933639886
1271.0000000000002, 2.6656735839443257
1271.5, 2.637424601757303
1272, 2.6525267546968223
1272.5, 2.674350820046868
1273, 2.661610608265235
1273.5, 2.6224248185403383
1274, 2.5982656264032613
1274.5, 2.5310328189535483
1275, 2.354755916107166
1275.5, 2.2123399121850014
1276, 2.211553238039542
1276.5, 2.215969436955902
1277, 2.157405641962299
1277.5000000000002, 2.11763967312217
1278, 2.070237853804599
1278.5, 1.9175298449382012
1279, 1.8311576077909564
1279.5, 2.0196516376884546
1280, 2.2506381937367195
1280.5, 2.3178345592034333
1281, 2.37663383060368
1281.5, 2.478704178585403
1282, 2.4631636300053543
1282.5, 2.320326753997051
1283, 2.161174524593207
1283.5, 1.9585578120484257
1284, 1.6811402210565944
1284.5, 1.5677855813995905
1285, 1.734576167896691
1285.5, 1.8496461083497877
1286, 1.8580746607653964
1286.5, 2.1324823966847504
1287, 2.5562876348142822
1287.5, 2.671748778331221
1288, 2.5549654013404393
1288.5, 2.4641870941220105
1289, 2.3857027456975857
1289.5, 2.2791074538355645
1290, 2.1989659247387863
1290.5, 2.1965911029901406
1291.0000000000002, 2.2967762738410897
1291.5, 2.4413987752127895
1292, 2.5257849603548266
1292.5, 2.5546190648336307
1293, 2.5774771960749376
1293.5, 2.629669055627275
1294, 2.717025804893339
1294.5, 2.790428640561288
1295, 2.8222012755747556
1295.5, 2.820479823915477
1296, 2.7993130083975757
1296.5, 2.7753642429338328
1297, 2.7647997352168545
1297.5000000000002, 2.7773614492558636
1298, 2.799973426827407
1298.5, 2.8184507403769317
1299, 2.827705938967128
1299.5, 2.8417543749997947
1300, 2.892418938986495
1300.5, 2.9647424553332087
1301, 3.015496372619566
1301.5, 3.0355282651895124
1302, 3.028501204479653
1302.5, 2.994389413015867
1303, 2.9616678655368105
1303.5, 3.0114280849243613
1304.0000000000002, 3.080006638187811
1304.5, 2.955898922822584
1305, 2.728597140276264
1305.5, 2.6486110998795453
1306, 2.6765054319937605
1306.5, 2.6896307959095225
1307, 2.664494592289671
1307.5, 2.652711620217019
1308, 2.7981169136696735
1308.5, 2.9793340073980374
1309, 2.8186219139933115
1309.5, 2.4675756772400774
1310, 2.3341535845490853
1310.5000000000002, 2.2744399017480106
1311, 2.0602155021227304
1311.5, 1.8470656902420473
1312, 1.7600541761299127
1312.5, 1.7322929902630904
1313, 1.732656336149219
1313.5, 1.7790880682779573
1314, 1.782391483329306
1314.5, 1.6339885895939261
1315, 1.4975336762003195
1315.5, 1.507596881718456
1316, 1.419292103489667
1316.5, 1.1412722508471802
1317, 0.9629130546420299
1317.5000000000002, 0.957007293867818
1318.0000000000002, 0.9571026575285657
1318.5000000000002, 0.9827299024076552
1319.0000000000002, 1.136607466336784
1319.5, 1.3423281976400574
1320, 1.5020167601418422
1320.5, 1.6314097944960366
1321, 1.7392227312052029
1321.5, 1.7905786991551906
1322, 1.7993652247059373
1322.5, 1.8224419765797961
1323, 1.8348517437736689
1323.5, 1.786410550050249
1324.0000000000002, 1.7409775155624203
1324.5000000000002, 1.7567603831575695
1325.0000000000002, 1.7749755016449171
1325.5000000000002, 1.7922799681214912
1326.0000000000002, 1.9184026131869842
1326.5, 2.1194628082059666
1327, 2.2326113960987612
1327.5, 2.227318867815171
1328, 2.1632627178895802
1328.5, 2.1755847288999632
1329, 2.332448232813647
1329.5, 2.464054676184361
1330, 2.476591534526051
1330.5000000000002, 2.4526055128651336
1331.0000000000002, 2.492017224942245
1331.5000000000002, 2.66567837326501
1332.0000000000002, 2.7678665102740894
1332.5000000000002, 2.5647449433892433
1333, 2.3610992204743297
1333.5, 2.4296574396279595
1334, 2.5621138094446962
1334.5, 2.609247228795752
1335, 2.6175908060317
1335.5, 2.61618752408927
1336, 2.6010220647003166
1336.5, 2.5287189113393254
1337.0000000000002, 2.3557861306871786
1337.5000000000002, 2.1233085836127827
1338.0000000000002, 1.9009890465136579
1338.5000000000002, 1.76947378634938
1339.0000000000002, 1.7425595745455382
1339.5, 1.7413619062821226
1340, 1.7406442869165772
1340.5, 1.76443191794192
1341, 1.8313230144322716
1341.5, 1.9453524013534746
1342, 2.0627976635642398
1342.5, 2.132202359485021
1343, 2.114811662696539
1343.5, 2.023681496929157
1344.0000000000002, 1.9356513341820971
1344.5000000000002, 1.8744944390725635
1345.0000000000002, 1.8233997679100895
1345.5000000000002, 1.8030808852987406
1346, 1.8343000500011044
1346.5, 1.8665824638432298
1347, 1.87365938620556
1347.5, 1.9218621851312179
1348, 2.0148092703383753
1348.5, 2.0638168951177676
1349, 2.050090549998856
1349.5, 2.011943125823663
1350, 1.9832611957708508
1350.5000000000002, 1.982797722705854
1351.0000000000002, 1.9809111471479213
1351.5000000000002, 1.9604762396361082
1352.0000000000002, 1.9549520616980232
1352.5000000000002, 1.9603920858186399
1353, 1.9239843234672094
1353.5, 1.868825729765561
1354, 1.8606004974393926
1354.5, 1.8627110634399742
1355, 1.8246627299936762
1355.5, 1.8040284941777571
1356, 1.8386932596947645
1356.5, 1.8757609851568162
1357.0000000000002, 1.8751231267549286
1357.5000000000002, 1.828795560682181
1358.0000000000002, 1.7770094528446947
1358.5000000000002, 1.787931200010874
1359.0000000000002, 1.9005872325190865
1359.5, 2.1025960664512837
1360, 2.243635782207548
1360.5, 2.253265252171829
1361, 2.2730328683248757
1361.5, 2.334741447098679
1362, 2.326987181140595
1362.5, 2.2620691549277723
1363, 2.2269092330862605
1363.5000000000002, 2.224019643588747
1364.0000000000002, 2.2390125977223647
1364.5000000000002, 2.3106453553923814
1365.0000000000002, 2.4271220798056703
1365.5000000000002, 2.4651467018600925
1366, 2.416835462848752
1366.5, 2.4055867886970788
1367, 2.455615560193962
1367.5, 2.5254861298523963
1368, 2.588442384694048
1368.5, 2.6095707405910957
1369, 2.5101877623882274
1369.5, 2.2846175342949238
1370.0000000000002, 2.0704501098740735
1370.5000000000002, 1.9123793743248427
1371.0000000000002, 1.7477118012260888
1371.5000000000002, 1.5797904058403134
1372.0000000000002, 1.454815569966442
1372.5, 1.4130600018914095
1373, 1.4546205965500292
1373.5, 1.4655407384162231
1374, 1.4588562617743293
1374.5, 1.6902427852930941
1375, 2.0975620901039775
1375.5, 2.310584239231062
1376, 2.3415695940160077
1376.5, 2.3972873270190576
1377.0000000000002, 2.4704576625656074
1377.5000000000002, 2.507778659088217
1378.0000000000002, 2.532861321731957
1378.5000000000002, 2.555278212686659
1379.0000000000002, 2.5411943600601745
1379.5, 2.519190260273703
1380, 2.572874647053837
1380.5, 2.6937303469186276
1381, 2.815624202649218
1381.5, 2.8516646972818336
1382, 2.7670219437517005
1382.5, 2.6890703858596368
1383, 2.703082763731871
1383.5000000000002, 2.781764598911039
1384.0000000000002, 2.869316589403226
1384.5000000000002, 2.900800097590704
1385.0000000000002, 2.8863165870456413
1385.5000000000002, 2.868913228772854
1386, 2.8524244682076727
1386.5, 2.8336605018805727
1387, 2.822316157075335
1387.5, 2.7983544931593514
1388, 2.69753126480434
1388.5, 2.5348183118820486
1389, 2.398579597014944
1389.5, 2.3711921939944602
1390.0000000000002, 2.492913040736724
1390.5000000000002, 2.628939606039822
1391.0000000000002, 2.659580424421023
1391.5000000000002, 2.6334703243159368
1392.0000000000002, 2.6244658377000576
1392.5, 2.6992147456620614
1393, 2.82835754496098
1393.5, 2.911970150086276
1394, 2.944363535957578
1394.5, 2.962363829219143
1395, 2.9776673967539153
1395.5, 2.969277813199014
1396, 2.856523385581241
1396.5000000000002, 2.682164837659627
1397.0000000000002, 2.6541818630062437
1397.5000000000002, 2.651763679901265
1398.0000000000002, 2.3517235368844496
1398.5000000000002, 2.05346556451876
1399, 2.1544755582811064
1399.5, 2.19697712060335
1400, 1.8165575317599263
