303, 36.96379065581999
303.5, 36.8017362935551
304, 36.85893178157482
304.5, 36.98872328058291
305, 36.997871374150805
305.5, 36.985882921279035
306, 36.993252048582754
306.5, 37.022848549392364
307, 37.06012744275385
307.5, 37.093180505223394
308, 37.12785902804109
308.5, 37.175986324345736
309, 37.25205130604182
309.5, 37.33853415579225
310, 37.39814241792538
310.5, 37.443882257512804
311, 37.505124703032784
312, 37.651709108392936
312.5, 37.6997314294384
313, 37.72880428584963
313.5, 37.78020795666668
314, 37.85180515246621
314.5, 37.910156607700046
315, 37.95555958124222
315.5, 38.00228978086495
316, 38.05807965499651
316.5, 38.124599215187445
317, 38.193886315278725
317.5, 38.26073379425161
318, 38.32539966288769
318.5, 38.39278159008042
319, 38.470083538374666
319.5, 38.558105796330715
320, 38.64972826354432
320.5, 38.7184995079724
321, 38.76174180954213
321.5, 38.8349787961385
322, 38.94215753251507
322.5, 39.01949063469732
323, 39.061108966216615
323.5, 39.10273942014435
324, 39.159745456708784
324.5, 39.23108123938163
325, 39.288244308910436
325.5, 39.319355946581744
326, 39.357759289083155
326.5, 39.41093033245763
327, 39.451905166751494
327.5, 39.48277132969836
328, 39.52444711518635
328.5, 39.58136752131065
329, 39.64885575574536
329.5, 39.71380497432642
330, 39.7660090587739
330.5, 39.80513447864193
331, 39.8526473261739
331.5, 39.946884454278646
332, 40.04930527692443
332.5, 40.09011971456514
333, 40.123042989494486
333.5, 40.215845158807674
334, 40.32790275427648
334.5, 40.41575988220049
335, 40.47310853190761
335.5, 40.519750027669104
336, 40.594503104080324
336.5, 40.68121243591482
337, 40.738478896874454
337.5, 40.78457259323105
338, 40.84806303063225
338.5, 40.921529387339206
339, 40.9909588236472
339.5, 41.04414952207384
340, 41.09186190960169
340.5, 41.16468314635306
341, 41.25235751838217
341.5, 41.32525372062007
342, 41.38728241645529
342.5, 41.451670324033415
343, 41.52450175611236
343.5, 41.607591770688096
344, 41.697390902839395
344.5, 41.78144838328441
345, 41.8416995957511
345.5, 41.88784229598322
346, 41.94384065079839
346.5, 42.02264540670132
347, 42.11698059659212
347.5, 42.172899761079485
348, 42.19352065032065
348.5, 42.28308355049356
349, 42.42979347440726
349.5, 42.515356605904095
350, 42.55041518231405
350.5, 42.60623047670847
351, 42.683978487504156
351.5, 42.7671606727774
352, 42.85191717725639
352.5, 42.93599499385364
353, 43.01594134791444
353.5, 43.08151627490785
354, 43.119989519104394
354.5, 43.15189685493805
355, 43.20849293050005
355.5, 43.28659394579664
356, 43.37217178164536
356.5, 43.45017076396707
357, 43.51618093403009
357.5, 43.581534068541345
358, 43.648973910353774
358.5, 43.71379207889555
359, 43.78219729784059
359.5, 43.86286357519348
360, 43.94946859936358
360.5, 44.0339692136055
361, 44.11468548558042
361.5, 44.184034943862954
362, 44.22631274454491
362.5, 44.25662741162771
363, 44.31381791896649
363.5, 44.41305123230565
364, 44.54863959674068
364.5, 44.67632944580773
365, 44.76387553910744
365.5, 44.83292624193853
366, 44.90011061986054
366.5, 44.96457332937571
367, 45.03170594801213
367.5, 45.11105189126651
368, 45.196831056675684
368.5, 45.279614060768786
369, 45.365091742432035
369.5, 45.4617897648802
370, 45.57528311909715
370.5, 45.69537822448759
371, 45.79361584944017
371.5, 45.8729850908593
372, 45.957644171043995
372.5, 46.03958864988499
373, 46.105072525028085
373.5, 46.17612018762258
374, 46.2635998281342
374.5, 46.33532413290329
375, 46.39646977486661
375.5, 46.50132210868587
376, 46.62316704197111
376.5, 46.6879129900096
377, 46.73171332459846
377.5, 46.813496382259906
378, 46.896330717627606
378.5, 46.94733416647001
379, 46.9898303182461
379.5, 47.04035643077368
380, 47.098738641069474
380.5, 47.168099257128546
381, 47.25181256129346
381.5, 47.33414622148091
382, 47.40062457363779
382.5, 47.4698058188248
383, 47.55397953702196
383.5, 47.63817407767423
384, 47.72034449917401
384.5, 47.815710469135226
385, 47.91778454577403
385.5, 48.00763660216272
386, 48.08674121306493
386.5, 48.16574884467976
387, 48.258787787808316
387.5, 48.37371366038623
388, 48.50415703490442
388.5, 48.6238575487243
389, 48.69177060553516
389.5, 48.73576427507355
390, 48.818310973967094
390.5, 48.93204974387539
391, 49.043405346492506
391.5, 49.12036125321661
392, 49.16420894714229
392.5, 49.23519475226705
393, 49.34176752099872
393.5, 49.432593361425674
394, 49.490317566888386
394.5, 49.527402576781355
395, 49.59340132434823
395.5, 49.71646229258341
396, 49.816560396761965
396.5, 49.87019222753575
397, 49.987059990496434
397.5, 50.16746858102011
398, 50.29616201216737
398.5, 50.38578414458144
399, 50.51183610997797
399.5, 50.64944450956118
400, 50.756283560851735
400.5, 50.842330859036856
401, 50.91345619572803
401.5, 50.95352985869991
402, 50.982885484824266
402.5, 51.05297977943901
403, 51.141534508746226
403.5, 51.197082483717615
404, 51.24495895421277
404.5, 51.32157924140954
405, 51.42209298954481
405.5, 51.52663873382541
406, 51.604865204859955
406.5, 51.66759088193489
407, 51.75939838348497
407.5, 51.86269993317373
408, 51.93624742731902
408.5, 51.998239551470455
409, 52.07658862849542
409.5, 52.17416466432646
410, 52.27814444576521
410.5, 52.35954576258832
411, 52.422518063835795
411.5, 52.501075044245916
412, 52.61283279056229
412.5, 52.75525829455523
413, 52.87421639876504
413.5, 52.94574507148438
414, 53.06383519214399
414.5, 53.244329523556715
415, 53.36389335132662
415.5, 53.41693545137478
416, 53.499867872593676
416.5, 53.60803566619657
417, 53.695904217739844
417.5, 53.776184977679804
418, 53.863553209715946
418.5, 53.93614553930559
419, 53.99771949291393
419.5, 54.09290613047276
420, 54.197148110959404
420.5, 54.24198800472757
421, 54.300385843516764
421.5, 54.466753854215604
422, 54.6232850717749
422.5, 54.674490307829274
423, 54.716532679456606
423.5, 54.8171952518531
424, 54.964561493426594
424.5, 55.11728510163698
425, 55.223153816207564
425.5, 55.2945230702895
426, 55.36950245841505
426.5, 55.46631836882125
427, 55.58520472577872
427.5, 55.69764310286858
428, 55.79553954327819
428.5, 55.9019326731662
429, 56.02192337361414
429.5, 56.14469797643375
430, 56.25733702959403
430.5, 56.35427373354088
431, 56.462110339603825
431.5, 56.605357306844724
432, 56.78564139072236
432.5, 56.97528858034204
433, 57.11814335196597
433.5, 57.22711200248165
434, 57.35761578601437
434.5, 57.4913656741871
435, 57.5886682230815
435.5, 57.650776458069366
436, 57.69669588316991
436.5, 57.76135711276313
437, 57.848743701362906
437.5, 57.92637682966516
438, 58.01121252425915
438.5, 58.14374334719826
439, 58.273988915536385
439.5, 58.34493194562957
440, 58.409447656363234
440.5, 58.50973456197173
441, 58.61658776794483
441.5, 58.70062389141267
442, 58.74545069454403
442.5, 58.77500916426073
443, 58.83829306501904
443.5, 58.97033960001234
444, 59.16826865815529
444.5, 59.31877811313579
445, 59.375796063319584
445.5, 59.464902185776445
446, 59.61020696093838
446.5, 59.70888962582467
447, 59.7645048284425
447.5, 59.8422664611493
448, 59.928423058244995
448.5, 59.99474408463081
449, 60.06445616180904
449.5, 60.15042799973123
450, 60.228230622980476
450.5, 60.3086216992681
451, 60.43696794690648
451.5, 60.57222551900756
452, 60.63829692440932
452.5, 60.679144524912516
453, 60.75656143111389
453.5, 60.85191241424984
454, 60.93851157140393
454.5, 61.003970899681306
455, 61.05152132337495
455.5, 61.09803846239004
456, 61.14974673777081
456.5, 61.204231993255945
457, 61.249196580485105
457.5, 61.27949677193489
458, 61.32132904031324
458.5, 61.38843671627037
459, 61.46356966337215
459.5, 61.53014919244904
460, 61.57837806635341
460.5, 61.63010624296717
461, 61.713479661682214
461.5, 61.793766767363955
462, 61.84125395005116
462.5, 61.899429539834614
463, 61.9868957466757
463.5, 62.06184080992263
464, 62.10782592227601
464.5, 62.136592680985316
465, 62.147405513430506
465.5, 62.139677065368396
466, 62.15159523680867
466.5, 62.2051702783981
467, 62.245529696530916
467.5, 62.255755994814145
468, 62.295577942944576
468.5, 62.36923266734235
469, 62.4292304480198
469.5, 62.47499407745822
470, 62.52613467904024
470.5, 62.574008956742496
471, 62.60862288184529
471.5, 62.6386933135558
472, 62.671844161702296
472.5, 62.709059081327574
473, 62.74240809748687
473.5, 62.75983427806182
474, 62.77711930893342
474.5, 62.813693203575916
475, 62.840288257541665
475.5, 62.83754915358788
476, 62.84523731942813
476.5, 62.880984867049996
477, 62.91965759660513
477.5, 62.97074037213581
478, 63.06675671488109
478.5, 63.16688142480807
479, 63.21808899589513
479.5, 63.27232229205997
480, 63.37292946699575
480.5, 63.474500090485435
481, 63.542144836541766
481.5, 63.574407735879376
482, 63.58696130252508
482.5, 63.60617780752241
483, 63.64910028633955
483.5, 63.72371309261624
484, 63.819165498863846
484.5, 63.92084432206678
485, 64.01683422767641
485.5, 64.10049183619316
486, 64.17202635105855
486.5, 64.23757530127203
487, 64.30567969326206
487.5, 64.37127678284736
488, 64.43083820701001
488.5, 64.51113153524143
489, 64.61813074362547
489.5, 64.69714997395711
490, 64.74094924409228
490.5, 64.80832252354683
491, 64.89726372348733
491.5, 64.96594276882429
492, 65.0337725054606
492.5, 65.12625663525571
493, 65.19096692400622
493.5, 65.19346318037555
494, 65.17510940877548
494.5, 65.15946114281797
495, 65.13696044773512
495.5, 65.10025356173766
496, 65.04818745961083
496.5, 65.00096130710757
497, 64.96732740092844
497.5, 64.88362478759007
498, 64.7271792146931
498.5, 64.58874359131526
499, 64.51037642398322
499.5, 64.46003101331428
500, 64.3878377084688
500.5, 64.24929830413154
501, 64.09378699052075
501.5, 63.97772353739517
502, 63.85505872623218
502.5, 63.699474450768626
503, 63.56331821406398
503.5, 63.45187688659139
504, 63.31153650719794
504.5, 63.13471278173508
505, 62.949187077996406
505.5, 62.800831723217314
506, 62.69662647703708
506.5, 62.495480210565376
507, 62.16988635190559
507.5, 61.950095831011026
508, 61.87364613990932
508.5, 61.753484916972425
509, 61.54507194935485
509.5, 61.30505860622162
510, 61.113871287876705
510.5, 61.0143133932988
511, 60.906716897998415
511.5, 60.72437355059878
512, 60.50823245781835
512.5, 60.30652982056321
513, 60.15547088601567
513.5, 60.003913578450934
514, 59.77538384175147
514.5, 59.54364516146728
515, 59.38757705863723
515.5, 59.24687671544041
516, 59.07786216179265
516.5, 58.90859334739845
517, 58.76001184607712
517.5, 58.63692104766571
518, 58.52200237640158
518.5, 58.387852737606586
519, 58.21952382301152
519.5, 58.02543281287896
520, 57.868387185477715
520.5, 57.771401536723346
521, 57.67770397152225
521.5, 57.539739770527184
522, 57.33569361486957
522.5, 57.139450558843635
523, 57.0470642691429
523.5, 57.00153865180111
524, 56.926028544240324
524.5, 56.82099932583457
525, 56.71422532701401
525.5, 56.651888497873045
526, 56.60782943126096
526.5, 56.50229339938254
527, 56.382359999969566
527.5, 56.33096927537783
528, 56.27404644800802
528.5, 56.126996232013404
529, 55.90157283328437
529.5, 55.66806598330116
530, 55.55308366207677
530.5, 55.54009203356307
531, 55.49747233608265
531.5, 55.418948522130535
532, 55.3559946519434
532.5, 55.32206815614913
533, 55.29282314066453
533.5, 55.17882535453251
534, 54.98087385960992
534.5, 54.83653431618597
535, 54.76821819369417
535.5, 54.696770775209764
536, 54.578393247351336
536.5, 54.41098803409009
537, 54.291505272315966
537.5, 54.26769289150078
538, 54.2079450564061
538.5, 54.07737652890047
539, 54.003118606170965
539.5, 54.00181953881816
540, 53.99843318497162
540.5, 53.97355387391024
541, 53.93235622642744
541.5, 53.8687122648616
542, 53.78394253970866
542.5, 53.70219135243467
543, 53.60889133479023
543.5, 53.44169841337263
544, 53.250630343654095
544.5, 53.155741329962595
545, 53.13163238030555
545.5, 53.09824301568327
546, 53.02093523795996
546.5, 52.90972388036234
547, 52.84552678932594
547.5, 52.838162090304984
548, 52.79988559194221
548.5, 52.703297119612024
549, 52.5747074231444
549.5, 52.46916447157141
550, 52.42872900974735
550.5, 52.40204743341066
551, 52.34049050166246
551.5, 52.247759447898915
552, 52.14440785713733
552.5, 52.059954814482126
553, 51.97708737418189
553.5, 51.85727873353391
554, 51.74649221063839
554.5, 51.694868062365316
555, 51.64215523051438
555.5, 51.54275478121662
556, 51.43000186747755
556.5, 51.32986502629761
557, 51.24693702520505
557.5, 51.163187983868255
558, 51.0557856906369
558.5, 50.96476494457021
559, 50.92868362840058
559.5, 50.89625584191206
560, 50.82964501017377
560.5, 50.75365097230163
561, 50.687127889571094
561.5, 50.63337883248778
562, 50.58443876152448
562.5, 50.52644916795527
563, 50.451484046754494
563.5, 50.36261594020226
564, 50.29129024326314
564.5, 50.24559984817276
565, 50.18149173397199
565.5, 50.09332460098483
566, 50.0206337013149
566.5, 49.97918385659932
567, 49.963824781648235
567.5, 49.94337057814148
568, 49.894006951564435
568.5, 49.84383489626509
569, 49.82195570967032
569.5, 49.83885461035185
570, 49.84401288472513
570.5, 49.7412088287862
571, 49.5965301511402
571.5, 49.54164515149271
572, 49.521780906259174
572.5, 49.457403705186124
573, 49.38685697716264
573.5, 49.34968041254513
574, 49.34813499732621
574.5, 49.334725690910545
575, 49.23127522781576
575.5, 49.110894630083685
576, 49.09972185440635
576.5, 49.1377925132582
577, 49.14138741704652
577.5, 49.13340931005822
578, 49.1346638182571
578.5, 49.131968093189016
579, 49.11361066557431
579.5, 49.07358972365293
580, 49.018857530939705
580.5, 48.96328993137808
581, 48.919991480174126
581.5, 48.897943044457975
582, 48.89541177519454
582.5, 48.89884114594202
583, 48.8806622981086
583.5, 48.84336586107075
584, 48.813516115266616
584.5, 48.77726240306533
585, 48.71068887571831
585.5, 48.64678940536914
586, 48.62101841957775
586.5, 48.63055564868155
587, 48.652125927520096
587.5, 48.64345545741721
588, 48.60402301453581
588.5, 48.569713783549155
589, 48.56323756935273
589.5, 48.587633678551576
590, 48.58999642943572
590.5, 48.53829510195346
591, 48.49167952390357
591.5, 48.49096312943489
592, 48.52969930693735
592.5, 48.58328813561163
593, 48.61791008648959
593.5, 48.62412360033867
594, 48.612961104746574
594.5, 48.63186534478658
595, 48.70218302608697
595.5, 48.76062581344448
596, 48.788148827736414
596.5, 48.838660692099936
597, 48.89110136397904
597.5, 48.87460499190053
598, 48.83449156501849
598.5, 48.84429438387344
599, 48.86655590361295
599.5, 48.86466098238463
600, 48.869036339784444
600.5, 48.88890258715828
601, 48.89329175812531
601.5, 48.850883971392285
602, 48.74239219960534
602.5, 48.623530401056286
603, 48.56027403859964
603.5, 48.52702792180183
604, 48.49252405525433
604.5, 48.462592347215754
605, 48.445579049565694
605.5, 48.445399821997185
606, 48.44588192810419
606.5, 48.41853113398577
607, 48.3517206853429
607.5, 48.25595693867432
608, 48.19700944873406
608.5, 48.18327586922072
609, 48.07996295374202
609.5, 47.87883050452755
610, 47.73652039587885
610.5, 47.671664167992645
611, 47.60495491626217
611.5, 47.50796849574047
612, 47.379462662481615
612.5, 47.237774667442444
613, 47.1013405025934
613.5, 46.97992399331709
614, 46.88022048262919
614.5, 46.803830551073105
615, 46.71799138915353
615.5, 46.579090427364974
616, 46.42276802986261
616.5, 46.298165723699334
617, 46.19386831586665
617.5, 46.09323592076762
618, 45.99447302570139
618.5, 45.89449356396874
619, 45.788460891866
619.5, 45.6901935772964
620, 45.61907788897723
620.5, 45.55370641849755
621, 45.470323046513556
621.5, 45.38757933243245
622, 45.32020292578184
622.5, 45.25963619135778
623, 45.19315481215345
623.5, 45.10736744312573
624, 45.00144693867409
624.5, 44.887112609645165
625, 44.802640156438336
625.5, 44.77007744461166
626, 44.73155728407262
626.5, 44.6488919931034
627, 44.54586951833831
627.5, 44.44500796292211
628, 44.358784482438146
628.5, 44.27593134340979
629, 44.17721402573214
629.5, 44.07688222110604
630, 43.9847924070145
630.5, 43.863832383174824
631, 43.707596980948544
631.5, 43.57430436706078
632, 43.47985363367248
632.5, 43.394469308372216
633, 43.31172446606712
633.5, 43.23889088171639
634, 43.178264628313016
634.5, 43.127819159368386
635, 43.07794183879875
635.5, 43.014717966081484
636, 42.9212029239694
636.5, 42.81718168864592
637, 42.752879367631316
637.5, 42.73390027059746
638, 42.73799686236071
638.5, 42.7308826969329
639, 42.687646171850574
639.5, 42.61905506990193
640, 42.548089081766356
640.5, 42.50503766158597
641, 42.4755878465645
641.5, 42.4126669459869
642, 42.34561060304862
642.5, 42.32089180710578
643, 42.27014304416277
643.5, 42.14662779051725
644, 42.04797321329149
644.5, 42.019637753461154
645, 41.99648445067709
645.5, 41.94135100478938
646, 41.854080125913356
646.5, 41.77440601586891
647, 41.74142617580608
647.5, 41.70200977053125
648, 41.6158112372267
648.5, 41.538761188694274
649, 41.4931265622661
649.5, 41.43474163833087
650, 41.364625210172356
650.5, 41.320252960729164
651, 41.292097289770616
651.5, 41.25619897506389
652, 41.227793854664974
652.5, 41.215239595214854
653, 41.185775296375695
653.5, 41.13210884007286
654, 41.08814996679089
654.5, 41.05775974911112
655, 41.02195193381051
655.5, 40.99096898481558
656, 40.97826188529832
656.5, 40.95294352108003
657, 40.89899529588943
657.5, 40.859562809198316
658, 40.84681145141455
658.5, 40.8236757433545
659, 40.787032635421525
659.5, 40.757671349910424
660, 40.72003235015444
660.5, 40.65420699104885
661, 40.58828338051006
661.5, 40.54967575061441
662, 40.53817199191875
662.5, 40.54058817735438
663, 40.53343540337459
663.5, 40.51383475446902
664, 40.49385553421862
664.5, 40.4796553850542
665, 40.46927912164158
665.5, 40.44046446758833
666, 40.38710088926155
666.5, 40.34603162430031
667, 40.33179514487596
667.5, 40.32528102827856
668, 40.30558864898531
668.5, 40.258015309382166
669, 40.20802861258003
669.5, 40.17977747305292
670, 40.134126351139784
670.5, 40.058760408076296
671, 40.02130974901138
671.5, 40.029150739196936
672, 40.01252587876494
672.5, 39.95111531902998
673, 39.86385406026317
673.5, 39.7854796616671
674, 39.73195956018435
674.5, 39.63549891614284
675, 39.49556458841623
675.5, 39.46950766938292
676, 39.57262282977518
676.5, 39.65158576924701
677, 39.66855841490843
677.5, 39.665067839053926
678, 39.66946789612676
678.5, 39.684879865404824
679, 39.65034416029793
679.5, 39.55602886820362
680, 39.50689922444578
680.5, 39.533571009390556
681, 39.57813255900929
681.5, 39.63052003278946
682, 39.70441827252815
682.5, 39.76131204761867
683, 39.76671112068002
683.5, 39.75713513441372
684, 39.758668766399126
684.5, 39.7550694198857
685, 39.73684220185066
685.5, 39.706391958714576
686, 39.67185078317811
686.5, 39.6411443204391
687, 39.60393463741303
687.5, 39.55258466304813
688, 39.505936808684346
688.5, 39.47340349565935
689, 39.44080543326374
689.5, 39.40648962807597
690, 39.38229079339488
690.5, 39.36882872186269
691, 39.36214096875982
691.5, 39.369925690207786
692, 39.391901668274315
692.5, 39.394490016034155
693, 39.3610053608177
693.5, 39.31205362671656
694, 39.2789985842333
694.5, 39.29436254083361
695, 39.335342240017006
695.5, 39.358385236237325
696, 39.36947042793433
696.5, 39.39214172324499
697, 39.45489413459807
697.5, 39.54646633538644
698, 39.596377111229636
698.5, 39.60461738141421
699, 39.629861939497445
699.5, 39.63998302733772
700, 39.578976895007834
700.5, 39.5118805149755
701, 39.50395152263775
701.5, 39.52750440161467
702, 39.55960292323835
702.5, 39.60575994772686
703, 39.65751417730815
703.5, 39.6931333713437
704, 39.699050186527664
704.5, 39.67163935368415
705, 39.63246004740862
705.5, 39.5995563017349
706, 39.56475284406702
706.5, 39.52903517474797
707, 39.51032015831573
707.5, 39.495301014737905
708, 39.452777704235146
708.5, 39.42772539823091
709, 39.47402443766003
709.5, 39.52250923630134
710, 39.51112647155766
710.5, 39.474017111674414
711, 39.453526405788786
711.5, 39.48096140918817
712, 39.53782011241785
712.5, 39.57215238256566
713, 39.57833406256186
713.5, 39.56899721327544
714, 39.54112446459512
714.5, 39.492903638693235
715, 39.43432282598693
715.5, 39.36831597073788
716, 39.28983459696155
716.5, 39.245115810841035
717, 39.30247356203626
717.5, 39.398392432742604
718, 39.44158667304262
718.5, 39.46400636214609
719, 39.49123287534727
719.5, 39.47026026207972
720, 39.39622514283543
720.5, 39.33368926672042
721, 39.287687956586986
721.5, 39.223184044329116
722, 39.15641960722572
722.5, 39.12148098443465
723, 39.13546923823402
723.5, 39.18010850703878
724, 39.174161197404466
724.5, 39.11387625743669
725, 39.091208768250745
725.5, 39.098949307214156
726, 39.07316383860658
726.5, 39.068847726265645
727, 39.14926333481058
727.5, 39.231829010958
728, 39.27105170573716
728.5, 39.357428816907664
729, 39.48679986710618
729.5, 39.53570851695811
730, 39.49688092311385
730.5, 39.437327844307596
731, 39.363438609252796
731.5, 39.27157696739466
732, 39.20648048600366
732.5, 39.190203896055785
733, 39.182989045808334
733.5, 39.18020453210966
734, 39.21880381858233
734.5, 39.272990421507274
735, 39.286669302866365
735.5, 39.277346042229965
736, 39.277271884198676
736.5, 39.27647575797773
737, 39.261927093152046
737.5, 39.23183502677674
738, 39.212544311793074
738.5, 39.252781104935444
739, 39.32952390241263
739.5, 39.3858101963397
740, 39.43243369898296
740.5, 39.488609590457884
741, 39.52408926786739
741.5, 39.523582506955755
742, 39.515121251127006
742.5, 39.53239669202655
743, 39.60405734900581
743.5, 39.69166445312134
744, 39.73371042092483
744.5, 39.762733555893746
745, 39.810055793361755
745.5, 39.80851612226015
746, 39.74691802944784
746.5, 39.734984530189934
747, 39.79693267856631
747.5, 39.86669374641435
748, 39.93258127035889
748.5, 40.00810973685095
749, 40.06299312030239
749.5, 40.07737651353122
750, 40.10100113838377
750.5, 40.13200312949989
751, 40.07127064668328
751.5, 39.93910701049797
752, 39.860050651223524
752.5, 39.79619296837455
753, 39.65606389192134
753.5, 39.54006425899338
754.0000000000001, 39.54461293281296
754.5, 39.59334189093642
755, 39.626136616379036
755.5, 39.65309547069249
756, 39.68721778526641
756.5, 39.73625544228724
757, 39.78631679904006
757.5, 39.819771678151675
758, 39.85518960343959
758.5, 39.90714460935268
759, 39.95227994733868
759.5, 39.98321894572977
760, 40.024943690781235
760.5000000000001, 40.096131881375385
761, 40.20180734260079
761.5, 40.29689274954287
762, 40.33848078236639
762.5, 40.40744407998963
763, 40.56014670258124
763.5, 40.70605424974944
764, 40.788654850911925
764.5, 40.83284603447932
765, 40.88268657420679
765.5, 40.98391432851686
766, 41.10806319995716
766.5, 41.20803685396079
767, 41.312153759446964
767.5, 41.43767784810271
768, 41.528309449579055
768.5, 41.57232402385906
769, 41.62862540754205
769.5, 41.6796380465405
770, 41.65834772129989
770.5000000000001, 41.621884581295575
771, 41.65615337507542
771.5, 41.72492847497915
772, 41.805462135791245
772.5, 41.9745432519077
773, 42.20898513262217
773.5, 42.34871346695179
774, 42.414559222184806
774.5, 42.55109789694571
775, 42.7347801236318
775.5, 42.87938908156457
776, 42.95277248540006
776.5, 42.97457389923657
777, 43.04569093626882
777.5, 43.18888573206588
778, 43.31941452415112
778.5, 43.41085561418626
779, 43.48912826767046
779.5, 43.60873333551203
780, 43.806045037374226
780.5000000000001, 44.00602478480731
781, 44.15573473101619
781.5, 44.30142282966278
782, 44.45591692535215
782.5, 44.57972949784431
783, 44.67262820186504
783.5, 44.75723429829156
784, 44.80809240865905
784.5, 44.81060526256359
785, 44.8592886004122
785.5, 44.98877568889017
786, 45.07023585983388
786.5, 45.1046983146173
787.0000000000001, 45.24903136179025
787.5, 45.446925725802465
788, 45.528519708892055
788.5, 45.5618018676271
789, 45.6585366927839
789.5, 45.760617022800844
790, 45.82374163106081
790.5, 45.89795638706871
791, 46.00221205910493
791.5, 46.10861374234243
792, 46.18387942867312
792.5, 46.20501418926709
793, 46.22243726637468
793.5, 46.27991141908262
794, 46.31107368539869
794.5, 46.28739470252647
795, 46.28794252320115
795.5, 46.32867220469775
796, 46.35024873675804
796.5, 46.3419272141785
797.0000000000001, 46.32421687620641
797.5, 46.30894440634748
798, 46.303983032450226
798.5, 46.31492553228889
799, 46.33500926158674
799.5, 46.33752331617991
800, 46.317567753535734
800.5, 46.29584851173728
801.0000000000001, 46.305542532891295
801.5, 46.37126457260187
802, 46.43375265564707
802.5, 46.43848931620768
803, 46.42951855727068
803.5000000000001, 46.44464155417933
804.0000000000001, 46.47985802043541
804.5000000000001, 46.5148160568479
805, 46.51799470828304
805.5, 46.467663754463835
806, 46.36216702688802
806.5, 46.27354103589644
807.0000000000001, 46.262379913369784
807.5000000000001, 46.289637527779526
808, 46.3451027121075
808.5, 46.48790756615236
809, 46.66657931830761
809.5, 46.73556063084649
810, 46.70415350075903
810.5000000000001, 46.65120697652499
811.0000000000001, 46.56602746558554
811.5, 46.43287580283904
812, 46.297815593531205
812.5, 46.183478747552606
813, 46.06223853689913
813.5000000000001, 45.94374470457848
814.0000000000001, 45.86970294586463
814.5000000000001, 45.830970256047415
815, 45.80551908903758
815.5, 45.840517617239435
816, 45.920496327670364
816.5, 45.81893225582035
817.0000000000001, 45.53070178509051
817.5000000000001, 45.408512396643275
818, 45.444644340572225
818.5, 45.337597615577046
819, 45.171828280073356
819.5, 45.16597131723366
820.0000000000001, 45.2382607863262
820.5000000000001, 45.26720365167951
821.0000000000001, 45.24448660615865
821.5, 45.19104098965772
822, 45.14433583018107
822.5, 45.13327742649325
823, 45.167684695980086
823.5000000000001, 45.169367361519264
824.0000000000001, 45.05991902393858
824.5, 44.942799192272425
825, 44.91472776816704
825.5, 44.94021426771996
826, 44.976158189391
826.5, 44.99629279979733
827.0000000000001, 44.991519457573354
827.5000000000001, 44.960981703821105
828, 44.86873336257799
828.5, 44.68914038276866
829, 44.506300088385565
829.5, 44.38559946864704
830.0000000000001, 44.285595241685606
830.5000000000001, 44.142170399239205
831.0000000000001, 43.89075819898281
831.5, 43.61521545638671
832, 43.48190216221339
832.5, 43.42445382443523
833, 43.31465544323655
833.5000000000001, 43.191575054440925
834.0000000000001, 43.11382506324244
834.5, 43.09253544691429
835, 43.11333526601577
835.5, 43.13911863629679
836, 43.15322118467112
836.5000000000001, 43.156070115024896
837.0000000000001, 43.1544631847507
837.5000000000001, 43.1549620488074
838, 43.15370957737182
838.5, 43.141705829521435
839, 43.10459356379578
839.5, 43.03631504151403
840.0000000000001, 42.94508081343897
840.5000000000001, 42.88498055626043
841.0000000000001, 42.92364598284406
841.5, 43.00695076544971
842, 43.07699379450787
842.5, 43.238966587422716
843, 43.50373010040813
843.5000000000001, 43.628877348711384
844.0000000000001, 43.56967079292161
844.5, 43.5266176153296
845, 43.47496811588199
845.5, 43.26248392029918
846, 42.95812081358964
846.5000000000001, 42.68770558572884
847.0000000000001, 42.47355021381862
847.5000000000001, 42.26479895783402
848, 41.92033807278774
848.5, 41.49430016268926
849, 41.243690340521816
849.5, 41.12893436801077
850.0000000000001, 40.94227011070396
850.5000000000001, 40.669860280090184
851, 40.385511318707216
851.5, 40.20864369857984
852, 40.157089502027766
852.5, 40.052476529382105
853.0000000000001, 39.868786291130114
853.5000000000001, 39.753428722822015
854.0000000000001, 39.72842012800446
854.5, 39.72025803926893
855, 39.58834331652964
855.5, 39.270535265605325
856, 39.01887805562482
856.5000000000001, 38.961949472072845
857.0000000000001, 38.90759516444735
857.5000000000001, 38.696625660075505
858, 38.264126805800196
858.5, 37.833694822274396
859, 37.70639652014301
859.5, 37.67550720188198
860.0000000000001, 37.487641519064354
860.5000000000001, 37.26327759851902
861, 37.121926639569345
861.5, 37.06355142112276
862, 37.03783762559255
862.5, 36.96694289053307
863.0000000000001, 36.87912422149767
863.5000000000001, 36.845921468599016
864.0000000000001, 36.8430217331606
864.5, 36.82217694077684
865, 36.75640698965714
865.5, 36.65169714971584
866, 36.55861771054707
866.5000000000001, 36.47883036156894
867.0000000000001, 36.37031488744265
867.5000000000001, 36.25021936090842
868, 36.16267923118511
868.5, 36.119174616837654
869, 36.1221011771775
869.5, 36.176701375368125
870.0000000000001, 36.277211613158315
870.5000000000001, 36.399966705542546
871, 36.51727420828013
871.5, 36.60263066459392
872, 36.660453304464944
872.5, 36.70541047801464
873.0000000000001, 36.7235136976902
873.5000000000001, 36.70741389092599
874.0000000000001, 36.68890137580337
874.5, 36.70114114018497
875, 36.768031762423675
875.5, 36.87622127010708
876, 36.98415516847936
876.5000000000001, 37.08034600409925
877.0000000000001, 37.16347445665716
877.5, 37.20733202298871
878, 37.19654861839699
878.5, 37.1598976348508
879, 37.12474071261029
879.5000000000001, 37.10730092857558
880.0000000000001, 37.13026649469645
880.5000000000001, 37.21732743472693
881, 37.35096199236999
881.5, 37.49423987756409
882, 37.61281416891175
882.5, 37.686698025939144
883.0000000000001, 37.72802386510704
883.5000000000001, 37.74545485738709
884.0000000000001, 37.73860561672732
884.5, 37.73880060795999
885, 37.795166759794014
885.5, 37.8944861385426
886, 37.999290547958815
886.5000000000001, 38.092296918921924
887.0000000000001, 38.15542505225811
887.5, 38.15851039548789
888, 38.13105534691479
888.5, 38.1750524885208
889, 38.279302926206825
889.5000000000001, 38.35474061132279
890.0000000000001, 38.406682339387054
890.5000000000001, 38.46630141507251
891, 38.49853747091095
891.5, 38.49104201977766
892, 38.51434091272325
892.5, 38.587550150233234
893.0000000000001, 38.65583908703699
893.5000000000001, 38.72157266023225
894.0000000000001, 38.82193569560806
894.5, 38.91881596782885
895, 38.96263717491358
895.5, 38.982111831765074
896.0000000000001, 39.05911648523013
896.5000000000001, 39.3407173076174
897.0000000000001, 39.74326898038103
897.5, 39.92514709656205
898, 39.93185208191814
898.5, 40.04420110643175
899, 40.214822702820236
899.5000000000001, 40.30505986953851
900.0000000000001, 40.3336233939919
900.5000000000001, 40.32742843500066
901, 40.261835341642325
901.5, 40.16903158073213
902, 40.14501990956848
902.5, 40.17567712139324
903.0000000000001, 40.190024495727954
903.5000000000001, 40.24525871514489
904, 40.39843871379778
904.5, 40.53581219328053
905, 40.58484892183427
905.5, 40.61945829172666
906.0000000000001, 40.68861084364774
906.5000000000001, 40.79364231868324
907.0000000000001, 40.91493429150595
907.5, 41.02118162269901
908, 41.083209681833516
908.5, 41.101731194761044
909, 41.17084219115086
909.5000000000001, 41.31709765856147
910.0000000000001, 41.41411613543888
910.5000000000001, 41.45127379117266
911, 41.54719068093008
911.5, 41.69524433131517
912, 41.81744588783582
912.5000000000001, 41.897676801243044
913.0000000000001, 41.95472566375206
913.5000000000001, 42.04571091011891
914, 42.185583672571006
914.5, 42.30420601217024
915, 42.365091688768864
915.5, 42.38061340666224
916.0000000000001, 42.423162046590235
916.5000000000001, 42.57888653115895
917.0000000000001, 42.82024207070117
917.5, 43.07546135385521
918, 43.257525585220876
918.5, 43.37265634417144
919, 43.58065137648591
919.5000000000001, 43.88384490203399
920.0000000000001, 44.128305534417706
920.5000000000001, 44.28544366466096
921, 44.40201506026837
921.5, 44.522459951259265
922, 44.66475538582356
922.5000000000001, 44.77513850493391
923.0000000000001, 44.80204522131501
923.5000000000001, 44.72090772767432
924, 44.57460129062855
924.5, 44.45686960191279
925, 44.36374188350938
925.5, 44.25762630327093
926.0000000000001, 44.206145335224605
926.5000000000001, 44.26300698383005
927.0000000000001, 44.35686937880439
927.5, 44.45066834789131
928, 44.5894623836564
928.5, 44.7641970647543
929.0000000000001, 44.91649839136842
929.5000000000001, 45.04121301018703
930.0000000000001, 45.15898756638775
930.5, 45.2752432327076
931, 45.3759045642112
931.5, 45.40904545810118
932, 45.357451216621016
932.5000000000001, 45.265328827416134
933.0000000000001, 45.20029243866783
933.5000000000001, 45.23006356628609
934, 45.28723737396175
934.5, 45.278351353386476
935, 45.29988690901529
935.5, 45.4147376724548
936.0000000000001, 45.472762735676824
936.5000000000001, 45.41305990681971
937.0000000000001, 45.34650450341452
937.5, 45.37824227191831
938, 45.57296049988906
938.5, 45.795334976589835
939.0000000000001, 45.87880884798049
939.5000000000001, 45.935601433603516
940.0000000000001, 46.0548592526584
940.5, 46.09697367605739
941, 46.0309555497972
941.5, 46.0101191157684
942, 46.05873363771236
942.5000000000001, 46.09529724126936
943.0000000000001, 46.099632837605384
943.5000000000001, 46.08855901603677
944, 46.10821706092839
944.5, 46.169005896839266
945, 46.186258413968204
945.5000000000001, 46.17109079232915
946.0000000000001, 46.26475371790108
946.5000000000001, 46.43336719705089
947.0000000000001, 46.52449324779666
947.5, 46.55051209821131
948, 46.581003969841404
948.5, 46.61817060807839
949.0000000000001, 46.66128444505422
949.5000000000001, 46.7377366066216
950.0000000000001, 46.82889733665449
950.5, 46.861743751652995
951, 46.872263833608066
951.5, 46.95746293560361
952, 47.06302433842839
952.5000000000001, 47.11592542625094
953.0000000000001, 47.21465701345121
953.5000000000001, 47.41826783563747
954, 47.62325374683064
954.5, 47.78463981897276
955, 47.94470223541891
955.5000000000001, 48.04960677081791
956.0000000000001, 47.99991138126332
956.5000000000001, 47.86765690316981
957, 47.77867568322132
957.5, 47.800755199870935
958, 47.94579130368907
958.5, 48.14061812425148
959.0000000000001, 48.31114032224314
959.5000000000001, 48.39919580678483
960.0000000000001, 48.41422456605058
960.5, 48.4080732929999
961, 48.414694926732544
961.5, 48.44812566282504
962.0000000000001, 48.479781024557475
962.5000000000001, 48.51443749027892
963.0000000000001, 48.633571732613625
963.5000000000001, 48.81487976154664
964, 48.92582425593084
964.5, 48.99981398008579
965, 49.145938078019036
965.5000000000001, 49.257853805927574
966.0000000000001, 49.22068175951949
966.5000000000001, 49.151827992646275
967, 49.137874373351195
967.5, 49.12558124517342
968, 49.10484937916866
968.5, 49.121703052549165
969.0000000000001, 49.161251153548754
969.5000000000001, 49.194223020453606
970.0000000000001, 49.335672379234715
970.5, 49.65262592941384
971, 49.90693736586167
971.5, 49.99039523944649
972.0000000000001, 50.11559442628517
972.5000000000001, 50.30075114223383
973.0000000000001, 50.35431368378777
973.5000000000001, 50.30999193886947
974, 50.31164685453326
974.5, 50.33856451799871
975, 50.34635419182501
975.5000000000001, 50.38654820850342
976.0000000000001, 50.498622462868404
976.5000000000001, 50.66963430094502
977, 50.824540079558545
977.5, 50.8488342507092
978, 50.79169407891181
978.5, 50.77722205419069
979.0000000000001, 50.826339263997546
979.5000000000001, 50.914604487815105
980.0000000000001, 50.9852966624197
980.5, 51.027551920541114
981, 51.10983442887657
981.5, 51.23523022556013
982.0000000000001, 51.34707097298092
982.5000000000001, 51.468247172702696
983.0000000000001, 51.646665022653735
983.5, 51.831476655016786
984, 51.96299482658893
984.5, 52.04027667024568
985, 52.074523157146906
985.5000000000001, 52.07994880648074
986.0000000000001, 52.0599178080631
986.5000000000001, 52.01334483242767
987, 51.98894719043249
987.5, 52.040397061078416
988, 52.120829673317374
988.5000000000001, 52.20748520501704
989.0000000000001, 52.4132877516319
989.5000000000001, 52.70967631478035
990.0000000000001, 52.841002296332505
990.5, 52.7887211831424
991, 52.74377130135753
991.5, 52.79661458836792
992.0000000000001, 52.957924158341335
992.5000000000001, 53.12355516537638
993.0000000000001, 53.2122104423092
993.5, 53.27713051238147
994, 53.334985516110265
994.5, 53.32629294858398
995, 53.26493367550194
995.5000000000001, 53.22626136345459
996.0000000000001, 53.25042963128108
996.5000000000001, 53.34423139176613
997, 53.44835721918797
997.5, 53.516814306801905
998, 53.57665975336826
998.5000000000001, 53.658011033476164
999.0000000000001, 53.77735136427774
999.5000000000001, 53.89588436176543
1000.0000000000001, 53.94356909492373
1000.5, 53.943118739227515
1001, 53.95058453135478
1001.5, 53.981112161033344
1002.0000000000001, 54.02287519697157
1002.5000000000001, 54.02899993981863
1003.0000000000001, 54.03185424869073
1003.5, 54.159770451057604
1004, 54.341560881644305
1004.5, 54.38483393966615
1005.0000000000001, 54.363917465631495
1005.5000000000001, 54.43151439870258
1006.0000000000001, 54.57982145076047
1006.5000000000001, 54.7464576108831
1007, 54.83797938295623
1007.5, 54.83006076283776
1008, 54.79193637380721
1008.5000000000001, 54.822849678291966
1009.0000000000001, 55.0076077170155
1009.5000000000001, 55.208490609752644
1010, 55.263554431277846
1010.5, 55.27083896596481
1011, 55.33199265801834
1011.5, 55.43057111842315
1012.0000000000001, 55.53378021822683
1012.5000000000001, 55.60758575041237
1013.0000000000001, 55.62865758910198
1013.5, 55.59531903019383
1014, 55.59835279534382
1014.5, 55.712760528447056
1015.0000000000001, 55.825794924155055
1015.5000000000001, 55.88777067806493
1016.0000000000001, 56.04986448292416
1016.5000000000001, 56.27497426504264
1017, 56.30458199083877
1017.5, 56.15984164440522
1018, 56.04613683934592
1018.5000000000001, 56.08431705326404
1019.0000000000001, 56.29343723726663
1019.5000000000001, 56.464361811720906
1020, 56.48771638343288
1020.5, 56.530370778146505
1021, 56.643303937701134
1021.5000000000001, 56.72190746708078
1022.0000000000001, 56.738823791967945
1022.5000000000001, 56.72965601807507
1023.0000000000001, 56.77503492427882
1023.5, 56.93034190754791
1024, 57.11682256178146
1024.5, 57.259113595049016
1025, 57.33833898496992
1025.5, 57.365459446253446
1026, 57.37587293472163
1026.5, 57.395334830433356
1027, 57.44194871414027
1027.5, 57.52864281046737
1028, 57.657269020415875
1028.5, 57.800959406196824
1029, 57.92572876697221
1029.5, 57.999161565816955
1030, 58.09183515625701
1030.5, 58.35534905930939
1031, 58.69280978739049
1031.5, 58.8992335808063
1032, 59.000326437863365
1032.5, 59.0744544833649
1033, 59.12364925113205
1033.5, 59.131130968353126
1034, 59.07448760321102
1034.5, 58.98316583135548
1035, 58.93333122182981
1035.5, 58.956293952613045
1036, 59.05119681348561
1036.5, 59.18945998812613
1037, 59.32563990305602
1037.5, 59.392624064832034
1038, 59.38460540928111
1038.5, 59.39802231818353
1039, 59.491452020215
1039.5, 59.66816404360773
1040, 59.82692969346835
1040.5, 59.86043481856409
1041, 59.90821828529814
1041.5, 60.083688631592054
1042, 60.22666654188541
1042.5, 60.253235209546915
1043, 60.26349639680707
1043.5, 60.30197810073369
1044, 60.3481654316421
1044.5, 60.37398606090518
1045, 60.37352668947645
1045.5, 60.45780187619813
1046, 60.67528872034182
1046.5, 60.82769265420999
1047, 60.83270689964109
1047.5, 60.83123811623142
1048, 60.87328423880521
1048.5, 60.91734756772812
1049, 60.94456078508892
1049.5, 60.95577886076254
1050, 60.982285263583805
1050.5, 61.03774594436924
1051, 61.07232759572447
1051.5, 61.068575402377334
1052, 61.067059369078315
1052.5, 61.0877641586821
1053, 61.12681430602363
1053.5, 61.155342120167475
1054, 61.150122341488625
1054.5, 61.16203448461374
1055, 61.21898523577203
1055.5, 61.24902586904782
1056, 61.213513011647464
1056.5, 61.142703189625976
1057, 61.13516744121084
1057.5, 61.30640653028059
1058, 61.51521266652083
1058.5, 61.56793085010644
1059, 61.54159171316172
1059.5, 61.5286122095093
1060, 61.50008585298395
1060.5, 61.41878175150727
1061, 61.26464048183395
1061.5, 61.11240966154436
1062, 61.078796160865025
1062.5, 61.064788888881274
1063, 60.9374083329767
1063.5, 60.80433826080716
1064, 60.76387586350252
1064.5, 60.768175528424045
1065, 60.784058724041245
1065.5, 60.81971420083209
1066, 60.87412527908112
1066.5, 60.941073416710644
1067, 61.038305491966376
1067.5, 61.17047107817814
1068, 61.256070971834546
1068.5, 61.25429852269985
1069, 61.24793667572077
1069.5, 61.269632625395644
1070, 61.275883955123
1070.5, 61.251897665775985
1071, 61.203790265437135
1071.5, 61.12130584406341
1072, 61.00750776462358
1072.5, 60.93644777269882
1073, 60.950020289433525
1073.5, 60.9963329235579
1074, 61.045786465472695
1074.5, 61.10198453191942
1075, 61.10558432215798
1075.5, 60.983479294316496
1076, 60.85051342680789
1076.5, 60.82203297220517
1077, 60.76960350663715
1077.5, 60.62383032134492
1078, 60.52194551210335
1078.5, 60.531904241535
1079, 60.614922980475725
1079.5, 60.67528397004368
1080, 60.61484422123225
1080.5, 60.51979367787856
1081, 60.49561582901927
1081.5, 60.49030281830282
1082, 60.467362535057326
1082.5, 60.47423515885317
1083, 60.51369559100006
1083.5, 60.53526759775651
1084, 60.52678596019457
1084.5, 60.50024177197388
1085, 60.46041057262268
1085.5, 60.41751092156767
1086, 60.40612056638107
1086.5, 60.40703258808842
1087, 60.305203045190595
1087.5, 60.12076769995112
1088, 60.00797632732565
1088.5, 59.98371477376342
1089, 59.98532107163747
1089.5, 59.98247830084793
1090, 59.96525223396512
1090.5, 59.95027105422381
1091, 59.93829639749545
1091.5, 59.897666148171275
1092, 59.84287486467068
1092.5, 59.828788183777405
1093, 59.83403336328364
1093.5, 59.81094577206592
1094, 59.806076793491485
1094.5, 59.85850207369174
1095, 59.90102995882186
1095.5, 59.886423530228626
1096, 59.828875701302316
1096.5, 59.74125061452258
1097, 59.63269158905826
1097.5, 59.53758189744449
1098, 59.49172020032631
1098.5, 59.46939960363005
1099, 59.42314360610227
1099.5, 59.29913142345457
1100, 59.117718352655245
1100.5, 59.0078826089653
1101, 58.97288495647156
1101.5, 58.911296445691235
1102, 58.87072715596002
1102.5, 58.949513215441854
1103, 59.10751555078333
1103.5, 59.2628673297396
1104, 59.33273708633413
1104.5, 59.3080350417273
1105, 59.2826677511573
1105.5, 59.25145998100363
1106, 59.13156645498285
1106.5, 58.96734856197603
1107, 58.847892817712065
1107.5, 58.77027672421794
1108, 58.706406038102905
1108.5, 58.63100124366994
1109, 58.569530283101024
1109.5, 58.611349056982775
1110, 58.72804591227079
1110.5, 58.80408995934297
1111, 58.84074925496474
1111.5, 58.881232383059505
1112, 58.90219106342666
1112.5, 58.876994080871214
1113, 58.81343594738459
1113.5, 58.72794685489017
1114, 58.64205970578738
1114.5, 58.57909142852392
1115, 58.55161594336901
1115.5, 58.481752690800064
1116, 58.30323598085761
1116.5, 58.166159132503765
1117, 58.17767878146337
1117.5, 58.2254044969335
1118, 58.22553431224376
1118.5, 58.172928691218026
1119, 58.10131674965072
1119.5, 58.057705992031
1120, 57.99922581458323
1120.5, 57.88257997229416
1121, 57.81716023039198
1121.5, 57.85920534074927
1122, 57.87523840111301
1122.5, 57.88645348127208
1123, 58.110784081349124
1123.5, 58.3963527273557
1124, 58.38589375797262
1124.5, 58.238177610433176
1125, 58.21528102352113
1125.5, 58.1476178766155
1126, 57.91843381155791
1126.5, 57.721934995719494
1127, 57.62027632668931
1127.5, 57.48176434382941
1128, 57.30464557583913
1128.5, 57.17437707597464
1129, 57.096006286725554
1129.5, 57.03158647355086
1130, 56.90905268760682
1130.5, 56.71459557914345
1131, 56.56149908409168
1131.5, 56.48708576606237
1132, 56.42612502039205
1132.5, 56.33471813869531
1133, 56.20147266505184
1133.5, 56.10423243158421
1134, 56.1109464566385
1134.5, 56.140867758129744
1135, 56.12682773759614
1135.5, 56.08647778366882
1136, 56.035510629433375
1136.5, 55.97811157795711
1137, 55.930696942218056
1137.5, 55.90413827804721
1138, 55.826930415801655
1138.5, 55.65202220707461
1139, 55.50844813116376
1139.5, 55.485239095378006
1140, 55.533655294009556
1140.5, 55.57210249290615
1141, 55.51168828575102
1141.5, 55.39662645567154
1142, 55.32769663981419
1142.5, 55.25646649964196
1143, 55.11605755246895
1143.5, 54.94578511165135
1144, 54.801653399872386
1144.5, 54.73022995669058
1145, 54.70662435428403
1145.5, 54.643710930294645
1146, 54.55213839893993
1146.5, 54.48640782872245
1147, 54.41441598537628
1147.5, 54.31352842914124
1148, 54.27434810039434
1148.5, 54.33025343407501
1149, 54.38650629587604
1149.5, 54.38012874274428
1150, 54.29381828494139
1150.5, 54.13873966456562
1151, 53.950480531642334
1151.5, 53.81221532970276
1152, 53.752259691020754
1152.5, 53.604596172048794
1153, 53.343689838471015
1153.5, 53.21242056240764
1154, 53.25891299976976
1154.5, 53.33294764787464
1155, 53.34483980129523
1155.5, 53.26187471736974
1156, 53.147916612565005
1156.5, 53.056014281545814
1157, 52.932265375043286
1157.5, 52.78343542469251
1158, 52.729555001145954
1158.5, 52.76372834800086
1159, 52.764867786313886
1159.5, 52.6872703195231
1160, 52.54416672770546
1160.5, 52.429650700061224
1161, 52.407964817120245
1161.5, 52.40761818968745
1162, 52.41225424395766
1162.5, 52.507709191588894
1163, 52.598387408502504
1163.5, 52.46599268933411
1164, 52.23657665186092
1164.5, 52.14135446079591
1165, 52.09977066846272
1165.5, 52.011420555022866
1166, 51.94036552068873
1166.5, 51.89998915915046
1167, 51.80322469791875
1167.5, 51.658619486311686
1168, 51.54761867493582
1168.5, 51.451194599305396
1169, 51.315186618771584
1169.5, 51.14622509980534
1170, 50.9801587858614
1170.5, 50.88232495647266
1171, 50.88348971019194
1171.5, 50.95742139787705
1172, 51.005447627767836
1172.5, 50.90438714603476
1173, 50.758161364018385
1173.5, 50.70582311427107
1174, 50.60323032883746
1174.5, 50.35772458366323
1175, 50.15178909726861
1175.5, 50.09027718768735
1176, 50.12777440144812
1176.5, 50.20322639413581
1177, 50.25481886128037
1177.5, 50.24625450445293
1178, 50.158509310069796
1178.5, 49.99598738945769
1179, 49.77956072441109
1179.5, 49.55338604521815
1180, 49.365891691590484
1180.5, 49.26636200815524
1181, 49.294361642143585
1181.5, 49.456920126780396
1182, 49.586514799064425
1182.5, 49.51915279617603
1183, 49.37462127940519
1183.5, 49.233490539411335
1184, 48.966220315330716
1184.5, 48.62174184345337
1185, 48.4669936609533
1185.5, 48.430002049971286
1186, 48.24691277578751
1186.5, 48.01552469899385
1187, 47.91639531156982
1187.5, 47.9016990672821
1188, 47.90167499521531
1188.5, 47.90359634132386
1189, 47.91867857386139
1189.5, 47.9737850566207
1190, 48.044766256351494
1190.5, 48.077550995038465
1191, 48.049523508269644
1191.5, 47.960041954056194
1192, 47.84086744977121
1192.5, 47.72166601651259
1193, 47.61523298017102
1193.5, 47.53246544150964
1194, 47.48254676412333
1194.5, 47.45503832956326
1195, 47.43160812153789
1195.5, 47.42204959141368
1196, 47.424191382629964
1196.5, 47.364516205313414
1197, 47.22337592742756
1197.5, 47.10198230630396
1198, 47.04246567323316
1198.5, 47.007982852673585
1199, 46.92725471954301
1199.5, 46.74153497603424
1200, 46.570514793593915
1200.5, 46.50697809162653
1201, 46.37012648325988
1201.5, 46.10796703045092
1202, 45.97365539011207
1202.5, 46.01830290136794
1203, 46.0669729723845
1203.5, 46.045689195424536
1204, 45.95963810624436
1204.5, 45.88484145147954
1205, 45.873597958824945
1205.5, 45.84042888510875
1206, 45.737722147399964
1206.5, 45.621377308131144
1207, 45.52333406580969
1207.5, 45.444843280473265
1208, 45.408402382169584
1208.5, 45.426895370796586
1209, 45.397854885375665
1209.5, 45.25644329483585
1210, 45.145644707269554
1210.5, 45.13595412043762
1211, 45.128151277959624
1211.5000000000002, 45.088604907652496
1212, 45.05660141677339
1212.5, 45.047514337145934
1213, 45.047208304233074
1213.5, 44.96850108020189
1214, 44.766772243106175
1214.5, 44.56982362538507
1215, 44.44216187197363
1215.5, 44.309974499853254
1216, 44.13630315188741
1216.5, 43.93112841255308
1217, 43.73444902467963
1217.5, 43.59621185010604
1218.0000000000002, 43.54340178898848
1218.5, 43.56464926993483
1219, 43.568961416592025
1219.5, 43.527505948240886
1220, 43.51503146300084
1220.5, 43.50212309190029
1221, 43.38035127418964
1221.5, 43.19118281627388
1222, 43.03456323316465
1222.5, 42.93015780028397
1223, 42.84770983514948
1223.5, 42.69225931943517
1224, 42.473894904245746
1224.5, 42.35572762388698
1225, 42.36378606478004
1225.5, 42.40396653819821
1226, 42.4040347479494
1226.5, 42.327781639763955
1227, 42.24016074857329
1227.5, 42.20037203635616
1228, 42.19029183117485
1228.5, 42.150680585765365
1229, 41.99159802515336
1229.5, 41.77659067166165
1230, 41.669008396127715
1230.5, 41.651915075625325
1231, 41.64047624518303
1231.5000000000002, 41.61582246300428
1232, 41.58116864155114
1232.5, 41.5502694561947
1233, 41.492021402563395
1233.5, 41.33664824803608
1234, 41.326410549069735
1234.5, 41.73526780933948
1235, 41.34950590837683
1235.5, 41.15374441614687
1236, 40.92203887235133
1236.5, 40.66019590982812
1237, 40.37402216141508
1237.5, 40.06932425995005
1238.0000000000002, 39.75190883827092
1238.5, 39.42758252921554
1239, 39.10215196562177
1239.5, 38.78142378032747
1240, 38.47120460617048
1240.5, 38.1773010759887
1241, 37.90551982261996
1241.5, 37.661667478902125
1242, 37.45155067767305
1242.5, 36.94861371148781
1243, 37.33129634109325
1243.5, 37.5032366901236
1244, 37.58088253768892
1244.5000000000002, 37.63282843596487
1245, 37.66416156698532
1245.5, 37.67996911278419
1246, 37.685338255395315
1246.5, 37.6853561768526
1247, 37.688052906219625
1247.5, 37.71026917558807
1248, 37.722796496447124
1248.5, 37.73241997752324
1249, 37.742237490725365
1249.5, 37.751764326067374
1250, 37.76051577356306
1250.5, 37.76800712322627
1251, 37.77375366507088
1251.5, 37.7758420644198
1252, 37.72702520505949
1252.5, 37.60908895938954
1253, 37.49935862701526
1253.5, 37.464212149018046
1254, 37.42971621400626
1254.5, 37.36618647139992
1255, 37.369758159956845
1255.5, 37.41679815101194
1256, 37.36067906789868
1256.5, 37.244105396067994
1257, 37.19083416114937
1257.5, 37.09981075505474
1258.0000000000002, 36.88217506529029
1258.5, 36.72849819121826
1259, 36.7253315129752
1259.5, 36.69252095045519
1260, 36.57807354792191
1260.5, 36.479933109945975
1261, 36.426367031119234
1261.5, 36.41251843911816
1262, 36.49914915790336
1262.5, 36.70808432430141
1263, 36.883432566621956
1263.5, 36.94539548132046
1264, 36.989311085634576
1264.5000000000002, 37.0092704912994
1265, 36.90217440504702
1265.5, 36.73479711532237
1266, 36.6457558399005
1266.5, 36.63446592255024
1267, 36.64778197927187
1267.5, 36.611990107140514
1268, 36.50691525790203
1268.5, 36.402611108470055
1269, 36.35872067201996
1269.5, 36.405011316784304
1270, 36.453340460394564
1270.5, 36.39046759772685
1271.0000000000002, 36.291963688298026
1271.5, 36.23412995795697
1272, 36.14167152663833
1272.5, 35.996791472823375
1273, 35.90407010465532
1273.5, 35.901732400375494
1274, 35.96010925919646
1274.5, 36.05656993720949
1275, 36.16859132621305
1275.5, 36.251211521768724
1276, 36.29109936714836
1276.5, 36.37029163821982
1277, 36.46186254133729
1277.5000000000002, 36.37186085637862
1278, 36.1595139772587
1278.5, 36.0763309418338
1279, 36.06408340159639
1279.5, 35.95018740094871
1280, 35.75727271030594
1280.5, 35.559153383627944
1281, 35.42093307080141
1281.5, 35.396750913981776
1282, 35.52086791456465
1282.5, 35.722094740186776
1283, 35.861179203609254
1283.5, 35.94055389652307
1284, 36.01013527810905
1284.5, 36.02914413066215
1285, 36.010259733712175
1285.5, 36.143516789000316
1286, 36.45099807931719
1286.5, 36.70443863350559
1287, 36.828570368487476
1287.5, 36.886359502447704
1288, 36.963267242406815
1288.5, 37.10630914956137
1289, 37.17235126714193
1289.5, 37.08254664599093
1290, 37.00714668021402
1290.5, 37.03145137091389
1291.0000000000002, 37.088954520684254
1291.5, 37.137266916147354
1292, 37.162995771312666
1292.5, 37.17426840283832
1293, 37.181491880936065
1293.5, 37.168718630138294
1294, 37.14139891114991
1294.5, 37.162730204021656
1295, 37.23760369552313
1295.5, 37.2808066176386
1296, 37.2944970100849
1296.5, 37.289662567109595
1297, 37.26397801063897
1297.5000000000002, 37.250153042755606
1298, 37.23416301949292
1298.5, 37.2165454025984
1299, 37.19783765381955
1299.5, 37.17857723490384
1300, 37.15930160759878
1300.5, 37.140548233651856
1301, 37.12285457481056
1301.5, 37.10675809282239
1302, 37.09279624943485
1302.5, 37.071633954729236
1303, 37.069427336550966
1303.5, 37.09506673715833
1304.0000000000002, 37.11136538669271
1304.5, 37.11378112325056
1305, 37.09055244548372
1305.5, 37.023687837223115
1306, 36.89408870143066
1306.5, 36.71731426249487
1307, 36.62551951155574
1307.5, 36.64724947599181
1308, 36.577483036732914
1308.5, 36.404332174309964
1309, 36.33837911862351
1309.5, 36.3853824031734
1310, 36.42555674997477
1310.5000000000002, 36.42081760214369
1311, 36.37381346701087
1311.5, 36.319008684260936
1312, 36.28315345634603
1312.5, 36.2663519435858
1313, 36.23557406199582
1313.5, 36.13523079440144
1314, 36.01253234453385
1314.5, 35.961172251876675
1315, 35.97487481923167
1315.5, 35.992492604704566
1316, 35.89449138619635
1316.5, 35.674230331603965
1317, 35.531996449895004
1317.5000000000002, 35.5015803611205
1318.0000000000002, 35.44292199186593
1318.5000000000002, 35.3739920388722
1319.0000000000002, 35.385966319197465
1319.5, 35.43551112798184
1320, 35.45825859047734
1320.5, 35.46114392417199
1321, 35.46017295889739
1321.5, 35.46480403752399
1322, 35.482758713225664
1322.5, 35.5200127843306
1323, 35.57608719601717
1323.5, 35.64469252630359
1324.0000000000002, 35.70838207464408
1324.5000000000002, 35.771688326106
1325.0000000000002, 35.9092222777045
1325.5000000000002, 36.12273098391063
1326.0000000000002, 36.28351211126325
1326.5, 36.35268276045085
1327, 36.38040213923495
1327.5, 36.36595567565414
1328, 36.295899115502195
1328.5, 36.23894058444992
1329, 36.25778919427532
1329.5, 36.33179484311401
1330, 36.42069037671094
1330.5000000000002, 36.477052313503
1331.0000000000002, 36.48630800132487
1331.5000000000002, 36.46596879224609
1332.0000000000002, 36.45257195371634
1332.5000000000002, 36.47461464766773
1333, 36.479686725019434
1333.5, 36.42917709359134
1334, 36.37974852033581
1334.5, 36.389597825450196
1335, 36.49154581449107
1335.5, 36.61683585839893
1336, 36.629480254720725
1336.5, 36.546564000430635
1337.0000000000002, 36.44763656179126
1337.5000000000002, 36.34505542934983
1338.0000000000002, 36.25668704342655
1338.5000000000002, 36.25812679974682
1339.0000000000002, 36.35192108081696
1339.5, 36.43518567159868
1340, 36.554175336943764
1340.5, 36.84597698114294
1341, 37.14045663602975
1341.5, 37.20008264101256
1342, 37.130384067556854
1342.5, 37.06542957235446
1343, 36.99365730619141
1343.5, 36.92081153680165
1344.0000000000002, 36.896907026546245
1344.5000000000002, 36.86458868099569
1345.0000000000002, 36.70916306181401
1345.5000000000002, 36.543450427762
1346, 36.52188705744649
1346.5, 36.54297245681445
1347, 36.52633615384291
1347.5, 36.58079087830138
1348, 36.713539795908176
1348.5, 36.77803238483517
1349, 36.779685359079735
1349.5, 36.817850614464994
1350, 36.78184267771268
1350.5000000000002, 36.54081499042357
1351.0000000000002, 36.245246138813144
1351.5000000000002, 36.04420189286206
1352.0000000000002, 35.93802819753374
1352.5000000000002, 35.90767647851807
1353, 35.93471703478765
1353.5, 36.01295682233378
1354, 36.12815251604711
1354.5, 36.150190564559935
1355, 35.98284991789673
1355.5, 35.83256196275063
1356, 35.82654009075999
1356.5, 35.79346839459342
1357.0000000000002, 35.752680193054374
1357.5000000000002, 35.96482620530942
1358.0000000000002, 36.318451675175226
1358.5000000000002, 36.49120092475732
1359.0000000000002, 36.54593951947315
1359.5, 36.63809658104112
1360, 36.69965429514126
1360.5, 36.69009086996005
1361, 36.716404406543376
1361.5, 36.80935839387993
1362, 36.89284596864513
1362.5, 36.88661884462995
1363, 36.74195507713523
1363.5000000000002, 36.598555196967816
1364.0000000000002, 36.58493675465927
1364.5000000000002, 36.5514863875799
1365.0000000000002, 36.41912905015261
1365.5000000000002, 36.345761656135345
1366, 36.361411260605465
1366.5, 36.3370244824504
1367, 36.254415462521536
1367.5, 36.16920713333475
1368, 36.12072227952655
1368.5, 36.127627227874925
1369, 36.16307351557715
1369.5, 36.198764257137086
1370.0000000000002, 36.22207518419265
1370.5000000000002, 36.26914663947895
1371.0000000000002, 36.409676782064935
1371.5000000000002, 36.53867119476709
1372.0000000000002, 36.495759948466876
1372.5, 36.421222081336936
1373, 36.46958506974665
1373.5, 36.51700942187142
1374, 36.47994310638514
1374.5, 36.43419446083983
1375, 36.42146577822419
1375.5, 36.42358644269192
1376, 36.324196441699044
1376.5, 36.02384410369302
1377.0000000000002, 35.81697996307787
1377.5000000000002, 35.976162215154105
1378.0000000000002, 36.32556549543425
1378.5000000000002, 36.649380059501134
1379.0000000000002, 36.80888166573068
1379.5, 36.85197639200271
1380, 36.97571410801727
1380.5, 37.1351842099038
1381, 37.18368621519088
1381.5, 37.17367824435044
1382, 37.18736014900343
1382.5, 37.21143257005798
1383, 37.228327251824744
1383.5000000000002, 37.241039238879566
1384.0000000000002, 37.275507433545314
1384.5000000000002, 37.366103110364264
1385.0000000000002, 37.443085709472065
1385.5000000000002, 37.40923872941787
1386, 37.310246806099926
1386.5, 37.218147104089546
1387, 37.15858001593997
1387.5, 37.14022114692191
1388, 37.15545798742256
1388.5, 37.1561362651604
1389, 37.07580926933598
1389.5, 36.99507840820743
1390.0000000000002, 37.028348386266074
1390.5000000000002, 37.089502138690534
1391.0000000000002, 37.09836772695203
1391.5000000000002, 37.13748786720822
1392.0000000000002, 37.23089964218309
1392.5, 37.285876110727074
1393, 37.311355052053884
1393.5, 37.393868709289585
1394, 37.47359403141737
1394.5, 37.459281567102494
1395, 37.44960466570186
1395.5, 37.50556076565107
1396, 37.470763934940244
1396.5000000000002, 37.31758555215832
1397.0000000000002, 37.233589124507986
1397.5000000000002, 37.235733762896345
1398.0000000000002, 37.208394910487925
1398.5000000000002, 37.20322725168083
1399, 37.30976253017108
