299, 13.442050750561322
299.5, 13.396961292620105
300, 13.451429368458008
300.5, 13.535836544188228
301, 13.597656746504839
301.5, 13.583596397262596
302, 13.613787790175124
302.5, 13.68596537936699
303, 13.75999980263056
303.5, 13.805390625877237
304, 13.831838005928361
304.5, 13.900117881233399
305, 13.989948590939434
305.5, 14.022743072620457
306, 14.033287585934673
306.5, 14.090770688890544
307, 14.166427868798692
307.5, 14.22112495980194
308, 14.255798075568634
308.5, 14.286306538526532
309, 14.339084382076862
309.5, 14.40996425076419
310, 14.4715608865301
310.5, 14.514567260384922
311, 14.543722730835412
311.5, 14.585405806996164
312, 14.653221211142053
312.5, 14.718808248360133
313, 14.767770122055722
313.5, 14.812032094443623
314, 14.863480742502801
314.5, 14.929603663281227
315, 14.995950196558525
315.5, 15.046443675644667
316, 15.097763063960173
316.5, 15.163907752373802
317, 15.235036761867505
317.5, 15.302197907549527
318, 15.361609111248384
318.5, 15.409348432232889
319, 15.443368079243925
319.5, 15.477397062900067
320, 15.525598863251389
320.5, 15.577976484562768
321, 15.626866205807985
321.5, 15.681543231932523
322, 15.748713176901276
322.5, 15.828702739896741
323, 15.913522583646866
323.5, 15.990076590978816
324, 16.04927260196716
324.5, 16.087330622164856
325, 16.11358828359785
325.5, 16.14282778175314
326, 16.19409958678888
326.5, 16.264145606297888
327, 16.324797845686774
327.5, 16.371475690461395
328, 16.416646879467322
328.5, 16.47143966016027
329, 16.53973547811495
329.5, 16.602740140222934
330, 16.651459131090434
330.5, 16.704967867446
331, 16.77306308488187
331.5, 16.850070748784205
332, 16.9133574364149
332.5, 16.941332298083523
333, 16.98394185933053
333.5, 17.085047981245125
334, 17.179485573130663
334.5, 17.22730185521209
335, 17.2758142222242
335.5, 17.34561032624687
336, 17.418692427781238
336.5, 17.48315363867593
337, 17.534792371148797
337.5, 17.584623977259284
338, 17.646290303949087
338.5, 17.724391670567726
339, 17.811238906883418
339.5, 17.881300742515975
340, 17.928479371119494
340.5, 17.96911383548212
341, 18.023500728980196
341.5, 18.105973392336125
342, 18.187992328912955
342.5, 18.241588562215767
343, 18.285041832142213
343.5, 18.34594631573563
344, 18.450695514193583
344.5, 18.573598318097325
345, 18.64591069190304
345.5, 18.68743633271643
346, 18.758362180154748
346.5, 18.85340865695136
347, 18.94547657676732
347.5, 19.00763075558889
348, 19.038094910182338
348.5, 19.074738862495295
349, 19.127858699859033
349.5, 19.17964289977853
350, 19.229224957735525
350.5, 19.28654002547914
351, 19.36498144364073
351.5, 19.46700190461263
352, 19.562492487161492
352.5, 19.642631697020462
353, 19.738538363058538
353.5, 19.84179047415212
354, 19.910046643732485
354.5, 19.951928780534118
355, 19.9983292393555
355.5, 20.052600852115816
356, 20.10679116537254
356.5, 20.145549474862065
357, 20.17458802644184
357.5, 20.231251464656694
358, 20.32073121916325
358.5, 20.41730713798397
359, 20.492911287528514
359.5, 20.534499217680704
360, 20.60078545931009
360.5, 20.72448896548579
361, 20.822716933135652
361.5, 20.866071212079504
362, 20.92466330313981
362.5, 21.014663630850663
363, 21.103277456025936
363.5, 21.1842121577738
364, 21.264957990583383
364.5, 21.352923487085107
365, 21.451903912862903
365.5, 21.557044301456003
366, 21.658939763008718
366.5, 21.74414049634457
367, 21.806918717312755
367.5, 21.851313328976772
368, 21.90676654974557
368.5, 21.996262263364358
369, 22.066683055123377
369.5, 22.09170043455643
370, 22.150766225023077
370.5, 22.273411123352105
371, 22.40521483605967
371.5, 22.518531945624588
372, 22.61185690427226
372.5, 22.689285789661042
373, 22.757292226379505
373.5, 22.82298037774433
374, 22.890285775837015
374.5, 22.95598679509473
375, 23.021987555487343
375.5, 23.096183729531646
376, 23.161653852244015
376.5, 23.192376753437628
377, 23.231252155086864
377.5, 23.326184789973894
378, 23.430959341540017
378.5, 23.50195304172503
379, 23.548452343419996
379.5, 23.595635721337814
380, 23.676785239708934
380.5, 23.783258453426356
381, 23.879465364417683
381.5, 23.953408563789836
382, 24.012222525568916
382.5, 24.095935002666394
383, 24.217615434712982
383.5, 24.32210546421844
384, 24.385386320857975
384.5, 24.42982214779059
385, 24.4818203639754
385.5, 24.561841209769753
386, 24.646120896406032
386.5, 24.70990790855342
387, 24.78500124850521
387.5, 24.88793670902264
388, 24.983252726680604
388.5, 25.06371005548975
389, 25.15768741034732
389.5, 25.260288446231286
390, 25.348369791077943
390.5, 25.429240614643234
391, 25.514789412658203
391.5, 25.593783886751424
392, 25.66018431166043
392.5, 25.725986640493005
393, 25.793691585704096
393.5, 25.853754358894435
394, 25.900121031262216
394.5, 25.93593271543581
395, 26.002638992335008
395.5, 26.124317210299495
396, 26.227677525022898
396.5, 26.285431616597734
397, 26.382398058527514
397.5, 26.52540365989067
398, 26.635533894186466
398.5, 26.70864349285233
399, 26.78398353180593
399.5, 26.87606896849651
400, 26.98142190148964
400.5, 27.069079653895912
401, 27.131958998135588
401.5, 27.21085420906894
402, 27.315304092395422
402.5, 27.420732134166585
403, 27.51881684081222
403.5, 27.609841388296417
404, 27.68499610405317
404.5, 27.738366458648386
405, 27.78108042490669
405.5, 27.828469986712037
406, 27.8968624085162
406.5, 27.983636866155123
407, 28.06969236092786
407.5, 28.152274690722365
408, 28.236475205765956
408.5, 28.31907360892656
409, 28.399542933118354
409.5, 28.491726289171297
410, 28.594975351577062
410.5, 28.68383936763614
411, 28.764899551307096
411.5, 28.87132588546912
412, 28.992968829745394
412.5, 29.10120116282677
413, 29.192530591130847
413.5, 29.274429941652585
414, 29.36301816785324
414.5, 29.46419596896918
415, 29.5668436738176
415.5, 29.66663227877494
416, 29.76847724572073
416.5, 29.894890487156104
417, 30.058460189276275
417.5, 30.185978423900124
418, 30.233398910853637
418.5, 30.290093012237094
419, 30.396038400370188
419.5, 30.492591100420086
420, 30.55313464755804
420.5, 30.589184729560714
421, 30.65008898881713
421.5, 30.77894399398194
422, 30.913164292685636
422.5, 30.999048422902277
423, 31.073218571539584
423.5, 31.17148247311158
424, 31.307106137688763
424.5, 31.442527457614645
425, 31.51307881826409
425.5, 31.55374802593559
426, 31.628174543305434
426.5, 31.722635767600693
427, 31.810124104799712
427.5, 31.880002494412054
428, 31.943269682586717
428.5, 32.03453142750999
429, 32.15847040023765
429.5, 32.29533119547911
430, 32.42625133698429
430.5, 32.546550090721226
431, 32.70488324506739
431.5, 32.91498068093456
432, 33.086772333903724
432.5, 33.19582017496879
433, 33.31419330967772
433.5, 33.4529617616664
434, 33.5779521169063
434.5, 33.690148780235745
435, 33.80409961954335
435.5, 33.92650452994444
436, 34.049979848877044
436.5, 34.14209243090701
437, 34.1897762328566
437.5, 34.2082564616628
438, 34.224213157844005
438.5, 34.26847150039097
439, 34.35282006640249
439.5, 34.47136302337543
440, 34.58302633646473
440.5, 34.675052203839485
441, 34.805379422583016
441.5, 34.96483371709935
442, 35.06282926641987
442.5, 35.09706656096644
443, 35.12674191831445
443.5, 35.19562245642078
444, 35.32288933221999
444.5, 35.465665984446474
445, 35.58620860187165
445.5, 35.68325751886606
446, 35.78036954543157
446.5, 35.91727795910711
447, 36.04985995517994
447.5, 36.10024769270679
448, 36.12531235451554
448.5, 36.20094855794761
449, 36.29791777075734
449.5, 36.383031309228876
450, 36.45592153882449
450.5, 36.521853696462315
451, 36.58782926699354
451.5, 36.6550770046391
452, 36.72168254145987
452.5, 36.78900484433497
453, 36.85744846244707
453.5, 36.92067137880848
454, 36.97262337562844
454.5, 37.01174269327891
455, 37.07646541453486
455.5, 37.23267706335708
456, 37.40250893099373
456.5, 37.45788409547864
457, 37.47947599997282
457.5, 37.56416518288133
458, 37.64184803143125
458.5, 37.67083674496234
459, 37.70834507371793
459.5, 37.762962114798874
460, 37.79271341523969
460.5, 37.8290541947128
461, 37.92587207428967
461.5, 38.02360321462297
462, 38.06189247159881
462.5, 38.084844192803104
463, 38.12115776707561
463.5, 38.14553880021455
464, 38.159541379208264
464.5, 38.192609480942075
465, 38.25082736628958
465.5, 38.32322959356002
466, 38.38179930940955
466.5, 38.40512600602559
467, 38.40468480116568
467.5, 38.41326705737503
468, 38.484241448474904
468.5, 38.5935619496226
469, 38.65495657517665
469.5, 38.67554977467164
470, 38.70395794993805
470.5, 38.74258257727009
471, 38.77960505384626
471.5, 38.80281358249291
472, 38.81641903583652
472.5, 38.84715745155999
473, 38.88296766938461
473.5, 38.88235577083959
474, 38.858038787894095
474.5, 38.84626984470729
475, 38.86166199586143
475.5, 38.90718234736789
476, 38.972183635416386
476.5, 39.04114184379877
477, 39.09602734668259
477.5, 39.144284287564005
478, 39.21000340049528
478.5, 39.27626772013294
479, 39.31557141060141
479.5, 39.34300022581409
480, 39.38449628656572
480.5, 39.46339073907579
481, 39.56929501706928
481.5, 39.6486617139018
482, 39.691426738939775
482.5, 39.723606370108264
483, 39.7581375780888
483.5, 39.79664415693912
484, 39.82136964616884
484.5, 39.83083774986822
485, 39.87119587286889
485.5, 39.94455383724438
486, 39.99073874709356
486.5, 40.019508289851736
487, 40.08821045330372
487.5, 40.179597963265756
488, 40.25309070157763
488.5, 40.31079320107318
489, 40.37091844028268
489.5, 40.46248429647988
490, 40.56987240855748
490.5, 40.62422254851487
491, 40.62963631552744
491.5, 40.64580077119179
492, 40.722532327814974
492.5, 40.876076434870946
493, 41.01416474948984
493.5, 41.06099866300892
494, 41.03012484281729
494.5, 40.972420611479315
495, 40.963686687531386
495.5, 40.98890141414339
496, 40.97741744491227
496.5, 40.92866520783655
497, 40.86580119139812
497.5, 40.791846734995744
498, 40.717992189635915
498.5, 40.678689343917675
499, 40.637878721540865
499.5, 40.48755103535583
500, 40.291799666417816
500.5, 40.20106019946602
501, 40.1448739869724
501.5, 40.009639160125715
502, 39.834700844461615
502.5, 39.676980697809974
503, 39.56217536821355
503.5, 39.46808446876469
504, 39.32743271797286
504.5, 39.12806051658673
505, 38.90292226988664
505.5, 38.72882187179528
506, 38.64351841081175
506.5, 38.50424674657101
507, 38.244455461227986
507.5, 38.00329431249955
508, 37.84520418143458
508.5, 37.73149979692261
509, 37.6360455121239
509.5, 37.54683237654452
510, 37.46904394755193
510.5, 37.3986514662821
511, 37.28385123380935
511.5, 37.090022998283374
512, 36.832092276227876
512.5, 36.59148995911606
513, 36.490542425107535
513.5, 36.410925845251384
514, 36.14728434951468
514.5, 35.82459418392544
515, 35.61463734467408
515.5, 35.48813489765324
516, 35.378915412300415
516.5, 35.225600590618555
517, 35.05070402221047
517.5, 34.94800849273757
518, 34.89559729420475
518.5, 34.815165298667765
519, 34.69464547788594
519.5, 34.5536347814852
520, 34.4389400264577
520.5, 34.36059822141878
521, 34.262757878502114
521.5, 34.123062079703644
522, 33.95954519627709
522.5, 33.81660092219231
523, 33.73220156179592
523.5, 33.643147601777216
524, 33.50189580769914
524.5, 33.389184053794594
525, 33.3312110865193
525.5, 33.23917752454105
526, 33.09597605148862
526.5, 32.95647669050024
527, 32.851465271586875
527.5, 32.781985544232995
528, 32.67522437662882
528.5, 32.48825983675788
529, 32.31300268365193
529.5, 32.21123604950017
530, 32.164296676194354
530.5, 32.0980700083383
531, 31.914887638444497
531.5, 31.6834454611204
532, 31.530317982967418
532.5, 31.45633383701164
533, 31.41566620629736
533.5, 31.3371711371409
534, 31.211695321872043
534.5, 31.12060067834041
535, 31.080327347179434
535.5, 31.047581273585195
536, 30.98591349144651
536.5, 30.880568852863192
537, 30.792437653941306
537.5, 30.76070575645744
538, 30.724455273467342
538.5, 30.654309585901657
539, 30.58379962066884
539.5, 30.53794247215798
540, 30.52231995013605
540.5, 30.473775691119954
541, 30.33152919602611
541.5, 30.177078824608003
542, 30.0856814512955
542.5, 30.033750370369418
543, 29.98651455811654
543.5, 29.9150595812727
544, 29.827611068252693
544.5, 29.755576040900124
545, 29.690998710595707
545.5, 29.61305928021109
546, 29.521065976068073
546.5, 29.42960538174313
547, 29.374521926457277
547.5, 29.347669619842407
548, 29.285252418570494
548.5, 29.173975918474255
549, 29.043159823740027
549.5, 28.938509116845722
550, 28.888625625987814
550.5, 28.832859297595604
551, 28.731104506176337
551.5, 28.629528233304924
552, 28.548662669584928
552.5, 28.465067047758964
553, 28.359754139963925
553.5, 28.22799665477669
554, 28.1264108970919
554.5, 28.098165954820345
555, 28.04818219776726
555.5, 27.9244273229195
556, 27.82163166474595
556.5, 27.77805508997777
557, 27.7479029414214
557.5, 27.713235529167974
558, 27.675142821988075
558.5, 27.613544778986125
559, 27.520531342761245
559.5, 27.4585741916315
560, 27.439526101056316
560.5, 27.35318612163114
561, 27.20496035758525
561.5, 27.130321280672376
562, 27.088740300433088
562.5, 26.95622830268333
563, 26.831989620008088
563.5, 26.834956488011898
564, 26.872417555729683
564.5, 26.859947319261764
565, 26.808485904740337
565.5, 26.739039190398117
566, 26.670758696000377
566.5, 26.60434758604302
567, 26.532817525304367
567.5, 26.47163632382764
568, 26.434962061860887
568.5, 26.40753188298916
569, 26.375005202971792
569.5, 26.334177876418877
570, 26.266827148313055
570.5, 26.14619507382689
571, 26.032004161367396
571.5, 26.006821855684308
572, 25.989766815479342
572.5, 25.901308284249012
573, 25.833086208554946
573.5, 25.836869323101737
574, 25.845454001859963
574.5, 25.841744091616306
575, 25.86276640422186
575.5, 25.876316291058203
576, 25.825967426251893
576.5, 25.745891179097114
577, 25.67937710507509
577.5, 25.61103600454088
578, 25.5391074970383
578.5, 25.49895339472684
579, 25.487669407715572
579.5, 25.468060220576092
580, 25.453627934606686
580.5, 25.47675010895513
581, 25.51945734491865
581.5, 25.548396191928546
582, 25.531969498396606
582.5, 25.475955878240157
583, 25.4407836262411
583.5, 25.42950428576863
584, 25.396168887214728
584.5, 25.364291262752488
585, 25.377447308123223
585.5, 25.393861060403495
586, 25.36814023171108
586.5, 25.31229818796814
587, 25.256758696255773
587.5, 25.243086604380636
588, 25.267082368922487
588.5, 25.288038373320845
589, 25.302914134596037
589.5, 25.322948660953287
590, 25.33402874213472
590.5, 25.32193985437081
591, 25.29049525571179
591.5, 25.254258393433744
592, 25.236865450955975
592.5, 25.221922236704245
593, 25.16685557869205
593.5, 25.094972547154015
594, 25.05093352895254
594.5, 25.030596304983007
595, 25.024855186261348
595.5, 25.044340507346007
596, 25.094553986904046
596.5, 25.16850792867153
597, 25.235045600773717
597.5, 25.25252673957955
598, 25.24361789981002
598.5, 25.24666294458629
599, 25.239826176847544
599.5, 25.214416583436574
600, 25.226428070942703
600.5, 25.296964675745485
601, 25.387403652169453
601.5, 25.429132291580174
602, 25.353827327560253
602.5, 25.243242856273042
603, 25.208902396099845
603.5, 25.214403944521152
604, 25.204192322720488
604.5, 25.16139031251066
605, 25.091622214909037
605.5, 25.02223074827866
606, 24.97712891527472
606.5, 24.967629400430425
607, 24.941877562932177
607.5, 24.854264933515296
608, 24.78386342384809
608.5, 24.76528035923515
609, 24.681902760814182
609.5, 24.51788847260478
610, 24.39570943831943
610.5, 24.34608356333979
611, 24.323204703357177
611.5, 24.247210975534173
612, 24.067264309484827
612.5, 23.88424883444533
613, 23.76812631325761
613.5, 23.65960730776966
614, 23.523519212906166
614.5, 23.372648976401095
615, 23.244339654711425
615.5, 23.175439468906973
616, 23.104650746007493
616.5, 22.964503990548835
617, 22.798313062850795
617.5, 22.657337099577106
618, 22.56093508266649
618.5, 22.483429005013733
619, 22.360786693613377
619.5, 22.22312802787907
620, 22.147858011115247
620.5, 22.116329665211026
621, 22.08495190066968
621.5, 22.047455750771817
622, 22.010928170380424
622.5, 21.991852007022118
623, 21.978291565080795
623.5, 21.93088423483266
624, 21.85669764500389
624.5, 21.787296333136638
625, 21.721967127644476
625.5, 21.65345328695183
626, 21.59044562333399
626.5, 21.528635818202687
627, 21.436679101046366
627.5, 21.31482323315086
628, 21.197344429777218
628.5, 21.104325686257724
629, 21.039335358277626
629.5, 20.967521341982874
630, 20.864075834255843
630.5, 20.77260793018722
631, 20.699186554143765
631.5, 20.568890275518058
632, 20.39143730998461
632.5, 20.257043266773124
633, 20.146350305828065
633.5, 19.995545564899786
634, 19.850669667809058
634.5, 19.762046478451623
635, 19.689784821293728
635.5, 19.616482551466632
636, 19.584779469815174
636.5, 19.591830810101413
637, 19.59003397284441
637.5, 19.56620391507657
638, 19.52549157484279
638.5, 19.46431804842932
639, 19.38221879592112
639.5, 19.29487332854491
640, 19.223589639011948
640.5, 19.191957784856513
641, 19.18021808957421
641.5, 19.137083701652102
642, 19.08492938292696
642.5, 19.063880462458158
643, 19.00921562186238
643.5, 18.88242096332803
644, 18.793234933705122
644.5, 18.78434540244126
645, 18.767333117218087
645.5, 18.728353079210706
646, 18.719815675815695
646.5, 18.722779824325855
647, 18.69481526927605
647.5, 18.657040625440487
648, 18.62065255995195
648.5, 18.528388493964698
649, 18.384022606462196
649.5, 18.288047008999015
650, 18.249779272767015
650.5, 18.203970216192715
651, 18.152448390283283
651.5, 18.119831197332815
652, 18.082820158139455
652.5, 18.027558663858656
653, 17.992834830935266
653.5, 17.98180353774893
654, 17.94035135140446
654.5, 17.846816920629905
655, 17.715534036568698
655.5, 17.611065082427444
656, 17.59396335455547
656.5, 17.613236773194316
657, 17.606609117886634
657.5, 17.552631716981423
658, 17.464109880379866
658.5, 17.38934940310699
659, 17.345641368167776
659.5, 17.323769040338178
660, 17.309803332069208
660.5, 17.292387630876007
661, 17.277403628505965
661.5, 17.273868952447373
662, 17.287884645025542
662.5, 17.307748945431342
663, 17.302645873464357
663.5, 17.282089178082046
664, 17.276664209212854
664.5, 17.248527852574426
665, 17.160743483743417
665.5, 17.090462886753613
666, 17.08969653955046
666.5, 17.10284475546797
667, 17.10059120138797
667.5, 17.10034366387407
668, 17.10060728088861
668.5, 17.0876155599981
669, 17.068869378607488
669.5, 17.048756172709048
670, 16.9891338799856
670.5, 16.882499971263144
671, 16.799763972077415
671.5, 16.756160381899576
672, 16.693532388139587
672.5, 16.580673495329236
673, 16.419127118559018
673.5, 16.283353053102203
674, 16.238541118852083
674.5, 16.221432113166244
675, 16.174327541572012
675.5, 16.103433382291797
676, 16.034035775474592
676.5, 16.00061125386405
677, 15.989786333211654
677.5, 15.966734747555861
678, 15.958460701416598
678.5, 15.99242861701022
679, 16.021915041518028
679.5, 16.030120315259737
680, 16.08039051182793
680.5, 16.17220503396895
681, 16.23485376713164
681.5, 16.280599839273293
682, 16.361281307030353
682.5, 16.44374524716399
683, 16.484530486857864
683.5, 16.503339618429564
684.5, 16.47458457234282
685, 16.40189382495278
685.5, 16.329686740389747
686, 16.26490938456341
686.5, 16.19741943194491
687, 16.131733506378097
687.5, 16.10403712940753
688, 16.228346631605945
692.5, 16.28839044913414
693, 16.158665916105306
693.5, 16.11714997257127
694, 16.083124013260488
694.5, 16.074402251631014
695, 16.077890665194772
695.5, 16.06706064469593
696, 16.044516188779212
696.5, 16.02319421891511
697, 16.019129344245542
697.5, 16.036487052263922
698, 16.061090445128357
698.5, 16.095116847073754
699, 16.151799917804084
699.5, 16.196953318572426
700, 16.18836155057049
700.5, 16.166319569420423
701, 16.176250016537324
701.5, 16.21277804803198
702, 16.251158691031037
702.5, 16.25194346978624
703, 16.211125181439087
703.5, 16.156110798256393
704, 16.109289956175587
704.5, 16.08521820174427
705, 16.076929053946344
705.5, 16.06717982421786
706, 16.029086656605855
706.5, 15.972192280309415
707, 15.956495688008005
707.5, 15.981686521900315
708, 16.004878348829735
708.5, 16.074473379150675
709, 16.239540247418574
709.5, 16.35716905315681
710, 16.318995276574228
710.5, 16.22153094058872
711, 16.138051551432554
711.5, 16.069667724321704
712, 16.023226516556562
712.5, 16.010867625022044
713, 16.01757286735169
713.5, 16.02042146278373
714, 16.016435802690566
714.5, 16.00383918128277
715, 15.97210583149419
715.5, 15.920578756860124
716, 15.863185075330122
716.5, 15.814594638260544
717, 15.787122391636018
717.5, 15.777205038588605
718, 15.775525861495353
718.5, 15.777915068453595
719, 15.779753328521124
719.5, 15.772847905804397
720, 15.755345510943627
720.5, 15.735340674974793
721, 15.740337553882384
721.5, 15.800586885917838
722, 15.868334500615376
722.5, 15.888506663774379
723, 15.903602457121139
723.5, 15.94242897274519
724, 15.958528651966006
724.5, 15.937564700750286
725, 15.913747269523341
725.5, 15.899308179245423
726, 15.893794182456844
726.5, 15.930094795534089
727, 16.024156596756498
727.5, 16.0824994787354
728, 16.059734604853602
728.5, 16.053037890591483
729, 16.09387276093979
729.5, 16.120921204366013
730, 16.111831171582722
730.5, 16.077338560759543
731, 16.046779153475143
731.5, 16.04369353513654
732, 16.04792149425937
732.5, 16.045804066328614
733, 16.052906135478636
733.5, 16.05606740633192
734, 16.01161106471092
734.5, 15.936768924093684
735, 15.890310798417147
735.5, 15.934668363890594
736, 16.08848767662377
736.5, 16.22470633239466
737, 16.27167734095123
737.5, 16.31008516523123
738, 16.333207922062513
738.5, 16.238429096945183
739, 16.090762681293896
739.5, 16.038234510954908
740, 16.0841721552831
740.5, 16.181251875864717
741, 16.287002961024882
741.5, 16.384174901071916
742, 16.495529760424063
742.5, 16.5827917268294
743, 16.55520922208774
743.5, 16.473790809332826
744, 16.464635831235668
744.5, 16.502092860585805
745, 16.532562697565368
745.5, 16.573885476525263
746, 16.629297054040947
746.5, 16.6575405327456
747, 16.66915240626105
747.5, 16.720116395770404
748, 16.768179155617005
748.5, 16.736827306173282
749, 16.672445449305698
749.5, 16.635235484361274
750, 16.610722492532787
750.5, 16.5904260909671
751, 16.595317290436043
751.5, 16.61576191360834
752, 16.616449768097752
752.5, 16.61725355046555
753, 16.657237700123787
753.5, 16.716284491682046
754.0000000000001, 16.76740966996205
754.5, 16.814913174809845
755, 16.852908041920344
755.5, 16.852978559096243
756, 16.813040333828198
756.5, 16.756926547020896
757, 16.710625054089874
757.5, 16.696082308045746
758, 16.71302124877549
758.5, 16.756496733593124
759, 16.826345861159723
759.5, 16.912380093553992
760, 16.989569289598563
760.5000000000001, 17.053943876183823
761, 17.11942784116644
761.5, 17.18693549041882
762, 17.247968146892077
762.5, 17.282796707650363
763, 17.2998228181105
763.5, 17.38346143718836
764, 17.544375109192842
764.5, 17.678166379543356
765, 17.788379831020748
765.5, 17.957744467431823
766, 18.118545518072807
766.5, 18.164962518877374
767, 18.147714601873076
767.5, 18.148277184863773
768, 18.21907169551612
768.5, 18.34584664419272
769, 18.434358312939978
769.5, 18.473986110098636
770, 18.521646326598486
770.5000000000001, 18.601145837812012
771, 18.70873623289674
771.5, 18.794559173076223
772, 18.84646137930295
772.5, 18.962246407651648
773, 19.14381331859994
773.5, 19.2558933285018
774, 19.288289122636996
774.5, 19.325265536723563
775, 19.383834931872187
775.5, 19.45088168904607
776, 19.51706700117124
776.5, 19.590334878240768
777, 19.712919619013192
777.5, 19.88606413928119
778, 20.05486343874496
778.5, 20.179145743868716
779, 20.244122095525697
779.5, 20.31744376626689
780, 20.464812031115144
780.5000000000001, 20.6139784917668
781, 20.702746529727406
781.5, 20.757524731121862
782, 20.820814798246246
782.5, 20.934604831334653
783, 21.053587041506688
783.5, 21.0941067553981
784, 21.12928560919518
784.5, 21.258190388532668
785, 21.442696787681456
785.5, 21.62023443623046
786, 21.742119615541938
786.5, 21.802887691679018
787.0000000000001, 21.8429566251222
787.5, 21.87434873078014
788, 21.894496694722903
788.5, 21.941944142557958
789, 22.05628959001207
789.5, 22.225407860733128
790, 22.40564609031908
790.5, 22.517538023661885
791, 22.57271245114228
791.5, 22.676934427633498
792, 22.798455347410467
792.5, 22.833691661404856
793, 22.80705417138931
793.5, 22.780943779463144
794, 22.78428264765145
794.5, 22.81941376323627
795, 22.853204916758386
795.5, 22.868162125258237
796, 22.866837868621786
796.5, 22.84405353938257
797.0000000000001, 22.794780120663518
797.5, 22.746137251954053
798, 22.73101227316718
798.5, 22.764075374013117
799, 22.812937547463562
799.5, 22.77382938482421
800, 22.65858811656952
800.5, 22.596126139253855
801.0000000000001, 22.62224218019398
801.5, 22.714457003748635
802, 22.855213580929345
802.5, 23.01716828984972
803, 23.138610894135113
803.5000000000001, 23.19001522860576
804.0000000000001, 23.205804869518417
804.5000000000001, 23.20424568403206
805, 23.1823450458116
805.5, 23.143831292527096
806, 23.096182817247936
806.5, 23.043548832407694
807.0000000000001, 22.997913169452147
807.5000000000001, 22.996322084477
808, 23.05982348765015
808.5, 23.173568663352498
809, 23.259344692951956
809.5, 23.202829018853706
810, 23.085543884252047
810.5000000000001, 23.05082216558013
811.0000000000001, 23.007910566982503
811.5, 22.869003013257
812, 22.75049539553646
812.5, 22.7079262062327
813, 22.65409771527932
813.5000000000001, 22.58155718856611
814.0000000000001, 22.555253332122078
814.5000000000001, 22.541118337049383
815, 22.47155164363096
815.5, 22.374904122883564
816, 22.28237338632313
816.5, 22.159549121871166
817.0000000000001, 22.01569661828259
817.5000000000001, 21.936232579428648
818, 21.933353442241796
818.5, 21.95540665944658
819, 21.99570240185217
819.5, 22.06283923692409
820.0000000000001, 22.126613522432464
820.5000000000001, 22.154457091124414
821.0000000000001, 22.13564774558961
821.5, 22.08211332719989
822, 22.031019125311033
822.5, 21.98215631398871
823, 21.907495047145744
823.5000000000001, 21.819721933623768
824.0000000000001, 21.745908182541612
824.5, 21.688096890411018
825, 21.639022139712353
825.5, 21.58581687332486
826, 21.53260299931584
826.5, 21.504341805553466
827.0000000000001, 21.471589611483083
827.5000000000001, 21.368008421036137
828, 21.18849394438554
828.5, 20.96987365946653
829, 20.802083403321333
829.5, 20.73257126527224
830.0000000000001, 20.682754127388606
830.5000000000001, 20.61235220836363
831.0000000000001, 20.550944200083094
831.5, 20.483734178551373
832, 20.36717774642105
832.5, 20.224005035033827
833, 20.092262019433022
833.5000000000001, 19.953245255291506
834.0000000000001, 19.806494993413907
834.5, 19.71915181470979
835, 19.68064509368898
835.5, 19.58194679886327
836, 19.457573921601735
836.5000000000001, 19.431029953666226
837.0000000000001, 19.474673677603292
837.5000000000001, 19.502321728945205
838, 19.45319344441566
838.5, 19.31768187973141
839, 19.178744124607206
839.5, 19.081220738837743
840.0000000000001, 19.009773624803728
840.5000000000001, 18.944357644988727
841.0000000000001, 18.870039181979223
841.5, 18.81098813521787
842, 18.77958659521677
842.5, 18.689972537011116
843, 18.51270290958378
843.5000000000001, 18.3710268874336
844.0000000000001, 18.29795335001299
844.5, 18.205413314870597
845, 18.057701795113815
845.5, 17.86692093725007
846, 17.692949128712925
846.5000000000001, 17.59121357528572
847.0000000000001, 17.539541078453368
847.5000000000001, 17.47614578984198
848, 17.2996992589229
848.5, 17.031805822022136
849, 16.825628400304268
849.5, 16.718082904837914
850.0000000000001, 16.65454311458791
850.5000000000001, 16.51324124406011
851, 16.230060803911627
851.5, 16.006400176188762
852, 15.947570653042916
852.5, 15.889050655713177
853.0000000000001, 15.762133096843428
853.5000000000001, 15.626533592621172
854.0000000000001, 15.493379258871812
854.5, 15.348404009503511
855, 15.228446745351448
855.5, 15.161517216091056
856, 15.091749521788671
856.5000000000001, 14.988358831488412
857.0000000000001, 14.890294430155961
857.5000000000001, 14.776780258857528
858, 14.57107452089349
858.5, 14.326685823582551
859, 14.155839730220976
859.5, 14.056310830664188
860.0000000000001, 13.989027830066888
860.5000000000001, 13.922299557076244
861, 13.861704050514064
861.5, 13.867462934232108
862, 13.877104645023195
862.5, 13.729555101737262
863.0000000000001, 13.533871361551874
863.5000000000001, 13.501891111493222
864.0000000000001, 13.559285605912592
864.5, 13.583774379112398
865, 13.58140748973618
865.5, 13.566836786042003
866, 13.5319040987182
866.5000000000001, 13.461392398814226
867.0000000000001, 13.340417334087007
867.5000000000001, 13.201771747346044
868, 13.100816868147689
868.5, 13.074432182048554
869, 13.131925395829597
869.5, 13.223913428553146
870.0000000000001, 13.309411317891119
870.5000000000001, 13.376935336835658
871, 13.442122388693022
871.5, 13.530506562497791
872, 13.55666265230181
872.5, 13.428847159670042
873.0000000000001, 13.303400476741075
873.5000000000001, 13.322122739943651
874.0000000000001, 13.39995338024093
874.5, 13.466391289683912
875, 13.525609529205099
875.5, 13.574667367054047
876, 13.60370465133336
876.5000000000001, 13.641196861413604
877.0000000000001, 13.720162885731042
877.5, 13.806101110546265
878, 13.862178218185448
878.5, 13.893016733952692
879, 13.909131203787481
879.5000000000001, 13.921460985916198
880.0000000000001, 13.958043233599454
880.5000000000001, 14.05357104658465
881, 14.18144779594644
881.5, 14.293577853253794
882, 14.377659481304676
882.5, 14.433129641940994
883.0000000000001, 14.464393206166989
883.5000000000001, 14.480005835334637
884.0000000000001, 14.492853341510667
884.5, 14.510439137985571
885, 14.533438388876831
885.5, 14.545123736930293
886, 14.535380376592173
886.5000000000001, 14.55385160885534
887.0000000000001, 14.624842732387762
887.5, 14.681980475540342
888, 14.708838021122858
888.5, 14.763210392359127
889, 14.794072223453341
889.5000000000001, 14.706748630519854
890.0000000000001, 14.726791542437923
890.5000000000001, 15.07008891643379
891, 15.357312219113396
891.5, 15.395140044658305
892, 15.695381698245555
892.5, 16.31118473271404
893.0000000000001, 16.643475458784707
893.5000000000001, 16.629935116220096
894.0000000000001, 16.60086676771452
894.5, 16.65067203918356
895, 16.755963482959984
895.5, 16.842934580415573
896.0000000000001, 16.892688545551067
896.5000000000001, 17.020590041704693
897.0000000000001, 17.22124197410082
897.5, 17.335935265226723
898, 17.365131687343577
898.5, 17.414118478260136
899, 17.49344531480604
899.5000000000001, 17.572617630830678
900.0000000000001, 17.615586112496686
900.5000000000001, 17.613624762072718
901, 17.613183703734705
901.5, 17.617621166143763
902, 17.57904330856799
902.5, 17.524760383873456
903.0000000000001, 17.524845925101857
903.5000000000001, 17.58478342424374
904, 17.682171565522623
904.5, 17.786340881356665
905, 17.873548303079644
905.5, 17.937556293421068
906.0000000000001, 18.00087674914232
906.5000000000001, 18.109043222787108
907.0000000000001, 18.22911724636326
907.5, 18.29323400349024
908, 18.335363147292796
908.5, 18.40957561070826
909, 18.51137999824786
909.5000000000001, 18.606770067113757
910.0000000000001, 18.633263704585744
910.5000000000001, 18.621985028274693
911, 18.695689539846512
911.5, 18.852473769932587
912, 19.013203628146385
912.5000000000001, 19.118545166276277
913.0000000000001, 19.156630737458187
913.5000000000001, 19.2386874076724
914, 19.412625148780663
914.5, 19.576759671866327
915, 19.68678224312103
915.5, 19.770115562180493
916.0000000000001, 19.829965246472
916.5000000000001, 19.86091276075024
917.0000000000001, 19.90015902868899
917.5, 19.986401535359718
918, 20.119731629807546
918.5, 20.287144011837455
919, 20.464967509528705
919.5000000000001, 20.614828515686057
920.0000000000001, 20.688969943015948
920.5000000000001, 20.679862632585525
921, 20.61952734623398
921.5, 20.62401867452276
922, 20.767801230950596
922.5000000000001, 20.93201545601984
923.0000000000001, 21.03300461645965
923.5000000000001, 21.09769258008015
924, 21.14576933619695
924.5, 21.181309442411646
925, 21.21406285850948
925.5, 21.252169653258107
926.0000000000001, 21.278702215565815
926.5000000000001, 21.280547138126167
927.0000000000001, 21.275880490779443
927.5, 21.2884535056629
928, 21.341191438958518
928.5, 21.43103127843915
929.0000000000001, 21.534830171979024
929.5000000000001, 21.659473401083275
930.0000000000001, 21.815586648333337
930.5, 21.95491898848772
931, 22.033742193596325
931.5, 22.06491777836557
932, 22.065305913822343
932.5000000000001, 22.045975577579853
933.0000000000001, 22.047238940280153
933.5000000000001, 22.123879377828686
934, 22.23457997146167
934.5, 22.31399535279573
935, 22.408233705702912
935.5, 22.54165977454636
936.0000000000001, 22.609091966986043
936.5000000000001, 22.582541508276975
937.0000000000001, 22.565766188742685
937.5, 22.571718892224354
938, 22.543454992412123
938.5, 22.53783537170267
939.0000000000001, 22.63481503068148
939.5000000000001, 22.772598718902742
940.0000000000001, 22.880121268267445
940.5, 22.95466086787971
941, 23.004282413604216
941.5, 23.037524789381067
942, 23.050787297992784
942.5000000000001, 23.04059501116744
943.0000000000001, 23.0790396947108
943.5000000000001, 23.2286279381714
944, 23.369422769148812
944.5, 23.407883718041305
945, 23.414876696991413
945.5000000000001, 23.434019738230973
946.0000000000001, 23.44493689910398
946.5000000000001, 23.4419223728856
947.0000000000001, 23.434818951199645
947.5, 23.44059951330837
948, 23.471210622587435
948.5, 23.507356671845343
949.0000000000001, 23.537445455075115
949.5000000000001, 23.58228600004078
950.0000000000001, 23.636555851227726
950.5, 23.66230021388438
951, 23.696625233195903
951.5, 23.813995702706904
952, 23.953975589352055
952.5000000000001, 24.04265784858127
953.0000000000001, 24.170282466520746
953.5000000000001, 24.381863598216242
954, 24.552297576030398
954.5, 24.64232289896114
955, 24.736676875618002
955.5000000000001, 24.861095448597865
956.0000000000001, 24.995627787376733
956.5000000000001, 25.128405269728376
957, 25.245625535273845
957.5, 25.313715588527415
958, 25.317850485326716
958.5, 25.288918257463465
959.0000000000001, 25.254089141078836
959.5000000000001, 25.23032570518616
960.0000000000001, 25.23825505008206
960.5, 25.294006634715657
961, 25.36744359947376
961.5, 25.422532476229307
962.0000000000001, 25.46405126309223
962.5000000000001, 25.499231079759923
963.0000000000001, 25.523734240823174
963.5000000000001, 25.539221282806153
964, 25.5593314587519
964.5, 25.643543091862412
965, 25.8547465643326
965.5000000000001, 26.100258549214047
966.0000000000001, 26.269864260676144
966.5000000000001, 26.383593130014276
967, 26.470889425408146
967.5, 26.530403530407412
968, 26.561402346395667
968.5, 26.568231087804705
969.0000000000001, 26.565764993931168
969.5000000000001, 26.573316916224954
970.0000000000001, 26.59891868128473
970.5, 26.65762373779586
971, 26.79779607620158
971.5, 26.99901147185544
972.0000000000001, 27.1159218195847
972.5000000000001, 27.148979543513946
973.0000000000001, 27.24342197261346
973.5000000000001, 27.368346932334262
974, 27.41095493726884
974.5, 27.407314919148845
975, 27.42069802183441
975.5000000000001, 27.444639122856657
976.0000000000001, 27.4632834272267
976.5000000000001, 27.46869612466149
977, 27.500969128907045
977.5, 27.631912140924655
978, 27.78843376094133
978.5, 27.84342952198314
979.0000000000001, 27.824498407390067
979.5000000000001, 27.79912143147422
980.0000000000001, 27.805518493539694
980.5, 27.87875615423387
981, 28.052429257312298
981.5, 28.26429413579436
982.0000000000001, 28.381368300392126
982.5000000000001, 28.45203796292725
983.0000000000001, 28.587610058002866
983.5, 28.71028975751706
984, 28.744375635943882
984.5, 28.776853921639372
985, 28.85033400924094
985.5000000000001, 28.900036792010894
986.0000000000001, 28.90962603284092
986.5000000000001, 28.913722523539576
987, 28.937688687516214
987.5, 28.995146192353886
988, 29.071921118686134
988.5000000000001, 29.145423333119723
989.0000000000001, 29.192738459961504
989.5000000000001, 29.20839668653943
990.0000000000001, 29.212936844414756
990.5, 29.231065699905713
991, 29.287042572584
991.5, 29.386079228883446
992.0000000000001, 29.5231502588162
992.5000000000001, 29.690356333112746
993.0000000000001, 29.86717366275306
993.5, 30.00410154963275
994, 30.059371303640333
994.5, 30.012742709696028
995, 29.918013188039353
995.5000000000001, 29.87762205460713
996.0000000000001, 29.900619842332006
996.5000000000001, 29.96096970595221
997, 30.078621910396166
997.5, 30.24368020362094
998, 30.348461041685283
998.5000000000001, 30.357631059615613
999.0000000000001, 30.35090564554791
999.5000000000001, 30.373088639035842
1000.0000000000001, 30.435904998917195
1000.5, 30.56151254881108
1001, 30.75345189572468
1001.5, 30.917873128792465
1002.0000000000001, 30.990516109930212
1002.5000000000001, 31.028878122414568
1003.0000000000001, 31.051153313038768
1003.5, 31.010446020698055
1004, 30.97581954716786
1004.5, 31.07794527317627
1005.0000000000001, 31.224763712077234
1005.5000000000001, 31.265136243529952
1006.0000000000001, 31.20515541174423
1006.5000000000001, 31.116721191767724
1007, 31.127697000646435
1007.5, 31.258172855810074
1008, 31.393587471293387
1008.5000000000001, 31.546625556929044
1009.0000000000001, 31.80083852216653
1009.5000000000001, 32.039251218672064
1010, 32.131181889899835
1010.5, 32.21310096639097
1011, 32.36649646522643
1011.5, 32.434656544919505
1012.0000000000001, 32.38452206644595
1012.5000000000001, 32.35707998458538
1013.0000000000001, 32.36646276407154
1013.5, 32.34924430890048
1014, 32.36876191896057
1014.5, 32.49472075337785
1015.0000000000001, 32.635092141100216
1015.5000000000001, 32.729020025813966
1016.0000000000001, 32.84607606179259
1016.5000000000001, 32.98828493081545
1017, 33.069056956265555
1017.5, 33.0863834982232
1018, 33.09439503660586
1018.5000000000001, 33.119218133205564
1019.0000000000001, 33.16771232107887
1019.5000000000001, 33.21965989989957
1020, 33.25616846689944
1020.5, 33.27352956333186
1021, 33.318689335654284
1021.5000000000001, 33.4783093132734
1022.0000000000001, 33.6705186388419
1022.5000000000001, 33.736171422303016
1023.0000000000001, 33.71642854552543
1023.5, 33.70561355768346
1024, 33.72822504026493
1024.5, 33.77994710384729
1025, 33.83201419376118
1025.5, 33.912298895155416
1026, 34.09868271593237
1026.5, 34.32700834134546
1027, 34.471567149538814
1027.5, 34.56850946768958
1028, 34.67786415736974
1028.5, 34.75590102695661
1029, 34.784790011506615
1029.5, 34.82547097007516
1030, 34.91370894493396
1030.5, 35.04735604049556
1031, 35.180166323175115
1031.5, 35.2576976336842
1032, 35.318394245930605
1032.5, 35.41185271549209
1033, 35.527781431001856
1033.5, 35.6468510318892
1034, 35.75248514260245
1034.5, 35.81662581966357
1035, 35.80706193029873
1035.5, 35.76426599539016
1036, 35.754555431858066
1036.5, 35.76215650687803
1037, 35.767459253094756
1037.5, 35.81480732136728
1038, 35.941527587904034
1038.5, 36.15295928203338
1039, 36.39537919721397
1039.5, 36.572690194697216
1040, 36.686361948255275
1040.5, 36.78155830390934
1041, 36.8504171518334
1041.5, 36.8918541102754
1042, 36.96615530379509
1042.5, 37.06516039853178
1043, 37.06697216852976
1043.5, 36.98257830775518
1044, 36.93972364611163
1044.5, 36.961455380035034
1045, 37.017617549185445
1045.5, 37.09713607537359
1046, 37.18669012865819
1046.5, 37.252827463765875
1047, 37.28451174079806
1047.5, 37.30890525597352
1048, 37.36251872192664
1048.5, 37.47659760463601
1049, 37.59187042814993
1049.5, 37.64296950050865
1050, 37.74107954936779
1050.5, 37.94552869466565
1051, 38.069085820659005
1051.5, 38.05285461325856
1052, 38.064242785380046
1052.5, 38.14555383271978
1053, 38.22679404046364
1053.5, 38.285021778210265
1054, 38.323195574953985
1054.5, 38.35090084277009
1055, 38.37208930434832
1055.5, 38.37369418320284
1056, 38.35515612983075
1056.5, 38.33741028055124
1057, 38.36093047769678
1057.5, 38.466357082648386
1058, 38.58600091501255
1058.5, 38.63360206352197
1059, 38.65127861885011
1059.5, 38.685398657809266
1060, 38.71813483642182
1060.5, 38.73468847160574
1061, 38.735236856130285
1061.5, 38.71427265131799
1062, 38.66299343170811
1062.5, 38.58583141623411
1063, 38.49673622636477
1063.5, 38.42367518663795
1064, 38.37635540137462
1064.5, 38.31912998268868
1065, 38.26219450763332
1065.5, 38.27650034523552
1066, 38.3801480782044
1066.5, 38.54492567139136
1067, 38.71028312564474
1067.5, 38.811738257540696
1068, 38.81953795104693
1068.5, 38.739031051341634
1069, 38.63136694746835
1069.5, 38.56105249947394
1070, 38.58193764059437
1070.5, 38.66372530161792
1071, 38.72813009366051
1071.5, 38.7683403744895
1072, 38.80849988804369
1072.5, 38.87833086303477
1073, 38.98230466801076
1073.5, 39.0727679371544
1074, 39.10567713549827
1074.5, 39.053792024222425
1075, 38.95937218478984
1075.5, 38.897099742244535
1076, 38.85440254188169
1076.5, 38.80676906830657
1077, 38.803880542175094
1077.5, 38.86027056155341
1078, 38.89639712271357
1078.5, 38.889874737987554
1079, 38.888568340090934
1079.5, 38.88899386524947
1080, 38.86070516676422
1080.5, 38.82508775933509
1081, 38.81475109596926
1081.5, 38.83582441077264
1082, 38.86350844853926
1082.5, 38.82941405202326
1083, 38.73590177409488
1083.5, 38.659880524714566
1084, 38.61986652228391
1084.5, 38.59769804955438
1085, 38.58589435511736
1085.5, 38.58912568285435
1086, 38.636868894731116
1086.5, 38.72648319095487
1087, 38.79454316888333
1087.5, 38.855215362599495
1088, 38.995392156681376
1088.5, 39.17252436165633
1089, 39.277732197557484
1089.5, 39.2715810536095
1090, 39.169419547075314
1090.5, 39.077000517930735
1091, 39.03605395991055
1091.5, 38.957693654407976
1092, 38.8313167591063
1092.5, 38.73001654750725
1093, 38.678908104402545
1093.5, 38.666145870476605
1094, 38.6410430708067
1094.5, 38.57159272416921
1095, 38.512682450792695
1095.5, 38.496724461150905
1096, 38.49732121541013
1096.5, 38.51484355560126
1097, 38.5737841148131
1097.5, 38.64311156795656
1098, 38.669197595657806
1098.5, 38.63947369447321
1099, 38.55395285363808
1099.5, 38.412919910039534
1100, 38.25203959524442
1100.5, 38.15787663403905
1101, 38.15566997691475
1101.5, 38.208735774619896
1102, 38.25516001903393
1102.5, 38.23450343597449
1103, 38.15003188198143
1103.5, 38.03820117102776
1104, 37.97170829025614
1104.5, 37.975320719357455
1105, 37.996589727600266
1105.5, 38.01202484364154
1106, 38.027867130558334
1106.5, 38.04502261900675
1107, 38.06173652008269
1107.5, 38.07855495102744
1108, 38.09570939875309
1108.5, 38.11115060729309
1109, 38.12692640415884
1109.5, 38.15007682739484
1110, 38.166407243807825
1110.5, 38.1557394981257
1111, 38.193629843960494
1111.5, 38.35540944753716
1112, 38.51813739910812
1112.5, 38.52597175325978
1113, 38.27543174433497
1113.5, 37.88375216239915
1114, 37.730976727605125
1114.5, 37.796665132908984
1115, 37.77127225069246
1115.5, 37.68536615584746
1116, 37.68358903809189
1116.5, 37.72132540829147
1117, 37.738778005275805
1117.5, 37.750369545732966
1118, 37.75397384669585
1118.5, 37.716646616468395
1119, 37.66187336287204
1119.5, 37.64736784944766
1120, 37.655003230582075
1120.5, 37.63892449695548
1121, 37.57727444491041
1121.5, 37.48369418623545
1122, 37.43302513975646
1122.5, 37.4120975489277
1123, 37.30103947618497
1123.5, 37.158170392517285
1124, 37.145519173646804
1124.5, 37.20538133308755
1125, 37.22570199539478
1125.5, 37.24042856154042
1126, 37.26042591436089
1126.5, 37.18143775899777
1127, 36.97038526452703
1127.5, 36.696420596472336
1128, 36.430574475547566
1128.5, 36.23372054378977
1129, 36.11921267666132
1129.5, 36.091482143983086
1130, 36.19023016565929
1130.5, 36.360526719786
1131, 36.35342316974077
1131.5, 36.155167782694264
1132, 36.02487156638125
1132.5, 35.93546938982389
1133, 35.711055389120204
1133.5, 35.51620786244747
1134, 35.54861499498199
1134.5, 35.670395348633036
1135, 35.733784680275136
1135.5, 35.70755079680086
1136, 35.59945694337165
1136.5, 35.44683668514385
1137, 35.29741821613439
1137.5, 35.19841982515295
1138, 35.15984120022402
1138.5, 35.170805764532076
1139, 35.19722630964283
1139.5, 35.18307025946278
1140, 35.044795086712085
1140.5, 34.79446215558566
1141, 34.542777214905115
1141.5, 34.33922299625621
1142, 34.195179527163305
1142.5, 34.138253412946256
1143, 34.17104534427352
1143.5, 34.201740949160424
1144, 34.19224405899067
1144.5, 34.22302268683552
1145, 34.23284688548932
1145.5, 34.03366206393025
1146, 33.74101372637914
1146.5, 33.59667727714216
1147, 33.52932657728344
1147.5, 33.42277204960074
1148, 33.34003446921555
1148.5, 33.31279040617035
1149, 33.270877917152205
1149.5, 33.24929448819198
1150, 33.36971503708766
1150.5, 33.50445368530278
1151, 33.44161329553076
1151.5, 33.279388851115115
1152, 33.15030505682006
1152.5, 33.003242058008496
1153, 32.836374654019195
1153.5, 32.77220782132575
1154, 32.824877682301874
1154.5, 32.90417580504591
1155, 32.990291851675224
1155.5, 33.09523148772075
1156, 33.18726994855963
1156.5, 33.218081831410956
1157, 33.132453018838504
1157.5, 32.952455302967635
1158, 32.814271690901464
1158.5, 32.74357134497639
1159, 32.657636785665446
1159.5, 32.470321730122606
1160, 32.133619172274535
1160.5, 31.777080447833285
1161, 31.531741828772894
1161.5, 31.39901897740745
1162, 31.362636092621898
1162.5, 31.409144723667737
1163, 31.50168276652539
1163.5, 31.589074649914693
1164, 31.671381347918768
1164.5, 31.754509078675127
1165, 31.754626686806617
1165.5, 31.633569319182612
1166, 31.524601711579933
1166.5, 31.470265865137577
1167, 31.35658000124654
1167.5, 31.194331631638676
1168, 31.092809923538894
1168.5, 31.04450584581751
1169, 30.996057970378104
1169.5, 30.944183135499117
1170, 30.894592694014875
1170.5, 30.8424449834268
1171, 30.777338990294083
1171.5, 30.685303398842123
1172, 30.58205997648352
1172.5, 30.502207612038916
1173, 30.442856920712146
1173.5, 30.393795048826462
1174, 30.3859331498371
1174.5, 30.399099823161094
1175, 30.279369192526204
1175.5, 30.037379725769682
1176, 29.9036573098508
1176.5, 29.858571670734776
1177, 29.718066608848787
1177.5, 29.5702088455145
1178, 29.5526789221596
1178.5, 29.523796420179067
1179, 29.383002776427944
1179.5, 29.26163319414499
1180, 29.219353327283315
1180.5, 29.193446113088555
1181, 29.17863575764794
1181.5, 29.192696295497967
1182, 29.084044427148157
1182.5, 28.73870325718009
1183, 28.44584656362524
1183.5, 28.37646739534108
1184, 28.272814101626295
1184.5, 28.0665015622604
1185, 27.9607224929633
1185.5, 27.9295681659641
1186, 27.807470096668126
1186.5, 27.641732872225987
1187, 27.524915095191247
1187.5, 27.40244022807363
1188, 27.24294838053794
1188.5, 27.122457454431938
1189, 27.047769100940755
1189.5, 26.940020327298583
1190, 26.819539911774257
1190.5, 26.761405349809863
1191, 26.745382939376682
1191.5, 26.728077676817605
1192, 26.71322663527677
1192.5, 26.71093935588884
1193, 26.724124856251407
1193.5, 26.742756106421623
1194, 26.744618450603085
1194.5, 26.721037453520893
1195, 26.674804124093555
1195.5, 26.622399774749354
1196, 26.582249899114075
1196.5, 26.56293628720607
1197, 26.56313915146349
1197.5, 26.56577674675927
1198, 26.516800272317326
1198.5, 26.340427121163557
1199, 26.131957112567406
1199.5, 26.05489110803049
1200, 26.054683109468144
1200.5, 26.037242142249553
1201, 26.02361228178478
1201.5, 26.016680349489604
1202, 25.951595701589056
1202.5, 25.808331255407694
1203, 25.615476621472382
1203.5, 25.363240698810728
1204, 25.045666732698365
1204.5, 24.807458112423504
1205, 24.765167325756423
1205.5, 24.80444752831282
1206, 24.812594031838586
1206.5, 24.75222553890076
1207, 24.64314483849809
1207.5, 24.549718798561827
1208, 24.495113077188975
1208.5, 24.473903887360677
1209, 24.45984537567496
1209.5, 24.43704478330973
1210, 24.436204900437573
1210.5, 24.435728180823318
1211, 24.32432561323739
1211.5000000000002, 24.122336732699438
1212, 23.966935223039457
1212.5, 23.86746300654012
1213, 23.774402795104862
1213.5, 23.704027401931853
1214, 23.67153154081832
1214.5, 23.63484366591625
1215, 23.555829519517573
1215.5, 23.418771066361245
1216, 23.244350101160222
1216.5, 23.077923294668622
1217, 22.909126312248716
1217.5, 22.705779401020123
1218.0000000000002, 22.472280207660077
1218.5, 22.246227749399168
1219, 22.12110493194588
1219.5, 22.112826155953343
1220, 22.113968497391
1220.5, 22.07338756341946
1221, 21.993994005234455
1221.5, 21.854368545560064
1222, 21.644622815175453
1222.5, 21.464537191398236
1223, 21.388471471609975
1223.5, 21.354219224769665
1224, 21.31899903986617
1224.5, 21.295275413571957
1225, 21.280603994150198
1225.5, 21.252943117419605
1226, 21.159622401499234
1226.5, 20.969594623570373
1227, 20.80484834207475
1227.5, 20.717690411964526
1228, 20.50723309423799
1228.5, 20.18713921368196
1229, 20.0875773477468
1229.5, 20.201333578794248
1230, 20.266455942475645
1230.5, 20.25506965475023
1231, 20.23622038310394
1231.5000000000002, 20.222412908850487
1232, 20.190767495453656
1232.5, 20.07394457942317
1233, 19.89266843804971
1233.5, 19.7935505285937
1234, 19.984003075151364
1234.5, 20.51832673153943
1235, 20.073850325506
1235.5, 19.995446146111476
1236, 19.91076722472762
1236.5, 19.82016724271523
1237, 19.723999881435034
1237.5, 19.6226188222478
1238.0000000000002, 19.516377746514323
1238.5, 19.405630335595305
1239, 19.29073027085157
1239.5, 19.17203123364382
1240, 19.04988690533287
1240.5, 18.924650967279447
1241, 18.79667710084432
1241.5, 18.666318987388237
1242, 18.533930308271977
1242.5, 18.399864744856302
1243, 18.264475978501963
1243.5, 18.128117690569724
1244, 17.991143562420334
1244.5000000000002, 17.8539072754146
1245, 17.716762510913213
1245.5, 17.58006295027701
1246, 17.4441622748667
1246.5, 17.30941416604304
1247, 17.176172305166844
1247.5, 17.044790373598815
1248, 16.915622052699746
1248.5, 16.789021023830387
1249, 16.665340968351487
1249.5, 16.544935567623853
1250, 16.42815850300819
1250.5, 16.31536345586528
1251, 16.2069041075559
1251.5, 16.103134139440797
1252, 16.00440723288075
1252.5, 15.911077069236498
1253, 15.8234973298688
1253.5, 15.742021696138423
1254, 15.36588800233146
1254.5, 15.39835523489819
1255, 15.75529133350139
1255.5, 15.645191139727842
1256, 15.561803808624418
1256.5, 15.546567867870323
1257, 15.383052155053846
1257.5, 15.194755715236823
1258.0000000000002, 15.137522248784833
1258.5, 15.096695005439656
1259, 15.002913856630116
1259.5, 14.951330956829466
1260, 14.96155049217326
1260.5, 14.969978480515337
1261, 15.015576568980649
1261.5, 15.14825224656937
1262, 15.137361635766709
1262.5, 14.82275645591163
1263, 14.524090860928496
1263.5, 14.409057151804447
1264, 14.258317742546211
1264.5000000000002, 14.064820420867733
1265, 14.036617839599785
1265.5, 14.119082608241314
1266, 14.148658475576525
1266.5, 14.19588184640429
1267, 14.350898835970796
1267.5, 14.547590091928
1268, 14.707882223770198
1268.5, 14.781227790633594
1269, 14.785776036688773
1269.5, 14.794454572713988
1270, 14.81454256917415
1270.5, 14.812877505648657
1271.0000000000002, 14.73927297229595
1271.5, 14.582755635196776
1272, 14.449460427373054
1272.5, 14.377291721065504
1273, 14.273979310372198
1273.5, 14.110849361753452
1274, 13.920572207964852
1274.5, 13.687532374011283
1275, 13.40216078076108
1275.5, 13.205989285409146
1276, 13.178439380067744
1276.5, 13.130588365476598
1277, 13.02072103420383
1277.5000000000002, 13.070985340337657
1278, 13.269164730372282
1278.5, 13.408279662837614
1279, 13.490048698468215
1279.5, 13.591362922462139
1280, 13.644635305772212
1280.5, 13.5976728976717
1281, 13.534092405241466
1281.5, 13.51608934390903
1282, 13.545782852083448
1282.5, 13.601367616018933
1283, 13.650308335704054
1283.5, 13.702361699291927
1284, 13.774846442518808
1284.5, 13.830518671011646
1285, 13.8460862511306
1285.5, 13.863526215237428
1286, 13.87323675380766
1286.5, 13.791777985609798
1287, 13.662694874184893
1287.5, 13.610873611873672
1288, 13.583712640403633
1288.5, 13.491716262272831
1289, 13.429877324887642
1289.5, 13.474272777607226
1290, 13.555235077110979
1290.5, 13.649397885466229
1291.0000000000002, 13.812273283432859
1291.5, 14.003870882093764
1292, 14.123490243100164
1292.5, 14.185087596741553
1293, 14.239372221603318
1293.5, 14.281889804975393
1294, 14.301852881627255
1294.5, 14.303827929493806
1295, 14.301758345308315
1295.5, 14.315056047343262
1296, 14.312084452243724
1296.5, 14.239546609119614
1297, 14.15278126061348
1297.5000000000002, 14.113455683344995
1298, 14.038029049377869
1298.5, 13.909762470242995
1299, 13.91234349129158
1299.5, 14.06811363044477
1300, 14.189598827070057
1300.5, 14.238509977775166
1301, 14.278926357373791
1301.5, 14.305048086165371
1302, 14.2945071625644
1302.5, 14.268408102685456
1303, 14.249410293197556
1303.5, 14.243996329078769
1304.0000000000002, 14.24575319514173
1304.5, 14.237089271539702
1305, 14.217579806944215
1305.5, 14.197940735707235
1306, 14.183880382259474
1306.5, 14.173125802850393
1307, 14.14350985084073
1307.5, 14.0902782609392
1308, 14.048538912708409
1308.5, 14.03440571931992
1309, 14.038928431769335
1309.5, 14.060140708619102
1310, 14.097301230316631
1310.5000000000002, 14.125396274159442
1311, 14.106325812454088
1311.5, 13.989377371649283
1312, 13.791537268151927
1312.5, 13.65011158984258
1313, 13.5481229736437
1313.5, 13.3159157234835
1314, 13.03637880049672
1314.5, 12.902466792143471
1315, 12.822182974728676
1315.5, 12.683715171544378
1316, 12.621272947055886
1316.5, 12.69654728604823
1317, 12.7703468671683
1317.5000000000002, 12.82826203721936
1318.0000000000002, 12.981555843629238
1318.5000000000002, 13.12750675678727
1319.0000000000002, 13.091163340039287
1319.5, 13.008699531684329
1320, 13.021896282115293
1320.5, 12.98477772757353
1321, 12.847548391103189
1321.5, 12.798246468967179
1322, 12.852054680589688
1322.5, 12.857206208685469
1323, 12.883068824389113
1323.5, 13.075191525106106
1324.0000000000002, 13.305724324634895
1324.5000000000002, 13.426202241529197
1325.0000000000002, 13.475954614704136
1325.5000000000002, 13.519601055618509
1326.0000000000002, 13.607361804694321
1326.5, 13.731697046725358
1327, 13.828924769304535
1327.5, 13.802697456144188
1328, 13.587254277244242
1328.5, 13.347381958731972
1329, 13.233516920568249
1329.5, 13.170987365701464
1330, 13.125457656307063
1330.5000000000002, 13.178196281995696
1331.0000000000002, 13.3655821684832
1331.5000000000002, 13.662663849297587
1332.0000000000002, 13.934408007678883
1332.5000000000002, 14.030733677594071
1333, 13.993843106251788
1333.5, 13.909116268687754
1334, 13.828221837765469
1334.5, 13.76480419462085
1335, 13.68780415184186
1335.5, 13.620254052797492
1336, 13.62404958630691
1336.5, 13.671998838956299
1337.0000000000002, 13.70243683661073
1337.5000000000002, 13.70122718717495
1338.0000000000002, 13.6796146444904
1338.5000000000002, 13.677793039933292
1339.0000000000002, 13.712782471853316
1339.5, 13.762410686430144
1340, 13.793448685826093
1340.5, 13.773850800556943
1341, 13.734269709925968
1341.5, 13.72318228209042
1342, 13.737387924059405
1342.5, 13.740950827945937
1343, 13.655769288886319
1343.5, 13.491851051908839
1344.0000000000002, 13.379136027795127
1344.5000000000002, 13.345525363086239
1345.0000000000002, 13.337152511980364
1345.5000000000002, 13.342965998501981
1346, 13.36970696469615
1346.5, 13.412470878283926
1347, 13.436480311521038
1347.5, 13.350063580333256
1348, 13.180737167648772
1348.5, 13.108570338335994
1349, 13.150962071714616
1349.5, 13.202910424998777
1350, 13.222821212245293
1350.5000000000002, 13.207720723843849
1351.0000000000002, 13.191168223843505
1351.5000000000002, 13.202525502771948
1352.0000000000002, 13.242938466905755
1352.5000000000002, 13.296235927812646
1353, 13.332433827342683
1353.5, 13.364516853167657
1354, 13.422258210806191
1354.5, 13.431771272630726
1355, 13.328664756546374
1355.5, 13.243714063779578
1356, 13.262516696117913
1356.5, 13.28946890377641
1357.0000000000002, 13.327894569140682
1357.5000000000002, 13.508000671357351
1358.0000000000002, 13.7388225325859
1358.5000000000002, 13.802595430803208
1359.0000000000002, 13.696727093883894
1359.5, 13.526664844175258
1360, 13.469499497597255
1360.5, 13.592418435194702
1361, 13.720581338803612
1361.5, 13.79328599005136
1362, 13.899640262058114
1362.5, 13.975755532352707
1363, 13.889750001124568
1363.5000000000002, 13.75859661812818
1364.0000000000002, 13.735756931937672
1364.5000000000002, 13.77548094593294
1365.0000000000002, 13.823109887886687
1365.5000000000002, 13.885135926967337
1366, 13.954485673345474
1366.5, 14.002455994645459
1367, 14.007480671659664
1367.5, 13.96216257134185
1368, 13.911461335020391
1368.5, 13.888686247958418
1369, 13.829220418141489
1369.5, 13.706767648297514
1370.0000000000002, 13.597448143899356
1370.5000000000002, 13.535967357441677
1371.0000000000002, 13.500035490431955
1371.5000000000002, 13.443490837912037
1372.0000000000002, 13.329860080119673
1372.5, 13.25068635559765
1373, 13.295217551429488
1373.5, 13.40912994858472
1374, 13.55174187637509
1374.5, 13.74992587262723
1375, 13.9582437113677
1375.5, 14.064577746953518
1376, 14.091972687012031
1376.5, 14.12290129154961
1377.0000000000002, 14.120221242303842
1377.5000000000002, 14.04877076742757
1378.0000000000002, 13.995935679477867
1378.5000000000002, 14.001876879735136
1379.0000000000002, 13.994443668876599
1379.5, 13.955102106752136
1380, 13.924515168838681
1380.5, 13.914162270169228
1381, 13.911862545588733
1381.5, 13.876194514438993
1382, 13.795570916595054
1382.5, 13.766300074308887
1383, 13.823103485044342
1383.5000000000002, 13.877604427480861
1384.0000000000002, 13.92315234312791
1384.5000000000002, 14.02746483240297
1385.0000000000002, 14.148369828422233
1385.5000000000002, 14.191085999494803
1386, 14.103264422717473
1386.5, 13.91892986869766
1387, 13.864422668012722
1387.5, 14.0135547159216
1388, 14.166243450893347
1388.5, 14.235972218445326
1389, 14.260737669441411
1389.5, 14.30099255250235
1390.0000000000002, 14.401996855401777
1390.5000000000002, 14.494576381653417
1391.0000000000002, 14.509653614448425
1391.5000000000002, 14.463681967507753
1392.0000000000002, 14.40517093545607
1392.5, 14.404016498545232
1393, 14.428460775616173
1393.5, 14.3747025333777
1394, 14.277506593891061
1394.5, 14.227949361703864
