101.98607511905567, 86.89857397807909
104.84282297987745, 87.36393906086519
107.69957084069924, 87.2705956469714
110.55631870152104, 87.22381127446761
113.4130665623428, 87.17702690196381
116.2698144231646, 87.13024252946002
119.12656228398637, 87.03689911556623
121.98331014480817, 86.94355570167244
124.84005800562997, 86.89677132916864
127.69680586645174, 86.84998695666485
130.55355372727354, 86.77992306346606
133.4103015880953, 86.75641821165726
136.2670494489171, 86.70963383915347
139.1237973097389, 86.70940850803966
141.98054517056067, 86.75574221831585
144.83729303138247, 86.84863496998202
147.69404089220424, 87.03464580442818
150.55078875302604, 87.22065663887433
153.4075366138478, 87.4299469940155
156.2642844746696, 87.66251686985164
159.1210323354914, 87.91836626638278
161.97778019631318, 88.17421566291392
164.83452805713497, 88.45334458014007
167.69127591795674, 88.66263493528122
170.54802377877854, 88.89520481111737
173.4047716396003, 89.05793612486852
176.2615195004221, 89.1741083972297
179.1182673612439, 89.33683971098085
181.97501522206568, 89.40645294195204
184.83176308288748, 89.52262521431321
187.68851094370928, 89.6155179659794
190.54525880453104, 89.66185167625557
193.40200666535284, 89.73146490722675
196.2587545261746, 89.77779861750294
199.1155023869964, 89.84741184847412
201.9722502478182, 89.89374555875031
204.82899810863998, 89.94007926902648
207.68574596946178, 90.00969249999767
210.54249383028355, 90.03274668957886
213.39924169110535, 90.12563944124504
216.25598955192712, 90.17197315152123
219.1127374127489, 90.2415863824924
221.9694852735707, 90.31119961346359
224.82623313439248, 90.40409236512976
227.68298099521428, 90.47370559610094
230.53972885603605, 90.40364170290215
233.39647671685785, 90.38013685109335
236.25322457767962, 90.44975008206453
239.10997243850142, 90.47280427164571
241.9667202993232, 90.51913798192192
244.82346816014498, 90.58875121289309
247.68021602096678, 90.72820300594925
250.53696388178855, 90.84437527831042
253.39371174261035, 90.86742946789161
256.2504596034321, 90.77408605399783
259.1072074642539, 90.70402216079904
261.9639553250757, 90.75035587107523
264.82070318589746, 90.70357149857142
267.6774510467193, 90.8197437709326
270.53419890754105, 90.86607748120879
273.3909467683628, 90.91241119148498
276.24769462918465, 90.98202442245615
279.1044424900064, 90.98179909134235
281.9611903508282, 91.09797136370352
284.81793821164996, 91.12102555328471
287.6746860724718, 91.23719782564588
290.53143393329356, 91.30681105661706
293.3881817941153, 91.30658572550325
296.24492965493715, 91.32963991508444
299.1016775157589, 91.39925314605563
301.9584253765807, 91.44558685633181
304.81517323740246, 91.53847960799798
307.67192109822423, 91.58481331827417
310.52866895904606, 91.63114702855036
313.3854168198678, 91.65420121813155
316.2421646806896, 91.72381444910273
319.0989125415114, 91.8167072007689
321.9556604023332, 91.8397613903501
324.81240826315496, 91.88609510062628
327.66915612397673, 91.93242881090246
330.52590398479856, 92.09516012465363
333.38265184562033, 92.16477335562482
336.2393997064421, 92.164548024511
339.0961475672639, 92.28072029687218
341.9528954280857, 92.28049496575838
344.80964328890747, 92.32682867603455
347.66639114972924, 92.32660334492076
350.52313901055106, 92.46605513797692
353.37988687137283, 92.58222741033809
356.2366347321946, 92.65184064130928
359.09338259301643, 92.72145387228045
361.9501304538382, 92.76778758255664
364.80687831465997, 92.81412129283282
367.6636261754818, 92.95357308588899
370.52037403630356, 93.09302487894516
373.37712189712533, 93.11607906852635
376.2338697579471, 93.23225134088752
379.09061761876893, 93.3251440925537
381.9473654795907, 93.46459588560987
384.80411334041247, 93.48765007519106
387.6608612012343, 93.6736609096372
390.51760906205607, 93.90623078547335
393.37435692287784, 93.99912353713954
396.2311047836996, 94.09201628880571
399.08785264452143, 94.0917909576919
401.9446005053432, 94.13812466796809
404.801348366165, 94.27757646102425
407.6580962269868, 94.37046921269044
410.51484408780857, 94.55648004713659
413.37159194863034, 94.64937279880277
416.2283398094521, 94.85866315394392
419.08508767027394, 94.99811494700009
421.9418355310957, 94.99788961588628
424.7985833919175, 95.16062092963745
427.6553312527393, 95.3466317640836
430.5120791135611, 95.48608355713976
433.36882697438284, 95.57897630880595
436.2255748352046, 95.7882666639471
439.08232269602644, 95.83460037422329
441.9390705568482, 96.04389072936443
444.79581841767, 96.27646060520058
447.6525662784918, 96.18311719130679
450.5093141393136, 96.46224610853294
453.36606200013534, 96.53185933950411
456.2228098609571, 96.74114969464527
459.07955772177894, 96.90388100839643
461.9363055826007, 96.97349423936761
464.7930534434225, 97.0663869910338
467.6498013042443, 97.15927974269997
470.5065491650661, 97.32201105645113
473.36329702588785, 97.4381833288123
476.2200448867097, 97.78715080812343
479.07679274753144, 97.8334845183996
481.9335406083532, 97.90309774937079
484.790288469175, 98.04254954242695
487.6470363299968, 98.20528085617812
490.5037841908186, 98.39129169062427
493.36053205164035, 98.39106635951048
496.4553422341973, 98.27442464732887
499.07402777328394, 98.39061569728285
501.9307756341057, 98.39039036616906
504.7875234949275, 98.25048791088528
507.6442713557493, 98.20370353838148
510.5010192165711, 98.20347820726768
513.3577670773929, 98.01701671059391
516.2145149382147, 97.71415761044517
519.0712627990365, 97.5509756344664
521.9280106598583, 97.4809117412676
524.78475852068, 97.29445024459383
527.6415063815018, 96.9217525823601
530.4982542423236, 96.66545252360135
533.3550021031454, 96.64194767179255
536.2117499639672, 96.47876569581378
539.068497824789, 96.22246563705502
541.9252456856108, 96.10584270246623
544.7819935464325, 96.05905832996244
547.6387414072543, 95.94243539537366
550.4954892680761, 95.84909198147987
553.3522371288979, 95.89542569175606
556.2089849897197, 95.82536179855727
559.0657328505415, 95.82513646744347
561.9224807113633, 95.82491113632966
564.779228572185, 95.96436292938583
567.6359764330068, 95.82446047410205
570.4927242938287, 95.75439658090326
573.3494721546505, 95.91712789465441
576.2062200154722, 95.66082783589567
579.062967876294, 95.4976458599169
582.157778058851, 95.10164989939535
584.7764635979375, 95.21784094934934
587.6332114587593, 94.98482041128558
590.7280216413163, 94.32498988288742
593.1086448586677, 94.0920069000093
596.2034550412247, 94.16936119361932
599.0602029020465, 93.7501044899956
601.9169507628683, 93.68004059679681
605.0117609454253, 93.29956431673861
607.6304464845118, 93.14416095858431
610.2491320235985, 93.51642673618325
611.9155682757446, 92.93430727565865
614.7723161365664, 92.6547276962049
617.6290639973881, 92.56138428231111
620.4858118582099, 92.32836374424735
623.3425597190317, 92.02550464409862
626.1993075798534, 91.81576362672985
629.0560554406752, 91.74569973353105
631.9128033014971, 91.62907679894228
635.007613484054, 91.34171860166404
637.3882367014055, 91.34153082573587
640.4830468839624, 91.32576703656592
643.3397947447842, 91.16258506058715
646.1965426056059, 91.02268260530337
648.8152281446926, 90.87503908738074
651.9100383272496, 90.88255481890579
654.7667861880714, 90.812490925707
657.6235340488931, 90.53291134625324
660.4802819097149, 90.41628841166447
663.3370297705367, 90.60229924611062
666.1937776313584, 90.46239679082684
669.0505254921803, 90.48545098040803
671.9072733530021, 90.43866660790424
674.7640212138239, 90.48500031818043
677.8588313963808, 90.60891365318045
680.2394546137323, 90.4690487530823
683.5723271180244, 90.40670714492954
686.4290749788462, 90.35992277242575
689.0477605179328, 90.4373146212214
691.9045083787546, 90.57676641427757
694.7612562395764, 90.76277724872374
697.6180041003981, 90.94878808316989
700.4747519612199, 90.71576754510613
703.3314998220417, 90.64570365190734
706.1882476828634, 90.62219880009854
709.0449955436853, 90.64525298967973
711.9017434045071, 90.59846861717594
714.7584912653289, 90.66808184814711
717.6152391261506, 90.66785651703331
720.4719869869724, 90.6443516652245
723.3287348477942, 90.90020106175565
726.185482708616, 90.94653477203184
729.0422305694378, 90.52727806840812
731.8989784302596, 90.55033225798931
734.7557262910814, 90.75962261313046
737.374411830168, 90.60421925497617
739.040848082314, 90.13073755769489
741.8975959431358, 90.572823119786
744.9924061256928, 90.44842156737272
747.6110916647793, 90.57237245755837
750.4678395256012, 90.64198568852956
753.324587386423, 90.31584706768582
755.9432729255095, 89.9664477037399
759.0380831080665, 90.29211688476322
761.8948309688883, 90.2918915536494
764.9896411514453, 90.22956872308946
767.6083266905318, 90.2216023293368
770.4650745513537, 90.12825891544303
773.3218224121755, 90.2444311878042
776.4166325947324, 89.85619506751432
779.035318133819, 89.89478771515165
781.8920659946408, 89.75488525986788
784.7488138554626, 89.6382623252791
787.6055617162845, 89.45180082860533
790.4623095771062, 89.42829597679653
793.319057437928, 89.40479112498772
796.1758052987498, 89.35800675248393
799.0325531595715, 89.12498621442018
801.8893010203933, 89.12476088330637
804.7460488812151, 89.12453555219257
807.602796742037, 89.14758974177376
810.2214822811236, 89.0930643066311
813.3162924636805, 88.8677848312062
816.1730403245023, 88.47180764827748
819.029788185324, 88.25042687056121
821.8865360461458, 87.98248705145497
824.7432839069676, 87.93570267895116
827.6000317677895, 88.12171351339732
830.4567796286112, 88.16804722367351
833.313527489433, 88.07470380977972
836.1702753502548, 88.1443170407509
839.0270232110765, 88.21393027172208
841.8837710718983, 88.28354350269326
844.9785812544552, 88.31433875491331
847.597266793542, 88.25981331977066
850.4540146543637, 88.0267927817069
853.5488248369206, 88.14294627647526
856.1675103760073, 88.14273972295426
859.024258236829, 88.14251439184046
861.8810060976508, 88.21212762281164
864.7377539584726, 88.14206372961286
867.5945018192945, 88.14183839849905
870.4512496801162, 88.49080587781017
873.307997540938, 88.53713958808635
876.1647454017598, 88.46707569488757
879.2595555843167, 88.31163478154764
881.8782411234033, 88.7226997603049
884.7349889842251, 88.95526963614105
887.3536745233118, 89.18009844933835
890.4484847058687, 89.30401178433837
893.5432948884256, 89.2261692733151
895.9239181057771, 89.44325702387354
899.018728288334, 89.65252860142189
901.8754761491558, 89.95493703934302
904.7322240099776, 90.16422739448417
907.5889718707995, 90.4899153531003
910.4457197316212, 90.93200091519141
913.302467592443, 91.18785031172254
916.1592154532648, 91.23418402199874
919.0159633140865, 91.60643102200486
921.8727111749083, 91.93211898062098
924.7294590357301, 92.10649005471964
926.1578329661411, 91.39635200796539
927.824269218287, 92.57571628002876
929.0145808269629, 91.7453194872765
930.4429547573737, 92.88590333577437
933.5377649399306, 92.90117890753109
936.1564504790173, 93.1880864425817
939.2512606615742, 93.4283973810567
938.2990113746337, 92.41969326131151
942.108008522396, 93.90928214430613
944.7266940614826, 94.35138648399005
947.5834419223045, 94.93314917025114
950.2021274613911, 95.10365910182678
953.296937643948, 95.42156844261842
956.1536855047698, 95.72397688053957
959.0104333655916, 95.65391298734077
961.8671812264133, 95.9796009459569
964.7239290872351, 96.28200938387803
967.580676948057, 96.70081542527414
970.4374248088787, 96.71222985450784
973.2941726697005, 96.80512260617401
976.3889828522574, 96.68460097387658
978.7696060696089, 96.94824776582503
981.8644162521658, 97.00232253874006
984.7211641129876, 97.09521529040623
987.5779119738095, 97.2579466041574
990.1965975128961, 97.10254324600311
993.291407695453, 97.56012971096473
996.1481555562748, 97.46678629707094
999.0049034170966, 97.23376575900718
1001.6235889561833, 97.34995680896117
1004.9564614604752, 97.50489072729503
1007.575146999562, 97.55900305539569
1010.4318948603837, 97.30270299663695
1013.2886427212055, 97.32575718621814
1016.1453905820273, 97.48848849996929
1019.2402007645842, 96.99161461643611
1021.8588863036708, 97.4181992756567
1024.4775718427575, 97.27055575773407
1027.5723820253145, 97.27807148925912
1030.4291298861363, 97.30112567884031
1033.285877746958, 97.20778226494653
1036.1426256077798, 97.3006750166127
1038.9993734686016, 97.11421351993893
1041.8561213294233, 96.92775202326516
1044.9509315119801, 96.4929568615853
1047.8076793728019, 96.55481025232481
1046.8554300858614, 95.39090932794632
1050.4263649118886, 96.55460369880382
1053.2831127727104, 96.48453980560504
1056.3779229552674, 96.30581937157011
1058.996608494354, 96.04177825017251
1061.8533563551757, 96.30926740705115
1063.2817302855867, 95.62240888099188
1064.7101042159977, 96.55347704323479
1066.1384781464085, 95.83169923613303
1068.9952260072303, 95.71507630154426
1071.851973868052, 95.36565816000552
1074.4706594071388, 95.07833751791293
1077.5654695896956, 94.946176125268
1080.4222174505173, 94.94595079415419
1083.278965311339, 94.75948929748043
1086.3737754938961, 94.36349333695888
1088.7543987112476, 94.06843163222743
1090.6588972851287, 93.49405323434168
1093.2775828242154, 93.96719693495227
1096.1343306850372, 93.61777879341354
1098.991078545859, 93.09376424666233
1102.085888728416, 93.98978168471302
1101.6097640849457, 92.73272512236892
1104.4665119457675, 93.21360988561835
1107.3232598065892, 93.15130583265122
1110.418069989146, 92.96482555838463
1113.2748178499678, 92.35933268920095
1116.1315657107898, 91.96335550627222
1118.7502512498763, 91.87779071020292
1121.606999110698, 91.67580953306583
1124.701809293255, 91.93939999223582
1126.3682455454011, 90.93048931896963
1127.5585571540769, 92.17196986807195
1128.9869310844877, 91.28723541610523
1130.4153050148986, 92.07862645417818
1132.0817412670447, 90.85244025442537
1134.7004268061314, 90.72807625719774
1134.7004268061314, 89.86673399148292
1137.5571746669532, 90.68129188469395
1140.413922527775, 90.56466895010516
1143.2706703885967, 90.51788457760136
1146.1274182494185, 90.35470260162259
1148.9841661102403, 90.36611703085629
1151.602851649327, 90.36979039745113
1154.6976618318838, 89.93499523577127
1157.5544096927056, 89.60885661492752
1160.4111575535273, 89.44567463894874
1163.029843092614, 89.25147207963613
1164.9343416664951, 88.30462135063046
1166.1246532751709, 89.51506253880612
1167.791089527317, 88.92518323804985
1170.1717127446686, 89.06467258629166
1173.2665229272254, 89.46794016963162
1176.1232707880472, 89.35131723504284
1178.980018648869, 89.16485573836907
1181.8367665096907, 88.9783942416953
1184.6935143705125, 89.21096411753146
1187.3121999095993, 89.0478009191455
1190.407010092156, 88.79148208279392
1193.263757952978, 88.72141818959514
1196.1205058137998, 88.79103142056631
1198.9772536746216, 88.41833375833258
1200.6436899267676, 87.44822228622473
1201.8340015354433, 88.8138602790337
1203.2623754658541, 88.23175959610191
1206.119123326676, 88.2897330667256
1208.9758711874977, 88.37098605804428
1211.8326190483194, 88.67339449596541
1214.6893669091414, 88.34725587512168
1217.308052448228, 88.50224612623398
1220.402862630785, 88.69599802331899
1223.2596104916067, 88.55609556803522
1226.1163583524285, 88.83522448526135
1228.9731062132503, 88.95139675762252
1231.829854074072, 89.0792087903312
1234.6866019348938, 88.97422561608991
1237.5433497957156, 89.0438388470611
1240.4000976565374, 89.04361351594729
1243.2568455173591, 88.84551225892602
1246.113593378181, 89.13628093649966
1248.9703412390027, 88.8799808777409
1251.8270890998244, 88.44908441376968
1254.4457746389112, 88.80971043102112
1257.5405848214682, 89.15865913273943
1260.39733268229, 89.22827236371062
1263.2540805431117, 88.83229518078188
1266.1108284039335, 88.55271560132813
1268.9675762647553, 88.43609266673936
1271.824324125577, 88.38930829423556
1274.6810719863988, 88.34252392173177
1277.5378198472206, 88.48197571478792
1280.3945677080424, 88.66798654923409
1283.2513155688641, 89.22646971480017
1286.108063429686, 89.59871671480629
1289.202873612243, 89.62951196702633
1291.8215591513297, 89.69138413535866
1293.2499330817404, 88.66697255922196
1293.964120046946, 90.62239596482311
1294.9163693338865, 89.36522673692211
1297.5350548729732, 89.23698281957864
1300.534640126836, 90.22146994730744
1303.2485505946167, 90.99413596982318
1303.0104882728815, 89.87673775405622
1305.8672361337035, 89.6126778550658
1308.9620463162603, 89.73659119006582
1311.818794177082, 89.96916106590197
1314.6755420379038, 90.06205381756814
1317.5322898987256, 89.59623807255443
1320.1509754378123, 89.87538576737339
1323.2457856203691, 90.34073207256668
1326.3405958029261, 90.2628895615434
1328.9592813420127, 91.31802127952886
1328.7212190202777, 90.06094593959193
1331.5779668810994, 90.34007485681808
1334.6727770636564, 90.57262595506141
1337.5295249244782, 90.33960541699764
1340.3862727853, 90.30446080484136
1343.2430206461217, 90.90950301179743
1345.8617061852085, 90.60278276912567
1349.1945786895003, 91.3629842255294
1348.9565163677653, 90.29214505115243
1351.813264228587, 91.22310054783844
1351.575201906852, 90.05914329068149
1353.479700480733, 89.53132393418574
1354.6700120894088, 90.8969619269947
1356.3364483415548, 90.15188582160513
1358.9551338806416, 90.41939375607659
1361.8118817414634, 90.95459740094768
1364.6686296022851, 90.94273230948637
1367.525377463107, 91.34989859053499
1368.9537513935177, 90.54664246100074
1370.6201876456637, 91.1750580766159
1373.2388731847504, 91.38436720934988
1376.0956210455722, 91.43070091962606
1377.7620572977182, 90.67786497400482
1378.952368906394, 92.29181785422708
1380.380742836805, 90.95313274870794
1382.9994283758915, 91.04992419808278
1384.6658646280375, 90.31260793292486
1386.3323008801835, 90.95654322900336
1388.7129240975353, 91.20467034048846
1391.807734280092, 91.70881584684007
1394.9025444626488, 91.42145764956184
