15.999999999999996, 7.288414229779676
16.999999999999996, 7.619083609918235
17.999999999999996, 8.73960406697556
18.999999999999996, 9.322418753783012
19.999999999999996, 9.00545079237223
20.999999999999996, 9.295058676600988
21.999999999999996, 9.657462658666304
22.999999999999996, 9.737231825068832
23.999999999999996, 10.05668899081283
24.999999999999996, 10.780011270008544
26.000000000000004, 11.235005027416292
26.99999999999999, 11.3016930476997
27.999999999999996, 11.738531513851228
28.999999999999996, 12.245948998541522
29.999999999999996, 12.501568744203126
30.999999999999996, 12.806482886597138
31.999999999999996, 12.699931597225145
33, 13.160422979463988
34, 13.376616452549996
34.999999999999986, 13.751841400178165
36, 14.721030667069087
37, 14.957899681170872
39, 15.199206018630534
40, 14.95920578311835
41, 14.702368944193921
42, 14.87798747576575
42.999999999999986, 14.963306407700713
44, 15.048962918396796
45, 15.101517841402227
46, 15.243604555523362
47, 15.314253616797401
48, 15.360180050058617
49, 15.441603118380115
50, 15.445465744687013
51, 15.474562907226272
52, 15.476584696499799
53, 15.477069331532604
54, 15.441623610277844
55, 15.408576174607973
56, 15.391806383174156
57, 15.458017523803377
58, 15.588359137172986
59, 15.645597812539819
60, 15.656555930758358
61, 15.571983518498854
62, 15.513957808708994
63, 15.420511572819066
64, 15.312808361442777
65, 15.310127397716485
66, 15.328789763781515
67, 15.396703413281429
68, 15.410530551822049
69.00000000000001, 15.402718894747892
70.00000000000001, 15.394364564630791
70.99999999999999, 15.40949426687422
72, 15.4352940335896
73, 15.5075591552515
74, 15.508569720466951
75, 15.440967053191173
76, 15.308880776481814
77, 15.25579526365226
78, 15.213027395263822
79, 15.146985439211491
80, 15.060873580216423
81, 15.184679160423457
82, 15.212928016815681
83, 15.240370792964868
84, 15.18811030946489
85.00000000000001, 15.014672935117602
86.00000000000001, 14.977628374891594
86.99999999999999, 14.977315896497302
88, 14.98825324906268
89, 15.041578937029357
90, 15.091850797557186
91, 15.113388010148412
92, 15.091918923249807
93, 15.03811597294252
94, 14.963888293958831
95, 14.944525442439371
96, 14.946122538375619
97, 14.927265580314966
98, 14.889804489030766
99, 14.842028996958732
100, 14.812881356541652
101.00000000000001, 14.777555137347306
102.00000000000001, 14.744140098680063
102.99999999999999, 14.741202934044708
104, 14.783912339544415
105, 14.812976833717357
106, 14.778844054092815
107, 14.74410763352114
108, 14.663283247446145
109, 14.55801689294455
110, 14.500874645202785
111, 14.445693548631041
112, 14.411853262612865
113, 14.448576522411258
114, 14.478603926154392
115, 14.466732290946553
116, 14.407486823547913
117, 14.34649840684051
118, 14.32063499074387
119, 14.290566196710643
120, 14.219132348572487
121, 14.165533579305347
122, 14.145602503651432
123, 14.142143819787194
124, 14.077328994949141
125, 14.022152910492238
126, 13.976721351275486
127, 14.007914939662001
128, 14.041775587685947
129, 14.011340740808706
130, 13.935099892197073
131, 13.857350396367735
132, 13.799261318240113
133, 13.769755875505268
134, 13.710023731210455
135, 13.67797912332935
136, 13.682259893618308
137, 13.710834442456004
138, 13.704653452303916
139, 13.644938104797987
140, 13.57598088920912
141, 13.525956211671513
142, 13.468159830704025
143, 13.438781464690877
144, 13.413394965848894
145, 13.411618073070272
146, 13.435526694591871
147, 13.509189904202515
148, 13.512325142022306
149, 13.497345507558194
150, 13.474855853012656
151, 13.410735655250605
152, 13.36673070641848
153, 13.345155329518278
154, 13.346720787968977
155.00000000000003, 13.3467980423994
156.00000000000003, 13.345875563534463
157.00000000000003, 13.307366346772454
158.00000000000003, 13.256339555342123
158.99999999999997, 13.247004912661126
159.99999999999997, 13.248663237454721
160.99999999999997, 13.22951624761754
162, 13.21047861540562
163, 13.23340543848316
164, 13.248993190057647
165, 13.195244962257604
166, 13.180261751353356
167, 13.180348828161172
168, 13.180379321540897
169, 13.17994809564442
170, 13.173070579868082
171, 13.146718753691573
172, 13.165017782053326
173, 13.211409639175216
174, 13.25114206909609
175, 13.31737901355352
176, 13.31343182866243
177, 13.305213038302
178, 13.282178364413582
179, 13.311004133771334
180, 13.31340229016655
181, 13.329436062853205
182, 13.370559245733133
183, 13.446334214608612
184, 13.434321301473005
185, 13.361046526862879
186, 13.187800377023521
187.00000000000003, 13.180686747649332
188.00000000000003, 13.216874072525641
189.00000000000003, 13.364030566172048
190.00000000000003, 13.471951767142343
190.99999999999997, 13.480512248819338
191.99999999999997, 13.453522217565236
192.99999999999997, 13.445828811335872
194, 13.417050284590388
195, 13.414429208906483
196, 13.484926172132333
197, 13.60184620285942
198, 13.6311534637058
199, 13.676210846616968
200, 13.680248505234516
201, 13.666463490907248
202, 13.644995760535238
203, 13.646266815266756
204, 13.652788009476097
205, 13.704868762607362
206, 13.806298128005778
207, 13.836590314098544
208, 13.846148942932757
209, 13.781757608133631
210, 13.747054956979113
211, 13.801061880826566
212, 13.854969750541656
213, 13.925716758747242
214, 14.028481186454883
215, 14.147668950848086
216, 14.191183493533657
217, 14.202767041905929
218, 14.132594039074974
219.00000000000003, 14.119003470512169
220.00000000000003, 14.144964144543692
221.00000000000003, 14.164143170318212
222.00000000000003, 14.260355027513071
222.99999999999997, 14.279366331113138
223.99999999999997, 14.256830652868999
224.99999999999997, 14.296407496996082
226, 14.352597154147901
227, 14.381215859572421
228, 14.410357286608075
229, 14.453545049721058
230, 14.548224847240121
231, 14.625130899562123
232, 14.694061232740395
233, 14.692933928648301
234, 14.74567241158148
235, 14.795465716853414
236, 14.906040336006114
237, 14.94372903914747
238.00000000000003, 14.95696684541683
239.00000000000003, 15.02348492124635
240.00000000000003, 15.12644787836777
241.00000000000003, 15.171844357705211
242.00000000000003, 15.177151243783769
243.00000000000003, 15.187305170240748
244.00000000000003, 15.266683767745832
245.00000000000003, 15.356882887911524
246.00000000000003, 15.418922478644731
247.00000000000003, 15.461137589100943
248.00000000000003, 15.48908544226721
249.00000000000003, 15.511597182370366
250.00000000000003, 15.510105122621425
251.00000000000003, 15.509874304031186
252.00000000000003, 15.613552206476967
253.00000000000003, 15.705178976610668
254.00000000000003, 15.774445213592116
255.00000000000003, 15.934170773619783
256, 15.940298132833036
257, 15.960871827748875
258, 15.994752928208626
259, 16.064582739996553
260, 16.120858259303347
261, 16.203872425860112
262, 16.29599205346547
263, 16.39024870311114
264, 16.4610467255946
265, 16.47610091330398
266, 16.47568971987249
267, 16.4925556372652
268, 16.573016736235914
269, 16.63509683097861
270, 16.7801850856885
271, 16.815641879318818
272, 16.890196227174144
273, 16.952112607374588
274, 16.976916030260213
275, 17.05903721962811
276, 17.140100164181078
277, 17.20498743352512
278, 17.246239957889344
279, 17.31361188647999
280, 17.454155804177134
281, 17.561351450332623
282, 17.634654725903374
283, 17.725701971418346
284, 17.77472890459768
285, 17.849584003786433
286, 17.96813316220188
287, 17.987588709227623
288, 18.059393035559467
289, 18.161187172948104
290, 18.247338764343283
291, 18.347740108337916
292, 18.41919629195121
293, 18.44066361265817
294, 18.456637679435687
295, 18.480491608798886
296, 18.529240013251794
297, 18.615239887875106
298, 18.673396769703572
299, 18.80722726738449
300, 19.00860082042199
301, 19.000058255112393
302, 18.97021575672575
303, 18.972438798017706
304, 19.036551127239136
305, 19.15200876999326
306, 19.20864208057202
307, 19.110020779967186
308, 19.285471559238346
309, 19.367811138497515
310, 19.41494174789608
311, 19.526021261719762
312, 19.541350182634233
313, 19.61471023020175
314, 19.68413563950031
315, 19.75867295946408
316, 19.770344629072923
317, 19.780141917473358
318, 19.83281707403013
319, 19.90963716258227
320, 20.060624501939913
321.00000000000006, 20.104017523395797
322.00000000000006, 20.110834146344658
323.00000000000006, 20.1556952627716
324.00000000000006, 20.18347247152174
325.00000000000006, 20.23758014076651
326.00000000000006, 20.196697872618174
327.00000000000006, 20.08123012192543
327.99999999999994, 20.438330320652042
328.99999999999994, 20.463602984151805
329.99999999999994, 20.545060815706634
330.99999999999994, 20.40285096334007
331.99999999999994, 20.71137776697644
332.99999999999994, 20.876354741135813
334, 20.846679095564497
335, 20.930400724758755
336, 20.97149279011063
337, 20.720573983393066
338, 21.057170791870405
339, 21.07269592827859
340, 21.16783059277448
341, 21.326186067945358
342, 21.47661682628336
343, 21.346557091027805
344, 21.118440623389844
345, 21.337514768281025
346, 21.676576523415903
347, 21.75863337004006
348, 21.57018493405225
349, 21.721017923585336
350, 21.862446186608338
351, 21.953457071535226
352, 21.853903701627686
353, 21.792828635800646
354, 22.06620464319488
355, 22.17966183635376
356, 22.363954841759906
357, 22.391014951543198
358, 22.637027824226138
359, 22.84949664519104
360, 22.888156611922113
361, 22.75676281776167
362, 22.689130948448366
363, 22.93340998774677
364, 22.9456671138431
365, 23.09237568854823
366, 22.89848254764256
367, 23.354055719639177
368, 23.384077703305266
369, 23.614377407915782
370, 23.614705917552328
371, 23.492605984848126
372, 23.57289066507711
373, 23.5561581652737
374, 23.444983936031832
375, 23.60410570483633
376, 23.601807140509194
377, 23.837580158130606
378, 23.939441489830713
379, 24.0062349011681
380, 24.06347181058308
381, 23.957385560438325
382, 24.198587937400163
383, 24.388436698095262
384, 24.368600867724496
385.00000000000006, 24.161081973563213
386.00000000000006, 24.444906953267463
387.00000000000006, 24.459691756366794
388.00000000000006, 24.663588963657077
389.00000000000006, 24.709379618985466
390.00000000000006, 24.81188622510612
391.00000000000006, 25.03710701787236
391.99999999999994, 24.82626111352225
392.99999999999994, 24.641397397245186
393.99999999999994, 24.895230770920705
394.99999999999994, 24.681014623377067
395.99999999999994, 24.814619495636947
396.99999999999994, 24.73287941577071
398, 25.107908719267215
399, 25.109380327303853
400, 24.635464720098852
401, 25.04663775840757
402, 25.079454260966884
403, 25.361005471034687
404, 25.40243269526505
405, 25.133628511435234
406, 25.299480795916693
407, 25.463643243941235
408, 25.665805940042873
409, 25.617352167193076
410, 25.381468416858254
411, 25.302186618439507
412, 25.625860923489725
413, 25.625197295842568
414, 25.59116803891797
415, 25.462365317581018
416, 25.76834099090854
417, 25.88837611521531
418, 25.921160816141764
419, 25.957930283575635
420, 26.14351321718651
421, 26.215310309279516
422, 26.224293644482685
423, 25.958018599540708
424, 25.783146434466403
425, 26.130811037910206
426, 26.3890267883191
427, 26.477261612496292
428, 26.47310920729406
429, 26.356873233319817
430, 26.334508805627692
431, 26.435189712266677
432, 26.446055325962703
433, 26.28800445701681
434, 26.353602891383886
435, 26.30318375944013
436, 26.400366139733762
437, 26.44231740677212
438, 26.503370492167264
439, 26.560299907919088
440, 26.549066911028078
441, 26.520744862285284
442, 26.482878746639997
443, 26.28838354773042
444, 26.41014855635649
445, 26.133837383913445
446, 26.171969938392024
447, 26.20444225934041
448, 26.063184984498164
449.00000000000006, 26.216288945577958
450.00000000000006, 26.334521575028916
451.00000000000006, 26.206167408019112
452.00000000000006, 26.200709943762533
453.00000000000006, 25.77268400624203
454.00000000000006, 25.965793375892943
455.00000000000006, 25.85664923315545
455.99999999999994, 25.709856713797592
456.99999999999994, 25.518318327356184
457.99999999999994, 25.474929186002356
458.99999999999994, 25.763202834200413
459.99999999999994, 25.64630296489048
460.99999999999994, 25.53697608385157
462, 25.40904051220376
463, 25.17282004132916
464, 25.329132325232123
465, 25.13939995184579
466, 25.05186027930344
467, 24.863045361307428
468, 24.794332946136194
469, 24.715281652633934
470, 24.654516616082645
471, 24.48129862384134
472, 24.491037603104004
473, 24.447703119945942
474, 24.288825177618037
475, 24.231583545108634
476, 24.19767239299452
477, 24.25349081892628
478, 24.43335030991112
479, 24.581806946165486
480, 24.78661241976684
481, 24.970300103195314
482, 25.15066002552564
483, 25.24645227354935
484, 25.156304953704208
485, 25.5555199461771
486, 25.543143665886802
487, 25.804249482492693
488, 26.024469126939124
489, 25.738658830624033
490, 25.454645583712306
491, 25.161545364816178
492, 25.550040107231368
493, 25.330758686994585
494, 24.62516534447883
495, 23.983673212369652
496, 23.70785012006165
497, 23.373831832940482
498, 23.271555528721834
499, 22.700250783250596
500, 21.631419724048797
501, 21.343507398146357
502, 20.773623282849513
503, 20.4070382575823
504, 19.82394716249486
505, 19.004274381558417
506, 18.604120408426198
507, 18.230314481229883
508, 17.800790761360233
509, 17.367056439693755
510, 16.647247340541753
511, 16.289059684546046
512, 15.489733011634328
513, 14.989495772942462
514, 14.867675616496058
515, 14.273791659258137
516, 13.937074803560975
517, 13.692383711174656
518, 13.1698968880049
519, 13.104703381958302
520, 12.79713504766417
521, 12.336329339923509
522, 11.939495054012255
523, 11.62658598090431
524, 11.368429900024694
525, 11.40646899724193
526, 11.074979833290925
527, 10.996763920149064
528, 10.612363904041786
529, 10.681458468140391
530, 10.686929483690761
531, 10.279624221899581
532, 10.186293429220001
533, 10.338335519007288
534, 9.967826443491319
535, 9.84945089676296
536, 9.661899321565443
537, 9.405981472499136
538, 9.753789214537704
539, 9.695815929181464
540, 9.635540943693044
541, 9.010272878525512
542, 9.218701209050053
543, 9.332430874187878
544, 9.208366484616619
545, 9.064490765990271
546, 8.991663970502941
547, 8.899515508255263
548, 8.8395541450476
549, 8.788656370163125
550, 8.651485611532834
551, 8.597355044517471
552, 8.478598493891866
553, 8.389423288443638
554, 8.381378574308897
555, 8.354337259355702
556, 8.24195906793355
557, 8.219432081444054
558, 8.17769675340297
559, 8.147182647171078
560, 8.106000190002689
561, 8.061514574052495
562, 8.035504787042669
563, 7.967848782196256
564, 7.889678900551573
565, 7.840434856641053
566, 7.8139010070394335
567, 7.787457266314718
568, 7.758218653791786
569, 7.75540021244008
570, 7.754882065289024
571, 7.745513877384283
572, 7.6538215000123415
573, 7.619387073716808
574, 7.621827964019815
575, 7.622734150327972
576, 7.595962040441009
577, 7.5886399445713835
578, 7.588590264403024
579, 7.591292245214973
580, 7.620391814425631
581, 7.621890958605178
582, 7.639165325557698
583, 7.654234655710425
584, 7.676079331696656
585, 7.733205795554738
586, 7.756656438452083
587, 7.788089228216705
588, 7.849761515614574
589, 7.878719146043579
590, 7.993586152626548
591, 8.058541555751475
592, 8.15127783646102
593, 8.279477448973964
594, 8.32365121106281
595, 8.458181722850767
596, 8.563773745913238
597, 8.614861243840366
598, 8.763946708025998
599, 8.787344631484842
600, 8.782289390118123
601, 8.706311118177553
602, 8.359061386659405
603, 8.700230578561488
604, 8.772073421743627
605, 8.654218528353084
606, 8.494603007459332
607, 8.12250847812966
608, 8.203240679260645
609, 8.094384985192121
610, 7.94216840638542
611, 8.078670306504037
612, 8.058721476081075
613, 7.9203885276907044
614, 7.819666908003285
615, 7.675055792703887
616, 7.5840757092626205
617, 7.459283568933117
618, 7.298235195081219
619, 7.206404574012694
620, 7.094100356566571
621, 6.965677616805976
622, 6.878045701028128
623, 6.782466424109515
624, 6.659120385971335
624.9999999999999, 6.591915448748992
626, 6.486558694949409
626.9999999999999, 6.403841090696972
628, 6.301636355890523
629, 6.228325007706985
630, 6.1548439166783595
631, 6.123511354538493
632, 6.084215068870506
633, 6.0287859598263225
634, 5.979097383012245
635, 5.897630830029286
636, 5.857483603537247
637, 5.8120671476262515
638, 5.7180876013666335
639, 5.6913002418721845
640, 5.665163551651204
641, 5.639515223137607
642, 5.565811416798894
643, 5.55891711093571
644, 5.544820074674206
645, 5.51617411141855
646, 5.474454453531322
647, 5.45786865675403
648, 5.459178961905408
649, 5.44517188395983
650, 5.410565709169717
651, 5.358888219955176
652, 5.3613926650019295
653, 5.340311906866688
654, 5.3137522582786545
655, 5.266258609366886
656, 5.2430543214726555
657, 5.22440735763783
658, 5.225545085519016
659, 5.225528387226831
660, 5.225557806544515
661, 5.2257575883025424
662, 5.184472550745355
663, 5.126011598675646
664, 5.1255826308018015
665, 5.125667101551414
666.0000000000001, 5.1256817296212915
667, 5.125773827416637
668.0000000000001, 5.124870768610961
669, 5.097999933892723
670.0000000000001, 5.072875548219486
671, 5.044825982067579
672.0000000000001, 5.024110647489948
673, 5.0081047426052265
674.0000000000001, 4.991605577153848
675, 4.992566024437991
676.0000000000001, 4.992541434083847
677, 4.992543257820216
678.0000000000001, 4.992543324559165
679, 4.992575629289888
679.9999999999999, 4.991867881434587
681, 5.006074250771789
681.9999999999999, 5.002429277511766
683, 4.992537676415978
683.9999999999999, 4.98633139696075
685, 4.940834280757045
685.9999999999999, 4.9255119640298375
687, 4.931927212656461
687.9999999999999, 4.959128270540759
689, 4.938884571299511
689.9999999999999, 4.9586200264752165
691, 4.970518849013317
692, 4.993894194991725
693, 4.992925227368403
694, 4.958589910868412
695, 4.926115313189499
696, 4.925935724917224
697, 4.925971581284287
698, 4.925976287026643
699, 4.925976331531061
700, 4.9259763558619625
701, 4.925976355573383
702, 4.9259763556616605
703, 4.925976355659145
704, 4.925976355659259
705, 4.925976355659316
706, 4.925976355659316
707, 4.925976355659316
708, 4.925976355659316
709, 4.925976355659316
710, 4.925976355659316
711, 4.925976355659316
712, 4.925976355659316
713, 4.925976355659245
714, 4.9259763556585625
715, 4.925976355658278
716, 4.9259763554760525
717, 4.925976358864446
718, 4.925976324459697
719, 4.925975995110335
720, 4.925974653846922
721, 4.925881949148263
722, 4.9273684111877145
723, 4.9559186623882
724, 4.953799776348049
725, 4.94197215321536
726, 4.960837687575079
727, 4.960254451399308
728, 4.9892126108659625
729, 4.992205732156634
730, 4.992538635528106
731.0000000000001, 4.992541889921085
732, 4.992543613036915
733.0000000000001, 4.992543722185161
734, 4.992540101191793
735.0000000000001, 4.99255918916748
736, 4.992842841367008
737.0000000000001, 5.010230977991554
738, 5.024851668018513
739.0000000000001, 5.045355967691904
740, 5.0597459734271695
741.0000000000001, 5.059269195183234
742, 5.059076340419779
743.0000000000001, 5.0678083448227795
744, 5.091588286784628
744.9999999999999, 5.104822552526684
746, 5.126904591899958
746.9999999999999, 5.125532089913932
748, 5.145522512016967
748.9999999999999, 5.127223663138508
750, 5.168641962356176
750.9999999999999, 5.199377527284753
752, 5.240607461210104
752.9999999999999, 5.259447430423137
754, 5.259791978759196
754.9999999999999, 5.300293393770076
756, 5.326327010618726
757, 5.325390031516591
758, 5.325404387550918
759, 5.32516238396731
760, 5.335086145926326
761, 5.387339715686167
762, 5.423041270061589
763, 5.451634397737735
764, 5.495658611361833
765, 5.564157433950243
766, 5.613183619914494
767, 5.683516318859418
768, 5.835566525068771
769, 5.959968732058343
770, 6.0050443776664935
771, 6.173418614451293
772, 6.287991191519282
773, 6.386568923023759
774, 6.457389541569356
775, 6.545096208495224
776, 6.739696093401619
777, 6.851969120709768
778, 7.035093123858317
779, 7.097222664442356
780, 7.191503237355903
781, 7.297211257696034
782, 7.384380747180131
783, 7.474857214018684
784, 7.602717353010391
785, 7.661872624895523
786, 7.640829506823181
787, 7.564705607942528
788, 7.602843742150796
789, 7.741344819991241
790, 7.7742444341078425
791, 7.702043301632088
792, 7.778860976599745
793, 7.780256818336568
794.0000000000001, 7.683113793488616
795, 7.801457833488001
796.0000000000001, 7.762826007072988
797, 7.7980946889987734
798.0000000000001, 7.801675668655662
799, 7.88201336318815
800.0000000000001, 7.842593451171609
801, 7.771609703159683
802.0000000000001, 7.717983018965612
803, 7.603012019698895
804.0000000000001, 7.646299647681445
805, 7.663374174520101
806.0000000000001, 7.615253712136024
807, 7.611015076163795
807.9999999999999, 7.804220211384788
809, 7.612690837517377
809.9999999999999, 7.569792292347799
811, 7.688234666533731
811.9999999999999, 7.586520550190926
813, 7.689735154554668
813.9999999999999, 7.613676413191911
815, 7.479788527363098
815.9999999999999, 7.468236871235504
817, 7.424567989670422
817.9999999999999, 7.526699109370881
819, 7.6424279806773825
820, 7.562240989378793
821, 7.732587371063602
822, 7.6641958912153285
823, 7.435449364385136
824, 7.482368370021106
825, 7.281828597441532
826, 7.2842247642361
827, 7.239034576179492
828, 7.2559585045601125
829, 7.245604225532205
830, 7.097418162396707
831, 7.09866957717675
832, 6.986094233486725
833, 7.224035494963218
834, 7.055793810868153
835, 7.000783216729644
836, 6.798772325245977
837, 6.865145095827174
838, 6.825860473060615
839, 6.5964024047165
840, 6.6080561035055325
841, 6.634723101608785
842, 6.517855384968442
843, 6.371411000500899
844, 6.42060493398796
845, 6.257527123725907
846, 6.089519652039982
847, 6.0986112934393475
848, 6.123808080844071
849, 5.842738639745761
850, 5.761652817066704
851, 5.687670369906144
852, 5.598719399344546
853, 5.687744008419386
854, 5.526576847528943
855, 5.472983206321658
856, 5.399676193410983
857.0000000000001, 5.240740518282735
858, 5.261873725443834
859.0000000000001, 5.053710867340953
860, 5.077247229434917
861.0000000000001, 4.925670185709748
862, 4.916793694233178
863.0000000000001, 4.721138253362625
864, 4.8030988895663
865.0000000000001, 4.843572654523328
866, 4.861149772003131
867.0000000000001, 4.712655698447918
868, 4.604993580747646
869.0000000000001, 4.684264548083078
870, 4.619089836231964
871.0000000000001, 4.630191283636407
872, 4.584253110792105
872.9999999999999, 4.512268439737284
874, 4.514709587717647
874.9999999999999, 4.518443997494813
876, 4.389141762032693
876.9999999999999, 4.512605350775289
878, 4.606442144066364
878.9999999999999, 4.491944947786493
880, 4.558834180276023
880.9999999999999, 4.437867183047757
882, 4.378251477435043
883, 4.542765269474643
884, 4.523497865213969
885, 4.562112182946819
886, 4.439820783541222
887, 4.397775060226806
888, 4.392708021102905
889, 4.400865835536621
890, 4.355634546467783
891, 4.498906792553527
892, 4.55757977652182
893, 4.415738185586079
894, 4.500859611139333
895, 4.458776153854529
896, 4.3345939147377095
897, 4.337162392083783
898, 4.335757221760801
899, 4.350213813494392
900, 4.425001158437269
901, 4.3193220543777215
902, 4.320162185743641
903, 4.408807851502232
904, 4.364415245491131
905, 4.506854071919136
906, 4.4176286331371415
907, 4.431786050360003
908, 4.421181784099261
909, 4.3455078696588885
910, 4.480047238702838
911, 4.484562833887949
912, 4.378437263502036
913, 4.279865108026357
914, 4.255367974626083
915, 4.412840414185496
916, 4.342772166173916
917, 4.48734136279468
918, 4.434868168880868
919, 4.325523838122649
920, 4.414335062173862
921, 4.409203622265295
922.0000000000001, 4.3344382444772265
923, 4.328762348694369
924.0000000000001, 4.413304071352442
925, 4.48890837698282
926.0000000000001, 4.445608589324635
927, 4.274531365805856
928.0000000000001, 4.415767616546859
929, 4.353110167885049
930.0000000000001, 4.311963025794569
931, 4.237764704811383
932.0000000000001, 4.300895859639297
933, 4.307155292603369
934.0000000000001, 4.250589474219424
935, 4.260643267685921
935.9999999999999, 4.258400544048655
937, 4.297532803445392
937.9999999999999, 4.185807007649444
939, 4.294007972223966
939.9999999999999, 4.315794028026588
941, 4.1658039130552424
941.9999999999999, 4.380098560510106
943, 4.359272361455282
943.9999999999999, 4.2897144452997225
945, 4.3555525610310895
945.9999999999999, 4.292991206470418
947, 4.370817251790655
948, 4.244930796292891
949, 4.197805397806505
950, 4.203788299984623
951, 4.286612338935498
952, 4.223032506807982
953, 4.145327102205059
954, 4.159692750895928
955, 4.272285011288773
956, 4.10167068923208
957, 4.31329176792579
958, 4.2981810818550485
959, 4.135046850796584
960, 4.188358457806899
961, 4.1311019605145844
962, 4.316312932715448
963, 4.234935817710408
964, 4.190465874275688
965, 4.167281816201225
966, 4.160437664634657
967, 4.154921068247262
968, 4.161011270059802
969, 4.167594124731451
970, 4.169624817643609
971, 4.16020548395673
972, 4.201269786480992
973, 4.211298120812174
974, 4.30665661870421
975, 4.160661404086511
976, 4.079306783149363
977, 4.274950995143868
978, 4.213583346395396
979, 4.374361517800509
980, 4.212206879541242
981, 4.380975642600362
982, 4.348249629790502
983, 4.20078574132522
984, 4.319224882133909
985.0000000000001, 4.088127333129393
986, 4.164183184891357
987.0000000000001, 4.347567434577485
988, 4.404491605920626
989.0000000000001, 4.271802773662202
990, 4.363192601791425
991.0000000000001, 4.367514644966661
992, 4.492892913570174
993.0000000000001, 4.459900243311964
994, 4.489160157192984
995.0000000000001, 4.493449647494785
996, 4.492680161681122
997.0000000000001, 4.525302808435555
998, 4.57649866200056
999.0000000000001, 4.630269713965362
1000, 4.661384953478347
1000.9999999999999, 4.690732970148275
1002, 4.692592873154865
1002.9999999999999, 4.692821253020853
1004, 4.7285049703399835
1004.9999999999999, 4.758952856949705
1005.9999999999999, 4.771482793162974
1006.9999999999999, 4.799754937076102
1007.9999999999999, 4.825300285839461
1008.9999999999999, 4.823757620848696
1009.9999999999999, 4.844887746382639
1010.9999999999999, 4.901907407275715
1011.9999999999999, 4.9319980807400015
1012.9999999999999, 4.957586098054776
1013.9999999999999, 4.9919737871504
1014.9999999999999, 5.026274057890035
1015.9999999999999, 5.07214980021898
1016.9999999999999, 5.164980414577258
1017.9999999999999, 5.207185036202858
1018.9999999999999, 5.227398569793351
1019.9999999999999, 5.243368121141344
1020.9999999999999, 5.267267871950921
1021.9999999999999, 5.314133662987317
1022.9999999999999, 5.358121590892324
1023.9999999999999, 5.366439023868338
1025, 5.427061176210202
1026, 5.486920327889749
1027, 5.510422879147953
1028, 5.539293006361802
1029, 5.573953207991394
1030, 5.658069861590221
1031, 5.718894160460238
1032, 5.747286519764586
1033, 5.821289258199599
1034, 5.830405639510602
1035, 5.873024251303576
1036, 5.9549012381962285
1037, 5.992139679127774
1038, 6.031821011665045
1039, 6.08218626320793
1040, 6.090493979895129
1041, 6.1232433393820855
1042, 6.176410577114098
1043, 6.221285529716667
1044, 6.252211602848149
1045, 6.317853413467262
1046, 6.3854642204927785
1047, 6.392692951850179
1048, 6.489437113102682
1049, 6.5266115193096255
1050, 6.55567827038405
1051, 6.556558332556762
1052, 6.556741810630243
1053, 6.566393551460692
1054, 6.589371667205967
1055, 6.602558367583384
1056, 6.650175236537109
1057, 6.656735446476873
1058, 6.6567108772073595
1059, 6.656725105585778
1060, 6.656724744231113
1061, 6.656724438895807
1062, 6.656724658054628
1063, 6.656637580275728
1064, 6.65844057048686
1065, 6.688775011009199
1066, 6.665228613588539
1067, 6.641111857772685
1068, 6.5947835478238375
1069, 6.588648394127787
1070, 6.559608340018684
1071, 6.556873144785598
1072, 6.527341740913755
1073, 6.433686994364223
1074, 6.4242779843437745
1075, 6.401777782686693
1076, 6.349041256494914
1077, 6.2812925513106705
1078, 6.2144242692615705
1079, 6.1894112347671495
1080, 6.125096612171248
1081, 6.051108126207907
1082, 6.0102886569472105
1083, 5.963658750311168
1084, 5.95704119515112
1085, 5.880482264657076
1086, 5.827140424038163
1087, 5.7841280336898535
1088, 5.706104214443954
1089, 5.657685290224919
1090, 5.654047043381084
1091, 5.585066229255176
1092, 5.513566005991365
1093, 5.458528060419397
1094, 5.392322320124848
1095, 5.330804566037244
1096, 5.305338684621233
1097, 5.2477042952296955
1098, 5.215464097163007
1099, 5.151878154592282
1101, 5.081058887100696
1102, 5.015812648082303
1103, 4.967164930122593
1104, 4.928944098293641
1105, 4.8911691669086395
1106, 4.886960778956507
1107, 4.969942997985427
1108, 4.929149522428375
1109, 4.765968014347649
1110, 4.8717920275454105
1111, 4.907551212093637
1112, 4.858837210249035
1114, 4.760904171604949
1115, 4.70964317130796
1116, 4.69303192642289
1117, 4.6836523912799635
1118, 4.659186348626164
1119, 4.664254756761551
1120, 4.752580105787587
1121, 4.874806231539409
1122, 4.708363020717869
1123, 4.710863047024148
1124, 4.903040882278148
1126, 4.883365622652093
1127, 4.797611502091442
1128, 4.741762600516154
1129, 4.851838823370613
1131, 4.72987027658877
1132, 4.728577844776254
1133, 4.742548803416696
1135, 4.79267712787167
1136, 4.7748020534364315
1137, 4.794084685202094
1138, 4.792827329712992
1139, 4.792845011746863
1140, 4.792833797156419
1141, 4.7927439126936235
1142, 4.79033171592242
1143, 4.814353288543614
1145, 4.802317447856083
1146, 4.792161492572575
1147, 4.792674644053264
1148, 4.792724067046947
1149, 4.80221313515986
1150, 4.826150578955975
1151, 4.824273184787955
1152, 4.876695138170945
1153, 4.89288837624548
1154, 4.921239639719801
1155, 4.926054709856913
1156, 4.9259671142914385
1157, 4.9259823083174155
1158, 4.925984340096079
1159, 4.927886844247439
1160, 4.9073129686906185
1161, 4.891845088470404
1162, 4.892810999894621
1163, 4.908455373111622
1164, 4.927018973552521
1165, 4.927393893553045
1166, 4.955956164565549
1167, 4.953560578609029
1168, 4.927389545912035
1169, 4.899259562752022
1170, 4.894811493276265
1171, 4.951424840548441
1172, 4.981253286902842
1173, 4.978029134772129
1174, 4.957984557085226
1175, 4.959346014953795
1176, 4.957373296737131
1177, 4.979206880270567
1178, 4.993850854441561
1179, 4.966801754623376
1180, 4.959278237601012
1181, 4.957361981662231
1182, 4.978868074994068
1183, 4.993159524101841
1184, 4.9926591455774485
1185, 4.992585153106745
1186, 4.983798648961454
1187, 4.959690708835865
1188, 4.95816949868545
1189, 4.983929772587288
1190, 4.992522001773807
1191, 4.986290581406934
1192, 4.940889300257169
1193, 4.9250555318310205
1194, 4.925831740053425
1195, 4.92597554825619
1196, 4.925973232046331
1197, 4.926011975713735
1198, 4.925524018352874
1199, 4.92081784103155
1200, 4.908566611913869
1201, 4.9205719171793305
1202, 4.893892133290109
1203, 4.922611499082976
1204, 4.925631523328519
1205, 4.925972106998628
1206, 4.925992842717761
1207, 4.925829043462301
1208, 4.929768129137827
1209, 4.88550920147344
1210, 4.8595658968236535
1211, 4.8411760657315455
1212, 4.859895190556031
1213, 4.859032496097399
1214, 4.860035579640581
1215, 4.846310346952677
1216, 4.8245404404534185
1217, 4.809101312233551
1218, 4.793744894654708
1219, 4.773787477495205
1220, 4.758801607022335
1221, 4.7594398220080905
1222, 4.759586861986946
1223, 4.767754657100923
1224, 4.790867454493693
1225, 4.762048506282312
1226, 4.7596626517917
1227, 4.743881438200731
1228, 4.725222717374763
1229, 4.724939337110314
1230, 4.695884559624503
1231, 4.69334392747065
1232, 4.693048988434072
1233, 4.694818430291434
1234, 4.6752209293341735
1235, 4.653016977001059
1236, 4.672261659448395
1238, 4.423724580743382
1239, 4.653642335488769
1240, 4.7589205882195245
1241, 4.510005548282038
1242, 4.519195233634548
1243, 4.478702005799036
1244, 4.3502301448191645
1245, 4.670505106016961
1246, 4.454195548238914
1247, 4.465198441661883
1248, 4.426502787090101
1249, 4.231252975283411
1250, 4.4396291203314036
1251, 4.613956640338969
1252, 4.488060043085454
1253, 4.31763528746977
1254, 4.309482017729593
1255, 4.362265768261793
1256, 4.234469533233323
1257, 4.31005263998442
1258, 4.409261504302492
1259, 4.101053086267811
1260, 4.074293719956572
1261, 4.179053652091014
1262, 4.571274097127912
1263, 4.114983589496006
1264, 4.16973741522925
1265, 4.160059480529725
1266, 4.1693084818624015
1267, 4.40239236236097
1268.0000000000002, 4.562241075997861
1269, 4.216295844470167
1270, 4.174599920720453
1271, 4.160858590762658
1272.0000000000002, 4.146846376383721
1273, 4.290237982453931
1274, 4.174707202058897
1275, 4.165838033460361
1276.0000000000002, 4.296168551333338
1277, 4.520300815320752
1278, 4.24447085278463
1279, 4.50783686476862
1280.0000000000002, 4.5631189069929405
1281, 4.679615466521753
1282, 4.489083353603533
1283, 4.428663875276769
1283.9999999999998, 4.524831137622584
1285, 4.4377677553841295
1286, 4.094776995055284
1287, 4.379538157447811
1287.9999999999998, 4.190269937446814
1289, 4.04581060704929
1290, 4.310090211688561
1291, 4.334474752120656
1291.9999999999998, 4.247211370429568
1293, 4.434560914709365
1294, 4.545968652832826
1295, 4.2584382323151
1295.9999999999998, 4.520386644873895
1297, 4.385034186723971
1298, 4.215850234125497
1299, 4.354694670861917
1299.9999999999998, 4.346269868319595
1301, 4.431547846243177
1302, 4.395785806501237
1303, 4.1888048502989506
1303.9999999999998, 4.172160027428063
1305, 4.415455906585507
1306, 4.027757523823283
1307, 4.0444830128096925
1308, 4.2507848397823125
1309, 4.266843957821848
1310, 4.204891447564975
1311, 4.079391152305462
1312, 4.08982882341472
1313, 4.093786440966966
1314, 4.067380477309513
1315, 4.041518279952456
1316, 4.026751782693751
1317, 4.0298344521206815
1318, 4.192540255244651
1319.0000000000002, 4.285982971178285
1320, 4.08393129820702
1321, 4.282395383227481
1322, 4.134454013045257
1323.0000000000002, 4.413774503379628
1324, 4.41670312059297
1325, 4.403974029187211
1326, 4.219329110962846
1327.0000000000002, 4.2135130162232315
1328, 4.414487718897334
1329, 4.15116017538449
1330, 4.106133135908792
1331.0000000000002, 4.447763876753569
1332, 4.18379498456909
1333, 4.198814935254163
1334, 4.195860711420153
1335.0000000000002, 4.073167236780151
1336, 4.097449571120293
1337, 4.093739854660626
1338, 4.0941394474169925
1339.0000000000002, 4.098413934010793
1340, 4.3754692782383415
1341, 4.495642055130702
1342, 4.090800839399975
1343.0000000000002, 4.2273415591572245
1344, 4.244161559614014
1345, 4.2425952897189205
1346, 4.151888840582515
1346.9999999999998, 4.480042605782259
1348, 4.257716878538659
1349, 4.197639481189412
1350, 4.246155727910519
1350.9999999999998, 4.421702917506124
1352, 4.366167558405948
1353, 4.397700960945599
1354, 4.303674720537558
1354.9999999999998, 4.18439542104025
1356, 4.411964784860928
1357, 4.245721917895779
1358, 4.280319281963003
1358.9999999999998, 4.312907420545315
1360, 4.1341506865883275
1361, 4.1462507948943
1362, 4.268546382235101
1362.9999999999998, 4.213927774849296
1364, 4.525291194148821
1365, 4.5068182103553625
1366, 4.291473457488564
1366.9999999999998, 4.410711834859214
1368, 4.346257891060233
1369, 4.392530386220869
1370, 4.39351287041012
1371, 4.393457099811016
1372, 4.393438283857023
1373, 4.393438924377065
1374, 4.393427193252023
1375, 4.393508684008879
1376, 4.394497256185915
1377, 4.392626293767805
1378, 4.281111087489606
1379, 4.474015777926553
1380, 4.336819845449227
1381, 4.372286545633614
1382.0000000000002, 4.364965344240417
1383, 4.3645478344617175
1384, 4.370014561961625
1385, 4.40538056204403
1386.0000000000002, 4.380765510202011
1387, 4.367443860114662
1388, 4.3081957244299645
1389, 4.272962220929415
1390.0000000000002, 4.376671538113385
1391, 4.366073549524145
1392, 4.369716262729668
1393, 4.351447522421296
1394.0000000000002, 4.323732682961094
1395, 4.43930385974555
1396, 4.422856981214608
1397, 4.365414429230455
1398.0000000000002, 4.375087473964427
1399, 4.401150822947642
1400, 4.300366582368966
