  124.500  .27396E+01
  125.200  .27181E+01
  125.900  .27334E+01
  126.600  .27220E+01
  127.300  .27430E+01
  128.000  .27426E+01
  128.600  .27708E+01
  129.300  .28019E+01
  130.000  .28581E+01
  130.700  .29522E+01
  131.400  .30070E+01
  132.100  .30505E+01
  132.800  .30205E+01
  133.500  .30277E+01
  134.200  .30284E+01
  134.900  .30224E+01
  135.600  .29854E+01
  136.300  .29931E+01
  136.900  .30157E+01
  137.600  .30365E+01
  138.300  .30803E+01
  139.000  .31113E+01
  139.700  .31419E+01
  140.400  .31374E+01
  141.100  .31528E+01
  141.800  .31616E+01
  142.500  .32015E+01
  143.200  .32180E+01
  143.900  .32432E+01
  144.500  .32657E+01
  145.200  .33005E+01
  145.900  .33322E+01
  146.600  .33773E+01
  147.300  .34282E+01
  148.000  .34603E+01
  148.700  .34127E+01
  149.400  .34186E+01
  150.100  .34404E+01
  150.800  .34155E+01
  151.500  .34620E+01
  152.100  .34526E+01
  152.800  .34494E+01
  153.500  .35103E+01
  154.200  .35403E+01
  154.900  .35720E+01
  155.600  .36093E+01
  156.300  .36360E+01
  157.000  .36187E+01
  157.700  .36229E+01
  158.400  .36383E+01
  159.000  .36915E+01
  159.700  .36630E+01
  160.400  .36653E+01
  161.100  .37763E+01
  161.800  .37683E+01
  162.500  .38219E+01
  163.200  .38313E+01
  163.900  .38396E+01
  164.600  .38418E+01
  165.200  .38808E+01
  165.900  .39499E+01
  166.600  .39451E+01
  167.300  .39170E+01
  168.000  .39375E+01
  168.700  .39763E+01
  169.400  .39941E+01
  170.100  .40515E+01
  170.800  .40528E+01
  171.400  .40732E+01
  172.100  .40681E+01
  172.800  .40689E+01
  173.500  .41318E+01
  174.200  .41701E+01
  174.900  .41654E+01
  175.600  .41972E+01
  176.300  .42353E+01
  177.000  .42226E+01
  177.600  .43021E+01
  178.300  .43007E+01
  179.000  .43894E+01
  179.700  .43671E+01
  180.400  .44559E+01
  181.100  .43776E+01
  181.800  .43565E+01
  182.500  .44431E+01
  183.100  .44862E+01
  183.800  .45048E+01
  184.500  .45536E+01
  185.200  .45433E+01
  185.900  .45700E+01
  186.600  .46374E+01
  187.300  .46720E+01
  188.000  .46250E+01
  188.600  .46605E+01
  189.300  .47241E+01
  190.000  .47273E+01
  190.700  .47765E+01
  191.400  .47727E+01
  192.100  .47842E+01
  192.800  .48542E+01
  193.500  .48280E+01
  194.100  .49260E+01
  194.800  .49126E+01
  195.500  .49787E+01
  196.200  .49883E+01
  196.900  .50148E+01
  197.600  .49768E+01
  198.300  .50835E+01
  199.000  .51356E+01
  199.600  .51708E+01
  200.300  .51523E+01
  201.000  .52277E+01
  201.700  .52951E+01
  202.400  .53041E+01
  203.100  .53923E+01
  203.800  .53588E+01
  204.400  .53719E+01
  205.100  .53802E+01
  205.800  .54679E+01
  206.500  .55140E+01
  207.200  .54863E+01
  207.900  .55397E+01
  208.600  .55841E+01
  209.200  .56329E+01
  209.900  .56435E+01
  210.600  .57067E+01
  211.300  .56681E+01
  212.000  .58153E+01
  212.700  .57520E+01
  213.400  .58056E+01
  214.000  .58369E+01
  214.700  .58911E+01
  215.400  .59958E+01
  216.100  .59662E+01
  216.800  .60863E+01
  217.500  .60721E+01
  218.200  .60275E+01
  218.800  .61767E+01
  219.500  .62644E+01
  220.200  .61350E+01
  220.900  .62808E+01
  221.600  .63189E+01
  222.300  .63496E+01
  222.900  .63801E+01
  223.600  .64078E+01
  224.300  .64791E+01
  225.000  .65586E+01
  225.700  .65348E+01
  226.400  .65626E+01
  227.100  .66776E+01
  227.700  .65913E+01
  228.400  .66745E+01
  229.100  .67871E+01
  229.800  .67415E+01
  230.500  .68689E+01
  231.200  .68412E+01
  231.800  .69429E+01
  232.500  .70142E+01
  233.200  .70570E+01
  233.900  .71881E+01
  234.600  .71481E+01
  235.300  .71206E+01
  235.900  .71908E+01
  236.600  .72791E+01
  237.300  .73527E+01
  238.000  .72384E+01
  238.700  .74356E+01
  239.400  .75112E+01
  240.000  .75471E+01
  240.700  .75926E+01
  241.400  .76913E+01
  242.100  .77339E+01
  242.800  .77165E+01
  243.500  .78696E+01
  244.100  .78569E+01
  244.800  .78607E+01
  245.500  .79666E+01
  246.200  .79869E+01
  246.900  .80432E+01
  247.600  .81126E+01
  248.200  .82127E+01
  248.900  .82840E+01
  249.600  .82236E+01
  250.300  .82010E+01
  251.000  .83258E+01
  251.700  .83720E+01
  252.300  .84331E+01
  253.000  .85184E+01
  253.700  .86022E+01
  254.400  .87582E+01
  255.100  .86799E+01
  255.700  .87593E+01
  256.400  .87920E+01
  257.100  .89067E+01
  257.800  .89790E+01
  258.500  .90132E+01
  259.200  .90302E+01
  259.800  .90811E+01
  260.500  .91903E+01
  261.200  .92775E+01
  261.900  .93248E+01
  262.600  .93764E+01
  263.200  .94129E+01
  263.900  .93751E+01
  264.600  .94510E+01
  265.300  .95719E+01
  266.000  .96060E+01
  266.700  .97131E+01
  267.300  .97384E+01
  268.000  .98640E+01
  268.700  .99871E+01
  269.400  .99784E+01
  270.100  .99339E+01
  270.700  .99603E+01
  271.400  .10103E+02
  272.100  .10295E+02
  272.800  .10297E+02
  273.500  .10332E+02
  274.100  .10470E+02
  274.800  .10488E+02
  275.500  .10558E+02
  276.200  .10658E+02
  276.900  .10642E+02
  277.500  .10634E+02
  278.200  .10770E+02
  278.900  .10974E+02
  279.600  .10938E+02
  280.300  .11040E+02
  280.900  .11138E+02
  281.600  .11171E+02
  282.300  .11158E+02
  283.000  .11161E+02
  283.700  .11263E+02
  284.300  .11445E+02
  285.000  .11533E+02
  285.700  .11447E+02
  286.400  .11517E+02
  287.100  .11573E+02
  287.700  .11708E+02
  288.400  .11706E+02
  289.100  .12015E+02
  289.800  .11869E+02
  290.500  .11866E+02
  291.100  .12135E+02
  291.800  .11935E+02
  292.500  .12078E+02
  293.200  .12186E+02
  293.900  .12225E+02
  294.500  .12275E+02
  295.200  .12291E+02
  295.900  .12343E+02
  296.600  .12418E+02
  297.300  .12607E+02
  297.900  .12674E+02
  298.600  .12731E+02
  299.300  .12670E+02
  300.000  .12846E+02
  300.600  .12890E+02
  301.300  .12885E+02
  302.000  .13049E+02
  302.700  .13105E+02
  303.400  .13141E+02
  304.000  .13369E+02
  304.700  .13266E+02
  305.400  .13427E+02
  306.100  .13486E+02
  306.800  .13603E+02
  307.400  .13632E+02
  308.100  .13751E+02
  308.800  .13752E+02
  309.500  .13808E+02
  310.100  .13917E+02
  310.800  .14064E+02
  311.500  .14145E+02
  312.200  .14334E+02
  312.900  .14459E+02
  313.500  .14510E+02
  314.200  .14570E+02
  314.900  .14744E+02
  315.600  .14736E+02
  316.200  .14856E+02
  316.900  .14941E+02
  317.600  .14958E+02
  318.300  .14933E+02
  318.900  .14986E+02
  319.600  .14846E+02
  320.300  .15041E+02
  321.000  .14969E+02
  321.700  .15094E+02
  322.300  .15086E+02
  323.000  .15165E+02
  323.700  .15160E+02
  324.400  .15338E+02
  325.000  .15458E+02
  325.700  .15336E+02
  326.400  .15582E+02
  327.100  .15507E+02
  327.700  .15556E+02
  328.400  .15812E+02
  329.100  .15660E+02
  329.800  .15988E+02
  330.500  .15980E+02
  331.100  .16010E+02
  331.800  .16073E+02
  332.500  .16307E+02
  333.200  .16395E+02
  333.800  .16451E+02
  334.500  .16544E+02
  335.200  .16530E+02
  335.900  .16573E+02
  336.500  .16702E+02
  337.200  .16572E+02
  337.900  .16858E+02
  338.600  .16924E+02
  339.200  .16954E+02
  339.900  .17249E+02
  340.600  .17235E+02
  341.300  .17206E+02
  341.900  .17309E+02
  342.600  .17351E+02
  343.300  .17411E+02
  344.000  .17481E+02
  344.600  .17696E+02
  345.300  .17582E+02
  346.000  .17833E+02
  346.700  .17928E+02
  347.300  .17984E+02
  348.000  .18160E+02
  348.700  .18176E+02
  349.400  .18298E+02
  350.000  .18329E+02
  350.700  .18482E+02
  351.400  .18607E+02
  352.100  .18649E+02
  352.700  .18679E+02
  353.400  .18830E+02
  354.100  .19120E+02
  354.800  .19135E+02
  355.400  .19169E+02
  356.100  .19353E+02
  356.800  .19539E+02
  357.500  .19296E+02
  358.100  .19472E+02
  358.800  .19520E+02
  359.500  .19849E+02
  360.200  .19858E+02
  360.800  .19949E+02
  361.500  .20076E+02
  362.200  .20184E+02
  362.800  .20296E+02
  363.500  .20381E+02
  364.200  .20364E+02
  364.900  .20637E+02
  365.500  .20917E+02
  366.200  .20838E+02
  366.900  .21307E+02
  367.600  .20992E+02
  368.200  .21268E+02
  368.900  .21252E+02
  369.600  .21608E+02
  370.300  .21493E+02
  370.900  .21750E+02
  371.600  .21665E+02
  372.300  .21962E+02
  372.900  .22377E+02
  373.600  .22330E+02
  374.300  .22181E+02
  375.000  .22198E+02
  375.600  .22648E+02
  376.300  .22849E+02
  377.000  .22614E+02
  377.700  .22852E+02
  378.300  .23181E+02
  379.000  .23159E+02
  379.700  .23275E+02
  380.300  .23408E+02
  381.000  .23394E+02
  381.700  .23606E+02
  382.400  .23648E+02
  383.000  .23985E+02
  383.700  .23967E+02
  384.400  .24217E+02
  385.000  .24224E+02
  385.700  .24474E+02
  386.400  .24555E+02
  387.100  .24641E+02
  387.700  .24917E+02
  388.400  .24999E+02
  389.100  .25193E+02
  389.800  .25206E+02
  390.400  .25595E+02
  391.100  .25467E+02
  391.800  .25591E+02
  392.400  .25840E+02
  393.100  .25961E+02
  393.800  .26194E+02
  394.500  .26173E+02
  395.100  .26280E+02
  395.800  .26260E+02
  396.500  .26640E+02
  397.100  .27005E+02
  397.800  .27094E+02
  398.500  .27185E+02
  399.100  .27071E+02
  399.800  .27533E+02
  400.500  .27626E+02
  401.200  .28013E+02
  401.800  .27901E+02
  402.500  .28035E+02
  403.200  .28049E+02
  403.800  .28467E+02
  404.500  .28320E+02
  405.200  .28498E+02
  405.900  .29050E+02
  406.500  .29053E+02
  407.200  .29107E+02
  407.900  .29321E+02
  408.500  .29756E+02
  409.200  .29810E+02
  409.900  .29595E+02
  410.500  .30064E+02
  411.200  .29883E+02
  411.900  .30416E+02
  412.600  .30397E+02
  413.200  .30356E+02
  413.900  .31094E+02
  414.600  .30619E+02
  415.200  .31078E+02
  415.900  .31378E+02
  416.600  .31141E+02
  417.200  .31440E+02
  417.900  .31665E+02
  418.600  .31886E+02
  419.200  .32264E+02
  419.900  .32286E+02
  420.600  .32251E+02
  421.300  .32822E+02
  421.900  .32697E+02
  422.600  .33048E+02
  423.300  .32892E+02
  423.900  .33207E+02
  424.600  .33548E+02
  425.300  .33406E+02
  425.900  .34055E+02
  426.600  .33940E+02
  427.300  .34133E+02
  427.900  .34484E+02
  428.600  .34462E+02
  429.300  .34697E+02
  430.000  .34980E+02
  430.600  .35248E+02
  431.300  .35081E+02
  432.000  .35465E+02
  432.600  .35238E+02
  433.300  .35488E+02
  434.000  .35675E+02
  434.600  .35995E+02
  435.300  .36329E+02
  436.000  .36072E+02
  436.600  .36531E+02
  437.300  .36691E+02
  438.000  .37215E+02
  438.600  .36985E+02
  439.300  .37382E+02
  440.000  .37624E+02
  440.600  .37397E+02
  441.300  .37783E+02
  442.000  .37763E+02
  442.600  .38100E+02
  443.300  .38359E+02
  444.000  .37937E+02
  444.600  .38749E+02
  445.300  .38569E+02
  446.000  .39021E+02
  446.600  .38887E+02
  447.300  .39239E+02
  448.000  .39159E+02
  448.600  .39360E+02
  449.300  .39564E+02
  450.000  .39577E+02
  450.600  .40075E+02
  451.300  .40098E+02
  452.000  .39909E+02
  452.600  .40410E+02
  453.300  .40219E+02
  454.000  .40885E+02
  454.600  .40988E+02
  455.300  .41167E+02
  456.000  .40916E+02
  456.600  .41471E+02
  457.300  .41550E+02
  458.000  .41718E+02
  458.600  .41924E+02
  459.300  .41938E+02
  460.000  .42215E+02
  460.600  .42156E+02
  461.300  .42812E+02
  462.000  .42814E+02
  462.600  .43447E+02
  463.300  .43302E+02
  464.000  .43267E+02
  464.600  .43105E+02
  465.300  .44069E+02
  466.000  .43598E+02
  466.600  .43875E+02
  467.300  .44425E+02
  468.000  .44604E+02
  468.600  .44546E+02
  469.300  .44445E+02
  470.000  .45392E+02
  470.600  .45069E+02
  471.300  .45242E+02
  472.000  .45761E+02
  472.600  .45906E+02
  473.300  .45937E+02
  474.000  .46497E+02
  474.600  .46781E+02
  475.300  .46962E+02
  475.900  .46629E+02
  476.600  .46976E+02
  477.300  .47550E+02
  477.900  .47494E+02
  478.600  .47517E+02
  479.300  .48099E+02
  479.900  .48144E+02
  480.600  .48460E+02
  481.300  .49220E+02
  481.900  .48466E+02
  482.600  .48601E+02
  483.300  .48681E+02
  483.900  .49015E+02
  484.600  .49096E+02
  485.200  .48742E+02
  485.900  .49341E+02
  486.600  .49587E+02
  487.200  .49465E+02
  487.900  .49365E+02
  488.600  .49729E+02
  489.200  .49494E+02
  489.900  .50031E+02
  490.600  .49869E+02
  491.200  .49691E+02
  491.900  .49935E+02
  492.500  .49751E+02
  493.200  .49589E+02
  493.900  .49954E+02
  494.500  .49828E+02
  495.200  .49955E+02
  495.900  .49789E+02
  496.500  .49915E+02
  497.200  .49732E+02
  497.900  .49977E+02
  498.500  .49301E+02
  499.200  .49429E+02
  499.800  .48943E+02
  500.500  .49004E+02
  501.200  .48835E+02
  501.800  .48925E+02
  502.500  .48225E+02
  503.200  .48275E+02
  503.800  .48075E+02
  504.500  .48084E+02
  505.100  .47878E+02
  505.800  .47699E+02
  506.500  .47157E+02
  507.100  .46827E+02
  507.800  .46579E+02
  508.500  .46265E+02
  509.100  .46685E+02
  509.800  .46245E+02
  510.400  .46046E+02
  511.100  .45620E+02
  511.800  .45423E+02
  512.400  .44846E+02
  513.100  .44717E+02
  513.800  .44956E+02
  514.400  .43908E+02
  515.100  .43709E+02
  515.700  .43629E+02
  516.400  .43602E+02
  517.100  .43594E+02
  517.700  .42901E+02
  518.400  .43007E+02
  519.000  .42559E+02
  519.700  .42170E+02
  520.400  .41853E+02
  521.000  .41520E+02
  521.700  .41804E+02
  522.400  .41554E+02
  523.000  .41391E+02
  523.700  .41317E+02
  524.300  .41391E+02
  525.000  .40893E+02
  525.700  .41481E+02
  526.300  .40901E+02
  527.000  .40509E+02
  527.600  .40774E+02
  528.300  .40872E+02
  529.000  .40728E+02
  529.600  .40507E+02
  530.300  .40722E+02
  530.900  .40267E+02
  531.600  .40294E+02
  532.300  .40944E+02
  532.900  .40604E+02
  533.600  .40886E+02
  534.200  .40478E+02
  534.900  .40757E+02
  535.600  .41036E+02
  536.200  .40624E+02
  536.900  .40600E+02
  537.500  .40627E+02
  538.200  .40916E+02
  538.900  .41302E+02
  539.500  .41015E+02
  540.200  .41495E+02
  540.800  .41448E+02
  541.500  .41223E+02
  542.200  .41268E+02
  542.800  .41551E+02
  543.500  .41498E+02
  544.100  .41590E+02
  544.800  .42128E+02
  545.500  .42213E+02
  546.100  .42500E+02
  546.800  .42538E+02
  547.400  .42181E+02
  548.100  .43046E+02
  548.800  .43015E+02
  549.400  .43288E+02
  550.100  .43204E+02
  550.700  .43806E+02
  551.400  .43257E+02
  552.100  .44214E+02
  552.700  .44279E+02
  553.400  .44063E+02
  554.000  .44083E+02
  554.700  .44720E+02
  555.300  .44341E+02
  556.000  .44250E+02
  556.700  .44878E+02
  557.300  .44630E+02
  558.000  .45063E+02
  558.600  .44886E+02
  559.300  .44780E+02
  560.000  .45026E+02
  560.600  .44773E+02
  561.300  .45010E+02
  561.900  .44765E+02
  562.600  .44647E+02
  563.200  .44801E+02
  563.900  .44430E+02
  564.600  .44446E+02
  565.200  .44269E+02
  565.900  .44225E+02
  566.500  .44522E+02
  567.200  .43889E+02
  567.800  .44307E+02
  568.500  .43381E+02
  569.200  .43267E+02
  569.800  .43013E+02
  570.500  .42906E+02
  571.100  .43053E+02
  571.800  .42127E+02
  572.400  .41725E+02
  573.100  .41760E+02
  573.800  .41372E+02
  574.400  .40852E+02
  575.100  .40936E+02
  575.700  .40998E+02
  576.400  .40298E+02
  577.000  .39239E+02
  577.700  .39328E+02
  578.400  .39201E+02
  579.000  .39278E+02
  579.700  .39164E+02
  580.300  .38375E+02
  581.000  .38127E+02
  581.600  .37667E+02
  582.300  .37562E+02
  583.000  .36983E+02
  583.600  .36668E+02
  584.300  .36084E+02
  584.900  .36277E+02
  585.600  .35142E+02
  586.200  .34894E+02
  586.900  .35071E+02
  587.600  .34332E+02
  588.200  .34383E+02
  588.900  .34210E+02
  589.500  .34072E+02
  590.200  .33313E+02
  590.800  .32871E+02
  591.500  .32763E+02
  592.100  .32443E+02
  592.800  .32208E+02
  593.500  .31268E+02
  594.100  .31333E+02
  594.800  .31412E+02
  595.400  .31156E+02
  596.100  .30837E+02
  596.700  .30110E+02
  597.400  .30048E+02
  598.000  .30171E+02
  598.700  .29261E+02
  599.400  .29510E+02
  600.000  .29488E+02
  600.700  .28844E+02
  601.300  .28882E+02
  602.000  .28639E+02
  602.600  .28047E+02
  603.300  .28108E+02
  603.900  .28040E+02
  604.600  .27499E+02
  605.200  .27314E+02
  605.900  .27430E+02
  606.600  .27015E+02
  607.200  .26896E+02
  607.900  .26541E+02
  608.500  .26749E+02
  609.200  .26551E+02
  609.800  .26281E+02
  610.500  .26156E+02
  611.100  .26140E+02
  611.800  .25735E+02
  612.400  .25433E+02
  613.100  .25154E+02
  613.800  .25261E+02
  614.400  .25674E+02
  615.100  .24911E+02
  615.700  .25157E+02
  616.400  .25090E+02
  617.000  .24505E+02
  617.700  .24567E+02
  618.300  .24279E+02
  619.000  .24324E+02
  619.600  .24461E+02
  620.300  .24341E+02
  620.900  .23945E+02
  621.600  .23923E+02
  622.200  .23701E+02
  622.900  .23594E+02
  623.600  .23621E+02
  624.200  .23263E+02
  624.900  .23104E+02
  625.500  .22856E+02
  626.200  .22740E+02
  626.800  .22775E+02
  627.500  .22973E+02
  628.100  .22806E+02
  628.800  .22345E+02
  629.400  .22470E+02
  630.100  .21898E+02
  630.700  .22147E+02
  631.400  .22129E+02
  632.000  .21946E+02
  632.700  .22213E+02
  633.300  .22092E+02
  634.000  .21633E+02
  634.700  .21452E+02
  635.300  .21818E+02
  636.000  .21550E+02
  636.600  .21363E+02
  637.300  .21811E+02
  637.900  .21008E+02
  638.600  .20789E+02
  639.200  .21070E+02
  639.900  .20756E+02
  640.500  .21195E+02
  641.200  .20459E+02
  641.800  .20963E+02
  642.500  .20564E+02
  643.100  .20300E+02
  643.800  .20570E+02
  644.400  .20623E+02
  645.100  .20557E+02
  645.700  .20011E+02
  646.400  .20312E+02
  647.000  .20127E+02
  647.700  .20363E+02
  648.300  .20296E+02
  649.000  .20216E+02
  649.600  .20455E+02
  650.300  .20104E+02
  650.900  .20277E+02
  651.600  .20521E+02
  652.200  .19909E+02
  652.900  .20093E+02
  653.500  .20115E+02
  654.200  .19996E+02
  654.800  .20390E+02
  655.500  .20343E+02
  656.200  .20052E+02
  656.800  .20117E+02
  657.500  .20131E+02
  658.100  .20245E+02
  658.800  .20216E+02
  659.400  .20293E+02
  660.100  .19757E+02
  660.700  .20255E+02
  661.400  .20238E+02
  662.000  .19998E+02
  662.700  .20472E+02
  663.300  .20363E+02
  664.000  .20289E+02
  664.600  .20279E+02
  665.300  .20091E+02
  665.900  .20018E+02
  666.600  .20308E+02
  667.200  .20392E+02
  667.900  .20171E+02
  668.500  .20724E+02
  669.200  .20694E+02
  669.800  .20880E+02
  670.500  .20493E+02
  671.100  .20578E+02
  671.800  .20328E+02
  672.400  .20740E+02
  673.000  .20659E+02
  673.700  .21083E+02
  674.300  .21208E+02
  675.000  .20531E+02
  675.600  .20888E+02
  676.300  .20337E+02
  676.900  .21227E+02
  677.600  .20922E+02
  678.200  .21054E+02
  678.900  .21478E+02
  679.500  .21069E+02
  680.200  .21049E+02
  680.800  .21634E+02
  681.500  .21174E+02
  682.100  .21466E+02
  682.800  .21664E+02
  683.400  .21348E+02
  684.100  .21388E+02
  684.700  .21416E+02
  685.400  .21907E+02
  686.000  .21822E+02
  686.700  .21509E+02
  687.300  .21490E+02
  688.000  .22145E+02
  688.600  .21953E+02
  689.300  .21785E+02
  689.900  .22257E+02
  690.600  .22062E+02
  691.200  .21786E+02
  691.900  .22279E+02
  692.500  .22416E+02
  693.200  .22111E+02
  693.800  .22330E+02
  694.400  .22236E+02
  695.100  .22440E+02
  695.700  .22407E+02
  696.400  .22146E+02
  697.000  .22188E+02
  697.700  .21775E+02
  698.300  .22229E+02
  699.000  .22145E+02
  699.600  .22242E+02
  700.300  .22510E+02
  700.900  .22698E+02
  701.600  .22996E+02
  702.200  .22434E+02
  702.900  .22502E+02
  703.500  .22712E+02
  704.200  .22626E+02
  704.800  .22921E+02
  705.500  .22625E+02
  706.100  .22723E+02
  706.700  .22759E+02
  707.400  .22644E+02
  708.000  .23040E+02
  708.700  .22472E+02
  709.300  .22812E+02
  710.000  .23328E+02
  710.600  .22994E+02
  711.300  .22093E+02
  711.900  .22928E+02
  712.600  .22603E+02
  713.200  .22688E+02
  713.900  .22979E+02
  714.500  .22741E+02
  715.100  .22661E+02
  715.800  .23487E+02
  716.400  .22794E+02
  717.100  .22746E+02
  717.700  .22716E+02
  718.400  .22661E+02
  719.000  .21277E+02
  719.700  .18864E+02
  720.300  .18674E+02
  721.000  .22736E+02
  721.600  .22808E+02
  722.200  .22872E+02
  722.900  .22978E+02
  723.500  .22917E+02
  724.200  .22764E+02
  724.800  .22511E+02
  725.500  .23082E+02
  726.100  .23043E+02
  726.800  .22570E+02
  727.400  .22724E+02
  728.100  .22837E+02
  728.700  .22655E+02
  729.300  .22719E+02
  730.000  .22930E+02
  730.600  .22815E+02
  731.300  .22620E+02
  731.900  .22188E+02
  732.600  .22338E+02
  733.200  .22425E+02
  733.900  .22523E+02
  734.500  .22057E+02
  735.100  .22651E+02
  735.800  .22560E+02
  736.400  .22396E+02
  737.100  .21923E+02
  737.700  .22437E+02
  738.400  .22214E+02
  739.000  .22201E+02
  739.700  .22207E+02
  740.300  .22671E+02
  740.900  .22196E+02
  741.600  .22233E+02
  742.200  .22011E+02
  742.900  .22094E+02
  743.500  .21530E+02
  744.200  .21907E+02
  744.800  .21683E+02
  745.500  .22132E+02
  746.100  .21423E+02
  746.700  .21970E+02
  747.400  .21654E+02
  748.000  .21560E+02
  748.700  .21218E+02
  749.300  .21367E+02
  750.000  .21095E+02
  750.600  .21165E+02
  751.200  .21172E+02
  751.900  .21286E+02
  752.500  .21761E+02
  753.200  .21097E+02
  753.800  .20993E+02
  754.500  .20524E+02
  755.100  .21209E+02
  755.700  .20880E+02
  756.400  .20569E+02
  757.000  .20599E+02
  757.700  .20552E+02
  758.300  .20444E+02
  759.000  .20477E+02
  759.600  .19747E+02
  760.200  .20253E+02
  760.900  .20042E+02
  761.500  .19373E+02
  762.200  .19819E+02
  762.800  .19855E+02
  763.500  .19373E+02
  764.100  .19262E+02
  764.700  .19052E+02
  765.400  .18885E+02
  766.000  .19265E+02
  766.700  .18950E+02
  767.300  .19010E+02
  767.900  .18517E+02
  768.600  .18431E+02
  769.200  .18101E+02
  769.900  .17831E+02
  770.500  .17466E+02
  771.200  .17194E+02
  771.800  .17950E+02
  772.400  .17684E+02
  773.100  .16985E+02
  773.700  .16942E+02
  774.400  .16842E+02
  775.000  .16748E+02
  775.600  .16822E+02
  776.300  .16721E+02
  776.900  .16643E+02
  777.600  .16280E+02
  778.200  .15440E+02
  778.900  .15845E+02
  779.500  .15621E+02
  780.100  .15667E+02
  780.800  .15062E+02
  781.400  .15321E+02
  782.100  .15267E+02
  782.700  .14877E+02
  783.300  .14684E+02
  784.000  .14140E+02
  784.600  .14502E+02
  785.300  .14231E+02
  785.900  .13785E+02
  786.500  .13769E+02
  787.200  .13807E+02
  787.800  .13099E+02
  788.500  .13005E+02
  789.100  .13083E+02
  789.700  .12727E+02
  790.400  .12519E+02
  791.000  .13041E+02
  791.700  .12719E+02
  792.300  .12334E+02
  792.900  .12289E+02
  793.600  .12104E+02
  794.200  .12191E+02
  794.900  .12129E+02
  795.500  .11810E+02
  796.100  .11499E+02
  796.800  .11453E+02
  797.400  .11999E+02
  798.100  .11359E+02
  798.700  .11223E+02
  799.300  .10980E+02
  800.000  .10977E+02
  800.600  .11134E+02
  801.300  .10720E+02
  801.900  .10842E+02
  801.100  .12062E+02
  801.700  .11890E+02
  802.400  .11682E+02
  803.000  .11509E+02
  803.600  .11362E+02
  804.300  .11585E+02
  804.900  .11068E+02
  805.600  .11796E+02
  806.200  .11260E+02
  806.900  .11166E+02
  807.500  .10746E+02
  808.100  .10877E+02
  808.800  .10646E+02
  809.400  .10551E+02
  810.100  .10829E+02
  810.700  .10779E+02
  811.400  .10674E+02
  812.000  .10651E+02
  812.600  .10729E+02
  813.300  .10201E+02
  813.900  .10876E+02
  814.600  .10596E+02
  815.200  .10129E+02
  815.900  .10789E+02
  816.500  .10525E+02
  817.100  .10056E+02
  817.800  .10756E+02
  818.400  .10575E+02
  819.100  .10011E+02
  819.700  .10238E+02
  820.300  .10222E+02
  821.000  .10432E+02
  821.600  .10876E+02
  822.300  .10262E+02
  822.900  .10904E+02
  823.600  .10532E+02
  824.200  .10526E+02
  824.800  .10709E+02
  825.500  .10326E+02
  826.100  .10906E+02
  826.800  .10371E+02
  827.400  .10744E+02
  828.000  .10909E+02
  828.700  .11028E+02
  829.300  .10603E+02
  830.000  .10789E+02
  830.600  .10697E+02
  831.200  .10576E+02
  831.900  .11289E+02
  832.500  .11303E+02
  833.200  .11414E+02
  833.800  .10927E+02
  834.400  .11027E+02
  835.100  .11350E+02
  835.700  .10948E+02
  836.400  .11417E+02
  837.000  .11033E+02
  837.600  .11008E+02
  838.300  .11109E+02
  838.900  .11045E+02
  839.600  .11752E+02
  840.200  .11600E+02
  840.900  .11487E+02
  841.500  .11619E+02
  842.100  .11054E+02
  842.800  .11422E+02
  843.400  .11780E+02
  844.100  .11854E+02
  844.700  .11641E+02
  845.300  .11952E+02
  846.000  .11829E+02
  846.600  .11793E+02
  847.200  .12452E+02
  847.900  .11852E+02
  848.500  .12255E+02
  849.200  .12260E+02
  849.800  .12215E+02
  850.400  .12230E+02
  851.100  .12635E+02
  851.700  .12230E+02
  852.400  .12807E+02
  853.000  .12501E+02
  853.600  .12868E+02
  854.300  .12784E+02
  854.900  .12809E+02
  855.600  .12745E+02
  856.200  .12871E+02
  856.800  .13110E+02
  857.500  .12913E+02
  858.100  .13183E+02
  858.800  .13199E+02
  859.400  .13704E+02
  860.000  .13027E+02
  860.700  .13687E+02
  861.300  .13796E+02
  861.900  .14017E+02
  862.600  .14025E+02
  863.200  .14072E+02
  863.900  .14275E+02
  864.500  .14334E+02
  865.100  .14237E+02
  865.800  .14679E+02
  866.400  .14780E+02
  867.000  .14082E+02
  867.700  .15304E+02
  868.300  .15655E+02
  869.000  .15508E+02
  869.600  .15037E+02
  870.200  .15817E+02
  870.900  .15586E+02
  871.500  .15783E+02
  872.200  .16065E+02
  872.800  .15549E+02
  873.400  .16555E+02
  874.100  .15871E+02
  874.700  .17313E+02
  875.300  .17333E+02
  876.000  .17440E+02
  876.600  .17154E+02
  877.300  .17621E+02
  877.900  .17844E+02
  878.500  .17451E+02
  879.200  .18814E+02
  879.800  .18869E+02
  880.400  .18923E+02
  881.100  .19332E+02
  881.700  .19687E+02
  882.300  .19582E+02
  883.000  .19565E+02
  883.600  .19717E+02
  884.300  .20130E+02
  884.900  .20768E+02
  885.500  .20544E+02
  886.200  .21230E+02
  886.800  .21093E+02
  887.400  .21768E+02
  888.100  .21590E+02
  888.700  .22647E+02
  889.300  .23044E+02
  890.000  .22824E+02
  890.600  .23484E+02
  891.300  .23154E+02
  891.900  .23499E+02
  892.500  .24665E+02
  893.200  .24687E+02
  893.800  .25320E+02
  894.400  .25053E+02
  895.100  .25780E+02
  895.700  .25943E+02
  896.300  .27187E+02
  897.000  .26649E+02
  897.600  .26470E+02
  898.300  .28411E+02
  898.900  .27990E+02
  899.500  .28456E+02
  900.200  .28850E+02
  900.800  .30232E+02
  901.400  .30001E+02
  902.100  .30275E+02
  902.700  .31083E+02
  903.300  .30963E+02
  904.000  .31666E+02
  904.600  .31400E+02
  905.200  .32112E+02
  905.900  .32819E+02
  906.500  .33342E+02
  907.100  .33258E+02
  907.800  .35178E+02
  908.400  .34541E+02
  909.100  .34972E+02
  909.700  .36092E+02
  910.300  .36964E+02
  911.000  .37252E+02
  911.600  .37410E+02
  912.200  .38550E+02
  912.900  .38053E+02
  913.500  .38933E+02
  914.100  .39849E+02
  914.800  .40097E+02
  915.400  .40788E+02
  916.000  .40503E+02
  916.700  .40879E+02
  917.300  .41700E+02
  917.900  .42718E+02
  918.600  .43839E+02
  919.200  .43752E+02
  919.800  .44568E+02
  920.500  .44674E+02
  921.100  .45052E+02
  921.700  .45664E+02
  922.400  .45969E+02
  923.000  .46362E+02
  923.600  .47619E+02
  924.300  .47928E+02
  924.900  .49190E+02
  925.500  .48170E+02
  926.200  .49032E+02
  926.800  .49713E+02
  927.400  .50371E+02
  928.100  .51074E+02
  928.700  .51123E+02
  929.300  .53344E+02
  930.000  .52635E+02
  930.600  .52768E+02
  931.200  .54157E+02
  931.900  .54063E+02
  932.500  .55577E+02
  933.100  .55678E+02
  933.800  .55954E+02
  934.400  .56151E+02
  935.000  .56456E+02
  935.700  .57057E+02
  936.300  .57412E+02
  936.900  .58234E+02
  937.600  .58191E+02
  938.200  .59053E+02
  938.800  .60518E+02
  939.500  .61298E+02
  940.100  .61188E+02
  940.700  .60800E+02
  941.400  .62345E+02
  942.000  .62236E+02
  942.600  .64285E+02
  943.300  .64370E+02
  943.900  .64275E+02
  944.500  .64946E+02
  945.200  .65447E+02
  945.800  .65791E+02
  946.400  .65990E+02
  947.100  .68280E+02
  947.700  .68335E+02
  948.300  .67702E+02
  948.900  .67732E+02
  949.600  .69764E+02
  950.200  .68946E+02
  950.800  .69926E+02
  951.500  .70141E+02
  952.100  .71297E+02
  952.700  .70588E+02
  953.400  .70817E+02
  954.000  .71494E+02
  954.600  .72793E+02
  955.300  .72877E+02
  955.900  .72948E+02
  956.500  .73331E+02
  957.200  .73091E+02
  957.800  .74887E+02
  958.400  .75285E+02
  959.000  .75810E+02
  959.700  .75910E+02
  960.300  .77441E+02
  960.900  .77353E+02
  961.600  .76913E+02
  962.200  .77632E+02
  962.800  .78717E+02
  963.500  .79098E+02
  964.100  .79189E+02
  964.700  .78646E+02
  965.400  .80498E+02
  966.000  .80920E+02
  966.600  .80822E+02
  967.200  .82059E+02
  967.900  .82702E+02
  968.500  .83587E+02
  969.100  .84154E+02
  969.800  .88165E+02
  970.400  .84641E+02
  971.000  .84417E+02
  971.700  .84873E+02
  972.300  .85252E+02
  972.900  .85722E+02
  973.500  .86966E+02
  974.200  .87607E+02
  974.800  .86479E+02
  975.400  .87586E+02
  976.100  .87388E+02
  976.700  .88290E+02
  977.300  .88922E+02
  978.000  .88686E+02
  978.600  .89098E+02
  979.200  .89863E+02
  979.800  .89429E+02
  980.500  .90772E+02
  981.100  .90521E+02
  981.700  .91002E+02
  982.400  .91093E+02
  983.000  .91510E+02
  983.600  .91941E+02
  984.200  .92557E+02
  984.900  .92135E+02
  985.500  .92964E+02
  986.100  .92540E+02
  986.800  .93676E+02
  987.400  .93754E+02
  988.000  .93117E+02
  988.700  .93952E+02
  989.300  .94946E+02
  989.900  .95012E+02
  990.500  .93694E+02
  991.200  .95252E+02
  991.800  .95332E+02
  992.400  .94876E+02
  993.100  .94636E+02
  993.700  .96562E+02
  994.300  .95932E+02
  994.900  .95823E+02
  995.600  .98323E+02
  996.200  .97006E+02
  996.800  .97221E+02
  997.400  .98798E+02
  998.100  .10000E+03
  998.700  .96384E+02
  999.300  .96490E+02
 1000.000  .96585E+02
 1000.600  .96718E+02
 1001.200  .97368E+02
 1001.800  .97434E+02
 1002.500  .97012E+02
 1003.100  .97473E+02
 1003.700  .98098E+02
 1004.400  .96159E+02
 1005.000  .96470E+02
 1005.600  .98245E+02
 1006.200  .98147E+02
 1006.900  .98023E+02
 1007.500  .96825E+02
 1008.100  .98059E+02
 1008.700  .98125E+02
 1009.400  .97131E+02
 1010.000  .97623E+02
 1010.600  .98254E+02
 1011.300  .97450E+02
 1011.900  .98429E+02
 1012.500  .97204E+02
 1013.100  .97713E+02
 1013.800  .97626E+02
 1014.400  .97732E+02
 1015.000  .98938E+02
 1015.600  .97372E+02
 1016.300  .98205E+02
 1016.900  .97514E+02
 1017.500  .97955E+02
 1018.100  .98285E+02
 1018.800  .97607E+02
 1019.400  .96603E+02
 1020.000  .98184E+02
 1020.700  .96799E+02
 1021.300  .97241E+02
 1021.900  .97515E+02
 1022.500  .97055E+02
 1023.200  .97203E+02
 1023.800  .97279E+02
 1024.400  .96433E+02
 1025.000  .97445E+02
 1025.700  .94652E+02
 1026.300  .95536E+02
 1026.900  .96250E+02
 1027.500  .94201E+02
 1028.200  .95629E+02
 1028.800  .95502E+02
 1029.400  .95404E+02
 1030.000  .94546E+02
 1030.700  .94676E+02
 1031.300  .95322E+02
 1031.900  .94447E+02
 1032.500  .94748E+02
 1033.200  .93668E+02
 1033.800  .93018E+02
 1034.400  .93275E+02
 1035.000  .93533E+02
 1035.700  .92851E+02
 1036.300  .93340E+02
 1036.900  .93062E+02
 1037.500  .91665E+02
 1038.200  .93244E+02
 1038.800  .92440E+02
 1039.400  .92523E+02
 1040.000  .91965E+02
 1040.700  .90937E+02
 1041.300  .91018E+02
 1041.900  .91465E+02
 1042.500  .91385E+02
 1043.200  .89369E+02
 1043.800  .89477E+02
 1044.400  .89174E+02
 1045.000  .89621E+02
 1045.700  .88211E+02
 1046.300  .89261E+02
 1046.900  .87657E+02
 1047.500  .88576E+02
 1048.200  .87794E+02
 1048.800  .87678E+02
 1049.400  .85872E+02
 1050.000  .86689E+02
 1050.700  .85320E+02
 1051.300  .84383E+02
 1051.900  .84872E+02
 1052.500  .86064E+02
 1053.200  .84822E+02
 1053.800  .84760E+02
 1054.400  .83352E+02
 1055.000  .81747E+02
 1055.600  .80572E+02
 1056.300  .81927E+02
 1056.900  .82132E+02
 1057.500  .81841E+02
 1058.100  .79862E+02
 1058.800  .79609E+02
 1059.400  .79525E+02
 1060.000  .78821E+02
 1060.600  .78706E+02
 1061.300  .78237E+02
 1061.900  .75953E+02
 1062.500  .77320E+02
 1063.100  .76154E+02
 1063.800  .76546E+02
 1064.400  .76061E+02
 1065.000  .73990E+02
 1065.600  .75271E+02
 1066.200  .75180E+02
 1066.900  .75786E+02
 1067.500  .73200E+02
 1068.100  .72692E+02
 1068.700  .72766E+02
 1069.400  .71744E+02
 1070.000  .72340E+02
 1070.600  .69766E+02
 1071.200  .70237E+02
 1071.800  .71280E+02
 1072.500  .69956E+02
 1073.100  .69841E+02
 1073.700  .69710E+02
 1074.300  .68185E+02
 1075.000  .67735E+02
 1075.600  .66608E+02
 1076.200  .66147E+02
 1076.800  .65700E+02
 1077.400  .65688E+02
 1078.100  .65824E+02
 1078.700  .65141E+02
 1079.300  .64894E+02
 1079.900  .65412E+02
 1080.600  .62448E+02
 1081.200  .63325E+02
 1081.800  .64032E+02
 1082.400  .62918E+02
 1083.000  .61628E+02
 1083.700  .61760E+02
 1084.300  .61758E+02
 1084.900  .62024E+02
 1085.500  .59843E+02
 1086.100  .60962E+02
 1086.800  .59827E+02
 1087.400  .60013E+02
 1088.000  .58724E+02
 1088.600  .59401E+02
 1089.300  .59324E+02
 1089.900  .57855E+02
 1090.500  .57450E+02
 1091.100  .56805E+02
 1091.700  .57148E+02
 1092.400  .56395E+02
 1093.000  .56771E+02
 1093.600  .55337E+02
 1094.200  .55055E+02
 1094.800  .56071E+02
 1095.500  .53257E+02
 1096.100  .52987E+02
 1096.700  .53956E+02
 1097.300  .52671E+02
 1097.900  .51803E+02
 1098.600  .52473E+02
 1099.200  .50972E+02
 1099.800  .52121E+02
 1100.400  .51184E+02
 1101.000  .50747E+02
 1101.700  .49600E+02
 1102.300  .49420E+02
 1102.900  .49305E+02
 1103.500  .48327E+02
 1104.100  .48145E+02
 1104.800  .47152E+02
 1105.400  .46576E+02
 1106.000  .47209E+02
 1106.600  .45732E+02
 1107.200  .46333E+02
 1107.900  .45332E+02
 1108.500  .45227E+02
 1109.100  .45385E+02
 1109.700  .44425E+02
 1110.300  .44138E+02
 1111.000  .43277E+02
 1111.600  .42575E+02
 1112.200  .41607E+02
 1112.800  .42622E+02
 1113.400  .40742E+02
 1114.100  .41082E+02
 1114.700  .41121E+02
 1115.300  .40445E+02
 1115.900  .39752E+02
 1116.500  .40488E+02
 1117.200  .40546E+02
 1117.800  .39116E+02
 1118.400  .38385E+02
 1119.000  .37785E+02
 1119.600  .36097E+02
 1120.200  .36968E+02
 1120.900  .37424E+02
 1121.500  .36737E+02
 1122.100  .35125E+02
 1122.700  .34468E+02
 1123.300  .34230E+02
 1124.000  .34904E+02
 1124.600  .34177E+02
 1125.200  .33685E+02
 1125.800  .33294E+02
 1126.400  .32495E+02
 1127.000  .32524E+02
 1127.700  .32539E+02
 1128.300  .31550E+02
 1128.900  .31307E+02
 1129.500  .30519E+02
 1130.100  .31415E+02
 1130.800  .29417E+02
 1131.400  .30194E+02
 1132.000  .28411E+02
 1132.600  .28983E+02
 1133.200  .27777E+02
 1133.800  .27425E+02
 1134.500  .26765E+02
 1135.100  .27269E+02
 1135.700  .27259E+02
 1136.300  .25873E+02
 1136.900  .26550E+02
 1137.500  .27038E+02
 1138.200  .25632E+02
 1138.800  .25447E+02
 1139.400  .24570E+02
 1140.000  .23934E+02
 1140.600  .23747E+02
 1141.300  .23785E+02
 1141.900  .23528E+02
 1142.500  .23566E+02
 1143.100  .22647E+02
 1143.700  .21883E+02
 1144.300  .22006E+02
 1145.000  .21415E+02
 1145.600  .21852E+02
 1146.200  .21014E+02
 1146.800  .20157E+02
 1147.400  .20349E+02
 1148.000  .20366E+02
 1148.700  .19453E+02
 1149.300  .19680E+02
 1149.900  .19186E+02
 1150.500  .18516E+02
 1151.100  .19130E+02
 1151.700  .19128E+02
 1152.400  .16955E+02
 1153.000  .17976E+02
 1153.600  .17442E+02
 1154.200  .17456E+02
 1154.800  .16832E+02
 1155.400  .16420E+02
 1156.000  .16824E+02
 1156.700  .15787E+02
 1157.300  .16440E+02
 1157.900  .15296E+02
 1158.500  .15397E+02
 1159.100  .14695E+02
 1159.700  .14974E+02
 1160.400  .14162E+02
 1161.000  .14943E+02
 1161.600  .14202E+02
 1162.200  .14284E+02
 1162.800  .13846E+02
 1163.400  .14486E+02
 1164.000  .12590E+02
 1164.700  .12310E+02
 1165.300  .12301E+02
 1165.900  .12310E+02
 1166.500  .12283E+02
 1167.100  .12075E+02
 1167.700  .11939E+02
 1168.400  .11783E+02
 1169.000  .10721E+02
 1169.600  .10711E+02
 1170.200  .10391E+02
 1170.800  .10252E+02
 1171.400  .10642E+02
 1172.000  .10266E+02
 1172.700  .10308E+02
 1173.300  .85622E+01
 1173.900  .10285E+02
 1174.500  .99629E+01
 1175.100  .87794E+01
 1175.700  .96096E+01
 1176.300  .88454E+01
 1177.000  .94548E+01
 1177.600  .96263E+01
 1178.200  .79767E+01
 1178.800  .88100E+01
 1179.400  .89445E+01
 1180.000  .86549E+01
 1180.600  .81800E+01
 1181.300  .82935E+01
 1181.900  .79283E+01
 1182.500  .83960E+01
 1183.100  .75667E+01
 1183.700  .73853E+01
 1184.300  .71293E+01
 1184.900  .82115E+01
 1185.600  .65388E+01
 1186.200  .78648E+01
 1186.800  .17529E+02
 1187.400  .15527E+02
 1188.000  .78035E+01
 1188.600  .59190E+01
 1189.200  .61089E+01
 1189.800  .63177E+01
 1190.500  .63556E+01
 1191.100  .56452E+01
 1191.700  .63992E+01
 1192.300  .51232E+01
 1192.900  .56898E+01
 1193.500  .53530E+01
 1194.100  .58266E+01
 1194.800  .55242E+01
 1195.400  .48838E+01
 1196.000  .47340E+01
 1196.600  .53604E+01
 1197.200  .51160E+01
 1197.800  .51178E+01
 1198.400  .43980E+01
 1199.000  .41900E+01
 1199.700  .43591E+01
 1200.300  .53506E+01
 1200.900  .44756E+01
 1201.500  .42860E+01
 1202.100  .41151E+01
 1202.700  .36380E+01
 1203.300  .46716E+01
 1203.900  .46155E+01
 1204.600  .35593E+01
 1205.200  .34636E+01
 1205.800  .42513E+01
 1206.400  .39446E+01
 1207.000  .45418E+01
 1207.600  .29635E+01
 1208.200  .47755E+01
 1208.800  .52207E+01
 1209.500  .36355E+01
 1210.100  .32298E+01
 1210.700  .35200E+01
 1211.300  .37527E+01
 1211.900  .26285E+01
 1212.500  .29966E+01
 1213.100  .33654E+01
 1213.700  .36959E+01
 1214.300  .33849E+01
 1215.000  .30311E+01
 1215.600  .36548E+01
 1216.200  .26987E+01
 1216.800  .28935E+01
 1217.400  .28930E+01
 1218.000  .23055E+01
 1218.600  .32448E+01
 1219.200  .24408E+01
 1219.800  .23811E+01
 1220.500  .16891E+01
 1221.100  .22578E+01
 1221.700  .24733E+01
 1222.300  .24134E+01
 1222.900  .21364E+01
 1223.500  .15432E+01
 1224.100  .27662E+01
 1224.700  .13619E+01
 1225.300  .14392E+01
 1226.000  .19686E+01
 1226.600  .23639E+01
 1227.200  .13110E+01
 1227.800  .15276E+01
 1228.400  .20031E+01
 1229.000  .25590E+01
 1229.600  .19208E+01
 1230.200  .26371E+01
 1230.800  .56106E+00
 1231.400  .13374E+01
 1232.100  .31113E+01
 1232.700  .17101E+01
 1233.300  .11276E+01
 1233.900  .10453E+01
 1234.500  .11434E+01
 1235.100  .12216E+01
 1235.700  .16216E+01
 1236.300  .23242E+01
 1236.900  .11953E+01
 1237.500  .11327E+01
 1238.200  .29429E+01
 1238.800  .13469E+01
 1239.400  .57674E+00
 1240.000  .37175E+00
 1240.600  .49041E+00
 1241.200  .13390E+01
 1241.800  .11747E+01
 1242.400  .15381E+01
 1243.000  .17801E+01
 1243.600  .13310E+01
 1244.200  .61639E+00
 1244.900  .65066E+00
 1245.500  .12396E+01
 1246.100  .15438E+01
 1246.700  .10311E+01
 1247.300  .59923E+00
 1247.900  .57607E+00
 1248.500  .98320E+00
 1249.100  .11039E+01
 1249.700  .13069E+01
 1250.300  .13254E+01
 1250.900  .89152E+00
 1251.600  .10088E+01
 1252.200  .99830E-01
 1252.800  .26166E+00
 1253.400  .36186E+00
 1254.000  .48289E+00
 1254.600  .11418E+01
 1255.200  .16680E+00
 1255.800  .49513E+00
 1256.400  .47157E+00
 1257.000  .26122E+00
 1257.600  .15251E+01
 1258.200  .21357E+00
 1258.900  .11846E+01
 1259.500  .57625E-01
 1260.100  .49217E+00
 1260.700  .69798E+00
 1261.300 -.41150E+00
 1261.900  .65591E-01
 1262.500  .64813E+00
 1263.100  .33133E+00
 1263.700  .16696E+01
 1264.300  .18985E+01
 1264.900  .34330E+00
 1265.500  .17220E+00
 1266.100 -.23054E+00
 1266.800  .45659E+00
 1267.400  .11189E-01
 1268.000 -.30846E+00
 1268.600  .10389E+01
 1269.200  .64642E-01
 1269.800 -.55184E+00
 1270.400 -.38634E+00
 1271.000 -.66538E+00
 1271.600  .17875E+00
 1272.200  .26045E+00
 1272.800 -.46476E+00
 1273.400  .16920E+00
 1274.000  .10596E+01
 1274.600  .78033E+00
 1275.300 -.59054E+00
 1275.900 -.27440E+00
 1276.500  .10672E+01
 1277.100  .33819E+00
 1277.700  .20678E+00
 1278.300 -.18177E+00
 1278.900  .35040E+00
 1279.500 -.17256E-01
 1280.100  .60184E+00
 1280.700  .57750E+00
 1281.300 -.70440E-01
 1281.900 -.11693E+00
 1282.500 -.20657E+00
 1283.100 -.51196E+00
 1283.700  .54149E+00
 1284.400  .49128E+00
 1285.000  .42345E+00
 1285.600 -.79122E+00
 1286.200 -.10234E+00
 1286.800  .41434E+00
 1287.400  .54145E+00
 1288.000  .34310E+00
 1288.600  .42690E+00
 1289.200 -.51135E+00
 1289.800  .37726E+00
 1290.400 -.12693E+00
 1291.000 -.10027E+01
 1291.600 -.30860E+00
 1292.200  .10272E+00
 1292.800  .33985E+00
 1293.400  .30377E-01
 1294.000  .39926E+00
 1294.600  .19889E+00
 1295.300 -.48874E+00
 1295.900 -.90984E+00
 1296.500 -.56927E-01
 1297.100 -.14842E+00
 1297.700 -.10797E+00
 1298.300 -.19967E+00
 1298.900  .43625E+00
 1299.500 -.14073E+00
 1300.100 -.27687E+00
 1300.700 -.30270E+00
 1301.300 -.85967E+00
 1301.900  .15494E+00
 1302.500 -.89027E+00
 1303.100 -.11164E+01
 1303.700 -.16600E+00
 1304.300  .67489E+00
 1304.900  .65886E+01
 1305.500  .17833E+02
 1306.100  .20429E+02
 1306.700  .18228E+01
 1307.300  .32544E+00
 1308.000  .16156E+00
 1308.600 -.28902E+00
 1309.200 -.15851E+00
 1309.800 -.69973E+00
 1310.400 -.52450E+00
 1311.000  .16706E+00
 1311.600  .11876E+00
 1312.200 -.78366E+00
 1312.800 -.51793E+00
 1313.400 -.20673E+00
 1314.000 -.30194E-01
 1314.600  .66532E+00
 1315.200  .12065E+00
 1315.800 -.58306E+00
 1316.400 -.11233E+00
 1317.000 -.63641E+00
 1317.600 -.36875E+00
 1318.200 -.50861E+00
 1318.800  .44015E+00
 1319.400 -.33498E+00
 1320.000 -.86146E+00
 1320.600 -.11527E+00
 1321.200 -.71074E+00
 1321.800  .28743E+00
 1322.400 -.80709E-01
 1323.000 -.40383E+00
 1323.600  .55144E+00
 1324.300  .24680E+00
 1324.900 -.13810E+01
 1325.500  .17132E+00
 1326.100 -.15485E-01
 1326.700  .23321E+00
 1327.300  .84963E+00
 1327.900  .15745E+00
 1328.500  .38999E-01
 1329.100 -.14375E+01
 1329.700  .76890E+00
 1330.300 -.63986E-01
 1330.900 -.87519E+00
 1331.500 -.12028E+01
 1332.100 -.12126E+00
 1332.700 -.74951E+00
 1333.300 -.89267E+00
 1333.900  .99200E-01
 1334.500  .23477E+00
 1335.100  .55622E+00
 1335.700 -.25990E+00
 1336.300 -.10309E+01
 1336.900 -.10479E+00
 1337.500 -.41124E+00
 1338.100 -.10212E+01
 1338.700  .70028E+00
 1339.300  .37039E+00
 1339.900 -.47402E+00
 1340.500  .38704E+00
 1341.100  .38369E+00
 1341.700  .52085E+00
 1342.300 -.58409E+00
 1342.900 -.33020E+00
 1343.500  .39368E+00
 1344.100  .20233E+00
 1344.700 -.13299E+01
 1345.300  .71309E+00
 1345.900 -.77410E+00
 1346.500  .18818E+00
 1347.100 -.21650E+00
 1347.700 -.31467E-01
 1348.300  .39022E+00
 1348.900 -.62606E-01
 1349.500 -.11373E+00
 1350.100 -.47294E+00
 1350.700 -.66676E+00
 1351.300 -.19639E+00
 1351.900  .70228E+00
 1352.500  .57297E-01
 1353.100 -.25568E+00
 1353.700 -.56916E+00
 1354.300 -.88317E+00
 1354.900  .20944E+00
 1355.500 -.65343E+00
 1356.100  .68006E+00
 1356.700  .74208E-02
 1357.300 -.21168E+00
 1357.900 -.71852E+00
 1358.500  .37962E+00
 1359.100 -.31946E+00
 1359.700  .11889E+01
 1360.300 -.80806E+00
 1360.900  .34170E+00
 1361.500  .19381E+00
 1362.100 -.38786E+00
 1362.700  .45170E+00
 1363.300  .14037E-01
 1363.900  .39656E+00
 1364.500  .36892E+00
 1365.100 -.13274E+01
 1365.700  .47279E-01
 1366.300  .84287E+00
 1366.900 -.66330E+00
 1367.500 -.88601E+00
 1368.100  .68779E+00
 1368.700 -.96800E+00
 1369.300  .80287E+00
 1369.900 -.22264E+00
 1370.500 -.10549E+01
 1371.100 -.23066E+00
 1371.700 -.39480E-01
 1372.300 -.16545E+00
 1372.900  .78374E+00
 1373.500  .73162E+00
 1374.100  .14084E+00
 1374.700 -.23039E+00
 1375.300  .86895E+00
 1375.900 -.17618E-01
 1376.500  .27627E-01
 1377.100 -.46779E+00
 1377.700  .14713E+01
 1378.300 -.14857E+01
 1378.900 -.57910E+00
 1379.500 -.63276E+00
 1380.100 -.41504E+00
 1380.700  .24760E+00
 1381.300  .56525E+00
 1381.900 -.79877E+00
 1382.500 -.13484E+00
 1383.100  .50538E+00
 1383.700  .20432E+00
 1384.300  .15095E+00
 1384.900 -.37443E+00
 1385.500 -.25435E+00
 1386.100 -.20871E+00
 1386.700  .85781E+00
 1387.300  .85458E+00
 1387.900  .17804E+00
 1388.500  .19921E+00
 1389.100  .95538E-01
 1389.700  .29167E+00
 1390.300  .56316E+00
 1390.900  .58471E+00
 1391.500  .63136E+00
 1392.100 -.17456E+00
 1392.700 -.30413E+00
 1393.300  .11234E+01
 1393.900  .44161E+00
 1394.500 -.39982E-01
 1395.100 -.14468E+00
 1395.700 -.98357E-01
 1396.300 -.35458E+00
 1396.900  .34783E+00
 1397.500 -.11713E+01
 1398.100 -.26623E+00
 1398.700 -.57399E+00
 1399.300 -.40120E+00
 1399.900 -.20279E+00
 1400.500 -.76482E+00
 1401.100 -.26185E+00
 1401.700  .31812E+00
 1402.300  .21270E+00
 1402.800 -.44757E+00
 1403.400  .54085E+00
 1404.000 -.48177E+00
 1404.600 -.51165E+00
 1405.200 -.31254E-01
 1405.800  .88403E+00
 1406.400 -.10105E+01
 1407.000 -.14569E+00
 1407.600 -.68737E+00
 1408.200 -.23082E+00
 1408.800 -.85034E+00
 1409.400  .42984E-01
 1410.000 -.21780E+00
 1410.600 -.32480E+00
 1411.200  .13383E+00
 1411.800  .74762E+00
 1412.400 -.90441E+00
 1413.000 -.47093E+00
 1413.600 -.93974E+00
 1414.200  .44973E+00
 1414.800 -.12246E+00
 1415.400 -.38522E+00
 1416.000 -.23431E+00
 1416.600 -.10933E+01
 1417.200 -.68349E+00
 1417.800 -.71404E+00
 1418.400  .29384E+00
 1419.000  .39392E+00
 1419.500 -.20288E+00
 1420.100  .54745E+00
 1420.700  .20526E+00
 1421.300 -.18958E+00
 1421.900 -.45464E+00
 1422.500  .10548E+01
 1423.100  .11112E+00
 1423.700  .99593E+00
 1424.300 -.62948E+00
 1424.900 -.14981E+01
 1425.500  .30462E+00
 1426.100 -.16660E+01
 1426.700 -.72667E+00
 1427.300  .81824E+00
 1427.900 -.97263E+00
 1428.500 -.12143E+01
 1429.100 -.16631E+00
 1429.700  .77789E+00
 1430.300  .28046E+01
 1430.900  .62594E+01
 1431.500  .20876E+01
