  124.500  .40434E+01
  125.200  .40748E+01
  125.900  .40327E+01
  126.600  .40135E+01
  127.300  .39423E+01
  128.000  .39285E+01
  128.600  .39569E+01
  129.300  .39759E+01
  130.000  .40557E+01
  130.700  .40975E+01
  131.400  .41871E+01
  132.100  .41858E+01
  132.800  .43141E+01
  133.500  .43206E+01
  134.200  .42009E+01
  134.900  .41176E+01
  135.600  .42297E+01
  136.300  .42580E+01
  136.900  .42234E+01
  137.600  .42478E+01
  138.300  .43644E+01
  139.000  .44328E+01
  139.700  .45855E+01
  140.400  .46836E+01
  141.100  .47714E+01
  141.800  .47468E+01
  142.500  .47335E+01
  143.200  .46481E+01
  143.900  .45955E+01
  144.500  .46416E+01
  145.200  .46585E+01
  145.900  .46411E+01
  146.600  .46658E+01
  147.300  .47552E+01
  148.000  .48337E+01
  148.700  .48522E+01
  149.400  .48894E+01
  150.100  .48968E+01
  150.800  .48644E+01
  151.500  .49086E+01
  152.100  .49082E+01
  152.800  .49913E+01
  153.500  .50856E+01
  154.200  .50246E+01
  154.900  .51262E+01
  155.600  .52118E+01
  156.300  .53911E+01
  157.000  .54375E+01
  157.700  .53712E+01
  158.400  .52554E+01
  159.000  .53423E+01
  159.700  .52984E+01
  160.400  .53613E+01
  161.100  .53674E+01
  161.800  .54095E+01
  162.500  .53488E+01
  163.200  .55688E+01
  163.900  .56037E+01
  164.600  .57184E+01
  165.200  .57258E+01
  165.900  .57145E+01
  166.600  .56978E+01
  167.300  .57294E+01
  168.000  .57322E+01
  168.700  .57432E+01
  169.400  .58373E+01
  170.100  .58384E+01
  170.800  .58291E+01
  171.400  .59704E+01
  172.100  .60680E+01
  172.800  .61505E+01
  173.500  .61503E+01
  174.200  .61033E+01
  174.900  .61005E+01
  175.600  .61262E+01
  176.300  .61990E+01
  177.000  .62597E+01
  177.600  .62105E+01
  178.300  .62711E+01
  179.000  .63840E+01
  179.700  .64054E+01
  180.400  .64298E+01
  181.100  .65294E+01
  181.800  .65819E+01
  182.500  .65750E+01
  183.100  .65764E+01
  183.800  .65489E+01
  184.500  .66905E+01
  185.200  .68233E+01
  185.900  .68851E+01
  186.600  .69356E+01
  187.300  .69720E+01
  188.000  .70203E+01
  188.600  .71395E+01
  189.300  .70884E+01
  190.000  .71674E+01
  190.700  .71464E+01
  191.400  .71962E+01
  192.100  .71628E+01
  192.800  .73012E+01
  193.500  .74410E+01
  194.100  .73133E+01
  194.800  .75256E+01
  195.500  .75292E+01
  196.200  .75401E+01
  196.900  .75572E+01
  197.600  .77802E+01
  198.300  .77888E+01
  199.000  .78542E+01
  199.600  .77889E+01
  200.300  .78635E+01
  201.000  .80474E+01
  201.700  .80676E+01
  202.400  .81206E+01
  203.100  .80780E+01
  203.800  .84714E+01
  204.400  .84398E+01
  205.100  .84831E+01
  205.800  .84183E+01
  206.500  .84309E+01
  207.200  .83767E+01
  207.900  .86204E+01
  208.600  .86460E+01
  209.200  .86398E+01
  209.900  .87476E+01
  210.600  .86850E+01
  211.300  .89149E+01
  212.000  .89677E+01
  212.700  .90099E+01
  213.400  .90123E+01
  214.000  .90614E+01
  214.700  .91606E+01
  215.400  .93602E+01
  216.100  .94975E+01
  216.800  .94436E+01
  217.500  .94630E+01
  218.200  .94677E+01
  218.800  .96883E+01
  219.500  .96950E+01
  220.200  .97549E+01
  220.900  .97691E+01
  221.600  .98669E+01
  222.300  .10053E+02
  222.900  .10022E+02
  223.600  .10043E+02
  224.300  .10207E+02
  225.000  .10311E+02
  225.700  .10351E+02
  226.400  .10533E+02
  227.100  .10515E+02
  227.700  .10567E+02
  228.400  .10628E+02
  229.100  .10652E+02
  229.800  .11037E+02
  230.500  .10928E+02
  231.200  .11013E+02
  231.800  .10986E+02
  232.500  .11173E+02
  233.200  .11244E+02
  233.900  .11441E+02
  234.600  .11194E+02
  235.300  .11444E+02
  235.900  .11602E+02
  236.600  .11560E+02
  237.300  .11786E+02
  238.000  .11876E+02
  238.700  .11940E+02
  239.400  .12316E+02
  240.000  .12193E+02
  240.700  .12262E+02
  241.400  .12426E+02
  242.100  .12396E+02
  242.800  .12559E+02
  243.500  .12588E+02
  244.100  .12719E+02
  244.800  .12856E+02
  245.500  .12756E+02
  246.200  .13050E+02
  246.900  .13149E+02
  247.600  .13276E+02
  248.200  .13081E+02
  248.900  .13355E+02
  249.600  .13583E+02
  250.300  .13477E+02
  251.000  .13783E+02
  251.700  .13779E+02
  252.300  .14001E+02
  253.000  .13805E+02
  253.700  .13836E+02
  254.400  .77069E+01
  255.100  .10804E+02
  255.700  .12291E+02
  256.400  .14285E+02
  257.100  .14645E+02
  257.800  .14903E+02
  258.500  .14921E+02
  259.200  .14887E+02
  259.800  .15122E+02
  260.500  .15241E+02
  261.200  .15482E+02
  261.900  .15390E+02
  262.600  .15502E+02
  263.200  .15545E+02
  263.900  .15791E+02
  264.600  .15930E+02
  265.300  .16047E+02
  266.000  .16121E+02
  266.700  .15966E+02
  267.300  .16342E+02
  268.000  .16518E+02
  268.700  .16841E+02
  269.400  .16836E+02
  270.100  .16821E+02
  270.700  .16903E+02
  271.400  .17170E+02
  272.100  .17256E+02
  272.800  .17502E+02
  273.500  .17429E+02
  274.100  .17565E+02
  274.800  .17935E+02
  275.500  .17733E+02
  276.200  .18053E+02
  276.900  .17907E+02
  277.500  .18289E+02
  278.200  .18434E+02
  278.900  .18663E+02
  279.600  .18786E+02
  280.300  .18841E+02
  280.900  .18889E+02
  281.600  .19080E+02
  282.300  .19171E+02
  283.000  .19443E+02
  283.700  .19461E+02
  284.300  .19404E+02
  285.000  .19633E+02
  285.700  .19977E+02
  286.400  .20354E+02
  287.100  .20128E+02
  287.700  .20003E+02
  288.400  .20452E+02
  289.100  .20547E+02
  289.800  .20643E+02
  290.500  .20778E+02
  291.100  .20852E+02
  291.800  .21033E+02
  292.500  .21125E+02
  293.200  .21412E+02
  293.900  .21823E+02
  294.500  .21601E+02
  295.200  .21855E+02
  295.900  .22065E+02
  296.600  .22247E+02
  297.300  .22313E+02
  297.900  .22120E+02
  298.600  .22686E+02
  299.300  .22634E+02
  300.000  .23102E+02
  300.600  .22868E+02
  301.300  .22929E+02
  302.000  .23390E+02
  302.700  .23330E+02
  303.400  .23690E+02
  304.000  .23700E+02
  304.700  .23931E+02
  305.400  .23950E+02
  306.100  .24012E+02
  306.800  .24360E+02
  307.400  .24118E+02
  308.100  .24558E+02
  308.800  .24716E+02
  309.500  .24782E+02
  310.100  .25011E+02
  310.800  .25107E+02
  311.500  .25305E+02
  312.200  .25536E+02
  312.900  .25523E+02
  313.500  .25896E+02
  314.200  .26033E+02
  314.900  .26328E+02
  315.600  .26253E+02
  316.200  .26675E+02
  316.900  .26653E+02
  317.600  .26909E+02
  318.300  .27156E+02
  318.900  .27341E+02
  319.600  .27281E+02
  320.300  .27721E+02
  321.000  .27738E+02
  321.700  .27663E+02
  322.300  .27817E+02
  323.000  .28263E+02
  323.700  .28284E+02
  324.400  .28547E+02
  325.000  .28787E+02
  325.700  .28909E+02
  326.400  .30172E+02
  327.100  .39252E+02
  327.700  .37531E+02
  328.400  .30517E+02
  329.100  .29590E+02
  329.800  .30015E+02
  330.500  .30072E+02
  331.100  .30191E+02
  331.800  .30466E+02
  332.500  .30843E+02
  333.200  .30822E+02
  333.800  .31126E+02
  334.500  .31453E+02
  335.200  .31177E+02
  335.900  .32032E+02
  336.500  .31550E+02
  337.200  .32105E+02
  337.900  .31546E+02
  338.600  .31988E+02
  339.200  .32044E+02
  339.900  .32648E+02
  340.600  .32892E+02
  341.300  .33293E+02
  341.900  .33136E+02
  342.600  .33096E+02
  343.300  .33717E+02
  344.000  .33965E+02
  344.600  .34020E+02
  345.300  .34544E+02
  346.000  .34344E+02
  346.700  .34473E+02
  347.300  .35494E+02
  348.000  .35456E+02
  348.700  .34858E+02
  349.400  .35737E+02
  350.000  .35963E+02
  350.700  .36056E+02
  351.400  .36481E+02
  352.100  .37202E+02
  352.700  .36740E+02
  353.400  .36703E+02
  354.100  .37200E+02
  354.800  .37456E+02
  355.400  .37470E+02
  356.100  .37731E+02
  356.800  .37923E+02
  357.500  .38312E+02
  358.100  .38435E+02
  358.800  .39068E+02
  359.500  .39341E+02
  360.200  .39351E+02
  360.800  .39609E+02
  361.500  .39709E+02
  362.200  .39912E+02
  362.800  .39969E+02
  363.500  .40700E+02
  364.200  .40568E+02
  364.900  .40861E+02
  365.500  .41509E+02
  366.200  .41267E+02
  366.900  .41809E+02
  367.600  .42222E+02
  368.200  .42221E+02
  368.900  .42245E+02
  369.600  .43055E+02
  370.300  .43144E+02
  370.900  .43493E+02
  371.600  .43564E+02
  372.300  .43522E+02
  372.900  .43874E+02
  373.600  .44013E+02
  374.300  .44656E+02
  375.000  .44678E+02
  375.600  .44879E+02
  376.300  .45177E+02
  377.000  .45426E+02
  377.700  .44963E+02
  378.300  .45791E+02
  379.000  .46585E+02
  379.700  .46307E+02
  380.300  .46669E+02
  381.000  .46757E+02
  381.700  .47577E+02
  382.400  .47606E+02
  383.000  .47729E+02
  383.700  .48117E+02
  384.400  .48077E+02
  385.000  .48882E+02
  385.700  .48902E+02
  386.400  .49509E+02
  387.100  .49759E+02
  387.700  .49607E+02
  388.400  .50304E+02
  389.100  .50457E+02
  389.800  .50497E+02
  390.400  .51102E+02
  391.100  .50963E+02
  391.800  .51687E+02
  392.400  .51452E+02
  393.100  .52312E+02
  393.800  .52100E+02
  394.500  .52368E+02
  395.100  .52657E+02
  395.800  .52596E+02
  396.500  .53566E+02
  397.100  .54193E+02
  397.800  .53510E+02
  398.500  .54170E+02
  399.100  .54715E+02
  399.800  .54419E+02
  400.500  .55081E+02
  401.200  .54872E+02
  401.800  .54860E+02
  402.500  .55685E+02
  403.200  .56626E+02
  403.800  .56871E+02
  404.500  .58538E+02
  405.200  .57643E+02
  405.900  .57318E+02
  406.500  .58001E+02
  407.200  .57792E+02
  407.900  .57955E+02
  408.500  .58562E+02
  409.200  .58737E+02
  409.900  .59348E+02
  410.500  .59180E+02
  411.200  .60053E+02
  411.900  .59482E+02
  412.600  .60360E+02
  413.200  .60605E+02
  413.900  .60701E+02
  414.600  .60902E+02
  415.200  .61786E+02
  415.900  .61984E+02
  416.600  .61823E+02
  417.200  .62438E+02
  417.900  .62536E+02
  418.600  .62741E+02
  419.200  .63448E+02
  419.900  .63833E+02
  420.600  .64248E+02
  421.300  .64699E+02
  421.900  .65226E+02
  422.600  .65809E+02
  423.300  .65534E+02
  423.900  .66660E+02
  424.600  .66309E+02
  425.300  .67074E+02
  425.900  .67166E+02
  426.600  .68031E+02
  427.300  .67013E+02
  427.900  .68425E+02
  428.600  .68918E+02
  429.300  .68375E+02
  430.000  .69263E+02
  430.600  .69921E+02
  431.300  .70318E+02
  432.000  .70445E+02
  432.600  .70347E+02
  433.300  .71049E+02
  434.000  .70987E+02
  434.600  .71547E+02
  435.300  .72569E+02
  436.000  .72779E+02
  436.600  .73475E+02
  437.300  .74484E+02
  438.000  .73136E+02
  438.600  .74228E+02
  439.300  .74940E+02
  440.000  .75368E+02
  440.600  .75576E+02
  441.300  .76308E+02
  442.000  .76020E+02
  442.600  .76520E+02
  443.300  .76642E+02
  444.000  .77490E+02
  444.600  .78015E+02
  445.300  .78159E+02
  446.000  .78174E+02
  446.600  .78059E+02
  447.300  .78912E+02
  448.000  .78829E+02
  448.600  .79250E+02
  449.300  .79583E+02
  450.000  .79610E+02
  450.600  .80034E+02
  451.300  .80902E+02
  452.000  .81654E+02
  452.600  .80499E+02
  453.300  .81146E+02
  454.000  .81278E+02
  454.600  .81396E+02
  455.300  .82042E+02
  456.000  .81852E+02
  456.600  .82715E+02
  457.300  .82950E+02
  458.000  .82528E+02
  458.600  .82733E+02
  459.300  .84319E+02
  460.000  .84338E+02
  460.600  .84206E+02
  461.300  .84784E+02
  462.000  .85476E+02
  462.600  .84673E+02
  463.300  .85483E+02
  464.000  .84592E+02
  464.600  .84813E+02
  465.300  .85850E+02
  466.000  .85515E+02
  466.600  .86313E+02
  467.300  .85406E+02
  468.000  .85649E+02
  468.600  .85624E+02
  469.300  .85987E+02
  470.000  .86571E+02
  470.600  .86902E+02
  471.300  .87133E+02
  472.000  .87035E+02
  472.600  .87603E+02
  473.300  .87497E+02
  474.000  .88666E+02
  474.600  .87829E+02
  475.300  .88082E+02
  475.900  .88402E+02
  476.600  .88656E+02
  477.300  .88661E+02
  477.900  .88975E+02
  478.600  .89487E+02
  479.300  .89233E+02
  479.900  .89467E+02
  480.600  .90441E+02
  481.300  .90929E+02
  481.900  .90652E+02
  482.600  .90161E+02
  483.300  .90776E+02
  483.900  .91846E+02
  484.600  .90500E+02
  485.200  .91951E+02
  485.900  .90975E+02
  486.600  .92211E+02
  487.200  .91451E+02
  487.900  .92036E+02
  488.600  .91949E+02
  489.200  .92140E+02
  489.900  .92397E+02
  490.600  .92029E+02
  491.200  .92985E+02
  491.900  .91483E+02
  492.500  .92440E+02
  493.200  .91675E+02
  493.900  .92703E+02
  494.500  .93402E+02
  495.200  .91255E+02
  495.900  .90483E+02
  496.500  .90698E+02
  497.200  .90314E+02
  497.900  .89435E+02
  498.500  .87871E+02
  499.200  .88487E+02
  499.800  .87928E+02
  500.500  .87150E+02
  501.200  .86263E+02
  501.800  .85200E+02
  502.500  .84697E+02
  503.200  .83672E+02
  503.800  .82455E+02
  504.500  .82320E+02
  505.100  .81125E+02
  505.800  .81468E+02
  506.500  .79957E+02
  507.100  .79157E+02
  507.800  .76888E+02
  508.500  .76848E+02
  509.100  .73347E+02
  509.800  .74899E+02
  510.400  .74257E+02
  511.100  .72762E+02
  511.800  .71727E+02
  512.400  .70945E+02
  513.100  .70394E+02
  513.800  .68584E+02
  514.400  .67897E+02
  515.100  .66883E+02
  515.700  .67021E+02
  516.400  .64542E+02
  517.100  .64228E+02
  517.700  .63776E+02
  518.400  .62693E+02
  519.000  .62253E+02
  519.700  .61288E+02
  520.400  .59852E+02
  521.000  .60110E+02
  521.700  .58680E+02
  522.400  .58592E+02
  523.000  .57835E+02
  523.700  .56300E+02
  524.300  .56200E+02
  525.000  .55821E+02
  525.700  .54945E+02
  526.300  .53984E+02
  527.000  .54958E+02
  527.600  .53353E+02
  528.300  .53466E+02
  529.000  .52732E+02
  529.600  .51368E+02
  530.300  .51395E+02
  530.900  .50748E+02
  531.600  .50763E+02
  532.300  .50029E+02
  532.900  .50043E+02
  533.600  .48813E+02
  534.200  .48605E+02
  534.900  .48403E+02
  535.600  .48082E+02
  536.200  .46844E+02
  536.900  .47067E+02
  537.500  .46639E+02
  538.200  .46751E+02
  538.900  .45439E+02
  539.500  .45319E+02
  540.200  .45742E+02
  540.800  .45007E+02
  541.500  .45618E+02
  542.200  .44127E+02
  542.800  .45116E+02
  543.500  .44621E+02
  544.100  .44419E+02
  544.800  .44203E+02
  545.500  .44108E+02
  546.100  .43998E+02
  546.800  .43701E+02
  547.400  .43284E+02
  548.100  .43576E+02
  548.800  .43783E+02
  549.400  .43563E+02
  550.100  .43761E+02
  550.700  .43125E+02
  551.400  .42964E+02
  552.100  .42444E+02
  552.700  .43226E+02
  553.400  .42558E+02
  554.000  .43207E+02
  554.700  .43501E+02
  555.300  .42080E+02
  556.000  .42284E+02
  556.700  .42489E+02
  557.300  .43065E+02
  558.000  .42837E+02
  558.600  .42436E+02
  559.300  .42234E+02
  560.000  .42828E+02
  560.600  .42482E+02
  561.300  .42918E+02
  561.900  .43092E+02
  562.600  .43018E+02
  563.200  .43564E+02
  563.900  .42362E+02
  564.600  .42558E+02
  565.200  .43582E+02
  565.900  .42848E+02
  566.500  .43103E+02
  567.200  .43627E+02
  567.800  .43200E+02
  568.500  .43307E+02
  569.200  .43075E+02
  569.800  .43579E+02
  570.500  .43263E+02
  571.100  .43656E+02
  571.800  .43670E+02
  572.400  .43545E+02
  573.100  .44151E+02
  573.800  .43811E+02
  574.400  .44311E+02
  575.100  .43886E+02
  575.700  .43947E+02
  576.400  .43644E+02
  577.000  .43326E+02
  577.700  .43506E+02
  578.400  .44542E+02
  579.000  .43587E+02
  579.700  .44755E+02
  580.300  .44200E+02
  581.000  .44659E+02
  581.600  .44882E+02
  582.300  .44250E+02
  583.000  .44131E+02
  583.600  .43470E+02
  584.300  .43780E+02
  584.900  .43753E+02
  585.600  .44833E+02
  586.200  .45079E+02
  586.900  .45535E+02
  587.600  .44859E+02
  588.200  .44220E+02
  588.900  .45016E+02
  589.500  .45109E+02
  590.200  .44348E+02
  590.800  .45090E+02
  591.500  .45484E+02
  592.100  .45247E+02
  592.800  .44933E+02
  593.500  .45228E+02
  594.100  .45444E+02
  594.800  .44636E+02
  595.400  .46383E+02
  596.100  .45596E+02
  596.700  .45701E+02
  597.400  .45899E+02
  598.000  .46309E+02
  598.700  .45954E+02
  599.400  .45824E+02
  600.000  .45918E+02
  600.700  .45092E+02
  601.300  .46290E+02
  602.000  .44948E+02
  602.600  .44364E+02
  603.300  .45168E+02
  603.900  .44639E+02
  604.600  .44409E+02
  605.200  .44823E+02
  605.900  .43482E+02
  606.600  .43791E+02
  607.200  .43265E+02
  607.900  .43156E+02
  608.500  .46497E+02
  609.200  .45342E+02
  609.800  .45094E+02
  610.500  .45292E+02
  611.100  .44138E+02
  611.800  .43580E+02
  612.400  .43857E+02
  613.100  .42834E+02
  613.800  .44593E+02
  614.400  .42117E+02
  615.100  .44333E+02
  615.700  .43194E+02
  616.400  .39063E+02
  617.000  .37681E+02
  617.700  .37877E+02
  618.300  .37496E+02
  619.000  .36186E+02
  619.600  .36054E+02
  620.300  .35315E+02
  620.900  .34611E+02
  621.600  .33769E+02
  622.200  .33922E+02
  622.900  .33209E+02
  623.600  .32809E+02
  624.200  .32863E+02
  624.900  .32228E+02
  625.500  .31667E+02
  626.200  .31876E+02
  626.800  .31509E+02
  627.500  .30939E+02
  628.100  .30024E+02
  628.800  .30751E+02
  629.400  .30055E+02
  630.100  .29065E+02
  630.700  .29437E+02
  631.400  .29055E+02
  632.000  .28701E+02
  632.700  .28905E+02
  633.300  .28687E+02
  634.000  .27884E+02
  634.700  .28441E+02
  635.300  .27347E+02
  636.000  .27423E+02
  636.600  .26628E+02
  637.300  .26728E+02
  637.900  .25928E+02
  638.600  .26525E+02
  639.200  .26106E+02
  639.900  .26436E+02
  640.500  .26001E+02
  641.200  .25855E+02
  641.800  .25470E+02
  642.500  .25179E+02
  643.100  .24907E+02
  643.800  .25030E+02
  644.400  .24158E+02
  645.100  .25048E+02
  645.700  .24342E+02
  646.400  .24451E+02
  647.000  .23846E+02
  647.700  .23402E+02
  648.300  .23964E+02
  649.000  .23030E+02
  649.600  .24016E+02
  650.300  .23899E+02
  650.900  .22424E+02
  651.600  .22927E+02
  652.200  .22536E+02
  652.900  .22308E+02
  653.500  .22822E+02
  654.200  .23008E+02
  654.800  .22720E+02
  655.500  .22249E+02
  656.200  .22260E+02
  656.800  .21524E+02
  657.500  .22006E+02
  658.100  .22065E+02
  658.800  .21370E+02
  659.400  .21523E+02
  660.100  .21560E+02
  660.700  .21127E+02
  661.400  .21148E+02
  662.000  .21343E+02
  662.700  .21269E+02
  663.300  .21409E+02
  664.000  .20811E+02
  664.600  .20620E+02
  665.300  .20764E+02
  665.900  .20586E+02
  666.600  .20689E+02
  667.200  .20413E+02
  667.900  .20752E+02
  668.500  .20921E+02
  669.200  .20214E+02
  669.800  .20998E+02
  670.500  .20415E+02
  671.100  .20837E+02
  671.800  .20673E+02
  672.400  .19842E+02
  673.000  .19798E+02
  673.700  .20368E+02
  674.300  .20013E+02
  675.000  .20400E+02
  675.600  .20499E+02
  676.300  .20475E+02
  676.900  .19832E+02
  677.600  .19376E+02
  678.200  .19388E+02
  678.900  .19993E+02
  679.500  .20034E+02
  680.200  .19648E+02
  680.800  .19530E+02
  681.500  .19734E+02
  682.100  .19615E+02
  682.800  .19239E+02
  683.400  .19148E+02
  684.100  .19440E+02
  684.700  .19465E+02
  685.400  .18954E+02
  686.000  .20312E+02
  686.700  .19757E+02
  687.300  .19283E+02
  688.000  .19415E+02
  688.600  .19691E+02
  689.300  .19455E+02
  689.900  .19481E+02
  690.600  .18798E+02
  691.200  .19565E+02
  691.900  .19268E+02
  692.500  .19397E+02
  693.200  .19426E+02
  693.800  .19451E+02
  694.400  .19671E+02
  695.100  .18920E+02
  695.700  .19169E+02
  696.400  .19047E+02
  697.000  .19600E+02
  697.700  .19024E+02
  698.300  .19048E+02
  699.000  .19091E+02
  699.600  .19936E+02
  700.300  .19113E+02
  700.900  .19992E+02
  701.600  .18707E+02
  702.200  .19220E+02
  702.900  .20460E+02
  703.500  .19595E+02
  704.200  .19331E+02
  704.800  .19432E+02
  705.500  .19785E+02
  706.100  .18711E+02
  706.700  .19540E+02
  707.400  .19118E+02
  708.000  .19500E+02
  708.700  .19060E+02
  709.300  .19646E+02
  710.000  .19143E+02
  710.600  .19761E+02
  711.300  .19648E+02
  711.900  .19201E+02
  712.600  .19040E+02
  713.200  .19094E+02
  713.900  .18995E+02
  714.500  .19730E+02
  715.100  .18740E+02
  715.800  .20608E+02
  716.400  .19154E+02
  717.100  .19452E+02
  717.700  .19939E+02
  718.400  .20015E+02
  719.000  .19879E+02
  719.700  .19089E+02
  720.300  .18758E+02
  721.000  .20120E+02
  721.600  .19371E+02
  722.200  .19636E+02
  722.900  .20052E+02
  723.500  .19654E+02
  724.200  .20120E+02
  724.800  .19624E+02
  725.500  .19814E+02
  726.100  .20131E+02
  726.800  .20699E+02
  727.400  .21116E+02
  728.100  .20605E+02
  728.700  .20498E+02
  729.300  .20884E+02
  730.000  .20699E+02
  730.600  .20740E+02
  731.300  .19975E+02
  731.900  .20380E+02
  732.600  .20872E+02
  733.200  .20698E+02
  733.900  .20876E+02
  734.500  .20167E+02
  735.100  .21894E+02
  735.800  .21021E+02
  736.400  .21733E+02
  737.100  .21259E+02
  737.700  .21974E+02
  738.400  .20606E+02
  739.000  .21119E+02
  739.700  .21368E+02
  740.300  .21427E+02
  740.900  .21435E+02
  741.600  .21634E+02
  742.200  .22901E+02
  742.900  .21621E+02
  743.500  .21578E+02
  744.200  .22940E+02
  744.800  .22676E+02
  745.500  .23068E+02
  746.100  .23146E+02
  746.700  .22503E+02
  747.400  .22482E+02
  748.000  .23198E+02
  748.700  .22642E+02
  749.300  .22478E+02
  750.000  .22977E+02
  750.600  .22813E+02
  751.200  .23013E+02
  751.900  .22644E+02
  752.500  .22810E+02
  753.200  .22928E+02
  753.800  .23042E+02
  754.500  .24143E+02
  755.100  .24435E+02
  755.700  .24376E+02
  756.400  .25096E+02
  757.000  .24349E+02
  757.700  .25832E+02
  758.300  .24765E+02
  759.000  .25189E+02
  759.600  .24650E+02
  760.200  .25070E+02
  760.900  .26013E+02
  761.500  .25901E+02
  762.200  .26133E+02
  762.800  .26056E+02
  763.500  .26253E+02
  764.100  .27039E+02
  764.700  .26441E+02
  765.400  .26765E+02
  766.000  .27537E+02
  766.700  .27069E+02
  767.300  .27173E+02
  767.900  .28384E+02
  768.600  .27696E+02
  769.200  .28347E+02
  769.900  .27803E+02
  770.500  .29004E+02
  771.200  .29940E+02
  771.800  .28108E+02
  772.400  .29021E+02
  773.100  .28748E+02
  773.700  .29426E+02
  774.400  .29706E+02
  775.000  .31218E+02
  775.600  .30053E+02
  776.300  .29335E+02
  776.900  .31280E+02
  777.600  .30877E+02
  778.200  .31993E+02
  778.900  .32074E+02
  779.500  .31609E+02
  780.100  .32356E+02
  780.800  .31465E+02
  781.400  .33377E+02
  782.100  .32447E+02
  782.700  .33594E+02
  783.300  .33823E+02
  784.000  .33040E+02
  784.600  .33816E+02
  785.300  .32860E+02
  785.900  .34339E+02
  786.500  .34911E+02
  787.200  .34180E+02
  787.800  .34849E+02
  788.500  .34878E+02
  789.100  .34862E+02
  789.700  .34750E+02
  790.400  .35104E+02
  791.000  .35415E+02
  791.700  .35848E+02
  792.300  .35775E+02
  792.900  .36048E+02
  793.600  .37063E+02
  794.200  .36315E+02
  794.900  .36965E+02
  795.500  .36039E+02
  796.100  .36703E+02
  796.800  .36423E+02
  797.400  .36914E+02
  798.100  .37374E+02
  798.700  .37457E+02
  799.300  .37091E+02
  800.000  .36456E+02
  800.600  .36616E+02
  801.300  .36823E+02
  801.900  .37496E+02
  801.100  .36634E+02
  801.700  .36716E+02
  802.400  .37692E+02
  803.000  .38131E+02
  803.600  .38176E+02
  804.300  .38129E+02
  804.900  .38411E+02
  805.600  .37570E+02
  806.200  .37674E+02
  806.900  .38282E+02
  807.500  .37669E+02
  808.100  .37692E+02
  808.800  .37203E+02
  809.400  .36785E+02
  810.100  .36152E+02
  810.700  .36133E+02
  811.400  .35698E+02
  812.000  .37291E+02
  812.600  .36486E+02
  813.300  .36676E+02
  813.900  .38438E+02
  814.600  .35509E+02
  815.200  .37620E+02
  815.900  .36145E+02
  816.500  .35798E+02
  817.100  .35472E+02
  817.800  .35743E+02
  818.400  .35640E+02
  819.100  .34641E+02
  819.700  .34536E+02
  820.300  .35622E+02
  821.000  .35277E+02
  821.600  .34471E+02
  822.300  .34330E+02
  822.900  .35401E+02
  823.600  .34018E+02
  824.200  .32521E+02
  824.800  .33138E+02
  825.500  .32369E+02
  826.100  .32424E+02
  826.800  .31819E+02
  827.400  .32145E+02
  828.000  .31468E+02
  828.700  .31088E+02
  829.300  .31561E+02
  830.000  .31327E+02
  830.600  .29593E+02
  831.200  .28613E+02
  831.900  .29892E+02
  832.500  .28824E+02
  833.200  .28118E+02
  833.800  .27426E+02
  834.400  .27687E+02
  835.100  .27421E+02
  835.700  .27044E+02
  836.400  .25477E+02
  837.000  .25224E+02
  837.600  .25056E+02
  838.300  .25362E+02
  838.900  .24358E+02
  839.600  .23977E+02
  840.200  .23333E+02
  840.900  .22260E+02
  841.500  .21827E+02
  842.100  .19904E+02
  842.800  .20766E+02
  843.400  .19962E+02
  844.100  .19938E+02
  844.700  .19650E+02
  845.300  .18667E+02
  846.000  .17835E+02
  846.600  .17609E+02
  847.200  .17622E+02
  847.900  .17769E+02
  848.500  .16885E+02
  849.200  .15912E+02
  849.800  .16099E+02
  850.400  .14417E+02
  851.100  .14560E+02
  851.700  .14811E+02
  852.400  .13851E+02
  853.000  .13306E+02
  853.600  .13845E+02
  854.300  .13366E+02
  854.900  .13285E+02
  855.600  .11803E+02
  856.200  .11786E+02
  856.800  .11122E+02
  857.500  .12155E+02
  858.100  .11243E+02
  858.800  .11025E+02
  859.400  .10199E+02
  860.000  .11033E+02
  860.700  .11083E+02
  861.300  .11110E+02
  861.900  .98507E+01
  862.600  .10735E+02
  863.200  .10716E+02
  863.900  .98137E+01
  864.500  .88861E+01
  865.100  .98411E+01
  865.800  .98894E+01
  866.400  .85707E+01
  867.000  .90503E+01
  867.700  .98512E+01
  868.300  .97620E+01
  869.000  .93523E+01
  869.600  .97667E+01
  870.200  .99295E+01
  870.900  .91732E+01
  871.500  .90824E+01
  872.200  .99140E+01
  872.800  .86230E+01
  873.400  .89241E+01
  874.100  .96199E+01
  874.700  .99694E+01
  875.300  .81605E+01
  876.000  .92300E+01
  876.600  .98133E+01
  877.300  .97455E+01
  877.900  .92570E+01
  878.500  .86736E+01
  879.200  .82526E+01
  879.800  .10128E+02
  880.400  .85104E+01
  881.100  .10062E+02
  881.700  .88401E+01
  882.300  .95948E+01
  883.000  .84634E+01
  883.600  .84869E+01
  884.300  .91496E+01
  884.900  .85105E+01
  885.500  .84392E+01
  886.200  .85103E+01
  886.800  .80105E+01
  887.400  .88198E+01
  888.100  .87246E+01
  888.700  .88680E+01
  889.300  .94663E+01
  890.000  .10713E+02
  890.600  .89646E+01
  891.300  .93734E+01
  891.900  .87728E+01
  892.500  .86283E+01
  893.200  .80010E+01
  893.800  .95697E+01
  894.400  .92805E+01
  895.100  .87241E+01
  895.700  .93786E+01
  896.300  .82625E+01
  897.000  .85290E+01
  897.600  .76034E+01
  898.300  .95762E+01
  898.900  .98455E+01
  899.500  .98710E+01
  900.200  .90646E+01
  900.800  .87951E+01
  901.400  .98254E+01
  902.100  .92368E+01
  902.700  .94584E+01
  903.300  .91879E+01
  904.000  .86946E+01
  904.600  .10250E+02
  905.200  .10276E+02
  905.900  .95102E+01
  906.500  .90890E+01
  907.100  .10901E+02
  907.800  .99093E+01
  908.400  .95615E+01
  909.100  .10335E+02
  909.700  .10161E+02
  910.300  .99126E+01
  911.000  .10414E+02
  911.600  .99643E+01
  912.200  .83089E+01
  912.900  .10092E+02
  913.500  .89351E+01
  914.100  .94383E+01
  914.800  .10019E+02
  915.400  .10701E+02
  916.000  .11841E+02
  916.700  .10806E+02
  917.300  .10757E+02
  917.900  .11444E+02
  918.600  .12158E+02
  919.200  .11398E+02
  919.800  .10406E+02
  920.500  .10637E+02
  921.100  .10153E+02
  921.700  .10153E+02
  922.400  .11999E+02
  923.000  .11437E+02
  923.600  .11953E+02
  924.300  .10670E+02
  924.900  .10002E+02
  925.500  .10905E+02
  926.200  .10803E+02
  926.800  .12536E+02
  927.400  .11427E+02
  928.100  .11507E+02
  928.700  .12910E+02
  929.300  .11900E+02
  930.000  .12241E+02
  930.600  .11437E+02
  931.200  .12377E+02
  931.900  .12459E+02
  932.500  .12070E+02
  933.100  .12256E+02
  933.800  .12338E+02
  934.400  .12550E+02
  935.000  .11660E+02
  935.700  .12741E+02
  936.300  .13166E+02
  936.900  .13302E+02
  937.600  .11774E+02
  938.200  .13442E+02
  938.800  .12599E+02
  939.500  .12363E+02
  940.100  .14888E+02
  940.700  .14522E+02
  941.400  .13436E+02
  942.000  .15013E+02
  942.600  .14031E+02
  943.300  .14330E+02
  943.900  .14121E+02
  944.500  .15250E+02
  945.200  .15606E+02
  945.800  .15048E+02
  946.400  .16694E+02
  947.100  .15195E+02
  947.700  .16036E+02
  948.300  .16744E+02
  948.900  .16752E+02
  949.600  .16517E+02
  950.200  .17201E+02
  950.800  .17751E+02
  951.500  .17245E+02
  952.100  .17770E+02
  952.700  .17860E+02
  953.400  .19097E+02
  954.000  .16950E+02
  954.600  .18761E+02
  955.300  .18882E+02
  955.900  .17796E+02
  956.500  .19724E+02
  957.200  .19819E+02
  957.800  .18922E+02
  958.400  .19785E+02
  959.000  .20264E+02
  959.700  .21629E+02
  960.300  .20951E+02
  960.900  .20686E+02
  961.600  .21281E+02
  962.200  .21266E+02
  962.800  .23194E+02
  963.500  .23071E+02
  964.100  .22501E+02
  964.700  .23490E+02
  965.400  .23060E+02
  966.000  .21733E+02
  966.600  .24207E+02
  967.200  .22318E+02
  967.900  .24268E+02
  968.500  .25379E+02
  969.100  .25451E+02
  969.800  .25414E+02
  970.400  .25431E+02
  971.000  .26012E+02
  971.700  .26625E+02
  972.300  .27123E+02
  972.900  .26774E+02
  973.500  .26678E+02
  974.200  .27437E+02
  974.800  .29502E+02
  975.400  .28868E+02
  976.100  .30373E+02
  976.700  .29397E+02
  977.300  .29960E+02
  978.000  .31729E+02
  978.600  .31667E+02
  979.200  .30887E+02
  979.800  .30823E+02
  980.500  .32487E+02
  981.100  .32108E+02
  981.700  .31844E+02
  982.400  .31871E+02
  983.000  .31923E+02
  983.600  .33680E+02
  984.200  .33676E+02
  984.900  .33619E+02
  985.500  .35964E+02
  986.100  .34685E+02
  986.800  .36635E+02
  987.400  .35208E+02
  988.000  .36109E+02
  988.700  .36433E+02
  989.300  .37688E+02
  989.900  .36342E+02
  990.500  .39503E+02
  991.200  .36226E+02
  991.800  .38133E+02
  992.400  .39074E+02
  993.100  .38138E+02
  993.700  .37372E+02
  994.300  .39495E+02
  994.900  .40087E+02
  995.600  .37818E+02
  996.200  .38587E+02
  996.800  .39269E+02
  997.400  .41465E+02
  998.100  .40820E+02
  998.700  .40168E+02
  999.300  .40319E+02
 1000.000  .41340E+02
 1000.600  .42596E+02
 1001.200  .42092E+02
 1001.800  .43083E+02
 1002.500  .42075E+02
 1003.100  .44147E+02
 1003.700  .43732E+02
 1004.400  .40768E+02
 1005.000  .42906E+02
 1005.600  .45741E+02
 1006.200  .43607E+02
 1006.900  .45399E+02
 1007.500  .45345E+02
 1008.100  .44413E+02
 1008.700  .45994E+02
 1009.400  .44490E+02
 1010.000  .46287E+02
 1010.600  .45139E+02
 1011.300  .46764E+02
 1011.900  .47564E+02
 1012.500  .47054E+02
 1013.100  .47458E+02
 1013.800  .46433E+02
 1014.400  .48368E+02
 1015.000  .48132E+02
 1015.600  .48601E+02
 1016.300  .48678E+02
 1016.900  .48563E+02
 1017.500  .49865E+02
 1018.100  .47409E+02
 1018.800  .49120E+02
 1019.400  .50489E+02
 1020.000  .49324E+02
 1020.700  .51043E+02
 1021.300  .50465E+02
 1021.900  .51127E+02
 1022.500  .51915E+02
 1023.200  .53583E+02
 1023.800  .51259E+02
 1024.400  .51520E+02
 1025.000  .53716E+02
 1025.700  .54174E+02
 1026.300  .53875E+02
 1026.900  .53167E+02
 1027.500  .54089E+02
 1028.200  .53921E+02
 1028.800  .55349E+02
 1029.400  .55143E+02
 1030.000  .56008E+02
 1030.700  .54548E+02
 1031.300  .56993E+02
 1031.900  .57103E+02
 1032.500  .57404E+02
 1033.200  .58094E+02
 1033.800  .57254E+02
 1034.400  .56857E+02
 1035.000  .58462E+02
 1035.700  .58041E+02
 1036.300  .59906E+02
 1036.900  .59286E+02
 1037.500  .59176E+02
 1038.200  .58977E+02
 1038.800  .61555E+02
 1039.400  .60485E+02
 1040.000  .61498E+02
 1040.700  .61044E+02
 1041.300  .62221E+02
 1041.900  .60438E+02
 1042.500  .63678E+02
 1043.200  .61902E+02
 1043.800  .62696E+02
 1044.400  .63493E+02
 1045.000  .62575E+02
 1045.700  .64840E+02
 1046.300  .66841E+02
 1046.900  .64137E+02
 1047.500  .65491E+02
 1048.200  .65035E+02
 1048.800  .67077E+02
 1049.400  .67036E+02
 1050.000  .67909E+02
 1050.700  .67714E+02
 1051.300  .67051E+02
 1051.900  .67862E+02
 1052.500  .67722E+02
 1053.200  .68511E+02
 1053.800  .66629E+02
 1054.400  .68857E+02
 1055.000  .71452E+02
 1055.600  .67753E+02
 1056.300  .69866E+02
 1056.900  .71611E+02
 1057.500  .71805E+02
 1058.100  .71899E+02
 1058.800  .72401E+02
 1059.400  .74289E+02
 1060.000  .74285E+02
 1060.600  .70721E+02
 1061.300  .73156E+02
 1061.900  .72418E+02
 1062.500  .72178E+02
 1063.100  .72573E+02
 1063.800  .74485E+02
 1064.400  .74749E+02
 1065.000  .73303E+02
 1065.600  .72761E+02
 1066.200  .75645E+02
 1066.900  .76998E+02
 1067.500  .73560E+02
 1068.100  .75240E+02
 1068.700  .75844E+02
 1069.400  .77270E+02
 1070.000  .77539E+02
 1070.600  .76013E+02
 1071.200  .77738E+02
 1071.800  .75462E+02
 1072.500  .77574E+02
 1073.100  .76007E+02
 1073.700  .77705E+02
 1074.300  .78077E+02
 1075.000  .79177E+02
 1075.600  .80303E+02
 1076.200  .77943E+02
 1076.800  .78351E+02
 1077.400  .77526E+02
 1078.100  .79557E+02
 1078.700  .78284E+02
 1079.300  .79759E+02
 1079.900  .80102E+02
 1080.600  .80731E+02
 1081.200  .80730E+02
 1081.800  .80556E+02
 1082.400  .83182E+02
 1083.000  .82387E+02
 1083.700  .83368E+02
 1084.300  .82051E+02
 1084.900  .80280E+02
 1085.500  .83579E+02
 1086.100  .81318E+02
 1086.800  .82581E+02
 1087.400  .84882E+02
 1088.000  .83801E+02
 1088.600  .81950E+02
 1089.300  .84793E+02
 1089.900  .84059E+02
 1090.500  .86372E+02
 1091.100  .84445E+02
 1091.700  .85077E+02
 1092.400  .86672E+02
 1093.000  .86463E+02
 1093.600  .87346E+02
 1094.200  .86008E+02
 1094.800  .85127E+02
 1095.500  .86128E+02
 1096.100  .86802E+02
 1096.700  .87441E+02
 1097.300  .88684E+02
 1097.900  .87977E+02
 1098.600  .87103E+02
 1099.200  .89345E+02
 1099.800  .88102E+02
 1100.400  .88639E+02
 1101.000  .86215E+02
 1101.700  .90478E+02
 1102.300  .90267E+02
 1102.900  .90665E+02
 1103.500  .90991E+02
 1104.100  .92896E+02
 1104.800  .88138E+02
 1105.400  .90979E+02
 1106.000  .91019E+02
 1106.600  .90806E+02
 1107.200  .91819E+02
 1107.900  .92341E+02
 1108.500  .91659E+02
 1109.100  .93579E+02
 1109.700  .96264E+02
 1110.300  .94134E+02
 1111.000  .91648E+02
 1111.600  .92341E+02
 1112.200  .95617E+02
 1112.800  .96643E+02
 1113.400  .10000E+03
 1114.100  .93607E+02
 1114.700  .93392E+02
 1115.300  .94273E+02
 1115.900  .94534E+02
 1116.500  .96150E+02
 1117.200  .94960E+02
 1117.800  .95698E+02
 1118.400  .95447E+02
 1119.000  .97438E+02
 1119.600  .97481E+02
 1120.200  .95977E+02
 1120.900  .95479E+02
 1121.500  .97736E+02
 1122.100  .94304E+02
 1122.700  .98008E+02
 1123.300  .95384E+02
 1124.000  .98183E+02
 1124.600  .98115E+02
 1125.200  .98567E+02
 1125.800  .96379E+02
 1126.400  .94968E+02
 1127.000  .96238E+02
 1127.700  .96030E+02
 1128.300  .99956E+02
 1128.900  .95962E+02
 1129.500  .93682E+02
 1130.100  .99040E+02
 1130.800  .95496E+02
 1131.400  .96174E+02
 1132.000  .96590E+02
 1132.600  .96931E+02
 1133.200  .94412E+02
 1133.800  .96108E+02
 1134.500  .99519E+02
 1135.100  .97636E+02
 1135.700  .98017E+02
 1136.300  .97225E+02
 1136.900  .94614E+02
 1137.500  .95372E+02
 1138.200  .93829E+02
 1138.800  .94929E+02
 1139.400  .95119E+02
 1140.000  .95918E+02
 1140.600  .93098E+02
 1141.300  .92917E+02
 1141.900  .92150E+02
 1142.500  .92873E+02
 1143.100  .92908E+02
 1143.700  .95318E+02
 1144.300  .95853E+02
 1145.000  .91144E+02
 1145.600  .94097E+02
 1146.200  .94209E+02
 1146.800  .91704E+02
 1147.400  .92122E+02
 1148.000  .92850E+02
 1148.700  .92626E+02
 1149.300  .92737E+02
 1149.900  .93583E+02
 1150.500  .91294E+02
 1151.100  .89542E+02
 1151.700  .89961E+02
 1152.400  .89847E+02
 1153.000  .94000E+02
 1153.600  .89246E+02
 1154.200  .91575E+02
 1154.800  .89500E+02
 1155.400  .87266E+02
 1156.000  .88387E+02
 1156.700  .87057E+02
 1157.300  .87828E+02
 1157.900  .87503E+02
 1158.500  .86000E+02
 1159.100  .87400E+02
 1159.700  .86130E+02
 1160.400  .87819E+02
 1161.000  .87255E+02
 1161.600  .84245E+02
 1162.200  .87702E+02
 1162.800  .83462E+02
 1163.400  .83485E+02
 1164.000  .82518E+02
 1164.700  .84134E+02
 1165.300  .85506E+02
 1165.900  .82592E+02
 1166.500  .81540E+02
 1167.100  .83151E+02
 1167.700  .80743E+02
 1168.400  .80852E+02
 1169.000  .81629E+02
 1169.600  .81489E+02
 1170.200  .80069E+02
 1170.800  .80127E+02
 1171.400  .79905E+02
 1172.000  .80885E+02
 1172.700  .79709E+02
 1173.300  .77959E+02
 1173.900  .79502E+02
 1174.500  .77104E+02
 1175.100  .77199E+02
 1175.700  .81569E+02
 1176.300  .78923E+02
 1177.000  .77373E+02
 1177.600  .76902E+02
 1178.200  .74851E+02
 1178.800  .77132E+02
 1179.400  .76740E+02
 1180.000  .74399E+02
 1180.600  .74613E+02
 1181.300  .73046E+02
 1181.900  .72078E+02
 1182.500  .72250E+02
 1183.100  .71524E+02
 1183.700  .70756E+02
 1184.300  .70559E+02
 1184.900  .70893E+02
 1185.600  .69925E+02
 1186.200  .69193E+02
 1186.800  .67762E+02
 1187.400  .68053E+02
 1188.000  .69126E+02
 1188.600  .66579E+02
 1189.200  .67900E+02
 1189.800  .65718E+02
 1190.500  .69400E+02
 1191.100  .63579E+02
 1191.700  .65853E+02
 1192.300  .65896E+02
 1192.900  .64488E+02
 1193.500  .61710E+02
 1194.100  .65982E+02
 1194.800  .64079E+02
 1195.400  .61541E+02
 1196.000  .61745E+02
 1196.600  .63117E+02
 1197.200  .61781E+02
 1197.800  .62111E+02
 1198.400  .57971E+02
 1199.000  .58759E+02
 1199.700  .55409E+02
 1200.300  .58249E+02
 1200.900  .58284E+02
 1201.500  .56303E+02
 1202.100  .54235E+02
 1202.700  .56369E+02
 1203.300  .53707E+02
 1203.900  .53948E+02
 1204.600  .53351E+02
 1205.200  .56126E+02
 1205.800  .54256E+02
 1206.400  .53441E+02
 1207.000  .51523E+02
 1207.600  .47609E+02
 1208.200  .50094E+02
 1208.800  .49484E+02
 1209.500  .49642E+02
 1210.100  .49456E+02
 1210.700  .48034E+02
 1211.300  .45884E+02
 1211.900  .49576E+02
 1212.500  .45759E+02
 1213.100  .45781E+02
 1213.700  .43622E+02
 1214.300  .42571E+02
 1215.000  .45166E+02
 1215.600  .42442E+02
 1216.200  .41688E+02
 1216.800  .41706E+02
 1217.400  .38197E+02
 1218.000  .40020E+02
 1218.600  .40210E+02
 1219.200  .38156E+02
 1219.800  .38041E+02
 1220.500  .35854E+02
 1221.100  .36645E+02
 1221.700  .37655E+02
 1222.300  .34332E+02
 1222.900  .34386E+02
 1223.500  .34398E+02
 1224.100  .32149E+02
 1224.700  .33333E+02
 1225.300  .32472E+02
 1226.000  .29868E+02
 1226.600  .30878E+02
 1227.200  .29314E+02
 1227.800  .30807E+02
 1228.400  .31996E+02
 1229.000  .28545E+02
 1229.600  .29164E+02
 1230.200  .25661E+02
 1230.800  .25664E+02
 1231.400  .26151E+02
 1232.100  .24351E+02
 1232.700  .24044E+02
 1233.300  .21974E+02
 1233.900  .24179E+02
 1234.500  .21796E+02
 1235.100  .22547E+02
 1235.700  .20910E+02
 1236.300  .22016E+02
 1236.900  .20730E+02
 1237.500  .17668E+02
 1238.200  .18284E+02
 1238.800  .19169E+02
 1239.400  .18765E+02
 1240.000  .17649E+02
 1240.600  .16040E+02
 1241.200  .16703E+02
 1241.800  .16876E+02
 1242.400  .12938E+02
 1243.000  .13376E+02
 1243.600  .15203E+02
 1244.200  .13493E+02
 1244.900  .12586E+02
 1245.500  .11949E+02
 1246.100  .11310E+02
 1246.700  .12063E+02
 1247.300  .10928E+02
 1247.900  .11052E+02
 1248.500  .96437E+01
 1249.100  .10715E+02
 1249.700  .90772E+01
 1250.300  .87480E+01
 1250.900  .78299E+01
 1251.600  .97615E+01
 1252.200  .80718E+01
 1252.800  .72866E+01
 1253.400  .59550E+01
 1254.000  .58939E+01
 1254.600  .51501E+01
 1255.200  .64544E+01
 1255.800  .45703E+01
 1256.400  .45533E+01
 1257.000  .48103E+01
 1257.600  .32853E+01
 1258.200  .50969E+01
 1258.900  .59933E+01
 1259.500  .47859E+01
 1260.100  .32093E+01
 1260.700  .42470E+01
 1261.300  .33105E+01
 1261.900  .32463E+01
 1262.500  .32279E+01
 1263.100  .62505E+01
 1263.700  .24072E+01
 1264.300  .30342E+01
 1264.900  .30618E+01
 1265.500  .21184E+01
 1266.100  .35336E+01
 1266.800  .11960E+01
 1267.400  .20567E+01
 1268.000  .30117E+01
 1268.600  .15530E+01
 1269.200  .46371E+00
 1269.800  .39615E+00
 1270.400  .70104E+00
 1271.000  .12395E+01
 1271.600  .31319E+01
 1272.200  .18057E+01
 1272.800  .14586E+01
 1273.400  .19061E+01
 1274.000  .15584E+01
 1274.600 -.14864E+00
 1275.300 -.13466E+01
 1275.900  .18229E+01
 1276.500  .20527E+00
 1277.100  .93623E+00
 1277.700  .26569E+01
 1278.300  .37624E+00
 1278.900 -.22372E-01
 1279.500  .42779E+00
 1280.100  .24847E+01
 1280.700  .19587E+00
 1281.300  .11206E+01
 1281.900 -.17892E+00
 1282.500  .17826E+00
 1283.100 -.22295E+00
 1283.700 -.13846E+01
 1284.400  .63222E+00
 1285.000 -.95895E+00
 1285.600 -.26755E+00
 1286.200  .24741E+01
 1286.800  .69580E-01
 1287.400 -.13844E+01
 1288.000 -.21320E+00
 1288.600  .99297E-01
 1289.200  .55592E+00
 1289.800 -.14775E+01
 1290.400 -.35024E+00
 1291.000 -.46862E+00
 1291.600 -.49115E+00
 1292.200  .21299E+01
 1292.800 -.16428E+01
 1293.400  .93362E+00
 1294.000 -.24433E+00
 1294.600 -.25614E-01
 1295.300 -.63094E+00
 1295.900  .10375E+01
 1296.500 -.11119E+01
 1297.100  .21080E+01
 1297.700 -.17398E+01
 1298.300  .33276E+01
 1298.900  .44487E+00
 1299.500  .95714E+00
 1300.100  .19564E+01
 1300.700 -.35106E+00
 1301.300 -.22770E+00
 1301.900  .48070E+00
 1302.500 -.80961E+00
 1303.100 -.49105E+00
 1303.700 -.10026E+01
 1304.300 -.97709E+00
 1304.900  .16915E+01
 1305.500 -.53404E+00
 1306.100 -.45902E+00
 1306.700 -.10709E+01
 1307.300  .42809E+00
 1308.000 -.20068E+01
 1308.600 -.70273E+00
 1309.200  .14900E+01
 1309.800 -.16858E+01
 1310.400  .46052E+00
 1311.000  .15737E+01
 1311.600  .16871E+00
 1312.200 -.89250E+00
 1312.800 -.27260E+00
 1313.400  .14877E+01
 1314.000 -.21532E+01
 1314.600  .40246E+00
 1315.200  .15222E+01
 1315.800 -.12830E+01
 1316.400 -.10583E+01
 1317.000  .71039E+00
 1317.600  .28807E+01
 1318.200 -.23212E+00
 1318.800 -.60475E+00
 1319.400 -.16275E+01
 1320.000 -.10183E+00
 1320.600 -.12497E+00
 1321.200  .55305E+00
 1321.800 -.37188E+00
 1322.400  .10095E+01
 1323.000 -.17745E+01
 1323.600  .10151E+01
 1324.300  .83577E-01
 1324.900 -.34233E+00
 1325.500  .25567E+01
 1326.100  .13253E+01
 1326.700  .94983E+00
 1327.300 -.58812E+00
 1327.900 -.30856E+00
 1328.500 -.13441E+01
 1329.100  .80904E+00
 1329.700  .93842E+00
 1330.300 -.96110E+00
 1330.900 -.12899E+01
 1331.500  .87054E+00
 1332.100 -.42354E+00
 1332.700  .77419E+00
 1333.300 -.14391E+01
 1333.900  .26966E+00
 1334.500  .15220E+01
 1335.100 -.18197E+01
 1335.700  .10175E+01
 1336.300  .58551E+00
 1336.900  .40882E+00
 1337.500 -.17807E+00
 1338.100 -.40697E+00
 1338.700  .13654E+01
 1339.300  .88054E+00
 1339.900  .13717E+01
 1340.500  .42298E+00
 1341.100 -.83626E+00
 1341.700  .22158E+00
 1342.300  .35274E+00
 1342.900 -.23861E+00
 1343.500  .71903E+00
 1344.100  .27641E+01
 1344.700 -.17080E+01
 1345.300 -.90458E+00
 1345.900  .12479E+01
 1346.500  .13557E+00
 1347.100 -.12382E+01
 1347.700  .65953E+00
 1348.300  .28724E+01
 1348.900  .56061E+00
 1349.500  .17352E+01
 1350.100 -.14677E+01
 1350.700  .29423E+01
 1351.300  .88398E+00
 1351.900 -.12300E+01
 1352.500  .68031E+00
 1353.100  .22273E+01
 1353.700  .37117E+00
 1354.300  .19729E+01
 1354.900  .33148E+01
 1355.500  .45539E+01
 1356.100  .31141E+01
 1356.700  .93667E-01
 1357.300 -.13522E+01
 1357.900  .20334E+00
 1358.500  .18669E+01
 1359.100  .12107E+01
 1359.700 -.14540E+01
 1360.300  .10053E+01
 1360.900  .39976E+00
 1361.500  .13818E+01
 1362.100  .56357E+00
 1362.700  .30326E+01
 1363.300  .13119E+01
 1363.900  .17666E+01
 1364.500  .12118E+01
 1365.100  .24122E+01
 1365.700  .15908E+01
 1366.300  .27935E+01
 1366.900  .13308E+01
 1367.500  .13607E+01
 1368.100  .22455E+01
 1368.700  .45757E+01
 1369.300  .24140E+01
 1369.900  .46409E+01
 1370.500  .23685E+01
 1371.100  .11117E+01
 1371.700  .22692E+01
 1372.300  .36434E+01
 1372.900  .59341E+01
 1373.500  .28462E+01
 1374.100  .34162E+01
 1374.700  .22081E+01
 1375.300  .37497E+01
 1375.900 -.10780E+01
 1376.500  .19226E+01
 1377.100  .39545E+01
 1377.700  .13886E+01
 1378.300  .37484E+01
 1378.900  .22084E+01
 1379.500  .29991E+01
 1380.100  .36824E+01
 1380.700  .30625E+01
 1381.300  .24416E+01
 1381.900  .11665E+01
 1382.500  .17416E+01
 1383.100  .60252E+01
 1383.700  .71189E+00
 1384.300  .36363E+01
 1384.900  .22477E+01
 1385.500  .38105E+01
 1386.100  .55854E+00
 1386.700  .34374E+01
 1387.300  .54437E+01
 1387.900  .58617E+01
 1388.500  .17222E+01
 1389.100  .25227E+01
 1389.700  .36545E+01
 1390.300  .47882E+01
 1390.900  .13507E+01
 1391.500  .34217E+01
 1392.100  .24057E+01
 1392.700  .34315E+01
 1393.300  .63381E+01
 1393.900  .45476E+01
 1394.500  .36400E+01
 1395.100  .30633E+01
 1395.700  .35947E+01
 1396.300  .57916E+01
 1396.900  .38269E+01
 1397.500  .60275E+01
 1398.100  .43936E+01
 1398.700  .54848E+01
 1399.300  .21765E+01
 1399.900  .43828E+01
 1400.500  .49186E+01
 1401.100  .45617E+01
 1401.700  .66633E+01
 1402.300  .41818E+01
 1402.800  .20361E+01
 1403.400  .48687E+01
 1404.000  .29407E+01
 1404.600  .46564E+01
 1405.200  .14338E+01
 1405.800  .46120E+01
 1406.400  .56020E+01
 1407.000  .41735E+01
 1407.600  .13345E+01
 1408.200  .16478E+01
 1408.800  .55158E+01
 1409.400  .75831E+01
 1410.000  .46813E+01
 1410.600  .48286E+01
 1411.200  .22597E+01
 1411.800  .65398E+01
 1412.400  .53285E+01
 1413.000  .45124E+01
 1413.600  .42627E+01
 1414.200  .93533E+01
 1414.800  .39327E+01
 1415.400  .64703E+01
 1416.000  .47976E+01
 1416.600  .76819E+01
 1417.200  .62356E+01
 1417.800  .75842E+01
 1418.400  .37933E+01
 1419.000  .67430E+01
 1419.500  .73548E+01
 1420.100  .55592E+01
 1420.700  .65686E+01
 1421.300  .55724E+01
 1421.900  .54929E+01
 1422.500  .71364E+01
 1423.100  .51611E+01
 1423.700  .65768E+01
 1424.300  .59797E+01
 1424.900  .42870E+01
 1425.500  .65125E+01
 1426.100  .45867E+01
 1426.700  .64694E+01
 1427.300  .70258E+01
 1427.900  .71781E+01
 1428.500  .65782E+01
 1429.100  .70780E+01
 1429.700  .71148E+01
 1430.300  .61652E+01
 1430.900  .57368E+01
 1431.500  .58307E+01
