300, 25.693579850731382
300.5, 25.72229175959893
301, 25.72229175959893
301.5, 25.779715577334073
302, 25.779715577334073
302.5, 25.808427486201637
303, 25.808427486201637
303.5, 25.837139395069215
304, 25.837139395069215
304.5, 25.86585130393678
305, 25.86585130393678
305.5, 25.86585130393678
306, 25.86585130393678
306.5, 25.86585130393678
307, 25.894563212804343
307.5, 25.894563212804343
308, 25.951987030539485
308.5, 25.951987030539485
309, 25.951987030539485
309.5, 25.98069893940705
310, 25.98069893940705
310.5, 25.98069893940705
311, 25.98069893940705
311.5, 26.009410848274626
312, 26.009410848274626
312.5, 26.009410848274626
313, 26.06683466600977
313.5, 26.06683466600977
314, 26.124258483744896
314.5, 26.124258483744896
315, 26.124258483744896
315.5, 26.124258483744896
316, 26.124258483744896
316.5, 26.124258483744896
317, 26.181682301480038
317.5, 26.239106119215194
318, 26.239106119215194
318.5, 26.267818028082743
319, 26.267818028082743
319.5, 26.267818028082743
320, 26.267818028082743
320.5, 26.296529936950307
321, 26.296529936950307
321.5, 26.296529936950307
322, 26.325241845817885
322.5, 26.325241845817885
323, 26.35395375468545
323.5, 26.35395375468545
324, 26.41137757242059
324.5, 26.41137757242059
325, 26.440089481288155
325.5, 26.440089481288155
326, 26.440089481288155
326.5, 26.497513299023296
327, 26.497513299023296
327.5, 26.52622520789086
328, 26.52622520789086
328.5, 26.52622520789086
329, 26.52622520789086
329.5, 26.55493711675844
330, 26.583649025626002
330.5, 26.583649025626002
331, 26.612360934493566
331.5, 26.612360934493566
332, 26.641072843361144
332.5, 26.641072843361144
333, 26.669784752228708
333.5, 26.669784752228708
334, 26.6984966610963
334.5, 26.72720856996385
335, 26.72720856996385
335.5, 26.755920478831413
336, 26.755920478831413
336.5, 26.813344296566555
337, 26.813344296566555
337.5, 26.84205620543412
338, 26.89948002316926
338.5, 26.89948002316926
339, 26.956903840904403
339.5, 26.956903840904403
340, 26.985615749771966
340.5, 26.985615749771966
341, 27.01432765863956
341.5, 27.01432765863956
342, 27.01432765863956
342.5, 27.04303956750711
343, 27.04303956750711
343.5, 27.04303956750711
344, 27.04303956750711
344.5, 27.100463385242264
345, 27.100463385242264
345.5, 27.129175294109814
346, 27.129175294109814
346.5, 27.21531102071252
347, 27.301446747315225
347.5, 27.301446747315225
348, 27.301446747315225
348.5, 27.301446747315225
349, 27.330158656182817
349.5, 27.330158656182817
350, 27.38758247391793
350.5, 27.38758247391793
351, 27.38758247391793
351.5, 27.41629438278551
352, 27.41629438278551
352.5, 27.47371820052065
353, 27.47371820052065
353.5, 27.502430109388214
354, 27.502430109388214
354.5, 27.53114201825578
355, 27.55985392712337
355.5, 27.55985392712337
356, 27.58856583599092
356.5, 27.58856583599092
357, 27.645989653726076
357.5, 27.645989653726076
358, 27.674701562593626
358.5, 27.674701562593626
359, 27.732125380328768
359.5, 27.76083728919633
360, 27.76083728919633
360.5, 27.78954919806391
361, 27.78954919806391
361.5, 27.78954919806391
362, 27.78954919806391
362.5, 27.87568492466663
363, 27.87568492466663
363.5, 27.90439683353418
364, 27.96182065126932
364.5, 27.96182065126932
365, 28.047956377872026
365.5, 28.047956377872026
366, 28.047956377872026
366.5, 28.047956377872026
367, 28.07666828673959
367.5, 28.134092104474732
368, 28.134092104474732
368.5, 28.191515922209888
369, 28.191515922209888
369.5, 28.27765164881258
370, 28.27765164881258
370.5, 28.33507546654772
371, 28.33507546654772
371.5, 28.39249928428285
372, 28.42121119315044
372.5, 28.42121119315044
373, 28.478635010885554
373.5, 28.478635010885554
374, 28.536058828620696
374.5, 28.536058828620696
375, 28.56477073748826
375.5, 28.56477073748826
376, 28.56477073748826
376.5, 28.593482646355838
377, 28.593482646355838
377.5, 28.622194555223402
378, 28.622194555223402
378.5, 28.708330281826107
379, 28.708330281826107
379.5, 28.76575409956125
380, 28.82317791729639
380.5, 28.82317791729639
381, 28.851889826163955
381.5, 28.851889826163955
382, 28.93802555276666
382.5, 28.93802555276666
383, 29.024161279369366
383.5, 29.024161279369366
384, 29.024161279369366
384.5, 29.081585097104508
385, 29.081585097104508
385.5, 29.13900891483965
386, 29.13900891483965
386.5, 29.19643273257479
387, 29.19643273257479
387.5, 29.25385655030992
388, 29.25385655030992
388.5, 29.339992276912625
389, 29.397416094647767
389.5, 29.397416094647767
390, 29.45483991238291
390.5, 29.45483991238291
391, 29.51226373011805
391.5, 29.51226373011805
392, 29.62711136558832
392.5, 29.62711136558832
393, 29.655823274455884
393.5, 29.741959001058603
394, 29.741959001058603
394.5, 29.79938281879373
395, 29.79938281879373
395.5, 29.828094727661323
396, 29.828094727661323
396.5, 29.91423045426403
397, 29.94294236313158
397.5, 29.94294236313158
398, 30.00036618086672
398.5, 30.00036618086672
399, 30.086501907469426
399.5, 30.086501907469426
400, 30.11521381633699
400.5, 30.11521381633699
401, 30.201349542939695
401.5, 30.258773360674837
402, 30.258773360674837
402.5, 30.31619717840998
403, 30.31619717840998
403.5, 30.402332905012685
404, 30.402332905012685
404.5, 30.45975672274784
405, 30.45975672274784
405.5, 30.48846863161539
406, 30.545892449350532
406.5, 30.545892449350532
407, 30.603316267085674
407.5, 30.603316267085674
408, 30.689451993688394
408.5, 30.689451993688394
409, 30.718163902555943
409.5, 30.775587720291085
410, 30.775587720291085
410.5, 30.890435355761355
411, 30.890435355761355
411.5, 30.919147264628933
412, 30.919147264628933
412.5, 31.005282991231653
413, 31.005282991231653
413.5, 31.091418717834344
414, 31.206266353304613
414.5, 31.206266353304613
415, 31.32111398877491
415.5, 31.32111398877491
416, 31.378537806510025
416.5, 31.378537806510025
417, 31.464673533112745
417.5, 31.464673533112745
418, 31.49338544198031
418.5, 31.608233077450578
419, 31.608233077450578
419.5, 31.66565689518572
420, 31.66565689518572
420.5, 31.72308071292086
421, 31.72308071292086
421.5, 31.83792834839113
422, 31.83792834839113
422.5, 31.924064074993836
423, 31.98148789272898
423.5, 31.98148789272898
424, 32.096335528199276
424.5, 32.096335528199276
425, 32.18247125480198
425.5, 32.18247125480198
426, 32.29731889027224
426.5, 32.35474270800738
427, 32.35474270800738
427.5, 32.440878434610084
428, 32.440878434610084
428.5, 32.58443797894793
429, 32.58443797894793
429.5, 32.64186179668309
430, 32.64186179668309
430.5, 32.78542134102091
431, 32.87155706762363
431.5, 32.87155706762363
432, 33.01511661196146
432.5, 33.01511661196146
433, 33.101252338564166
433.5, 33.101252338564166
434, 33.187388065166886
434.5, 33.187388065166886
435, 33.302235700637155
435.5, 33.3596595183723
436, 33.3596595183723
436.5, 33.50321906271016
437, 33.50321906271016
437.5, 33.618066698180414
438, 33.618066698180414
438.5, 33.70420242478312
439, 33.790338151385825
439.5, 33.790338151385825
440, 33.84776196912097
440.5, 33.84776196912097
441, 33.90518578685611
441.5, 33.90518578685611
442, 34.02003342232638
442.5, 34.02003342232638
443, 34.106169148929084
443.5, 34.24972869326693
444, 34.24972869326693
444.5, 34.39328823760478
445, 34.39328823760478
445.5, 34.50813587307505
446, 34.50813587307505
446.5, 34.59427159967777
447, 34.59427159967777
447.5, 34.68040732628049
448, 34.79525496175074
448.5, 34.79525496175074
449, 34.91010259722104
449.5, 34.91010259722104
450, 35.024950232691296
450.5, 35.024950232691296
451, 35.13979786816158
451.5, 35.25464550363185
452, 35.25464550363185
452.5, 35.36949313910212
453, 35.36949313910212
453.5, 35.4843407745724
454, 35.4843407745724
454.5, 35.65661222777781
455, 35.65661222777781
455.5, 35.77145986324811
456, 35.77145986324811
456.5, 35.77145986324811
457, 35.77145986324811
457.5, 35.77145986324811
458, 35.828883680983225
458.5, 35.828883680983225
459, 36.029867043056214
459.5, 36.029867043056214
460, 36.08729086079137
460.5, 36.17342658739405
461, 36.17342658739405
461.5, 36.34569804059947
462, 36.34569804059947
462.5, 36.48925758493732
463, 36.48925758493732
463.5, 36.575393311540026
464, 36.575393311540026
464.5, 36.74766476474544
465, 36.862512400215714
465.5, 36.862512400215714
466, 37.03478385342113
466.5, 37.03478385342113
467, 37.09220767115627
467.5, 37.09220767115627
468, 37.235767215494114
468.5, 37.32190294209682
469, 37.32190294209682
469.5, 37.408038668699525
470, 37.408038668699525
470.5, 37.49417439530223
471, 37.49417439530223
471.5, 37.55159821303737
472, 37.55159821303737
472.5, 37.69515775737521
473, 37.86742921058063
473.5, 37.86742921058063
474, 37.95356493718334
474.5, 37.95356493718334
475, 38.068412572653614
475.5, 38.068412572653614
476, 38.269395934726596
476.5, 38.269395934726596
477, 38.38424357019687
477.5, 38.47037929679958
478, 38.47037929679958
478.5, 38.585226932269855
479, 38.585226932269855
479.5, 38.642650750005
480, 38.642650750005
480.5, 38.87234602094555
481, 39.01590556528339
481.5, 39.01590556528339
482, 39.15946510962124
482.5, 39.15946510962124
483, 39.21688892735637
483.5, 39.21688892735637
484, 39.303024653959085
484.5, 39.303024653959085
485, 39.36044847169422
485.5, 39.41787228942936
486, 39.41787228942936
486.5, 39.50400801603207
487, 39.50400801603207
487.5, 39.59014374263477
488, 39.59014374263477
488.5, 39.64756756036991
489, 39.64756756036991
489.5, 39.70499137810505
490, 39.73370328697262
490.5, 39.73370328697262
491, 39.791127104707755
491.5, 39.791127104707755
492, 39.8485509224429
492.5, 39.8485509224429
493, 39.90597474017803
493.5, 39.963398557913166
494, 39.963398557913166
494.5, 39.9346866490456
495, 39.9346866490456
495.5, 39.9346866490456
496, 39.9346866490456
496.5, 39.9346866490456
497, 39.9346866490456
497.5, 39.90597474017803
498, 39.87726283131046
498.5, 39.87726283131046
499, 39.8485509224429
499.5, 39.8485509224429
500, 39.819839013575326
500.5, 39.819839013575326
501, 39.762415195840184
501.5, 39.762415195840184
502, 39.70499137810505
502.5, 39.59014374263477
503, 39.59014374263477
503.5, 39.50400801603207
504, 39.50400801603207
504.5, 39.33173656282665
505, 39.33173656282665
505.5, 39.21688892735637
506, 39.21688892735637
506.5, 39.07332938301853
507, 38.958481747548255
507.5, 38.958481747548255
508, 38.7287864766077
508.5, 38.7287864766077
509, 38.613938841137426
509.5, 38.613938841137426
510, 38.49909120566715
510.5, 38.21197211699146
511, 38.21197211699146
511.5, 37.95356493718334
512, 37.95356493718334
512.5, 37.81000539284549
513, 37.81000539284549
513.5, 37.66644584850765
514, 37.66644584850765
514.5, 37.32190294209682
515, 37.20705530662654
515.5, 37.20705530662654
516, 37.09220767115627
516.5, 37.09220767115627
517, 36.83380049134814
517.5, 36.83380049134814
518, 36.63281712927516
518.5, 36.63281712927516
519, 36.46054567606975
519.5, 36.28827422286433
520, 36.28827422286433
520.5, 36.08729086079137
521, 36.08729086079137
521.5, 35.8575955898508
522, 35.8575955898508
522.5, 35.68532413664539
523, 35.4843407745724
523.5, 35.4843407745724
524, 35.28335741249941
524.5, 35.28335741249941
525, 35.13979786816158
525.5, 35.13979786816158
526, 34.996238323823746
526.5, 34.996238323823746
527, 34.852678779485885
527.5, 34.68040732628049
528, 34.68040732628049
528.5, 34.536847781942626
529, 34.536847781942626
529.5, 34.42200014647234
530, 34.42200014647234
530.5, 34.27844060213451
531, 34.27844060213451
531.5, 34.04874533119397
532, 33.93389769572367
532.5, 33.93389769572367
533, 33.90518578685611
533.5, 33.90518578685611
534, 33.790338151385825
534.5, 33.790338151385825
535, 33.589354789312864
535.5, 33.589354789312864
536, 33.53193097157771
536.5, 33.474507153842566
537, 33.474507153842566
537.5, 33.33094760950472
538, 33.33094760950472
538.5, 33.302235700637155
539, 33.302235700637155
539.5, 33.24481188290201
540, 33.0725404296966
540.5, 33.0725404296966
541, 33.04382852082904
541.5, 33.04382852082904
542, 33.01511661196146
542.5, 33.01511661196146
543, 32.95769279422635
543.5, 32.95769279422635
544, 32.90026897649119
544.5, 32.90026897649119
545, 32.90026897649119
545.5, 32.84284515875605
546, 32.84284515875605
546.5, 32.84284515875605
547, 32.84284515875605
547.5, 32.814133249888485
548, 32.814133249888485
548.5, 32.78542134102091
549, 32.814133249888485
549.5, 32.814133249888485
550, 32.814133249888485
550.5, 32.814133249888485
551, 32.814133249888485
551.5, 32.814133249888485
552, 32.84284515875605
552.5, 32.87155706762363
553, 32.87155706762363
553.5, 32.95769279422635
554, 32.95769279422635
554.5, 33.04382852082904
555, 33.04382852082904
555.5, 33.04382852082904
556, 33.04382852082904
556.5, 33.129964247431744
557, 33.21609997403445
557.5, 33.21609997403445
558, 33.21609997403445
558.5, 33.21609997403445
559, 33.302235700637155
559.5, 33.302235700637155
560, 33.3596595183723
560.5, 33.3596595183723
561, 33.474507153842566
561.5, 33.56064288044527
562, 33.56064288044527
562.5, 33.675490515915556
563, 33.675490515915556
563.5, 33.76162624251826
564, 33.76162624251826
564.5, 33.84776196912097
565, 33.962609604591236
565.5, 33.962609604591236
566, 34.04874533119397
566.5, 34.04874533119397
567, 34.106169148929084
567.5, 34.106169148929084
568, 34.163592966664226
568.5, 34.163592966664226
569, 34.22101678439937
569.5, 34.19230487553179
570, 34.19230487553179
570.5, 34.134881057796676
571, 34.134881057796676
571.5, 34.19230487553179
572, 34.19230487553179
572.5, 34.19230487553179
573, 34.19230487553179
573.5, 34.22101678439937
574, 34.24972869326693
574.5, 34.24972869326693
575, 34.24972869326693
575.5, 34.24972869326693
576, 34.19230487553179
576.5, 34.19230487553179
577, 34.134881057796676
577.5, 34.134881057796676
578, 34.106169148929084
578.5, 34.04874533119397
579, 34.04874533119397
579.5, 33.93389769572367
580, 33.93389769572367
580.5, 33.81905006025342
581, 33.81905006025342
581.5, 33.76162624251826
582, 33.64677860704798
582.5, 33.64677860704798
583, 33.56064288044527
583.5, 33.56064288044527
584, 33.445795244975
584.5, 33.445795244975
585, 33.302235700637155
585.5, 33.302235700637155
586, 33.21609997403445
586.5, 33.15867615629931
587, 33.15867615629931
587.5, 33.129964247431744
588, 33.129964247431744
588.5, 33.01511661196146
589, 33.01511661196146
589.5, 32.90026897649119
590, 32.90026897649119
590.5, 32.78542134102091
591, 32.67057370555064
591.5, 32.67057370555064
592, 32.52701416121279
592.5, 32.52701416121279
593, 32.35474270800738
593.5, 32.35474270800738
594, 32.21118316366953
594.5, 32.067623619331684
595, 32.067623619331684
595.5, 31.952775983861414
596, 31.952775983861414
596.5, 31.83792834839113
597, 31.83792834839113
597.5, 31.694368804053283
598, 31.694368804053283
598.5, 31.522097350847872
599, 31.435961624245166
599.5, 31.435961624245166
600, 31.34982589764246
600.5, 31.34982589764246
601, 31.148842535569486
601.5, 31.148842535569486
602, 31.005282991231653
602.5, 31.005282991231653
603, 30.919147264628933
603.5, 30.775587720291085
604, 30.775587720291085
604.5, 30.689451993688394
605, 30.689451993688394
605.5, 30.574604358218096
606, 30.574604358218096
606.5, 30.48846863161539
607, 30.48846863161539
607.5, 30.373620996145135
608, 30.258773360674837
608.5, 30.258773360674837
609, 30.143925725204582
609.5, 30.143925725204582
610, 30.086501907469426
610.5, 30.086501907469426
611, 29.971654271999142
611.5, 29.91423045426403
612, 29.91423045426403
612.5, 29.856806636528873
613, 29.856806636528873
613.5, 29.828094727661323
614, 29.828094727661323
614.5, 29.713247092191025
615, 29.713247092191025
615.5, 29.655823274455884
616, 29.540975638985614
616.5, 29.540975638985614
617, 29.483551821250472
617.5, 29.483551821250472
618, 29.45483991238291
618.5, 29.45483991238291
619, 29.397416094647767
619.5, 29.397416094647767
620, 29.339992276912625
620.5, 29.28256845917751
621, 29.28256845917751
621.5, 29.225144641442355
622, 29.225144641442355
622.5, 29.225144641442355
623, 29.225144641442355
623.5, 29.19643273257479
624, 29.167720823707214
624.5, 29.167720823707214
625, 29.110297005972072
625.5, 29.110297005972072
626, 29.081585097104508
626.5, 29.081585097104508
627, 29.05287318823696
627.5, 29.05287318823696
628, 29.024161279369366
628.5, 28.995449370501802
629, 28.995449370501802
629.5, 29.05287318823696
630, 29.05287318823696
630.5, 29.024161279369366
631, 29.024161279369366
631.5, 28.995449370501802
632, 28.995449370501802
632.5, 28.909313643899097
633, 28.880601735031533
633.5, 28.880601735031533
634, 28.851889826163955
634.5, 28.851889826163955
635, 28.82317791729639
635.5, 28.82317791729639
636, 28.794466008428813
636.5, 28.76575409956125
637, 28.76575409956125
637.5, 28.76575409956125
638, 28.76575409956125
638.5, 28.794466008428813
639, 28.794466008428813
639.5, 28.7370421906937
640, 28.7370421906937
640.5, 28.708330281826107
641, 28.76575409956125
641.5, 28.76575409956125
642, 28.794466008428813
642.5, 28.794466008428813
643, 28.82317791729639
643.5, 28.82317791729639
644, 28.794466008428813
644.5, 28.794466008428813
645, 28.794466008428813
645.5, 28.76575409956125
646, 28.76575409956125
646.5, 28.76575409956125
647, 28.76575409956125
647.5, 28.76575409956125
648, 28.76575409956125
648.5, 28.7370421906937
649, 28.7370421906937
649.5, 28.76575409956125
650, 28.82317791729639
650.5, 28.82317791729639
651, 28.82317791729639
651.5, 28.82317791729639
652, 28.851889826163955
652.5, 28.851889826163955
653, 28.851889826163955
653.5, 28.82317791729639
654, 28.82317791729639
654.5, 28.851889826163955
655, 28.851889826163955
655.5, 28.880601735031533
656, 28.880601735031533
656.5, 28.794466008428813
657, 28.794466008428813
657.5, 28.794466008428813
658, 28.82317791729639
658.5, 28.82317791729639
659, 28.851889826163955
659.5, 28.851889826163955
660, 28.851889826163955
660.5, 28.851889826163955
661, 28.82317791729639
661.5, 28.82317791729639
662, 28.851889826163955
662.5, 28.851889826163955
663, 28.851889826163955
663.5, 28.880601735031533
664, 28.880601735031533
664.5, 28.93802555276666
665, 28.93802555276666
665.5, 28.93802555276666
666, 28.909313643899097
666.5, 28.909313643899097
667, 28.909313643899097
667.5, 28.909313643899097
668, 28.880601735031533
668.5, 28.880601735031533
669, 28.851889826163955
669.5, 28.851889826163955
670, 28.76575409956125
670.5, 28.708330281826107
671, 28.708330281826107
671.5, 28.65090646409098
672, 28.65090646409098
672.5, 28.593482646355838
673, 28.593482646355838
673.5, 28.622194555223402
674, 28.622194555223402
674.5, 28.65090646409098
675, 28.679618372958544
675.5, 28.679618372958544
676, 28.7370421906937
676.5, 28.7370421906937
677, 28.794466008428813
677.5, 28.794466008428813
678, 28.76575409956125
678.5, 28.794466008428813
679, 28.794466008428813
679.5, 28.794466008428813
680, 28.794466008428813
680.5, 28.76575409956125
681, 28.76575409956125
681.5, 28.76575409956125
682, 28.76575409956125
682.5, 28.76575409956125
683, 28.76575409956125
683.5, 28.76575409956125
684, 28.76575409956125
684.5, 28.76575409956125
685, 28.7370421906937
685.5, 28.7370421906937
686, 28.708330281826107
686.5, 28.708330281826107
687, 28.708330281826107
687.5, 28.7370421906937
688, 28.7370421906937
688.5, 28.7370421906937
689, 28.7370421906937
689.5, 28.7370421906937
690, 28.7370421906937
690.5, 28.7370421906937
691, 28.7370421906937
691.5, 28.7370421906937
692, 28.679618372958544
692.5, 28.679618372958544
693, 28.622194555223402
693.5, 28.622194555223402
694, 28.622194555223402
694.5, 28.622194555223402
695, 28.622194555223402
695.5, 28.622194555223402
696, 28.622194555223402
696.5, 28.679618372958544
697, 28.679618372958544
697.5, 28.708330281826107
698, 28.708330281826107
698.5, 28.7370421906937
699, 28.7370421906937
699.5, 28.708330281826107
700, 28.708330281826107
700.5, 28.708330281826107
701, 28.679618372958544
701.5, 28.679618372958544
702, 28.65090646409098
702.5, 28.65090646409098
703, 28.65090646409098
703.5, 28.65090646409098
704, 28.65090646409098
704.5, 28.679618372958544
705, 28.679618372958544
705.5, 28.65090646409098
706, 28.65090646409098
706.5, 28.536058828620696
707, 28.536058828620696
707.5, 28.679618372958544
708, 28.708330281826107
708.5, 28.708330281826107
709, 28.708330281826107
709.5, 28.708330281826107
710, 28.708330281826107
710.5, 28.708330281826107
711, 28.708330281826107
711.5, 28.708330281826107
712, 28.679618372958544
712.5, 28.679618372958544
713, 28.679618372958544
713.5, 28.679618372958544
714, 28.679618372958544
714.5, 28.65090646409098
715, 28.65090646409098
715.5, 28.65090646409098
716, 28.65090646409098
716.5, 28.65090646409098
717, 28.65090646409098
717.5, 28.65090646409098
718, 28.65090646409098
718.5, 28.65090646409098
719, 28.622194555223402
719.5, 28.622194555223402
720, 28.622194555223402
720.5, 28.622194555223402
721, 28.593482646355838
721.5, 28.56477073748826
722, 28.56477073748826
722.5, 28.622194555223402
723, 28.622194555223402
723.5, 28.622194555223402
724, 28.622194555223402
724.5, 28.65090646409098
725, 28.679618372958544
725.5, 28.679618372958544
726, 28.65090646409098
726.5, 28.65090646409098
727, 28.622194555223402
727.5, 28.622194555223402
728, 28.708330281826107
728.5, 28.708330281826107
729, 28.7370421906937
729.5, 28.7370421906937
730, 28.7370421906937
730.5, 28.76575409956125
731, 28.76575409956125
731.5, 28.7370421906937
732, 28.7370421906937
732.5, 28.708330281826107
733, 28.708330281826107
733.5, 28.708330281826107
734, 28.679618372958544
734.5, 28.679618372958544
735, 28.622194555223402
735.5, 28.622194555223402
736, 28.622194555223402
736.5, 28.622194555223402
737, 28.622194555223402
737.5, 28.622194555223402
738, 28.622194555223402
738.5, 28.65090646409098
739, 28.65090646409098
739.5, 28.622194555223402
740, 28.622194555223402
740.5, 28.593482646355838
741, 28.593482646355838
741.5, 28.622194555223402
742, 28.679618372958544
742.5, 28.679618372958544
743, 28.76575409956125
743.5, 28.76575409956125
744, 28.794466008428813
744.5, 28.794466008428813
745, 28.794466008428813
745.5, 28.794466008428813
746, 28.76575409956125
746.5, 28.76575409956125
747, 28.76575409956125
747.5, 28.76575409956125
748, 28.76575409956125
748.5, 28.794466008428813
749, 28.794466008428813
749.5, 28.76575409956125
750, 28.7370421906937
750.5, 28.7370421906937
751, 28.679618372958544
751.5, 28.679618372958544
752, 28.56477073748826
752.5, 28.56477073748826
753, 28.536058828620696
753.5, 28.536058828620696
754, 28.56477073748826
754.5, 28.593482646355838
755, 28.593482646355838
755.5, 28.593482646355838
756, 28.593482646355838
756.5, 28.622194555223402
757, 28.622194555223402
757.5, 28.65090646409098
758, 28.65090646409098
758.5, 28.65090646409098
759, 28.708330281826107
759.5, 28.708330281826107
760, 28.76575409956125
760.5, 28.76575409956125
761, 28.76575409956125
761.5, 28.76575409956125
762, 28.76575409956125
762.5, 28.76575409956125
763, 28.76575409956125
763.5, 28.794466008428813
764, 28.794466008428813
764.5, 28.851889826163955
765, 28.851889826163955
765.5, 28.82317791729639
766, 28.82317791729639
766.5, 28.794466008428813
767, 28.794466008428813
767.5, 28.794466008428813
768, 28.7370421906937
768.5, 28.7370421906937
769, 28.76575409956125
769.5, 28.76575409956125
770, 28.794466008428813
770.5, 28.794466008428813
771, 28.851889826163955
771.5, 28.851889826163955
772, 28.851889826163955
772.5, 28.82317791729639
773, 28.82317791729639
773.5, 28.82317791729639
774, 28.82317791729639
774.5, 28.851889826163955
775, 28.851889826163955
775.5, 28.880601735031533
776, 28.851889826163955
776.5, 28.851889826163955
777, 28.851889826163955
777.5, 28.851889826163955
778, 28.851889826163955
778.5, 28.851889826163955
779, 28.82317791729639
779.5, 28.794466008428813
780, 28.794466008428813
780.5, 28.708330281826107
781, 28.708330281826107
781.5, 28.622194555223402
782, 28.622194555223402
782.5, 28.622194555223402
783, 28.622194555223402
783.5, 28.622194555223402
784, 28.65090646409098
784.5, 28.65090646409098
785, 28.622194555223402
785.5, 28.622194555223402
786, 28.622194555223402
786.5, 28.622194555223402
787, 28.593482646355838
787.5, 28.593482646355838
788, 28.56477073748826
788.5, 28.507346919753147
789, 28.507346919753147
789.5, 28.507346919753147
790, 28.507346919753147
790.5, 28.507346919753147
791, 28.507346919753147
791.5, 28.507346919753147
792, 28.44992310201799
792.5, 28.44992310201799
793, 28.42121119315044
793.5, 28.42121119315044
794, 28.33507546654772
794.5, 28.33507546654772
795, 28.248939739945
795.5, 28.248939739945
796, 28.134092104474732
796.5, 28.047956377872026
797, 28.047956377872026
797.5, 28.019244469004448
798, 28.019244469004448
798.5, 27.990532560136884
799, 27.990532560136884
799.5, 27.933108742401743
800, 27.933108742401743
800.5, 27.90439683353418
801, 27.674701562593626
801.5, 27.674701562593626
802, 27.674701562593626
802.5, 27.674701562593626
803, 27.645989653726076
803.5, 27.645989653726076
804, 27.58856583599092
804.5, 27.58856583599092
805, 27.55985392712337
805.5, 27.502430109388214
806, 27.502430109388214
806.5, 27.47371820052065
807, 27.47371820052065
807.5, 27.330158656182817
808, 27.330158656182817
808.5, 27.301446747315225
809, 27.21531102071252
809.5, 27.21531102071252
810, 27.100463385242264
810.5, 27.100463385242264
811, 27.04303956750711
811.5, 27.04303956750711
812, 26.985615749771966
812.5, 26.985615749771966
813, 26.89948002316926
813.5, 26.84205620543412
814, 26.84205620543412
814.5, 26.72720856996385
815, 26.72720856996385
815.5, 26.612360934493566
816, 26.612360934493566
816.5, 26.52622520789086
817, 26.52622520789086
817.5, 26.497513299023296
818, 26.382665663553027
818.5, 26.382665663553027
819, 26.35395375468545
819.5, 26.35395375468545
820, 26.325241845817885
820.5, 26.325241845817885
821, 26.267818028082743
821.5, 26.2103942103476
822, 26.2103942103476
822.5, 26.152970392612488
823, 26.152970392612488
823.5, 26.03812275714219
824, 26.03812275714219
824.5, 26.009410848274626
825, 26.009410848274626
825.5, 25.923275121671935
826, 25.808427486201637
826.5, 25.808427486201637
827, 25.779715577334073
827.5, 25.779715577334073
828, 25.779715577334073
828.5, 25.779715577334073
829, 25.779715577334073
829.5, 25.779715577334073
830, 25.779715577334073
830.5, 25.779715577334073
831, 25.779715577334073
831.5, 25.808427486201637
832, 25.808427486201637
832.5, 25.894563212804343
833, 25.894563212804343
833.5, 25.923275121671935
834, 25.923275121671935
834.5, 25.894563212804343
835, 25.98069893940705
835.5, 25.98069893940705
836, 26.124258483744896
836.5, 26.124258483744896
837, 26.267818028082743
837.5, 26.267818028082743
838, 26.440089481288155
838.5, 26.55493711675844
839, 26.55493711675844
839.5, 26.612360934493566
840, 26.612360934493566
840.5, 26.612360934493566
841, 26.612360934493566
841.5, 26.583649025626002
842, 26.583649025626002
842.5, 26.468801390155747
843, 26.440089481288155
843.5, 26.440089481288155
844, 26.325241845817885
844.5, 26.325241845817885
845, 26.239106119215194
845.5, 26.239106119215194
846, 26.181682301480038
846.5, 26.181682301480038
847, 26.095546574877332
847.5, 26.095546574877332
848, 26.095546574877332
848.5, 26.124258483744896
849, 26.124258483744896
849.5, 26.181682301480038
850, 26.181682301480038
850.5, 26.181682301480038
851, 26.124258483744896
851.5, 26.124258483744896
852, 26.06683466600977
852.5, 26.06683466600977
853, 26.009410848274626
853.5, 26.009410848274626
854, 25.951987030539485
854.5, 25.951987030539485
855, 25.894563212804343
855.5, 25.86585130393678
856, 25.86585130393678
856.5, 25.837139395069215
857, 25.837139395069215
857.5, 25.779715577334073
858, 25.779715577334073
858.5, 25.751003668466495
859, 25.751003668466495
859.5, 25.72229175959893
860, 25.751003668466495
860.5, 25.751003668466495
861, 25.751003668466495
861.5, 25.751003668466495
862, 25.751003668466495
862.5, 25.751003668466495
863, 25.72229175959893
863.5, 25.751003668466495
864, 25.751003668466495
864.5, 25.751003668466495
865, 25.751003668466495
865.5, 25.808427486201637
866, 25.808427486201637
866.5, 25.894563212804343
867, 25.894563212804343
867.5, 25.98069893940705
868, 26.009410848274626
868.5, 26.009410848274626
869, 25.951987030539485
869.5, 25.951987030539485
870, 25.98069893940705
870.5, 25.98069893940705
871, 26.009410848274626
871.5, 26.009410848274626
872, 26.03812275714219
872.5, 26.095546574877332
873, 26.095546574877332
873.5, 26.124258483744896
874, 26.124258483744896
874.5, 26.124258483744896
875, 26.124258483744896
875.5, 26.124258483744896
876, 26.124258483744896
876.5, 26.124258483744896
877, 26.2103942103476
877.5, 26.2103942103476
878, 26.267818028082743
878.5, 26.267818028082743
879, 26.296529936950307
879.5, 26.296529936950307
880, 26.267818028082743
880.5, 26.296529936950307
881, 26.296529936950307
881.5, 26.325241845817885
882, 26.325241845817885
882.5, 26.440089481288155
883, 26.440089481288155
883.5, 26.468801390155747
884, 26.468801390155747
884.5, 26.52622520789086
885, 26.583649025626002
885.5, 26.583649025626002
886, 26.55493711675844
886.5, 26.55493711675844
887, 26.55493711675844
887.5, 26.55493711675844
888, 26.612360934493566
888.5, 26.612360934493566
889, 26.6984966610963
889.5, 26.72720856996385
890, 26.72720856996385
890.5, 26.813344296566555
891, 26.813344296566555
891.5, 26.813344296566555
892, 26.813344296566555
892.5, 26.784632387699006
893, 26.84205620543412
893.5, 26.84205620543412
894, 26.92819193203684
894.5, 26.92819193203684
895, 26.92819193203684
895.5, 26.92819193203684
896, 26.92819193203684
896.5, 26.92819193203684
897, 26.956903840904403
897.5, 27.01432765863956
898, 27.01432765863956
898.5, 27.21531102071252
899, 27.21531102071252
899.5, 27.301446747315225
900, 27.301446747315225
900.5, 27.301446747315225
901, 27.301446747315225
901.5, 27.330158656182817
902, 27.330158656182817
902.5, 27.330158656182817
903, 27.330158656182817
903.5, 27.330158656182817
904, 27.41629438278551
904.5, 27.41629438278551
905, 27.55985392712337
905.5, 27.617277744858484
906, 27.617277744858484
906.5, 27.732125380328768
907, 27.732125380328768
907.5, 27.846973015799037
908, 27.846973015799037
908.5, 27.990532560136884
909, 27.990532560136884
909.5, 28.105380195607182
910, 28.220227831077437
910.5, 28.220227831077437
911, 28.33507546654772
911.5, 28.33507546654772
912, 28.507346919753147
912.5, 28.507346919753147
913, 28.708330281826107
913.5, 28.708330281826107
914, 28.966737461634253
914.5, 29.225144641442355
915, 29.225144641442355
915.5, 29.741959001058603
916, 29.741959001058603
916.5, 29.885518545396437
917, 29.885518545396437
917.5, 29.91423045426403
918, 29.91423045426403
918.5, 29.885518545396437
919, 29.885518545396437
919.5, 29.885518545396437
920, 29.885518545396437
920.5, 29.885518545396437
921, 29.94294236313158
921.5, 29.94294236313158
922, 30.11521381633699
922.5, 30.2874852695424
923, 30.2874852695424
923.5, 30.344909087277543
924, 30.344909087277543
924.5, 30.402332905012685
925, 30.402332905012685
925.5, 30.574604358218096
926, 30.574604358218096
926.5, 30.718163902555943
927, 30.833011538026213
927.5, 30.833011538026213
928, 31.005282991231653
928.5, 31.005282991231653
929, 31.120130626701908
929.5, 31.120130626701908
930, 31.378537806510025
930.5, 31.378537806510025
931, 31.435961624245166
931.5, 31.550809259715464
932, 31.550809259715464
932.5, 31.694368804053283
933, 31.694368804053283
933.5, 31.98148789272898
934, 31.98148789272898
934.5, 32.18247125480198
935, 32.26860698140467
935.5, 32.26860698140467
936, 32.498302252345226
936.5, 32.498302252345226
937, 32.6992856144182
937.5, 32.6992856144182
938, 32.75670943215334
938.5, 32.75670943215334
939, 33.101252338564166
939.5, 33.24481188290201
940, 33.24481188290201
940.5, 33.41708333610744
941, 33.41708333610744
941.5, 33.589354789312864
942, 33.589354789312864
942.5, 33.93389769572367
943, 33.93389769572367
943.5, 34.106169148929084
944, 34.163592966664226
944.5, 34.163592966664226
945, 34.24972869326693
945.5, 34.24972869326693
946, 34.36457632873723
946.5, 34.36457632873723
947, 34.62298350854533
947.5, 34.62298350854533
948, 34.852678779485885
948.5, 34.996238323823746
949, 34.996238323823746
949.5, 35.13979786816158
950, 35.13979786816158
950.5, 35.340781230234555
951, 35.340781230234555
951.5, 35.513052683439966
952, 35.59918841004267
952.5, 35.59918841004267
953, 35.80017177211566
953.5, 35.80017177211566
954, 36.00115513418865
954.5, 36.00115513418865
955, 36.14471467852648
955.5, 36.14471467852648
956, 36.43183376720218
956.5, 36.575393311540026
957, 36.575393311540026
957.5, 36.77637667361301
958, 36.77637667361301
958.5, 36.919936217950855
959, 36.919936217950855
959.5, 37.20705530662654
960, 37.20705530662654
960.5, 37.379326759831955
961, 37.60902203077251
961.5, 37.60902203077251
962, 37.752581575110355
962.5, 37.752581575110355
963, 37.81000539284549
963.5, 37.81000539284549
964, 37.86742921058063
964.5, 38.01098875491848
965, 38.01098875491848
965.5, 38.32681975246174
966, 38.32681975246174
966.5, 38.441667387932014
967, 38.441667387932014
967.5, 38.441667387932014
968, 38.441667387932014
968.5, 38.75749838547527
969, 39.07332938301853
969.5, 39.07332938301853
970, 39.21688892735637
970.5, 39.21688892735637
971, 39.446584198296925
971.5, 39.446584198296925
972, 39.64756756036991
972.5, 39.64756756036991
973, 39.762415195840184
973.5, 40.04953428451588
974, 40.04953428451588
974.5, 40.22180573772129
975, 40.22180573772129
975.5, 40.42278909979427
976, 40.42278909979427
976.5, 40.59506055299969
977, 40.824755823940244
977.5, 40.824755823940244
978, 40.91089155054295
978.5, 40.91089155054295
979, 41.11187491261593
979.5, 41.11187491261593
980, 41.39899400129162
980.5, 41.39899400129162
981, 41.57126545449704
981.5, 41.686113089967314
982, 41.686113089967314
982.5, 41.829672634305155
983, 41.829672634305155
983.5, 42.14550363184841
984, 42.14550363184841
984.5, 42.28906317618626
985, 42.28906317618626
985.5, 42.49004653825924
986, 42.6336060825971
986.5, 42.6336060825971
987, 43.006860897875484
987.5, 43.006860897875484
988, 43.12170853334576
988.5, 43.12170853334576
989, 43.23655616881604
989.5, 43.23655616881604
990, 43.32269189541874
990.5, 43.35140380428631
991, 43.35140380428631
991.5, 43.58109907522687
992, 43.58109907522687
992.5, 43.75337052843228
993, 43.75337052843228
993.5, 44.0117777082404
994, 44.241472979180955
994.5, 44.241472979180955
995, 44.49988015898908
995.5, 44.49988015898908
996, 44.67215161219449
996.5, 44.67215161219449
997, 44.8444230653999
997.5, 44.8444230653999
998, 45.102830245208025
998.5, 45.418661242751284
999, 45.418661242751284
999.5, 45.56222078708914
1000, 45.56222078708914
1000.5, 45.73449224029454
1001, 45.73449224029454
1001.5, 46.02161132897023
1002, 46.02161132897023
1002.5, 46.16517087330808
1003, 46.280018508778355
1003.5, 46.280018508778355
1004, 46.59584950632161
1004.5, 46.59584950632161
1005, 46.854256686129744
1005.5, 46.854256686129744
1006, 47.112663865937854
1006.5, 47.22751150140813
1007, 47.22751150140813
1007.5, 47.60076631668654
1008, 47.60076631668654
1008.5, 47.77303776989194
1009, 47.77303776989194
1009.5, 47.91659731422979
1010, 47.91659731422979
1010.5, 48.175004494037914
1011, 48.54825930931631
1011.5, 48.54825930931631
1012, 49.75415948175421
1012, 47.88788540536222
1012.5, 49.75415948175421
1012.5, 47.88788540536222
1013, 49.179921304402825
1013.5, 49.179921304402825
1014, 49.524464210813655
1014.5, 49.524464210813655
1015, 49.92643093495962
1015.5, 50.01256666156233
1016, 50.01256666156233
1016.5, 50.21355002363532
1017, 50.21355002363532
1017.5, 50.61551674778128
1018, 50.61551674778128
1018.5, 50.960059654192115
1019, 51.218466834000225
1019.5, 51.218466834000225
1020, 51.47687401380835
1020.5, 51.47687401380835
1021, 51.85012882908675
1021.5, 51.85012882908675
1022, 52.25209555323272
1022.5, 52.25209555323272
1023, 52.366943188703
1023.5, 52.453078915305696
1024, 52.453078915305696
1024.5, 52.79762182171653
1025, 52.79762182171653
1025.5, 52.96989327492194
1026, 52.96989327492194
1026.5, 53.17087663699492
1027, 53.17087663699492
1027.5, 53.45799572567062
1028, 53.68769099661117
1028.5, 53.68769099661117
1029, 53.802538632081436
1029.5, 53.802538632081436
1030, 54.03223390302199
1030.5, 54.03223390302199
1031, 54.29064108283011
1031.5, 54.29064108283011
1032, 54.60647208037337
1032.5, 54.77874353357878
1033, 54.77874353357878
1033.5, 54.9510149867842
1034, 54.9510149867842
1034.5, 55.29555789319504
1035, 55.29555789319504
1035.5, 55.525253164135584
1036, 55.640100799605854
1036.5, 55.640100799605854
1037, 56.07077943261939
1037.5, 56.07077943261939
1038, 56.271762794692386
1038.5, 56.271762794692386
1039, 56.271762794692386
1039.5, 56.271762794692386
1040, 56.67372951883834
1040.5, 56.9034247897789
1041, 56.9034247897789
1041.5, 57.42023914939514
1042, 57.42023914939514
1042.5, 57.391527240527566
1043, 57.391527240527566
1043.5, 57.36281533166
1044, 57.36281533166
1044.5, 57.33410342279244
1045, 57.47766296713027
1045.5, 57.47766296713027
1046, 57.67864632920327
1046.5, 57.67864632920327
1047, 57.87962969127625
1047.5, 57.87962969127625
1048, 57.93705350901138
1048.5, 57.87962969127625
1049, 57.87962969127625
1049.5, 58.310308324289785
1050, 58.310308324289785
1050.5, 58.54000359523034
1051, 58.54000359523034
1051.5, 58.597427412965466
1052, 58.597427412965466
1052.5, 58.8558345927736
1053, 58.913258410508725
1053.5, 58.913258410508725
1054, 59.11424177258171
1054.5, 59.11424177258171
1055, 59.14295368144928
1055.5, 59.14295368144928
1056, 59.22908940805198
1056.5, 59.22908940805198
1057, 59.257801316919554
1057.5, 59.31522513465469
1058, 59.31522513465469
1058.5, 59.37264895238983
1059, 59.37264895238983
1059.5, 59.430072770124966
1060, 59.430072770124966
1060.5, 59.54492040559524
1061, 59.54492040559524
1061.5, 59.65976804106552
1062, 59.745903767668224
1062.5, 59.745903767668224
1063, 60.06173476521149
1063.5, 60.06173476521149
1064, 59.832039494270944
1064.5, 59.832039494270944
1065, 59.803327585403366
1065.5, 59.774615676535795
1066, 59.774615676535795
1066.5, 59.832039494270944
1067, 59.832039494270944
1067.5, 59.94688712974122
1068, 59.94688712974122
1068.5, 59.71719185880067
1069, 59.71719185880067
1069.5, 59.71719185880067
1070, 59.774615676535795
1070.5, 59.774615676535795
1071, 59.94688712974122
1071.5, 59.94688712974122
1072, 60.17658240068176
1072.5, 60.17658240068176
1073, 60.1478704918142
1073.5, 60.1478704918142
1074, 60.00431094747635
1074.5, 59.97559903860878
1075, 59.97559903860878
1075.5, 59.8607514031385
1076, 59.8607514031385
1076.5, 59.774615676535795
1077, 59.774615676535795
1077.5, 59.68847994993309
1078, 59.71719185880067
1078.5, 59.71719185880067
1079, 59.65976804106552
1079.5, 59.65976804106552
1080, 59.516208496727685
1080.5, 59.516208496727685
1081, 59.516208496727685
1081.5, 59.516208496727685
1082, 59.516208496727685
1082.5, 59.430072770124966
1083, 59.430072770124966
1083.5, 59.34393704352226
1084, 59.34393704352226
1084.5, 59.20037749918442
1085, 59.20037749918442
1085.5, 59.257801316919554
1086, 59.257801316919554
1086.5, 58.884546501641154
1087, 58.68356313956817
1087.5, 58.68356313956817
1088, 58.597427412965466
1088.5, 58.597427412965466
1089, 58.45386786862762
1089.5, 58.45386786862762
1090, 58.310308324289785
1090.5, 58.1954606888195
1091, 58.1954606888195
1091.5, 58.051901144481654
1092, 58.051901144481654
1092.5, 57.90834160014381
1093, 57.90834160014381
1093.5, 57.85091778240867
1094, 57.85091778240867
1094.5, 57.67864632920327
1095, 57.42023914939514
1095.5, 57.42023914939514
1096, 57.10440815185188
1096.5, 57.10440815185188
1097, 56.6163057011032
1097.5, 56.6163057011032
1098, 56.41532233903022
1098.5, 56.41532233903022
1099, 56.357898521295084
1099.5, 56.12820325035453
1100, 56.12820325035453
1100.5, 56.07077943261939
1101, 56.07077943261939
1101.5, 55.84108416167885
1102, 55.84108416167885
1102.5, 55.668812708473425
1103, 55.668812708473425
1103.5, 55.324269802062595
1104, 55.23813407545989
1104.5, 55.23813407545989
1105, 54.97972689565177
1105.5, 54.97972689565177
1106, 54.54904826263824
1106.5, 54.54904826263824
1107, 54.462912536035525
1107.5, 54.31935299169769
1108, 54.31935299169769
1108.5, 53.888674358684156
1109, 53.888674358684156
1109.5, 53.77382672321388
1110, 53.77382672321388
1110.5, 53.45799572567062
1111, 53.45799572567062
1111.5, 53.113452819259784
1112, 52.82633373058409
1112.5, 52.82633373058409
1113, 52.59663845964355
1113.5, 52.59663845964355
1114, 52.33823127983542
1114.5, 52.33823127983542
1115, 52.05111219115974
1115.5, 52.05111219115974
1116, 51.79270501135161
1116.5, 51.47687401380835
1117, 51.47687401380835
1117.5, 51.07490728966239
1118, 51.07490728966239
1118.5, 50.78778820098669
1119, 50.78778820098669
1119.5, 50.558092930046136
1120, 50.1274142970326
1120.5, 50.1274142970326
1121, 49.869007117224484
1121.5, 49.869007117224484
1122, 49.61059993741636
1122.5, 49.61059993741636
1123, 49.35219275760825
1123.5, 49.35219275760825
1124, 49.00764985119742
1124.5, 48.74924267138929
1125, 48.74924267138929
1125.5, 48.51954740044874
1126, 48.51954740044874
1126.5, 48.43341167384603
1127, 48.43341167384603
1127.5, 47.2562234102757
1128, 47.2562234102757
1128.5, 47.170087683673
1129, 47.37107104574598
1129.5, 47.37107104574598
1130, 47.02652813933515
1130.5, 47.02652813933515
1131, 46.624561415189184
1131.5, 46.624561415189184
1132, 46.39486614424863
1132.5, 46.39486614424863
1133, 46.22259469104322
1133.5, 45.84933987576482
1134, 45.84933987576482
1134.5, 45.590932695956695
1135, 45.590932695956695
1135.5, 45.332525516148586
1136, 45.332525516148586
1136.5, 45.16025406294316
1137, 44.64343970332692
1137.5, 44.64343970332692
1138, 44.413744432386366
1138.5, 44.413744432386366
1139, 44.212761070313384
1139.5, 44.212761070313384
1140, 43.896930072770125
1140.5, 43.896930072770125
1141, 43.66723480182957
1141.5, 43.43753953088902
1142, 43.43753953088902
1142.5, 43.207844259948466
1143, 43.207844259948466
1143.5, 42.89201326240521
1144, 42.89201326240521
1144.5, 42.49004653825924
1145, 42.49004653825924
1145.5, 42.26035126731869
1146, 41.973232178643
1146.5, 41.973232178643
1147, 41.686113089967314
1147.5, 41.686113089967314
1148, 41.485129727894325
1148.5, 41.485129727894325
1149, 41.19801063921864
1149.5, 40.85346773280781
1150, 40.85346773280781
1150.5, 40.73862009733753
1151, 40.73862009733753
1151.5, 40.480212917529414
1152, 40.480212917529414
1152.5, 40.07824619338344
1153, 40.07824619338344
1153.5, 39.819839013575326
1154, 39.53271992489963
1154.5, 39.53271992489963
1155, 39.274312745091514
1155.5, 39.274312745091514
1156, 38.958481747548255
1156.5, 38.958481747548255
1157, 38.67136265887256
1157.5, 38.67136265887256
1158, 38.441667387932014
1158.5, 38.269395934726596
1159, 38.269395934726596
1159.5, 38.03970066378604
1160, 38.03970066378604
1160.5, 37.81000539284549
1161, 37.81000539284549
1161.5, 37.580310121904944
1162, 37.35061485096439
1162.5, 37.35061485096439
1163, 37.12091958002384
1163.5, 37.12091958002384
1164, 36.862512400215714
1164.5, 36.862512400215714
1165, 36.63281712927516
1165.5, 36.63281712927516
1166, 36.40312185833461
1166.5, 36.202138496261625
1167, 36.202138496261625
1167.5, 35.91501940758593
1168, 35.91501940758593
1168.5, 35.68532413664539
1169, 35.68532413664539
1169.5, 35.513052683439966
1170, 35.513052683439966
1170.5, 35.31206932136699
1171, 35.13979786816158
1171.5, 35.13979786816158
1172, 34.79525496175074
1172.5, 34.79525496175074
1173, 34.651695417412895
1173.5, 34.651695417412895
1174, 34.50813587307505
1174.5, 34.50813587307505
1175, 34.19230487553179
1175.5, 33.93389769572367
1176, 33.93389769572367
1176.5, 33.76162624251826
1177, 33.76162624251826
1177.5, 33.53193097157771
1178, 33.53193097157771
1178.5, 33.41708333610744
1179, 33.273523791769605
1179.5, 33.273523791769605
1180, 32.95769279422635
1180.5, 32.95769279422635
1181, 32.75670943215334
1181.5, 32.75670943215334
1182, 32.498302252345226
1182.5, 32.498302252345226
1183, 32.26860698140467
1183.5, 32.18247125480198
1184, 32.18247125480198
1184.5, 32.067623619331684
1185, 32.067623619331684
1185.5, 31.866640257258723
1186, 31.866640257258723
1186.5, 31.751792621788425
1187, 31.751792621788425
1187.5, 31.550809259715464
1188, 31.263690171039755
1188.5, 31.263690171039755
1189, 31.148842535569486
1189.5, 31.148842535569486
1190, 31.062706808966766
1190.5, 31.062706808966766
1191, 30.890435355761355
1191.5, 30.833011538026213
1192, 30.833011538026213
1192.5, 30.718163902555943
1193, 30.718163902555943
1193.5, 30.45975672274784
1194, 30.45975672274784
1194.5, 30.344909087277543
1195, 30.344909087277543
1195.5, 30.230061451807273
1196, 30.086501907469426
1196.5, 30.086501907469426
1197, 29.885518545396437
1197.5, 29.885518545396437
1198, 29.68453518332346
1198.5, 29.68453518332346
1199, 29.397416094647767
1199.5, 29.397416094647767
1200, 29.397416094647767
1200.5, 29.397416094647767
1201, 29.397416094647767
1201.5, 29.368704185780203
1202, 29.368704185780203
1202.5, 29.167720823707214
1203, 29.167720823707214
1203.5, 29.024161279369366
1204, 28.93802555276666
1204.5, 28.93802555276666
1205, 28.851889826163955
1205.5, 28.851889826163955
1206, 28.708330281826107
1206.5, 28.708330281826107
1207, 28.593482646355838
1207.5, 28.593482646355838
1208, 28.507346919753147
1208.5, 28.39249928428285
1209, 28.39249928428285
1209.5, 28.363787375415285
1210, 28.363787375415285
1210.5, 28.162804013342296
1211, 28.162804013342296
1211.5, 28.105380195607182
1212, 28.105380195607182
1212.5, 28.162804013342296
1213, 28.220227831077437
1213.5, 28.220227831077437
1214, 28.105380195607182
1214.5, 28.105380195607182
1215, 27.90439683353418
1215.5, 27.90439683353418
1216, 27.846973015799037
1216.5, 27.846973015799037
1217, 27.818261106931473
1217.5, 27.818261106931473
1218, 27.818261106931473
1218.5, 27.78954919806391
1219, 27.78954919806391
1219.5, 27.78954919806391
1220, 27.78954919806391
1220.5, 27.732125380328768
1221, 27.732125380328768
1221.5, 27.732125380328768
1222, 27.58856583599092
1222.5, 27.58856583599092
1223, 27.445006291653073
1223.5, 27.445006291653073
1224, 27.301446747315225
1224.5, 27.301446747315225
1225, 27.330158656182817
1225.5, 27.301446747315225
1226, 27.301446747315225
1226.5, 27.301446747315225
1227, 27.301446747315225
1227.5, 27.301446747315225
1228, 27.301446747315225
1228.5, 27.244022929580098
1229, 27.244022929580098
1229.5, 27.21531102071252
1230, 27.157887202977378
1230.5, 27.157887202977378
1231, 27.157887202977378
1231.5, 27.157887202977378
1232, 27.129175294109814
1232.5, 27.129175294109814
1233, 26.956903840904403
1233.5, 26.89948002316926
1234, 26.89948002316926
1234.5, 26.84205620543412
1235, 26.84205620543412
1235.5, 26.985615749771966
1236, 26.985615749771966
1236.5, 26.89948002316926
1237, 26.89948002316926
1237.5, 26.84205620543412
1238, 26.755920478831413
1238.5, 26.755920478831413
1239, 26.72720856996385
1239.5, 26.72720856996385
1240, 26.6984966610963
1240.5, 26.6984966610963
1241, 26.6984966610963
1241.5, 26.6984966610963
1242, 26.755920478831413
1242.5, 26.870768114301697
1243, 26.870768114301697
1243.5, 26.985615749771966
1244, 26.985615749771966
1244.5, 27.04303956750711
1245, 27.04303956750711
1245.5, 27.04303956750711
1246, 27.04303956750711
1246.5, 27.100463385242264
1247, 27.100463385242264
1247.5, 27.100463385242264
1248, 27.071751476374672
1248.5, 27.071751476374672
1249, 26.985615749771966
1249.5, 26.985615749771966
1250, 26.956903840904403
1250.5, 26.985615749771966
1251, 26.985615749771966
1251.5, 26.956903840904403
1252, 26.956903840904403
1252.5, 27.01432765863956
1253, 27.01432765863956
1253.5, 27.01432765863956
1254, 27.01432765863956
1254.5, 26.92819193203684
1255, 26.813344296566555
1255.5, 26.813344296566555
1256, 26.813344296566555
1256.5, 26.813344296566555
1257, 26.84205620543412
1257.5, 26.84205620543412
1258, 26.813344296566555
1258.5, 26.813344296566555
1259, 26.784632387699006
1259.5, 26.72720856996385
1260, 26.72720856996385
1260.5, 26.72720856996385
1261, 26.72720856996385
1261.5, 26.6984966610963
1262, 26.6984966610963
1262.5, 26.6984966610963
1263, 26.641072843361144
1263.5, 26.641072843361144
1264, 26.52622520789086
1264.5, 26.52622520789086
1265, 26.755920478831413
1265.5, 26.755920478831413
1266, 26.755920478831413
1266.5, 26.755920478831413
1267, 26.755920478831413
1267.5, 26.72720856996385
1268, 26.72720856996385
1268.5, 26.669784752228708
1269, 26.669784752228708
1269.5, 26.669784752228708
1270, 26.669784752228708
1270.5, 26.641072843361144
1271, 26.641072843361144
1271.5, 26.55493711675844
1272, 26.583649025626002
1272.5, 26.583649025626002
1273, 26.612360934493566
1273.5, 26.612360934493566
1274, 26.583649025626002
1274.5, 26.583649025626002
1275, 26.583649025626002
1275.5, 26.583649025626002
1276, 26.583649025626002
1276.5, 26.612360934493566
1277, 26.612360934493566
1277.5, 26.612360934493566
1278, 26.612360934493566
1278.5, 26.641072843361144
1279, 26.641072843361144
1279.5, 26.612360934493566
1280, 26.583649025626002
1280.5, 26.583649025626002
1281, 26.55493711675844
1281.5, 26.55493711675844
1282, 26.583649025626002
1282.5, 26.583649025626002
1283, 26.641072843361144
1283.5, 26.641072843361144
1283.9999999999998, 26.669784752228708
1284.5, 26.6984966610963
1285, 26.6984966610963
1285.5, 26.755920478831413
1286, 26.755920478831413
1286.5, 26.870768114301697
1287, 26.870768114301697
1287.5, 26.92819193203684
1288, 26.92819193203684
1288.5, 27.01432765863956
1289, 27.100463385242264
1289.5, 27.100463385242264
1290, 27.157887202977378
1290.5, 27.157887202977378
1291, 27.186599111844956
1291.5, 27.186599111844956
1292, 27.157887202977378
1292.5, 27.186599111844956
1293, 27.186599111844956
1293.5, 27.27273483844766
1294, 27.27273483844766
1294.5, 27.330158656182817
1295, 27.330158656182817
1295.5, 27.330158656182817
1296, 27.330158656182817
1296.5, 27.27273483844766
1297, 27.21531102071252
1297.5, 27.21531102071252
1298, 27.100463385242264
1298.5, 27.100463385242264
1299, 27.04303956750711
1299.5, 27.04303956750711
1300, 26.956903840904403
1300.5, 26.956903840904403
1301, 26.84205620543412
1301.4999999999998, 26.813344296566555
1302, 26.813344296566555
1302.5, 26.755920478831413
1303, 26.755920478831413
1303.5, 26.72720856996385
1304, 26.72720856996385
1304.5, 26.6984966610963
1305, 26.784632387699006
1305.5, 26.784632387699006
1306, 26.6984966610963
1306.5, 26.6984966610963
1307, 26.72720856996385
1307.5, 26.72720856996385
1308, 26.6984966610963
1308.5, 26.6984966610963
1309, 26.6984966610963
1309.5, 26.641072843361144
1310, 26.641072843361144
1310.4999999999998, 26.55493711675844
1311, 26.55493711675844
1311.4999999999998, 26.468801390155747
1312, 26.468801390155747
1312.4999999999998, 26.382665663553027
1313, 26.382665663553027
1313.5, 26.239106119215194
1314, 26.181682301480038
1314.5, 26.181682301480038
1315, 26.095546574877332
1315.5, 26.095546574877332
1315.9999999999998, 26.152970392612488
1316.5, 26.152970392612488
1316.9999999999998, 26.124258483744896
1317.5, 26.152970392612488
1317.9999999999998, 26.152970392612488
1318.5, 26.152970392612488
1319, 26.152970392612488
1319.5, 26.2103942103476
1320, 26.2103942103476
1320.5, 26.267818028082743
1321, 26.267818028082743
1321.4999999999998, 26.382665663553027
1322, 26.440089481288155
1322.4999999999998, 26.440089481288155
1323, 26.41137757242059
1323.4999999999998, 26.41137757242059
1324, 26.35395375468545
1324.4999999999998, 26.35395375468545
1325, 26.325241845817885
1325.5, 26.325241845817885
1326, 26.267818028082743
1326.5, 26.239106119215194
1327, 26.239106119215194
1327.5, 26.267818028082743
1327.9999999999998, 26.267818028082743
1328.5, 26.2103942103476
1328.9999999999998, 26.2103942103476
1329.5, 26.03812275714219
1329.9999999999998, 26.03812275714219
1330.5, 26.095546574877332
1331, 26.181682301480038
1331.5, 26.181682301480038
1332, 26.267818028082743
1332.5, 26.267818028082743
1333, 26.239106119215194
1333.4999999999998, 26.239106119215194
1334, 26.181682301480038
1334.4999999999998, 26.06683466600977
1335, 26.06683466600977
1335.4999999999998, 26.095546574877332
1336, 26.095546574877332
1336.5, 26.095546574877332
1337, 26.095546574877332
1337.5, 26.124258483744896
1338, 26.124258483744896
1338.5, 26.124258483744896
1338.9999999999998, 26.124258483744896
1339.5, 26.124258483744896
1339.9999999999998, 26.181682301480038
1340.5, 26.181682301480038
1340.9999999999998, 26.152970392612488
1341.5, 26.152970392612488
1341.9999999999998, 26.095546574877332
1342.5, 26.095546574877332
1343, 25.98069893940705
1343.5, 25.837139395069215
1344, 25.837139395069215
1344.4999999999998, 25.837139395069215
1345, 25.837139395069215
1345.4999999999998, 25.951987030539485
1346, 25.951987030539485
1346.4999999999998, 25.98069893940705
1347, 25.98069893940705
1347.4999999999998, 25.98069893940705
1348, 25.98069893940705
1348.5, 25.98069893940705
1349, 25.98069893940705
1349.5, 25.98069893940705
1350, 25.98069893940705
1350.5, 25.98069893940705
1350.9999999999998, 25.951987030539485
1351.5, 25.808427486201637
1351.9999999999998, 25.808427486201637
1352.5, 25.779715577334073
1352.9999999999998, 25.779715577334073
1353.5, 25.779715577334073
1354, 25.779715577334073
1354.5, 25.779715577334073
1355, 25.779715577334073
1355.5, 25.779715577334073
1356, 25.779715577334073
1356.4999999999998, 25.779715577334073
1357, 25.808427486201637
1357.4999999999998, 25.808427486201637
1358, 25.808427486201637
1358.4999999999998, 25.808427486201637
1359, 25.837139395069215
1359.4999999999998, 25.837139395069215
1360, 25.779715577334073
1360.5, 25.751003668466495
1361, 25.751003668466495
1361.5, 25.751003668466495
1361.9999999999998, 25.751003668466495
1362.5, 25.779715577334073
1362.9999999999998, 25.779715577334073
1363.5, 25.86585130393678
1363.9999999999998, 25.923275121671935
1364.5, 25.923275121671935
1364.9999999999998, 25.951987030539485
1365.5, 25.951987030539485
1366, 25.72229175959893
1366.5, 25.72229175959893
1367, 25.86585130393678
1367.5, 25.86585130393678
1368, 26.009410848274626
1368.4999999999998, 26.06683466600977
1369, 26.06683466600977
1369.4999999999998, 25.923275121671935
1370, 25.923275121671935
1370.4999999999998, 25.86585130393678
1371, 25.86585130393678
1371.5, 25.751003668466495
1372, 25.751003668466495
1372.5, 25.693579850731382
1373, 25.607444124128676
1373.5, 25.607444124128676
1373.9999999999998, 25.751003668466495
1374.5, 25.751003668466495
1374.9999999999998, 25.808427486201637
1375.5, 25.808427486201637
1375.9999999999998, 25.808427486201637
1376.5, 25.779715577334073
1376.9999999999998, 25.779715577334073
1377.5, 25.72229175959893
1378, 25.72229175959893
1378.5, 25.808427486201637
1379, 25.808427486201637
1379.4999999999998, 25.837139395069215
1380, 25.837139395069215
1380.4999999999998, 25.837139395069215
1381, 25.779715577334073
1381.4999999999998, 25.779715577334073
1382, 25.72229175959893
1382.4999999999998, 25.72229175959893
1383, 25.693579850731382
1383.5, 25.693579850731382
1384, 25.72229175959893
1384.5, 25.72229175959893
1385, 25.66486794186379
1385.5, 25.751003668466495
1385.9999999999998, 25.751003668466495
1386.5, 25.751003668466495
1386.9999999999998, 25.751003668466495
1387.5, 25.751003668466495
1387.9999999999998, 25.751003668466495
1388.5, 25.808427486201637
1389, 25.837139395069215
1389.5, 25.837139395069215
1390, 25.923275121671935
1390.5, 25.923275121671935
1391, 25.951987030539485
1391.4999999999998, 25.951987030539485
1392, 25.923275121671935
1392.4999999999998, 25.923275121671935
1393, 25.894563212804343
1393.4999999999998, 25.86585130393678
1394, 25.86585130393678
1394.4999999999998, 25.894563212804343
1395, 25.894563212804343
1395.5, 25.98069893940705
1396, 25.98069893940705
1396.5, 25.923275121671935
1396.9999999999998, 25.923275121671935
1397.5, 25.894563212804343
1397.9999999999998, 25.86585130393678
1398.5, 25.86585130393678
1398.9999999999998, 25.837139395069215
1399.5, 25.837139395069215
1399.9999999999998, 25.808427486201637
