300, 9.184232251879195
300.5, 9.184232251879195
301, 9.184232251879195
301.5, 9.155520343011602
302, 9.155520343011602
302.5, 9.126808434144039
303, 9.126808434144039
303.5, 9.126808434144039
304, 9.126808434144039
304.5, 9.126808434144039
305, 9.184232251879195
305.5, 9.184232251879195
306, 9.212944160746744
306.5, 9.212944160746744
307, 9.29907988734945
307.5, 9.29907988734945
308, 9.327791796217014
308.5, 9.327791796217014
309, 9.385215613952155
309.5, 9.413927522819733
310, 9.413927522819733
310.5, 9.471351340554861
311, 9.471351340554861
311.5, 9.528775158290003
312, 9.528775158290003
312.5, 9.586198976025159
313, 9.614910884892709
313.5, 9.614910884892709
314, 9.643622793760272
314.5, 9.643622793760272
315, 9.67233470262785
315.5, 9.67233470262785
316, 9.758470429230556
316.5, 9.758470429230556
317, 9.78718233809812
317.5, 9.815894246965712
318, 9.815894246965712
318.5, 9.844606155833262
319, 9.844606155833262
319.5, 9.873318064700825
320, 9.873318064700825
320.5, 9.930741882435967
321, 9.930741882435967
321.5, 9.959453791303545
322, 9.988165700171109
322.5, 9.988165700171109
323, 10.045589517906265
323.5, 10.045589517906265
324, 10.103013335641378
324.5, 10.103013335641378
325, 10.13172524450897
325.5, 10.189149062244084
326, 10.189149062244084
326.5, 10.246572879979226
327, 10.246572879979226
327.5, 10.246572879979226
328, 10.246572879979226
328.5, 10.275284788846804
329, 10.275284788846804
329.5, 10.361420515449524
330, 10.418844333184637
330.5, 10.418844333184637
331, 10.418844333184637
331.5, 10.418844333184637
332, 10.476268150919779
332.5, 10.476268150919779
333, 10.53369196865492
333.5, 10.53369196865492
334, 10.619827695257626
334.5, 10.64853960412519
335, 10.64853960412519
335.5, 10.734675330727896
336, 10.734675330727896
336.5, 10.792099148463038
337, 10.792099148463038
337.5, 10.820811057330616
338, 10.878234875065743
338.5, 10.878234875065743
339, 10.935658692800885
339.5, 10.935658692800885
340, 10.993082510536041
340.5, 10.993082510536041
341, 11.02179441940359
341.5, 11.02179441940359
342, 11.079218237138733
342.5, 11.136642054873874
343, 11.136642054873874
343.5, 11.165353963741438
344, 11.165353963741438
344.5, 11.251489690344144
345, 11.251489690344144
345.5, 11.366337325814428
346, 11.366337325814428
346.5, 11.423761143549555
347, 11.423761143549555
347.5, 11.423761143549555
348, 11.481184961284697
348.5, 11.481184961284697
349, 11.538608779019853
349.5, 11.538608779019853
350, 11.596032596754966
350.5, 11.596032596754966
351, 11.624744505622544
351.5, 11.71088023222525
352, 11.71088023222525
352.5, 11.768304049960406
353, 11.768304049960406
353.5, 11.768304049960406
354, 11.768304049960406
354.5, 11.82572786769552
355, 11.883151685430661
355.5, 11.883151685430661
356, 11.911863594298225
356.5, 11.911863594298225
357, 11.969287412033367
357.5, 11.969287412033367
358, 12.055423138636073
358.5, 12.055423138636073
359, 12.055423138636073
359.5, 12.084135047503665
360, 12.084135047503665
360.5, 12.141558865238778
361, 12.141558865238778
361.5, 12.227694591841498
362, 12.227694591841498
362.5, 12.342542227311768
363, 12.342542227311768
363.5, 12.399966045046924
364, 12.486101771649615
364.5, 12.486101771649615
365, 12.543525589384757
365.5, 12.543525589384757
366, 12.600949407119884
366.5, 12.600949407119884
367, 12.629661315987477
367.5, 12.744508951457732
368, 12.744508951457732
368.5, 12.830644678060438
369, 12.830644678060438
369.5, 12.916780404663143
370, 12.916780404663143
370.5, 12.974204222398285
371, 12.974204222398285
371.5, 13.002916131265849
372, 13.089051857868569
372.5, 13.089051857868569
373, 13.175187584471288
373.5, 13.175187584471288
374, 13.232611402206402
374.5, 13.232611402206402
375, 13.290035219941544
375.5, 13.290035219941544
376, 13.347459037676686
376.5, 13.433594764279391
377, 13.433594764279391
377.5, 13.462306673146955
378, 13.462306673146955
378.5, 13.519730490882097
379, 13.519730490882097
379.5, 13.63457812635238
380, 13.663290035219944
380.5, 13.663290035219944
381, 13.7207138529551
381.5, 13.7207138529551
382, 13.806849579557806
382.5, 13.806849579557806
383, 13.86427339729292
383.5, 13.86427339729292
384, 13.921697215028061
384.5, 14.036544850498359
385, 14.036544850498359
385.5, 14.122680577101065
386, 14.122680577101065
386.5, 14.23752821257132
387, 14.23752821257132
387.5, 14.294952030306462
388, 14.294952030306462
388.5, 14.381087756909167
389, 14.467223483511873
389.5, 14.467223483511873
390, 14.553359210114579
390.5, 14.553359210114579
391, 14.639494936717284
391.5, 14.639494936717284
392, 14.696918754452426
392.5, 14.696918754452426
393, 14.783054481055132
393.5, 14.869190207657837
394, 14.869190207657837
394.5, 15.041461660863263
395, 15.041461660863263
395.5, 15.09888547859839
396, 15.09888547859839
396.5, 15.09888547859839
397, 15.185021205201096
397.5, 15.185021205201096
398, 15.29986884067138
398.5, 15.29986884067138
399, 15.443428385009241
399.5, 15.443428385009241
400, 15.472140293876791
400.5, 15.472140293876791
401, 15.529564111611947
401.5, 15.673123655949794
402, 15.673123655949794
402.5, 15.7592593825525
403, 15.7592593825525
403.5, 15.845395109155191
404, 15.845395109155191
404.5, 15.902818926890333
405, 15.902818926890333
405.5, 15.988954653493053
406, 16.10380228896331
406.5, 16.10380228896331
407, 16.132514197830872
407.5, 16.132514197830872
408, 16.16122610669845
408.5, 16.16122610669845
409, 16.218649924433592
409.5, 16.362209468771425
410, 16.362209468771425
410.5, 16.47705710424171
411, 16.47705710424171
411.5, 16.62061664857957
412, 16.62061664857957
412.5, 16.678040466314684
413, 16.678040466314684
413.5, 16.792888101784968
414, 16.907735737255237
414.5, 16.907735737255237
415, 16.993871463857943
415.5, 16.993871463857943
416, 17.13743100819579
416.5, 17.13743100819579
417, 17.252278643666074
417.5, 17.252278643666074
418, 17.33841437026878
418.5, 17.424550096871485
419, 17.424550096871485
419.5, 17.539397732341754
420, 17.539397732341754
420.5, 17.625533458944474
421, 17.625533458944474
421.5, 17.711669185547194
422, 17.711669185547194
422.5, 17.855228729885027
423, 17.912652547620155
423.5, 17.912652547620155
424, 18.027500183090453
424.5, 18.027500183090453
425, 18.171059727428286
425.5, 18.171059727428286
426, 18.34333118063371
426.5, 18.458178816103967
427, 18.458178816103967
427.5, 18.544314542706672
428, 18.544314542706672
428.5, 18.659162178176956
429, 18.659162178176956
429.5, 18.774009813647226
430, 18.774009813647226
430.5, 18.946281266852637
431, 19.06112890232292
431.5, 19.06112890232292
432, 19.147264628925626
432.5, 19.147264628925626
433, 19.37695989986618
433.5, 19.37695989986618
434, 19.434383717601335
434.5, 19.434383717601335
435, 19.520519444204027
435.5, 19.66407898854189
436, 19.66407898854189
436.5, 19.750214715144594
437, 19.750214715144594
437.5, 19.92248616834999
438, 19.92248616834999
438.5, 20.008621894952697
439, 20.094757621555402
439.5, 20.094757621555402
440, 20.267029074760814
440.5, 20.267029074760814
441, 20.35316480136352
441.5, 20.35316480136352
442, 20.43930052796624
442.5, 20.43930052796624
443, 20.611571981171664
443.5, 20.72641961664192
444, 20.72641961664192
444.5, 20.841267252112218
445, 20.841267252112218
445.5, 20.956114887582473
446, 20.956114887582473
446.5, 21.07096252305277
447, 21.07096252305277
447.5, 21.157098249655476
448, 21.30065779399331
448.5, 21.30065779399331
449, 21.38679352059603
449.5, 21.38679352059603
450, 21.616488791536582
450.5, 21.616488791536582
451, 21.673912609271696
451.5, 21.702624518139288
452, 21.702624518139288
452.5, 21.93231978907984
453, 21.93231978907984
453.5, 22.018455515682547
454, 22.018455515682547
454.5, 22.07587933341766
455, 22.07587933341766
455.5, 22.219438877755508
456, 22.27686269549065
456.5, 22.27686269549065
457, 22.391710330960933
457.5, 22.391710330960933
458, 22.44913414869606
458.5, 22.44913414869606
459, 22.506557966431203
459.5, 22.506557966431203
460, 22.736253237371756
460.5, 22.79367705510691
461, 22.79367705510691
461.5, 22.851100872842025
462, 22.851100872842025
462.5, 22.96594850831231
463, 22.96594850831231
463.5, 23.023372326047465
464, 23.023372326047465
464.5, 23.166931870385284
465, 23.253067596988004
465.5, 23.253067596988004
466, 23.31049141472313
466.5, 23.31049141472313
467, 23.42533905019343
467.5, 23.42533905019343
468, 23.568898594531262
468.5, 23.712458138869096
469, 23.712458138869096
469.5, 23.798593865471815
470, 23.798593865471815
470.5, 23.856017683206943
471, 23.856017683206943
471.5, 23.94215340980965
472, 23.94215340980965
472.5, 24.085712954147496
473, 24.143136771882638
473.5, 24.143136771882638
474, 24.257984407352907
474.5, 24.257984407352907
475, 24.37283204282319
475.5, 24.37283204282319
476, 24.48767967829346
476.5, 24.48767967829346
477, 24.573815404896166
477.5, 24.659951131498886
478, 24.659951131498886
478.5, 24.717374949234014
479, 24.717374949234014
479.5, 24.975782129042145
480, 24.975782129042145
480.5, 25.090629764512414
481, 25.148053582247556
481.5, 25.148053582247556
482, 25.148053582247556
482.5, 25.148053582247556
483, 25.119341673379978
483.5, 25.119341673379978
484, 25.17676549111512
484.5, 25.17676549111512
485, 25.23418930885026
485.5, 25.23418930885026
486, 25.23418930885026
486.5, 25.320325035452967
487, 25.320325035452967
487.5, 25.406460762055673
488, 25.406460762055673
488.5, 25.463884579790815
489, 25.463884579790815
489.5, 25.435172670923237
490, 25.463884579790815
490.5, 25.463884579790815
491, 25.607444124128676
491.5, 25.607444124128676
492, 25.66486794186379
492.5, 25.66486794186379
493, 25.693579850731382
493.5, 25.578732215261084
494, 25.578732215261084
494.5, 25.463884579790815
495, 25.463884579790815
495.5, 25.406460762055673
496, 25.406460762055673
496.5, 25.377748853188123
497, 25.377748853188123
497.5, 25.320325035452967
498, 25.291613126585418
498.5, 25.291613126585418
499, 25.205477399982698
499.5, 25.205477399982698
500, 25.119341673379978
500.5, 25.119341673379978
501, 25.033205946777272
501.5, 25.033205946777272
502, 25.00449403790971
502.5, 24.918358311307003
503, 24.918358311307003
503.5, 24.80351067583672
504, 24.80351067583672
504.5, 24.68866304036645
505, 24.68866304036645
505.5, 24.573815404896166
506, 24.573815404896166
506.5, 24.37283204282319
507, 24.229272498485344
507.5, 24.229272498485344
508, 23.884729592074535
508.5, 23.884729592074535
509, 23.82730577433938
509.5, 23.82730577433938
510, 23.655034321133982
510.5, 23.339203323590723
511, 23.339203323590723
511.5, 23.224355688120426
512, 23.224355688120426
512.5, 23.080796143782578
513, 23.080796143782578
513.5, 22.851100872842025
514, 22.851100872842025
514.5, 22.678829419636614
515, 22.420422239828497
515.5, 22.420422239828497
516, 22.190726968887944
516.5, 22.190726968887944
517, 22.07587933341766
517.5, 22.07587933341766
518, 21.817472153609543
518.5, 21.817472153609543
519, 21.559064973801426
519.5, 21.358081611728437
520, 21.358081611728437
520.5, 21.243233976258168
521, 21.243233976258168
521.5, 21.09967443192032
522, 21.09967443192032
522.5, 20.92740297871491
523, 20.697707707774356
523.5, 20.697707707774356
524, 20.52543625456896
524.5, 20.52543625456896
525, 20.381876710231097
525.5, 20.381876710231097
526, 20.23831716589325
526.5, 20.23831716589325
527, 20.12346953042298
527.5, 19.951198077217555
528, 19.951198077217555
528.5, 19.807638532879707
529, 19.807638532879707
529.5, 19.692790897409438
530, 19.692790897409438
530.5, 19.57794326193917
531, 19.57794326193917
531.5, 19.49180753533645
532, 19.262112264395896
532.5, 19.262112264395896
533, 19.147264628925626
533.5, 19.147264628925626
534, 19.06112890232292
534.5, 19.06112890232292
535, 19.00370508458778
535.5, 19.00370508458778
536, 18.888857449117523
536.5, 18.774009813647226
537, 18.774009813647226
537.5, 18.544314542706672
538, 18.544314542706672
538.5, 18.51560263383911
539, 18.51560263383911
539.5, 18.486890724971545
540, 18.458178816103967
540.5, 18.458178816103967
541, 18.429466907236403
541.5, 18.429466907236403
542, 18.37204308950126
542.5, 18.37204308950126
543, 18.34333118063371
543.5, 18.34333118063371
544, 18.34333118063371
544.5, 18.34333118063371
545, 18.34333118063371
545.5, 18.34333118063371
546, 18.34333118063371
546.5, 18.31461927176612
547, 18.31461927176612
547.5, 18.285907362898556
548, 18.285907362898556
548.5, 18.228483545163414
549, 18.19977163629585
549.5, 18.19977163629585
550, 18.228483545163414
550.5, 18.228483545163414
551, 18.285907362898556
551.5, 18.285907362898556
552, 18.37204308950126
552.5, 18.400754998368825
553, 18.400754998368825
553.5, 18.458178816103967
554, 18.458178816103967
554.5, 18.486890724971545
555, 18.486890724971545
555.5, 18.544314542706672
556, 18.544314542706672
556.5, 18.630450269309378
557, 18.802721722514818
557.5, 18.802721722514818
558, 18.888857449117523
558.5, 18.888857449117523
559, 18.974993175720215
559.5, 18.974993175720215
560, 19.032416993455357
560.5, 19.032416993455357
561, 19.147264628925626
561.5, 19.319536082131037
562, 19.319536082131037
562.5, 19.520519444204027
563, 19.520519444204027
563.5, 19.66407898854189
564, 19.66407898854189
564.5, 19.692790897409438
565, 19.778926624012144
565.5, 19.778926624012144
566, 19.893774259482427
566.5, 19.893774259482427
567, 20.06604571268784
567.5, 20.06604571268784
568, 20.152181439290544
568.5, 20.152181439290544
569, 20.180893348158108
569.5, 20.2096052570257
570, 20.2096052570257
570.5, 20.324452892495955
571, 20.324452892495955
571.5, 20.35316480136352
572, 20.35316480136352
572.5, 20.381876710231097
573, 20.381876710231097
573.5, 20.381876710231097
574, 20.381876710231097
574.5, 20.381876710231097
575, 20.35316480136352
575.5, 20.35316480136352
576, 20.295740983628406
576.5, 20.295740983628406
577, 20.267029074760814
577.5, 20.267029074760814
578, 20.267029074760814
578.5, 20.23831716589325
579, 20.23831716589325
579.5, 20.152181439290544
580, 20.152181439290544
580.5, 20.152181439290544
581, 20.152181439290544
581.5, 20.23831716589325
582, 20.180893348158108
582.5, 20.180893348158108
583, 20.094757621555402
583.5, 20.094757621555402
584, 19.979909986085147
584.5, 19.979909986085147
585, 19.86506235061485
585.5, 19.86506235061485
586, 19.750214715144594
586.5, 19.606655170806732
587, 19.606655170806732
587.5, 19.57794326193917
588, 19.57794326193917
588.5, 19.463095626468885
589, 19.463095626468885
589.5, 19.37695989986618
590, 19.37695989986618
590.5, 19.23340035552833
591, 19.118552720058076
591.5, 19.118552720058076
592, 18.974993175720215
592.5, 18.974993175720215
593, 18.917569357985073
593.5, 18.917569357985073
594, 18.802721722514818
594.5, 18.716585995912098
595, 18.716585995912098
595.5, 18.51560263383911
596, 18.51560263383911
596.5, 18.37204308950126
597, 18.37204308950126
597.5, 18.19977163629585
598, 18.19977163629585
598.5, 18.084924000825566
599, 17.941364456487747
599.5, 17.941364456487747
600, 17.7978049121499
600.5, 17.7978049121499
601, 17.682957276679602
601.5, 17.682957276679602
602, 17.539397732341754
602.5, 17.539397732341754
603, 17.33841437026878
603.5, 17.252278643666074
604, 17.252278643666074
604.5, 17.194854825930932
605, 17.194854825930932
605.5, 17.051295281593084
606, 17.051295281593084
606.5, 16.93644764612283
607, 16.93644764612283
607.5, 16.678040466314684
608, 16.62061664857957
608.5, 16.62061664857957
609, 16.59190473971198
609.5, 16.59190473971198
610, 16.47705710424171
610.5, 16.47705710424171
611, 16.362209468771425
611.5, 16.16122610669845
612, 16.16122610669845
612.5, 16.046378471228167
613, 16.046378471228167
613.5, 15.988954653493053
614, 15.988954653493053
614.5, 15.902818926890333
615, 15.902818926890333
615.5, 15.78797129142005
616, 15.701835564817344
616.5, 15.701835564817344
617, 15.529564111611947
617.5, 15.529564111611947
618, 15.500852202744355
618.5, 15.500852202744355
619, 15.472140293876791
619.5, 15.472140293876791
620, 15.414716476141649
620.5, 15.386004567274085
621, 15.386004567274085
621.5, 15.29986884067138
622, 15.29986884067138
622.5, 15.185021205201096
623, 15.185021205201096
623.5, 15.041461660863263
624, 14.926614025392979
624.5, 14.926614025392979
625, 14.783054481055132
625.5, 14.783054481055132
626, 14.754342572187568
626.5, 14.754342572187568
627, 14.72563066331999
627.5, 14.72563066331999
628, 14.696918754452426
628.5, 14.553359210114579
629, 14.553359210114579
629.5, 14.495935392379451
630, 14.495935392379451
630.5, 14.381087756909167
631, 14.381087756909167
631.5, 14.352375848041618
632, 14.352375848041618
632.5, 14.266240121438912
633, 14.180104394836192
633.5, 14.180104394836192
634, 14.122680577101065
634.5, 14.122680577101065
635, 14.007832941630767
635.5, 14.007832941630767
636, 13.892985306160497
636.5, 13.86427339729292
637, 13.86427339729292
637.5, 13.806849579557806
638, 13.806849579557806
638.5, 13.778137670690214
639, 13.778137670690214
639.5, 13.663290035219944
640, 13.663290035219944
640.5, 13.577154308617239
641, 13.54844239974966
641.5, 13.54844239974966
642, 13.519730490882097
642.5, 13.519730490882097
643, 13.54844239974966
643.5, 13.54844239974966
644, 13.63457812635238
644.5, 13.63457812635238
645, 13.577154308617239
645.5, 13.519730490882097
646, 13.519730490882097
646.5, 13.37617094654425
647, 13.37617094654425
647.5, 13.318747128809107
648, 13.318747128809107
648.5, 13.232611402206402
649, 13.232611402206402
649.5, 13.146475675603696
650, 13.146475675603696
650.5, 13.146475675603696
651, 13.117763766736132
651.5, 13.117763766736132
652, 13.089051857868569
652.5, 13.089051857868569
653, 13.06033994900099
653.5, 13.002916131265849
654, 13.002916131265849
654.5, 12.974204222398285
655, 12.974204222398285
655.5, 12.916780404663143
656, 12.916780404663143
656.5, 12.916780404663143
657, 12.916780404663143
657.5, 12.916780404663143
658, 12.88806849579558
658.5, 12.88806849579558
659, 12.88806849579558
659.5, 12.88806849579558
660, 12.88806849579558
660.5, 12.88806849579558
661, 12.916780404663143
661.5, 12.916780404663143
662, 12.85935658692803
662.5, 12.830644678060438
663, 12.830644678060438
663.5, 12.801932769192874
664, 12.801932769192874
664.5, 12.77322086032531
665, 12.77322086032531
665.5, 12.77322086032531
666, 12.77322086032531
666.5, 12.77322086032531
667, 12.830644678060438
667.5, 12.830644678060438
668, 12.85935658692803
668.5, 12.85935658692803
669, 12.830644678060438
669.5, 12.830644678060438
670, 12.744508951457732
670.5, 12.715797042590182
671, 12.715797042590182
671.5, 12.658373224855026
672, 12.658373224855026
672.5, 12.600949407119884
673, 12.600949407119884
673.5, 12.658373224855026
674, 12.658373224855026
674.5, 12.715797042590182
675, 12.77322086032531
675.5, 12.77322086032531
676, 12.801932769192874
676.5, 12.801932769192874
677, 12.801932769192874
677.5, 12.801932769192874
678, 12.85935658692803
678.5, 12.88806849579558
679, 12.88806849579558
679.5, 12.945492313530735
680, 12.945492313530735
680.5, 13.002916131265849
681, 13.002916131265849
681.5, 13.031628040133427
682, 13.031628040133427
682.5, 13.031628040133427
683, 13.002916131265849
683.5, 13.002916131265849
684, 13.031628040133427
684.5, 13.031628040133427
685, 13.089051857868569
685.5, 13.089051857868569
686, 13.089051857868569
686.5, 13.089051857868569
687, 13.146475675603696
687.5, 13.117763766736132
688, 13.117763766736132
688.5, 13.117763766736132
689, 13.117763766736132
689.5, 13.146475675603696
690, 13.146475675603696
690.5, 13.175187584471288
691, 13.175187584471288
691.5, 13.203899493338838
692, 13.261323311073994
692.5, 13.261323311073994
693, 13.232611402206402
693.5, 13.232611402206402
694, 13.232611402206402
694.5, 13.232611402206402
695, 13.146475675603696
695.5, 13.261323311073994
696, 13.261323311073994
696.5, 13.318747128809107
697, 13.318747128809107
697.5, 13.404882855411842
698, 13.404882855411842
698.5, 13.462306673146955
699, 13.462306673146955
699.5, 13.491018582014547
700, 13.491018582014547
700.5, 13.491018582014547
701, 13.433594764279391
701.5, 13.433594764279391
702, 13.290035219941544
702.5, 13.290035219941544
703, 13.347459037676686
703.5, 13.347459037676686
704, 13.404882855411842
704.5, 13.404882855411842
705, 13.404882855411842
705.5, 13.37617094654425
706, 13.37617094654425
706.5, 13.261323311073994
707, 13.261323311073994
707.5, 13.318747128809107
708, 13.37617094654425
708.5, 13.37617094654425
709, 13.462306673146955
709.5, 13.462306673146955
710, 13.433594764279391
710.5, 13.433594764279391
711, 13.404882855411842
711.5, 13.404882855411842
712, 13.318747128809107
712.5, 13.290035219941544
713, 13.290035219941544
713.5, 13.290035219941544
714, 13.290035219941544
714.5, 13.318747128809107
715, 13.318747128809107
715.5, 13.318747128809107
716, 13.318747128809107
716.5, 13.290035219941544
717, 13.290035219941544
717.5, 13.290035219941544
718, 13.290035219941544
718.5, 13.290035219941544
719, 13.232611402206402
719.5, 13.232611402206402
720, 13.318747128809107
720.5, 13.318747128809107
721, 13.347459037676686
721.5, 13.37617094654425
722, 13.37617094654425
722.5, 13.37617094654425
723, 13.37617094654425
723.5, 13.347459037676686
724, 13.347459037676686
724.5, 13.261323311073994
725, 13.203899493338838
725.5, 13.203899493338838
726, 13.232611402206402
726.5, 13.232611402206402
727, 13.290035219941544
727.5, 13.290035219941544
728, 13.347459037676686
728.5, 13.347459037676686
729, 13.318747128809107
729.5, 13.318747128809107
730, 13.318747128809107
730.5, 13.290035219941544
731, 13.290035219941544
731.5, 13.290035219941544
732, 13.290035219941544
732.5, 13.318747128809107
733, 13.318747128809107
733.5, 13.318747128809107
734, 13.318747128809107
734.5, 13.318747128809107
735, 13.318747128809107
735.5, 13.318747128809107
736, 13.290035219941544
736.5, 13.290035219941544
737, 13.261323311073994
737.5, 13.261323311073994
738, 13.261323311073994
738.5, 13.347459037676686
739, 13.347459037676686
739.5, 13.347459037676686
740, 13.347459037676686
740.5, 13.261323311073994
741, 13.261323311073994
741.5, 13.232611402206402
742, 13.290035219941544
742.5, 13.290035219941544
743, 13.347459037676686
743.5, 13.347459037676686
744, 13.37617094654425
744.5, 13.37617094654425
745, 13.404882855411842
745.5, 13.404882855411842
746, 13.404882855411842
746.5, 13.404882855411842
747, 13.404882855411842
747.5, 13.37617094654425
748, 13.37617094654425
748.5, 13.347459037676686
749, 13.347459037676686
749.5, 13.347459037676686
750, 13.347459037676686
750.5, 13.347459037676686
751, 13.232611402206402
751.5, 13.232611402206402
752, 13.175187584471288
752.5, 13.175187584471288
753, 13.117763766736132
753.5, 13.117763766736132
754, 13.089051857868569
754.5, 13.06033994900099
755, 13.06033994900099
755.5, 13.06033994900099
756, 13.06033994900099
756.5, 13.089051857868569
757, 13.089051857868569
757.5, 13.117763766736132
758, 13.117763766736132
758.5, 13.232611402206402
759, 13.290035219941544
759.5, 13.290035219941544
760, 13.290035219941544
760.5, 13.290035219941544
761, 13.318747128809107
761.5, 13.318747128809107
762, 13.347459037676686
762.5, 13.347459037676686
763, 13.404882855411842
763.5, 13.462306673146955
764, 13.462306673146955
764.5, 13.433594764279391
765, 13.433594764279391
765.5, 13.37617094654425
766, 13.37617094654425
766.5, 13.290035219941544
767, 13.261323311073994
767.5, 13.261323311073994
768, 13.261323311073994
768.5, 13.261323311073994
769, 13.261323311073994
769.5, 13.261323311073994
770, 13.318747128809107
770.5, 13.318747128809107
771, 13.347459037676686
771.5, 13.347459037676686
772, 13.347459037676686
772.5, 13.318747128809107
773, 13.318747128809107
773.5, 13.318747128809107
774, 13.318747128809107
774.5, 13.37617094654425
775, 13.37617094654425
775.5, 13.404882855411842
776, 13.404882855411842
776.5, 13.404882855411842
777, 13.347459037676686
777.5, 13.347459037676686
778, 13.37617094654425
778.5, 13.37617094654425
779, 13.433594764279391
779.5, 13.462306673146955
780, 13.462306673146955
780.5, 13.462306673146955
781, 13.462306673146955
781.5, 13.433594764279391
782, 13.433594764279391
782.5, 13.37617094654425
783, 13.37617094654425
783.5, 13.347459037676686
784, 13.290035219941544
784.5, 13.290035219941544
785, 13.117763766736132
785.5, 13.117763766736132
786, 13.06033994900099
786.5, 13.06033994900099
787, 13.002916131265849
787.5, 13.002916131265849
788, 13.031628040133427
788.5, 13.117763766736132
789, 13.117763766736132
789.5, 13.175187584471288
790, 13.175187584471288
790.5, 13.175187584471288
791, 13.175187584471288
791.5, 13.117763766736132
792, 13.031628040133427
792.5, 13.031628040133427
793, 12.974204222398285
793.5, 12.974204222398285
794, 12.916780404663143
794.5, 12.916780404663143
795, 12.85935658692803
795.5, 12.85935658692803
796, 12.830644678060438
796.5, 12.68708513372259
797, 12.68708513372259
797.5, 12.629661315987477
798, 12.629661315987477
798.5, 12.600949407119884
799, 12.600949407119884
799.5, 12.57223749825232
800, 12.57223749825232
800.5, 12.514813680517179
801, 12.428677953914473
801.5, 12.428677953914473
802, 12.285118409576626
802.5, 12.285118409576626
803, 12.227694591841498
803.5, 12.227694591841498
804, 12.170270774106356
804.5, 12.170270774106356
805, 12.112846956371214
805.5, 12.055423138636073
806, 12.055423138636073
806.5, 11.969287412033367
807, 11.969287412033367
807.5, 11.969287412033367
808, 11.969287412033367
808.5, 11.883151685430661
809, 11.797015958827956
809.5, 11.797015958827956
810, 11.71088023222525
810.5, 11.71088023222525
811, 11.567320687887403
811.5, 11.567320687887403
812, 11.452473052417147
812.5, 11.452473052417147
813, 11.33762541694685
813.5, 11.3089135080793
814, 11.3089135080793
814.5, 11.280201599211708
815, 11.280201599211708
815.5, 11.222777781476594
816, 11.222777781476594
816.5, 10.878234875065743
817, 10.878234875065743
817.5, 10.763387239595474
818, 10.619827695257626
818.5, 10.619827695257626
819, 10.562403877522485
819.5, 10.562403877522485
820, 10.476268150919779
820.5, 10.476268150919779
821, 10.418844333184637
821.5, 10.332708606581932
822, 10.332708606581932
822.5, 10.217860971111662
823, 10.217860971111662
823.5, 10.045589517906265
824, 10.045589517906265
824.5, 9.988165700171109
825, 9.988165700171109
825.5, 9.959453791303545
826, 9.844606155833262
826.5, 9.844606155833262
827, 9.78718233809812
827.5, 9.78718233809812
828, 9.815894246965712
828.5, 9.815894246965712
829, 9.844606155833262
829.5, 9.844606155833262
830, 9.815894246965712
830.5, 9.729758520363006
831, 9.729758520363006
831.5, 9.643622793760272
832, 9.643622793760272
832.5, 9.614910884892709
833, 9.614910884892709
833.5, 9.67233470262785
834, 9.67233470262785
834.5, 9.701046611495414
835, 9.758470429230556
835.5, 9.758470429230556
836, 9.815894246965712
836.5, 9.815894246965712
837, 9.902029973568418
837.5, 9.902029973568418
838, 10.103013335641378
838.5, 10.189149062244084
839, 10.189149062244084
839.5, 10.217860971111662
840, 10.217860971111662
840.5, 10.16043715337652
841, 10.16043715337652
841.5, 10.103013335641378
842, 10.103013335641378
842.5, 10.016877609038673
843, 9.930741882435967
843.5, 9.930741882435967
844, 9.815894246965712
844.5, 9.815894246965712
845, 9.586198976025159
845.5, 9.586198976025159
846, 9.528775158290003
846.5, 9.528775158290003
847, 9.500063249422453
847.5, 9.528775158290003
848, 9.528775158290003
848.5, 9.528775158290003
849, 9.528775158290003
849.5, 9.500063249422453
850, 9.500063249422453
850.5, 9.471351340554861
851, 9.413927522819733
851.5, 9.413927522819733
852, 9.356503705084592
852.5, 9.356503705084592
853, 9.327791796217014
853.5, 9.327791796217014
854, 9.241656069614308
854.5, 9.241656069614308
855, 9.098096525276475
855.5, 9.098096525276475
856, 9.098096525276475
856.5, 9.126808434144039
857, 9.126808434144039
857.5, 9.184232251879195
858, 9.184232251879195
858.5, 9.212944160746744
859, 9.212944160746744
859.5, 9.098096525276475
860, 9.069384616408897
860.5, 9.069384616408897
861, 9.040672707541347
861.5, 9.040672707541347
862, 9.011960798673755
862.5, 9.011960798673755
863, 9.069384616408897
863.5, 9.098096525276475
864, 9.098096525276475
864.5, 9.126808434144039
865, 9.126808434144039
865.5, 9.098096525276475
866, 9.098096525276475
866.5, 8.983248889806191
867, 8.983248889806191
867.5, 8.954536980938641
868, 9.040672707541347
868.5, 9.040672707541347
869, 9.241656069614308
869.5, 9.241656069614308
870, 9.241656069614308
870.5, 9.241656069614308
871, 9.241656069614308
871.5, 9.241656069614308
872, 9.184232251879195
872.5, 9.155520343011602
873, 9.155520343011602
873.5, 9.126808434144039
874, 9.126808434144039
874.5, 9.098096525276475
875, 9.098096525276475
875.5, 9.098096525276475
876, 9.098096525276475
876.5, 9.212944160746744
877, 9.327791796217014
877.5, 9.327791796217014
878, 9.356503705084592
878.5, 9.356503705084592
879, 9.356503705084592
879.5, 9.356503705084592
880, 9.29907988734945
880.5, 9.29907988734945
881, 9.29907988734945
881.5, 9.356503705084592
882, 9.356503705084592
882.5, 9.385215613952155
883, 9.385215613952155
883.5, 9.413927522819733
884, 9.413927522819733
884.5, 9.471351340554861
885, 9.528775158290003
885.5, 9.528775158290003
886, 9.557487067157567
886.5, 9.557487067157567
887, 9.557487067157567
887.5, 9.557487067157567
888, 9.557487067157567
888.5, 9.557487067157567
889, 9.643622793760272
889.5, 9.701046611495414
890, 9.701046611495414
890.5, 9.729758520363006
891, 9.729758520363006
891.5, 9.586198976025159
892, 9.586198976025159
892.5, 9.557487067157567
893, 9.557487067157567
893.5, 9.557487067157567
894, 9.557487067157567
894.5, 9.557487067157567
895, 9.557487067157567
895.5, 9.557487067157567
896, 9.67233470262785
896.5, 9.67233470262785
897, 9.67233470262785
897.5, 9.67233470262785
898, 9.67233470262785
898.5, 9.729758520363006
899, 9.729758520363006
899.5, 9.758470429230556
900, 9.758470429230556
900.5, 9.844606155833262
901, 9.844606155833262
901.5, 9.959453791303545
902, 9.959453791303545
902.5, 9.959453791303545
903, 9.988165700171109
903.5, 9.988165700171109
904, 10.074301426773815
904.5, 10.074301426773815
905, 10.16043715337652
905.5, 10.217860971111662
906, 10.217860971111662
906.5, 10.275284788846804
907, 10.275284788846804
907.5, 10.332708606581932
908, 10.332708606581932
908.5, 10.53369196865492
909, 10.53369196865492
909.5, 10.64853960412519
910, 10.734675330727896
910.5, 10.734675330727896
911, 10.906946783933336
911.5, 10.906946783933336
912, 10.993082510536041
912.5, 10.993082510536041
913, 11.222777781476594
913.5, 11.222777781476594
914, 11.481184961284697
914.5, 11.624744505622544
915, 11.624744505622544
915.5, 11.739592141092814
916, 11.739592141092814
916.5, 11.797015958827956
917, 11.797015958827956
917.5, 11.99799932090096
918, 11.99799932090096
918.5, 12.170270774106356
919, 12.227694591841498
919.5, 12.227694591841498
920, 12.256406500709062
920.5, 12.256406500709062
921, 12.256406500709062
921.5, 12.256406500709062
922, 12.285118409576626
922.5, 12.514813680517179
923, 12.514813680517179
923.5, 12.85935658692803
924, 12.85935658692803
924.5, 12.916780404663143
925, 12.916780404663143
925.5, 12.945492313530735
926, 12.945492313530735
926.5, 13.06033994900099
927, 13.261323311073994
927.5, 13.261323311073994
928, 13.433594764279391
928.5, 13.433594764279391
929, 13.491018582014547
929.5, 13.491018582014547
930, 13.605866217484802
930.5, 13.605866217484802
931, 13.7207138529551
931.5, 13.778137670690214
932, 13.778137670690214
932.5, 14.151392485968614
933, 14.151392485968614
933.5, 14.208816303703756
934, 14.208816303703756
934.5, 14.266240121438912
935, 14.43851157464431
935.5, 14.43851157464431
936, 14.58207111898217
936.5, 14.58207111898217
937, 14.955325934260543
937.5, 14.955325934260543
938, 15.09888547859839
938.5, 15.09888547859839
939, 15.156309296333532
939.5, 15.443428385009241
940, 15.443428385009241
940.5, 15.558276020479497
941, 15.558276020479497
941.5, 15.644411747082202
942, 15.644411747082202
942.5, 15.931530835757897
943, 15.931530835757897
943.5, 16.189938015566014
944, 16.27607374216872
944.5, 16.27607374216872
945, 16.47705710424171
945.5, 16.47705710424171
946, 16.563192830844415
946.5, 16.563192830844415
947, 16.735464284049826
947.5, 16.735464284049826
948, 16.93644764612283
948.5, 17.02258337272552
949, 17.02258337272552
949.5, 17.280990552533638
950, 17.280990552533638
950.5, 17.48197391460664
951, 17.48197391460664
951.5, 17.654245367812038
952, 17.740381094414744
952.5, 17.740381094414744
953, 17.7978049121499
953.5, 17.7978049121499
954, 18.056212091958002
954.5, 18.056212091958002
955, 18.37204308950126
955.5, 18.37204308950126
956, 18.486890724971545
956.5, 18.716585995912098
957, 18.716585995912098
957.5, 18.86014554024993
958, 18.86014554024993
958.5, 18.974993175720215
959, 18.974993175720215
959.5, 19.23340035552833
960, 19.23340035552833
960.5, 19.405671808733743
961, 19.606655170806732
961.5, 19.606655170806732
962, 19.721502806277
962.5, 19.721502806277
963, 19.778926624012144
963.5, 19.778926624012144
964, 19.92248616834999
964.5, 20.094757621555402
965, 20.094757621555402
965.5, 20.2096052570257
966, 20.2096052570257
966.5, 20.381876710231097
967, 20.381876710231097
967.5, 20.52543625456896
968, 20.52543625456896
968.5, 20.72641961664192
969, 21.78876024474198
969.5, 21.78876024474198
970, 21.96103169794739
970.5, 21.96103169794739
971, 22.190726968887944
971.5, 22.190726968887944
972, 21.47292924719872
972.5, 21.47292924719872
973, 21.731336427006838
973.5, 21.78876024474198
974, 21.78876024474198
974.5, 21.84618406247712
975, 21.84618406247712
975.5, 21.96103169794739
976, 21.96103169794739
976.5, 22.07587933341766
977, 22.27686269549065
977.5, 22.27686269549065
978, 22.592693693033908
978.5, 22.592693693033908
979, 22.79367705510691
979.5, 22.79367705510691
980, 22.994660417179873
980.5, 22.994660417179873
981, 23.052084234915014
981.5, 23.13821996151772
982, 23.13821996151772
982.5, 23.195643779252862
983, 23.195643779252862
983.5, 23.339203323590723
984, 23.339203323590723
984.5, 23.339203323590723
985, 23.339203323590723
985.5, 23.367915232458273
986, 23.396627141325837
986.5, 23.396627141325837
987, 23.42533905019343
987.5, 23.42533905019343
988, 23.82730577433938
988.5, 23.82730577433938
989, 23.913441500942085
989.5, 23.913441500942085
990, 23.97086531867724
990.5, 24.143136771882638
991, 24.143136771882638
991.5, 24.1718486807502
992, 24.1718486807502
992.5, 24.229272498485344
993, 24.229272498485344
993.5, 24.401543951690755
994, 24.401543951690755
994.5, 24.401543951690755
995, 24.573815404896166
995.5, 24.573815404896166
996, 24.573815404896166
996.5, 24.573815404896166
997, 24.631239222631308
997.5, 24.631239222631308
998, 24.746086858101606
998.5, 24.83222258470431
999, 24.83222258470431
999.5, 25.00449403790971
1000, 25.00449403790971
1000.5, 25.148053582247556
1001, 25.148053582247556
1001.5, 25.262901217717825
1002, 25.262901217717825
1002.5, 25.435172670923237
1003, 25.49259648865838
1003.5, 25.49259648865838
1004, 25.607444124128676
1004.5, 25.607444124128676
1005, 25.751003668466495
1005.5, 25.751003668466495
1006, 25.808427486201637
1006.5, 25.894563212804343
1007, 25.894563212804343
1007.5, 25.923275121671935
1008, 25.923275121671935
1008.5, 26.03812275714219
1009, 26.03812275714219
1009.5, 26.124258483744896
1010, 26.124258483744896
1010.5, 26.267818028082743
1011, 26.382665663553027
1011.5, 26.382665663553027
1012, 26.612360934493566
1012.5, 26.612360934493566
1013, 26.641072843361144
1013.5, 26.641072843361144
1014, 26.72720856996385
1014.5, 26.72720856996385
1015, 26.870768114301697
1015.5, 27.129175294109814
1016, 27.129175294109814
1016.5, 27.21531102071252
1017, 27.21531102071252
1017.5, 27.330158656182817
1018, 27.330158656182817
1018.5, 27.55985392712337
1019, 27.732125380328768
1019.5, 27.732125380328768
1020, 27.846973015799037
1020.5, 27.846973015799037
1021, 27.87568492466663
1021.5, 27.87568492466663
1022, 27.933108742401743
1022.5, 27.933108742401743
1023, 27.933108742401743
1023.5, 27.990532560136884
1024, 27.990532560136884
1024.5, 28.105380195607182
1025, 28.105380195607182
1025.5, 28.42121119315044
1026, 28.42121119315044
1026.5, 28.794466008428813
1027, 28.794466008428813
1027.5, 29.024161279369366
1028, 29.110297005972072
1028.5, 29.110297005972072
1029, 29.225144641442355
1029.5, 29.225144641442355
1030, 29.28256845917751
1030.5, 29.28256845917751
1031, 29.397416094647767
1031.5, 29.397416094647767
1032, 29.62711136558832
1032.5, 29.741959001058603
1033, 29.741959001058603
1033.5, 29.885518545396437
1034, 29.885518545396437
1034.5, 30.057789998601862
1035, 30.057789998601862
1035.5, 30.029078089734284
1036, 30.029078089734284
1036.5, 30.029078089734284
1037, 29.94294236313158
1037.5, 29.94294236313158
1038, 30.86172344689379
1038.5, 30.86172344689379
1039, 31.32111398877491
1039, 29.42612800351533
1039.5, 31.32111398877491
1039.5, 29.42612800351533
1040, 30.48846863161539
1040.5, 30.718163902555943
1041, 30.718163902555943
1041.5, 31.033994900099202
1042, 31.033994900099202
1042.5, 31.263690171039755
1043, 31.263690171039755
1043.5, 31.522097350847872
1044, 31.522097350847872
1044.5, 31.809216439523567
1045, 31.924064074993836
1045.5, 31.924064074993836
1046, 32.125047437066826
1046.5, 32.125047437066826
1047, 32.125047437066826
1047.5, 32.125047437066826
1048, 32.21118316366953
1048.5, 32.326030799139815
1049, 32.326030799139815
1049.5, 32.52701416121279
1050, 32.52701416121279
1050.5, 32.64186179668309
1051, 32.64186179668309
1051.5, 32.90026897649119
1052, 32.90026897649119
1052.5, 32.986404703093896
1053, 33.302235700637155
1053.5, 33.302235700637155
1054, 33.474507153842566
1054.5, 33.474507153842566
1055, 33.7329143336507
1055.5, 33.7329143336507
1056, 33.84776196912097
1056.5, 33.84776196912097
1057, 33.991321513458814
1057.5, 34.19230487553179
1058, 34.19230487553179
1058.5, 34.33586441986964
1059, 34.33586441986964
1059.5, 34.42200014647234
1060, 34.42200014647234
1060.5, 34.50813587307505
1061, 34.50813587307505
1061.5, 34.479423964207484
1062, 34.39328823760478
1062.5, 34.39328823760478
1063, 35.45562886570485
1063.5, 35.45562886570485
1064, 35.74274795438052
1064.5, 35.74274795438052
1065, 35.74274795438052
1065.5, 34.79525496175074
1066, 34.79525496175074
1066.5, 34.7378311440156
1067, 34.7378311440156
1067.5, 34.68040732628049
1068, 34.68040732628049
1068.5, 34.91010259722104
1069, 34.91010259722104
1069.5, 35.19722168589671
1070, 35.28335741249941
1070.5, 35.28335741249941
1071, 35.25464550363185
1071.5, 35.25464550363185
1072, 35.28335741249941
1072.5, 35.28335741249941
1073, 35.59918841004267
1073.5, 35.59918841004267
1074, 36.029867043056214
1074.5, 36.31698613173191
1075, 36.31698613173191
1075.5, 35.36949313910212
1076, 35.36949313910212
1076.5, 35.3982050479697
1077, 35.3982050479697
1077.5, 36.029867043056214
1078, 36.00115513418865
1078.5, 36.00115513418865
1079, 35.97244322532107
1079.5, 35.97244322532107
1080, 35.91501940758593
1080.5, 35.91501940758593
1081, 36.08729086079137
1081.5, 36.08729086079137
1082, 36.25956231399677
1082.5, 36.31698613173191
1083, 36.31698613173191
1083.5, 36.31698613173191
1084, 36.31698613173191
1084.5, 36.28827422286433
1085, 36.28827422286433
1085.5, 35.88630749871837
1086, 35.88630749871837
1086.5, 35.80017177211566
1087, 35.68532413664539
1087.5, 35.68532413664539
1088, 35.828883680983225
1088.5, 35.828883680983225
1089, 35.94373131645351
1089.5, 35.94373131645351
1090, 35.91501940758593
1090.5, 35.77145986324811
1091, 35.77145986324811
1091.5, 35.68532413664539
1092, 35.68532413664539
1092.5, 35.65661222777781
1093, 35.65661222777781
1093.5, 35.62790031891025
1094, 35.62790031891025
1094.5, 35.68532413664539
1095, 35.714036045512955
1095.5, 35.714036045512955
1096, 35.4843407745724
1096.5, 35.4843407745724
1097, 35.340781230234555
1097.5, 35.340781230234555
1098, 35.31206932136699
1098.5, 35.31206932136699
1099, 35.28335741249941
1100.5, 35.31206932136699
1101, 35.31206932136699
1101.5, 35.024950232691296
1102, 35.024950232691296
1102.5, 34.68040732628049
1103, 34.68040732628049
1103.5, 34.56555969081019
1104, 34.50813587307505
1104.5, 34.50813587307505
1105, 34.50813587307505
1105.5, 34.50813587307505
1106, 34.50813587307505
1106.5, 34.50813587307505
1107, 34.42200014647234
1107.5, 34.27844060213451
1108, 34.27844060213451
1108.5, 34.134881057796676
1109, 34.134881057796676
1109.5, 33.87647387798853
1110, 33.87647387798853
1110.5, 34.651695417412895
1110.5, 32.75670943215334
1111, 34.651695417412895
1111, 32.75670943215334
1111.5, 34.479423964207484
1111.5, 32.58443797894793
1112, 34.19230487553179
1112, 32.326030799139815
1112.5, 34.19230487553179
1112.5, 32.326030799139815
1113, 33.0725404296966
1113.5, 33.0725404296966
1114, 32.78542134102091
1114.5, 32.78542134102091
1115, 32.52701416121279
1115.5, 32.52701416121279
1116, 32.326030799139815
1116.5, 32.010199801596556
1117, 32.010199801596556
1117.5, 32.010199801596556
1118, 32.010199801596556
1118.5, 32.010199801596556
1119, 32.010199801596556
1119.5, 31.608233077450578
1120, 31.378537806510025
1120.5, 31.378537806510025
1121, 31.29240207990732
1121.5, 31.29240207990732
1122, 31.148842535569486
1122.5, 31.148842535569486
1123, 31.062706808966766
1123.5, 31.062706808966766
1124, 30.947859173496497
1124.5, 30.689451993688394
1125, 30.689451993688394
1125.5, 30.45975672274784
1126, 30.45975672274784
1126.5, 30.029078089734284
1127, 30.029078089734284
1127.5, 29.91423045426403
1128, 29.91423045426403
1128.5, 29.741959001058603
1129, 30.344909087277543
1129, 28.27765164881258
1129.5, 30.344909087277543
1129.5, 28.27765164881258
1130, 30.11521381633699
1130, 28.162804013342296
1130.5, 30.11521381633699
1130.5, 28.162804013342296
1131, 29.024161279369366
1131.5, 29.024161279369366
1132, 30.057789998601862
1132, 28.105380195607182
1132.5, 30.057789998601862
1132.5, 28.105380195607182
1133, 30.17263763407213
1133, 27.96182065126932
1133.5, 27.933108742401743
1134, 27.933108742401743
1134.5, 27.76083728919633
1135, 27.76083728919633
1135.5, 28.220227831077437
1136, 28.220227831077437
1136.5, 28.07666828673959
1137, 27.933108742401743
1137.5, 27.933108742401743
1138, 27.732125380328768
1138.5, 27.732125380328768
1139, 28.679618372958544
1139, 26.813344296566555
1139.5, 28.679618372958544
1139.5, 26.813344296566555
1140, 28.7370421906937
1140, 26.72720856996385
1140.5, 28.7370421906937
1140.5, 26.72720856996385
1141, 28.33507546654772
1141, 26.35395375468545
1141.5, 27.990532560136884
1141.5, 25.98069893940705
1142, 27.990532560136884
1142, 25.98069893940705
1142.5, 27.58856583599092
1142.5, 25.66486794186379
1143, 27.58856583599092
1143, 25.66486794186379
1143.5, 27.129175294109814
1143.5, 25.205477399982698
1144, 27.129175294109814
1144, 25.205477399982698
1144.5, 26.956903840904403
1145, 26.956903840904403
1145.5, 25.86585130393678
1146, 25.55002030639352
1146.5, 25.55002030639352
1147, 25.23418930885026
1147.5, 25.23418930885026
1148, 26.03812275714219
1148, 24.143136771882638
1148.5, 26.03812275714219
1148.5, 24.143136771882638
1149, 25.033205946777272
1149.5, 24.889646402439425
1150, 24.889646402439425
1150.5, 25.636156032996226
1150.5, 23.769881956604237
1151, 25.636156032996226
1151, 23.769881956604237
1151.5, 25.578732215261084
1151.5, 23.683746230001532
1152, 25.578732215261084
1152, 23.683746230001532
1152.5, 24.31540822508805
1153, 24.31540822508805
1153.5, 24.774798766969155
1153.5, 22.908524690577167
1154, 23.683746230001532
1154.5, 23.683746230001532
1155, 23.42533905019343
1155.5, 23.42533905019343
1156, 23.13821996151772
1156.5, 23.13821996151772
1157, 23.023372326047465
1157.5, 23.023372326047465
1158, 22.65011751076905
1158.5, 22.391710330960933
1159, 22.391710330960933
1159.5, 22.219438877755508
1160, 22.219438877755508
1160.5, 21.96103169794739
1161, 21.96103169794739
1161.5, 21.874895971344685
1162, 21.731336427006838
1162.5, 21.731336427006838
1163, 21.616488791536582
1163.5, 21.616488791536582
1164, 21.501641156066285
1164.5, 21.501641156066285
1165, 21.30065779399331
1165.5, 21.30065779399331
1166, 20.92740297871491
1166.5, 21.673912609271696
1166.5, 19.807638532879707
1167, 21.673912609271696
1167, 19.807638532879707
1167.5, 21.444217338331143
1167.5, 19.405671808733743
1168, 21.444217338331143
1168, 19.405671808733743
1168.5, 21.21452206739059
1168.5, 19.319536082131037
1169, 21.21452206739059
1169, 19.319536082131037
1169.5, 20.094757621555402
1170, 20.094757621555402
1170.5, 19.86506235061485
1171, 20.468012436833803
1171, 18.601738360441814
1171.5, 20.468012436833803
1171.5, 18.601738360441814
1172, 19.290824173263474
1172.5, 19.290824173263474
1173, 20.12346953042298
1173, 18.19977163629585
1173.5, 20.12346953042298
1173.5, 18.19977163629585
1174, 20.008621894952697
1174, 18.084924000825566
1174.5, 20.008621894952697
1174.5, 18.084924000825566
1175, 18.630450269309378
1175.5, 18.544314542706672
1176, 18.544314542706672
1176.5, 18.19977163629585
1177, 18.19977163629585
1177.5, 17.99878827422286
1178, 17.99878827422286
1178.5, 17.82651682101745
1179, 17.711669185547194
1179.5, 17.711669185547194
1180, 17.45326200573905
1180.5, 17.45326200573905
1181, 17.33841437026878
1181.5, 17.33841437026878
1182, 16.96515955499038
1182.5, 16.96515955499038
1183, 16.764176192917404
1183.5, 16.62061664857957
1184, 16.62061664857957
1184.5, 16.534480921976865
1185, 16.534480921976865
1185.5, 16.390921377639017
1186, 16.390921377639017
1186.5, 16.16122610669845
1187, 16.16122610669845
1187.5, 15.816683200287613
1188, 15.701835564817344
1188.5, 15.701835564817344
1189, 15.58698792934706
1189.5, 15.58698792934706
1190, 15.443428385009241
1190.5, 15.443428385009241
1191, 15.242445022936238
1191.5, 14.955325934260543
1192, 14.955325934260543
1192.5, 14.869190207657837
1193, 14.869190207657837
1193.5, 14.58207111898217
1194, 14.58207111898217
1194.5, 14.381087756909167
1195, 14.381087756909167
1195.5, 14.294952030306462
1196, 14.208816303703756
1196.5, 14.208816303703756
1197, 13.979121032763203
1197.5, 13.979121032763203
1198, 13.892985306160497
1198.5, 13.892985306160497
1199, 13.577154308617239
1199.5, 13.577154308617239
1200, 13.491018582014547
1200.5, 13.404882855411842
1201, 13.404882855411842
1201.5, 13.261323311073994
1202, 13.261323311073994
1202.5, 13.117763766736132
1203, 13.117763766736132
1203.5, 13.002916131265849
1204, 12.916780404663143
1204.5, 12.916780404663143
1205, 12.744508951457732
1205.5, 12.744508951457732
1206, 12.514813680517179
1206.5, 12.514813680517179
1207, 12.457389862782037
1207.5, 12.457389862782037
1208, 12.256406500709062
1208.5, 12.026711229768509
1209, 12.026711229768509
1209.5, 11.940575503165803
1210, 11.940575503165803
1210.5, 11.911863594298225
1211, 11.911863594298225
1211.5, 11.883151685430661
1212, 11.883151685430661
1212.5, 11.768304049960406
1213, 11.452473052417147
1213.5, 11.452473052417147
1214, 11.395049234681991
1214.5, 11.395049234681991
1215, 11.33762541694685
1215.5, 11.33762541694685
1216, 11.251489690344144
1216.5, 11.251489690344144
1217, 11.165353963741438
1217.5, 11.165353963741438
1218, 11.165353963741438
1218.5, 11.165353963741438
1219, 11.165353963741438
1219.5, 10.993082510536041
1220, 10.993082510536041
1220.5, 10.906946783933336
1221, 10.878234875065743
1221.5, 10.878234875065743
1222, 10.792099148463038
1222.5, 10.792099148463038
1223, 10.64853960412519
1223.5, 10.64853960412519
1224, 10.504980059787357
1224.5, 10.504980059787357
1225, 10.361420515449524
1225.5, 10.390132424317073
1226, 10.390132424317073
1226.5, 10.44755624205223
1227, 10.44755624205223
1227.5, 10.562403877522485
1228, 10.562403877522485
1228.5, 10.562403877522485
1229, 10.562403877522485
1229.5, 10.44755624205223
1230, 10.303996697714368
1230.5, 10.303996697714368
1231, 10.217860971111662
1231.5, 10.217860971111662
1232, 10.217860971111662
1232.5, 10.217860971111662
1233, 10.246572879979226
1233.5, 10.217860971111662
1234, 10.217860971111662
1234.5, 10.16043715337652
1235, 10.16043715337652
1235.5, 10.13172524450897
1236, 10.13172524450897
1236.5, 10.045589517906265
1237, 10.045589517906265
1237.5, 9.959453791303545
1238, 9.758470429230556
1238.5, 9.758470429230556
1239, 9.729758520363006
1239.5, 9.729758520363006
1240, 9.701046611495414
1240.5, 9.701046611495414
1241, 9.758470429230556
1241.5, 9.758470429230556
1242, 9.815894246965712
1242.5, 9.873318064700825
1243, 9.873318064700825
1243.5, 9.959453791303545
1244, 9.959453791303545
1244.5, 9.988165700171109
1245, 9.988165700171109
1245.5, 10.045589517906265
1246, 10.045589517906265
1246.5, 10.103013335641378
1247, 10.045589517906265
1247.5, 10.045589517906265
1248, 10.045589517906265
1248.5, 10.045589517906265
1249, 10.016877609038673
1249.5, 10.016877609038673
1250, 9.959453791303545
1250.5, 9.930741882435967
1251, 9.930741882435967
1251.5, 9.844606155833262
1252, 9.844606155833262
1252.5, 9.815894246965712
1253, 9.815894246965712
1253.5, 9.78718233809812
1254, 9.78718233809812
1254.5, 9.78718233809812
1255, 9.930741882435967
1255.5, 9.930741882435967
1256, 9.959453791303545
1256.5, 9.959453791303545
1257, 10.016877609038673
1257.5, 10.016877609038673
1258, 10.074301426773815
1258.5, 10.074301426773815
1259, 10.103013335641378
1259.5, 9.844606155833262
1260, 9.844606155833262
1260.5, 9.528775158290003
1261, 9.528775158290003
1261.5, 9.442639431687297
1262, 9.442639431687297
1262.5, 9.614910884892709
1263, 9.701046611495414
1263.5, 9.701046611495414
1264, 9.729758520363006
1264.5, 9.729758520363006
1265, 9.758470429230556
1265.5, 9.758470429230556
1266, 9.815894246965712
1266.5, 9.815894246965712
1267, 9.930741882435967
1267.5, 9.902029973568418
1268, 9.902029973568418
1268.5, 9.78718233809812
1269, 9.78718233809812
1269.5, 9.78718233809812
1270, 9.78718233809812
1270.5, 9.701046611495414
1271, 9.701046611495414
1271.5, 9.643622793760272
1272, 9.643622793760272
1272.5, 9.643622793760272
1273, 9.643622793760272
1273.5, 9.643622793760272
1274, 9.701046611495414
1274.5, 9.701046611495414
1275, 9.614910884892709
1275.5, 9.557487067157567
1276, 9.557487067157567
1276.5, 9.557487067157567
1277, 9.557487067157567
1277.5, 9.586198976025159
1278, 9.586198976025159
1278.5, 9.643622793760272
1279, 9.643622793760272
1279.5, 9.758470429230556
1280, 9.902029973568418
1280.5, 9.902029973568418
1281, 9.930741882435967
1281.5, 9.930741882435967
1282, 9.729758520363006
1282.5, 9.729758520363006
1283, 9.643622793760272
1283.5, 9.643622793760272
1283.9999999999998, 9.586198976025159
1284.5, 9.729758520363006
1285, 9.729758520363006
1285.5, 9.844606155833262
1286, 9.844606155833262
1286.5, 9.930741882435967
1287, 9.930741882435967
1287.5, 9.988165700171109
1288, 9.988165700171109
1288.5, 10.13172524450897
1289, 10.16043715337652
1289.5, 10.16043715337652
1290, 10.189149062244084
1290.5, 10.189149062244084
1291, 10.275284788846804
1291.5, 10.275284788846804
1292, 10.332708606581932
1292.5, 10.390132424317073
1293, 10.390132424317073
1293.5, 10.390132424317073
1294, 10.390132424317073
1294.5, 10.390132424317073
1295, 10.390132424317073
1295.5, 10.390132424317073
1296, 10.390132424317073
1296.5, 10.361420515449524
1297, 10.303996697714368
1297.5, 10.303996697714368
1298, 10.275284788846804
1298.5, 10.275284788846804
1299, 10.189149062244084
1299.5, 10.189149062244084
1300, 10.103013335641378
1300.5, 10.103013335641378
1301, 10.074301426773815
1301.4999999999998, 10.045589517906265
1302, 10.045589517906265
1302.5, 10.045589517906265
1303, 10.045589517906265
1303.5, 10.045589517906265
1304, 10.045589517906265
1304.5, 10.045589517906265
1305, 10.074301426773815
1305.5, 10.074301426773815
1306, 10.074301426773815
1306.5, 10.074301426773815
1307, 10.016877609038673
1307.5, 10.016877609038673
1308, 9.815894246965712
1308.5, 9.815894246965712
1309, 9.701046611495414
1309.5, 9.643622793760272
1310, 9.643622793760272
1310.4999999999998, 9.528775158290003
1311, 9.528775158290003
1311.4999999999998, 9.557487067157567
1312, 9.557487067157567
1312.4999999999998, 9.586198976025159
1313, 9.586198976025159
1313.5, 9.442639431687297
1314, 9.29907988734945
1314.5, 9.29907988734945
1315, 9.098096525276475
1315.5, 9.098096525276475
1315.9999999999998, 9.126808434144039
1316.5, 9.126808434144039
1316.9999999999998, 9.155520343011602
1317.5, 9.155520343011602
1317.9999999999998, 9.155520343011602
1318.5, 9.184232251879195
1319, 9.184232251879195
1319.5, 9.212944160746744
1320, 9.212944160746744
1320.5, 9.29907988734945
1321, 9.29907988734945
1321.4999999999998, 9.29907988734945
1322, 9.241656069614308
1322.4999999999998, 9.241656069614308
1323, 9.413927522819733
1323.4999999999998, 9.413927522819733
1324, 9.500063249422453
1324.4999999999998, 9.500063249422453
1325, 9.586198976025159
1325.5, 9.586198976025159
1326, 9.528775158290003
1326.5, 9.471351340554861
1327, 9.471351340554861
1327.5, 9.500063249422453
1327.9999999999998, 9.500063249422453
1328.5, 9.500063249422453
1328.9999999999998, 9.500063249422453
1329.5, 9.500063249422453
1329.9999999999998, 9.500063249422453
1330.5, 9.442639431687297
1331, 9.413927522819733
1331.5, 9.413927522819733
1332, 9.442639431687297
1332.5, 9.442639431687297
1333, 9.528775158290003
1333.4999999999998, 9.528775158290003
1334, 9.586198976025159
1334.4999999999998, 9.557487067157567
1335, 9.557487067157567
1335.4999999999998, 9.643622793760272
1336, 9.643622793760272
1336.5, 9.67233470262785
1337, 9.67233470262785
1337.5, 9.557487067157567
1338, 9.557487067157567
1338.5, 9.500063249422453
1338.9999999999998, 9.385215613952155
1339.5, 9.385215613952155
1339.9999999999998, 9.442639431687297
1340.5, 9.442639431687297
1340.9999999999998, 9.442639431687297
1341.5, 9.442639431687297
1341.9999999999998, 9.471351340554861
1342.5, 9.471351340554861
1343, 9.413927522819733
1343.5, 9.29907988734945
1344, 9.29907988734945
1344.4999999999998, 9.212944160746744
1345, 9.212944160746744
1345.4999999999998, 9.2703679784819
1346, 9.2703679784819
1346.4999999999998, 9.2703679784819
1347, 9.126808434144039
1347.4999999999998, 9.126808434144039
1348, 9.011960798673755
1348.5, 9.011960798673755
1349, 8.983248889806191
1349.5, 8.983248889806191
1350.9999999999998, 8.897113163203485
1351.5, 8.782265527733202
1351.9999999999998, 8.782265527733202
1352.5, 8.839689345468344
1352.9999999999998, 8.839689345468344
1353.5, 8.92582507207105
1354, 8.92582507207105
1354.5, 8.92582507207105
1355, 8.92582507207105
1355.5, 8.954536980938641
1356, 8.954536980938641
1356.4999999999998, 8.954536980938641
1357, 8.782265527733202
1357.4999999999998, 8.782265527733202
1358, 8.782265527733202
1358.4999999999998, 8.782265527733202
1359, 8.897113163203485
1359.4999999999998, 8.897113163203485
1360, 8.983248889806191
1360.5, 9.011960798673755
1361, 9.011960798673755
1361.5, 9.011960798673755
1361.9999999999998, 9.011960798673755
1362.5, 9.040672707541347
1362.9999999999998, 9.040672707541347
1363.5, 9.098096525276475
1363.9999999999998, 9.098096525276475
1364.5, 9.098096525276475
1364.9999999999998, 9.126808434144039
1365.5, 9.126808434144039
1366, 9.241656069614308
1366.5, 9.241656069614308
1367, 9.2703679784819
1367.5, 9.2703679784819
1368, 9.2703679784819
1368.4999999999998, 9.2703679784819
1369, 9.2703679784819
1369.4999999999998, 9.212944160746744
1370, 9.212944160746744
1370.4999999999998, 9.155520343011602
1371, 9.155520343011602
1371.5, 9.241656069614308
1372, 9.241656069614308
1372.5, 9.184232251879195
1373, 9.098096525276475
1373.5, 9.098096525276475
1373.9999999999998, 9.098096525276475
1374.5, 9.098096525276475
1374.9999999999998, 9.098096525276475
1375.5, 9.098096525276475
1375.9999999999998, 9.040672707541347
1376.5, 9.212944160746744
1376.9999999999998, 9.212944160746744
1377.5, 9.241656069614308
1378, 9.241656069614308
1378.5, 9.2703679784819
1379, 9.2703679784819
1379.4999999999998, 9.241656069614308
1380, 9.241656069614308
1380.4999999999998, 9.155520343011602
1381, 9.126808434144039
1381.4999999999998, 9.126808434144039
1382, 9.126808434144039
1382.4999999999998, 9.126808434144039
1383, 9.011960798673755
1383.5, 9.011960798673755
1384, 9.040672707541347
1384.5, 9.040672707541347
1385, 9.069384616408897
1385.5, 9.126808434144039
1385.9999999999998, 9.126808434144039
1386.5, 9.126808434144039
1386.9999999999998, 9.126808434144039
1387.5, 9.069384616408897
1387.9999999999998, 9.069384616408897
1388.5, 9.011960798673755
1389, 9.040672707541347
1389.5, 9.040672707541347
1390, 9.098096525276475
1390.5, 9.098096525276475
1391, 9.184232251879195
1391.4999999999998, 9.184232251879195
1392, 9.184232251879195
1392.4999999999998, 9.184232251879195
1393, 9.011960798673755
1393.4999999999998, 8.983248889806191
1394, 8.983248889806191
1394.4999999999998, 9.011960798673755
1395, 9.011960798673755
1395.5, 9.011960798673755
1396, 9.011960798673755
1396.5, 9.011960798673755
1396.9999999999998, 9.011960798673755
1397.5, 9.069384616408897
1397.9999999999998, 9.126808434144039
1398.5, 9.126808434144039
1398.9999999999998, 9.126808434144039
1399.5, 9.126808434144039
1399.9999999999998, 9.155520343011602
1424.561403508772, 9.118236472945895
1413.64522417154, 9.118236472945895
1435.477582846004, 9.218436873747493
1441.7153996101363, 9.418837675350687
