302.5, 39.736663573872875
303, 39.736663573872875
303.5, 39.70798040565482
304, 39.736663573872875
304.5, 39.736663573872875
305, 39.79402991030898
305.5, 39.79402991030898
306, 39.82271307852703
306.5, 39.85139624674508
307, 39.85139624674508
307.5, 39.908762583181186
308, 39.908762583181186
308.5, 39.96612891961729
309, 39.96612891961729
309.5, 40.023495256053394
310, 40.023495256053394
310.5, 40.023495256053394
311, 40.0808615924895
311.5, 40.0808615924895
312, 40.10954476070755
312.5, 40.1382279289256
313, 40.1382279289256
313.5, 40.195594265361706
314, 40.195594265361706
314.5, 40.25296060179781
315, 40.339010106451965
315.5, 40.339010106451965
316, 40.39637644288807
316.5, 40.39637644288807
317, 40.482425947542225
317.5, 40.482425947542225
318, 40.53979228397833
318.5, 40.59715862041443
319, 40.59715862041443
319.5, 40.59715862041443
320, 40.59715862041443
320.5, 40.65452495685054
321, 40.71189129328664
321.5, 40.71189129328664
322, 40.769257629722745
322.5, 40.769257629722745
323, 40.7979407979408
323.5, 40.7979407979408
324, 40.7979407979408
324.5, 40.7979407979408
325, 40.7979407979408
325.5, 40.88399030259495
326, 40.88399030259495
326.5, 40.941356639031056
327, 40.97003980724911
327.5, 40.97003980724911
328, 41.02740614368521
328.5, 41.02740614368521
329, 41.056089311903264
329.5, 41.056089311903264
330, 41.11345564833937
330.5, 41.199505152993524
331, 41.199505152993524
331.5, 41.25687148942963
332, 41.25687148942963
332.5, 41.31423782586573
333, 41.342920994083784
333.5, 41.342920994083784
334, 41.40028733051989
334.5, 41.40028733051989
335, 41.42897049873794
335.5, 41.45765366695599
336, 41.45765366695599
336.5, 41.515020003392095
337, 41.515020003392095
337.5, 41.5723863398282
338, 41.5723863398282
338.5, 41.658435844482355
339, 41.71580218091846
339.5, 41.71580218091846
340, 41.77316851735456
340.5, 41.77316851735456
341, 41.88790119022677
341.5, 41.91658435844482
342, 41.91658435844482
342.5, 41.91658435844482
343, 41.91658435844482
343.5, 41.97395069488093
344, 41.97395069488093
344.5, 42.03131703131703
345, 42.088683367753134
345.5, 42.088683367753134
346, 42.20341604062534
346.5, 42.20341604062534
347, 42.260782377061446
347.5, 42.31814871349755
348, 42.31814871349755
348.5, 42.375515049933654
349, 42.375515049933654
349.5, 42.404198218151706
350, 42.404198218151706
350.5, 42.49024772280586
351, 42.547614059241965
351.5, 42.547614059241965
352, 42.60498039567807
352.5, 42.60498039567807
353, 42.66234673211417
353.5, 42.71971306855028
354, 42.71971306855028
354.5, 42.77707940498638
355, 42.77707940498638
355.5, 42.89181207785859
356, 42.89181207785859
356.5, 42.92049524607664
357, 42.94917841429469
357.5, 42.94917841429469
358, 43.0065447507308
358.5, 43.0065447507308
359, 43.03522791894885
359.5, 43.121277423603004
360, 43.121277423603004
360.5, 43.20732692825716
361, 43.20732692825716
361.5, 43.293376432911316
362, 43.293376432911316
362.5, 43.293376432911316
363, 43.293376432911316
363.5, 43.293376432911316
364, 43.35074276934742
364.5, 43.35074276934742
365, 43.49415861043768
365.5, 43.580208115091835
366, 43.580208115091835
366.5, 43.69494078796404
367, 43.69494078796404
367.5, 43.75230712440015
368, 43.80967346083625
368.5, 43.80967346083625
369, 43.92440613370846
369.5, 43.92440613370846
370, 43.98177247014456
370.5, 43.98177247014456
371, 44.06782197479872
371.5, 44.09650514301677
372, 44.09650514301677
372.5, 44.12518831123482
373, 44.12518831123482
373.5, 44.23992098410703
374, 44.325970488761186
374.5, 44.325970488761186
375, 44.41201999341534
375.5, 44.41201999341534
376, 44.440703161633394
376.5, 44.440703161633394
377, 44.4980694980695
377.5, 44.52675266628755
378, 44.52675266628755
378.5, 44.64148533915976
379, 44.64148533915976
379.5, 44.69885167559586
380, 44.78490118025002
380.5, 44.78490118025002
381, 44.87095068490417
381.5, 44.87095068490417
382, 44.92831702134028
382.5, 44.92831702134028
383, 45.01436652599443
383.5, 45.10041603064859
384, 45.10041603064859
384.5, 45.186465535302744
385, 45.186465535302744
385.5, 45.358564544611056
386, 45.41593088104716
386.5, 45.41593088104716
387, 45.55934672213742
387.5, 45.55934672213742
388, 45.645396226791576
388.5, 45.73144573144573
389, 45.73144573144573
389.5, 45.788812067881835
390, 45.788812067881835
390.5, 45.87486157253599
391, 45.87486157253599
391.5, 45.932227908972095
392, 46.01827741362625
392.5, 46.01827741362625
393, 46.075643750062355
393.5, 46.075643750062355
394, 46.16169325471651
394.5, 46.24774275937067
395, 46.24774275937067
395.5, 46.33379226402482
396, 46.33379226402482
396.5, 46.47720810511508
397, 46.47720810511508
397.5, 46.59194077798729
398, 46.677990282641446
398.5, 46.677990282641446
399, 46.7640397872956
399.5, 46.7640397872956
400, 46.821406123731705
400.5, 46.87877246016781
401, 46.87877246016781
401.5, 47.02218830125807
402, 47.02218830125807
402.5, 47.07955463769417
403, 47.07955463769417
403.5, 47.22297047878443
404, 47.251653647002485
404.5, 47.251653647002485
405, 47.30901998343859
405.5, 47.30901998343859
406, 47.395069488092744
406.5, 47.4811189927469
407, 47.4811189927469
407.5, 47.567168497401056
408, 47.567168497401056
408.5, 47.710584338491316
409, 47.710584338491316
409.5, 47.76795067492742
410, 47.82531701136352
410.5, 47.82531701136352
411, 47.91136651601768
411.5, 47.91136651601768
412, 47.997416020671835
412.5, 48.140831861762095
413, 48.140831861762095
413.5, 48.31293087107041
414, 48.31293087107041
414.5, 48.427663543942614
415, 48.571079385032874
415.5, 48.571079385032874
416, 48.68581205790508
416.5, 48.68581205790508
417, 48.77186156255924
417.5, 48.77186156255924
418, 48.857911067213394
418.5, 48.886594235431446
419, 48.886594235431446
419.5, 49.00132690830365
420, 49.00132690830365
420.5, 49.11605958117586
421, 49.23079225404807
421.5, 49.23079225404807
422, 49.34552492692028
422.5, 49.34552492692028
423, 49.460257599792484
423.5, 49.460257599792484
424, 49.57499027266469
424.5, 49.775772450191056
425, 49.775772450191056
425.5, 49.86182195484521
426, 49.86182195484521
426.5, 49.97655462771742
427, 50.11997046880768
427.5, 50.11997046880768
428, 50.23470314167989
428.5, 50.23470314167989
429, 50.37811898277015
429.5, 50.37811898277015
430, 50.52153482386041
430.5, 50.636267496732614
431, 50.636267496732614
431.5, 50.75100016960482
432, 50.75100016960482
432.5, 50.83704967425898
433, 50.98046551534924
433.5, 50.98046551534924
434, 51.1238813564395
434.5, 51.1238813564395
435, 51.20993086109365
435.5, 51.35334670218391
436, 51.35334670218391
436.5, 51.41071303862002
437, 51.41071303862002
437.5, 51.46807937505612
438, 51.46807937505612
438.5, 51.64017838436443
439, 51.75491105723664
439.5, 51.75491105723664
440, 51.8983268983269
440.5, 51.8983268983269
441, 52.07042590763521
441.5, 52.18515858050742
442, 52.18515858050742
442.5, 52.32857442159768
443, 52.32857442159768
443.5, 52.44330709446989
444, 52.44330709446989
444.5, 52.52935659912404
445, 52.730138776650406
445.5, 52.730138776650406
446, 52.873554617740666
446.5, 52.873554617740666
447, 52.95960412239482
447.5, 53.10301996348508
448, 53.10301996348508
448.5, 53.18906946813924
449, 53.18906946813924
449.5, 53.447217982101705
450, 53.447217982101705
450.5, 53.61931699141002
451, 53.76273283250028
451.5, 53.76273283250028
452, 53.79141600071833
452.5, 53.79141600071833
453, 53.82009916893638
453.5, 53.906148673590536
454, 53.906148673590536
454.5, 53.99219817824469
455, 53.99219817824469
455.5, 54.07824768289885
456, 54.07824768289885
456.5, 54.25034669220716
457, 54.39376253329742
457.5, 54.39376253329742
458, 54.50849520616963
458.5, 54.50849520616963
459, 54.56586154260573
459.5, 54.68059421547794
460, 54.68059421547794
460.5, 54.766643720132095
461, 54.766643720132095
461.5, 54.910059561222354
462, 55.082158570530666
462.5, 55.082158570530666
463, 55.225574411620926
463.5, 55.225574411620926
464, 55.48372292558339
464.5, 55.48372292558339
465, 55.5984555984556
465.5, 55.71318827132781
466, 55.71318827132781
466.5, 55.82792094420002
467, 55.82792094420002
467.5, 55.942653617072224
468, 56.14343579459858
468.5, 56.14343579459858
469, 56.28685163568884
469.5, 56.28685163568884
470, 56.31553480390689
470.5, 56.31553480390689
471, 56.45895064499715
471.5, 56.57368331786936
472, 56.57368331786936
472.5, 56.71709915895962
473, 56.71709915895962
473.5, 56.97524767292209
474, 57.11866351401235
474.5, 57.11866351401235
475, 57.29076252332066
475.5, 57.29076252332066
476, 57.40549519619287
476.5, 57.40549519619287
477, 57.520227869065074
477.5, 57.692326878373386
478, 57.692326878373386
478.5, 57.8644258876817
479, 57.8644258876817
479.5, 57.95047539233585
480, 58.17994073808027
480.5, 58.17994073808027
481, 58.265990242734425
481.5, 58.265990242734425
482, 58.35203974738858
482.5, 58.35203974738858
483, 58.46677242026079
483.5, 58.552821924914944
484, 58.552821924914944
484.5, 58.696237766005204
485, 58.696237766005204
485.5, 58.89701994353157
486, 59.011752616403776
486.5, 59.011752616403776
487, 59.18385162571209
487.5, 59.18385162571209
488, 59.18385162571209
488.5, 59.21253479393014
489, 59.21253479393014
489.5, 59.442000139674555
490, 59.442000139674555
490.5, 59.49936647611066
491, 59.49936647611066
491.5, 59.614099148982866
492, 59.70014865363702
492.5, 59.70014865363702
493, 59.757514990073126
493.5, 59.757514990073126
494, 59.84356449472728
494.5, 59.92961399938144
495, 59.92961399938144
495.5, 59.98698033581754
496, 59.98698033581754
496.5, 59.98698033581754
497, 59.98698033581754
497.5, 59.98698033581754
498, 59.98698033581754
498.5, 59.98698033581754
499, 59.872247662945334
499.5, 59.872247662945334
500, 59.81488132650923
500.5, 59.728831821855074
501, 59.728831821855074
501.5, 59.70014865363702
502, 59.70014865363702
502.5, 59.614099148982866
503, 59.614099148982866
503.5, 59.49936647611066
507.5, 58.81097043887741
508, 58.81097043887741
508.5, 59.24121796214819
509, 59.24121796214819
509.5, 58.52413875669689
510, 58.32335657917053
510.5, 58.32335657917053
511, 57.979158560553905
511.5, 57.979158560553905
512, 57.72101004659144
512.5, 57.376812027974815
513, 57.376812027974815
513.5, 57.2047130186665
514, 57.2047130186665
514.5, 56.97524767292209
515, 56.71709915895962
515.5, 56.71709915895962
516, 56.54500014965131
516.5, 56.54500014965131
517, 56.31553480390689
517.5, 56.31553480390689
518, 56.00001995350832
518.5, 55.85660411241807
519, 55.85660411241807
519.5, 55.56977243023755
520, 55.56977243023755
520.5, 55.34030708449313
521, 55.082158570530666
521.5, 55.082158570530666
522, 54.8240100565682
522.5, 54.8240100565682
523, 54.65191104725989
523.5, 54.65191104725989
524, 54.56586154260573
524.5, 54.39376253329742
525, 54.39376253329742
525.5, 54.27902986042521
526, 54.27902986042521
526.5, 54.020881346462744
527, 53.82009916893638
527.5, 53.82009916893638
528, 53.70536649606417
528.5, 53.70536649606417
529, 53.50458431853781
529.5, 53.50458431853781
530, 53.3898516456656
530.5, 53.21775263635729
531, 53.21775263635729
531.5, 53.016970458830926
532, 53.016970458830926
532.5, 52.873554617740666
533, 52.701455608432354
533.5, 52.701455608432354
534, 52.58672293556015
534.5, 52.58672293556015
535, 52.50067343090599
535.5, 52.50067343090599
536, 52.414623926251835
536.5, 52.32857442159768
537, 52.32857442159768
537.5, 52.24252491694352
538, 52.24252491694352
538.5, 52.07042590763521
539, 51.984376402981056
539.5, 51.984376402981056
540, 51.86964373010885
540.5, 51.86964373010885
541, 51.8983268983269
541.5, 51.92701006654495
542, 51.92701006654495
542.5, 51.955693234763004
543, 51.955693234763004
543.5, 51.955693234763004
544, 51.955693234763004
544.5, 51.955693234763004
545, 51.92701006654495
545.5, 51.92701006654495
546, 51.92701006654495
546.5, 51.92701006654495
547, 51.92701006654495
547.5, 52.01305957119911
548, 52.01305957119911
548.5, 52.07042590763521
549, 52.07042590763521
549.5, 52.099109075853264
550, 52.099109075853264
550.5, 52.099109075853264
551, 52.127792244071316
551.5, 52.127792244071316
552, 52.29989125337963
552.5, 52.29989125337963
553, 52.32857442159768
553.5, 52.38594075803378
554, 52.38594075803378
554.5, 52.44330709446989
555, 52.44330709446989
555.5, 52.52935659912404
556, 52.52935659912404
556.5, 52.64408927199625
557, 52.844871449522614
557.5, 52.844871449522614
558, 52.93092095417677
558.5, 52.93092095417677
559, 53.18906946813924
559.5, 53.24643580457534
560, 53.24643580457534
560.5, 53.3324853092295
561, 53.3324853092295
561.5, 53.50458431853781
562, 53.61931699141002
562.5, 53.61931699141002
563, 53.67668332784612
563.5, 53.67668332784612
564, 53.79141600071833
564.5, 53.79141600071833
565, 53.877465505372484
565.5, 53.99219817824469
566, 53.99219817824469
566.5, 54.1069308511169
567, 54.1069308511169
567.5, 54.164297187553004
568, 54.22166352398911
568.5, 54.22166352398911
569, 54.164297187553004
569.5, 54.164297187553004
570, 54.1069308511169
570.5, 54.1069308511169
571, 54.1069308511169
571.5, 54.1069308511169
572, 54.1069308511169
572.5, 54.07824768289885
573, 54.07824768289885
573.5, 54.07824768289885
574, 54.049564514680796
574.5, 54.049564514680796
575, 53.99219817824469
575.5, 53.99219817824469
576, 53.906148673590536
576.5, 53.906148673590536
577, 53.734049664282225
577.5, 53.590633823191965
578, 53.590633823191965
578.5, 53.50458431853781
579, 53.50458431853781
579.5, 53.3898516456656
580, 53.21775263635729
580.5, 53.21775263635729
581, 53.131703131703134
581.5, 53.131703131703134
582, 52.93092095417677
582.5, 52.93092095417677
583, 52.64408927199625
583.5, 52.50067343090599
584, 52.50067343090599
584.5, 52.127792244071316
585, 52.127792244071316
585.5, 51.955693234763004
586, 51.75491105723664
586.5, 51.75491105723664
587, 51.49676254327417
587.5, 51.49676254327417
588, 51.35334670218391
588.5, 51.1812476928756
589, 51.1812476928756
589.5, 51.00914868356729
590, 51.00914868356729
590.5, 50.89441601069508
591, 50.89441601069508
591.5, 50.55021799207846
592, 50.32075264633404
592.5, 50.32075264633404
593, 50.11997046880768
593.5, 50.11997046880768
594, 49.80445561840911
594.5, 49.66103977731885
595, 49.66103977731885
595.5, 49.43157443157443
596, 49.43157443157443
596.5, 49.14474274939391
597, 49.14474274939391
597.5, 48.9726437400856
598, 48.714495226123134
598.5, 48.714495226123134
599, 48.51371304859677
599.5, 48.51371304859677
600, 48.37029720750651
600.5, 48.11214869354404
601, 48.11214869354404
601.5, 47.96873285245378
602, 47.96873285245378
602.5, 47.76795067492742
603, 47.76795067492742
603.5, 47.4811189927469
604, 47.33770315165664
604.5, 47.33770315165664
605, 47.19428731056638
605.5, 47.19428731056638
606, 47.05087146947612
606.5, 46.90745562838586
607, 46.90745562838586
607.5, 46.59194077798729
608, 46.59194077798729
608.5, 46.44852493689703
609, 46.44852493689703
609.5, 46.33379226402482
610, 46.10432691828041
610.5, 46.10432691828041
611, 46.01827741362625
611.5, 46.01827741362625
612, 45.87486157253599
612.5, 45.81749523609989
613, 45.81749523609989
613.5, 45.76012889966378
614, 45.76012889966378
614.5, 45.58802989035547
615, 45.501980385701316
615.5, 45.501980385701316
616, 45.38724771282911
616.5, 45.38724771282911
617, 45.24383187173885
617.5, 45.24383187173885
618, 45.12909919886664
618.5, 45.043049694212485
619, 45.043049694212485
619.5, 44.95700018955833
620, 44.95700018955833
620.5, 44.87095068490417
621, 44.72753484381391
621.5, 44.72753484381391
622, 44.756218012031965
622.5, 44.756218012031965
623, 44.72753484381391
623.5, 44.72753484381391
624, 44.64148533915976
624.5, 44.584119002723654
625, 44.584119002723654
625.5, 44.469386329851446
626, 44.469386329851446
626.5, 44.440703161633394
627, 44.38333682519729
627.5, 44.38333682519729
628, 44.325970488761186
628.5, 44.325970488761186
629, 44.325970488761186
629.5, 44.325970488761186
630, 44.297287320543134
630.5, 44.153871479452874
631, 44.153871479452874
631.5, 44.06782197479872
632, 44.06782197479872
632.5, 44.010455638362615
633, 43.95308930192651
633.5, 43.95308930192651
634, 43.867039797272355
634.5, 43.867039797272355
635, 43.8383566290543
635.5, 43.8383566290543
636, 43.80967346083625
636.5, 43.80967346083625
637, 43.80967346083625
637.5, 43.723623956182095
638, 43.723623956182095
638.5, 43.66625761974599
639, 43.63757445152794
639.5, 43.63757445152794
640, 43.63757445152794
640.5, 43.63757445152794
641, 43.63757445152794
641.5, 43.580208115091835
642, 43.580208115091835
642.5, 43.580208115091835
643, 43.580208115091835
643.5, 43.580208115091835
644, 43.580208115091835
644.5, 43.52284177865573
645, 43.580208115091835
645.5, 43.580208115091835
646, 43.580208115091835
646.5, 43.580208115091835
647, 43.55152494687378
647.5, 43.49415861043768
648, 43.49415861043768
648.5, 43.49415861043768
649, 43.49415861043768
649.5, 43.408109105783524
650, 43.408109105783524
650.5, 43.436792274001576
651, 43.436792274001576
651.5, 43.436792274001576
652, 43.436792274001576
652.5, 43.436792274001576
653, 43.436792274001576
653.5, 43.49415861043768
654, 43.49415861043768
654.5, 43.52284177865573
655, 43.52284177865573
655.5, 43.55152494687378
656, 43.55152494687378
656.5, 43.60889128330989
657, 43.580208115091835
657.5, 43.580208115091835
658, 43.580208115091835
658.5, 43.580208115091835
659, 43.55152494687378
659.5, 43.55152494687378
660, 43.55152494687378
660.5, 43.63757445152794
661, 43.63757445152794
661.5, 43.723623956182095
662, 43.723623956182095
662.5, 43.75230712440015
663, 43.80967346083625
663.5, 43.80967346083625
664, 43.8383566290543
664.5, 43.8383566290543
665, 43.8383566290543
665.5, 43.8383566290543
666, 43.8383566290543
666.5, 43.867039797272355
667, 43.867039797272355
667.5, 43.92440613370846
668, 43.95308930192651
668.5, 43.95308930192651
669, 43.95308930192651
669.5, 43.95308930192651
670, 43.89572296549041
670.5, 43.89572296549041
671, 43.95308930192651
671.5, 43.95308930192651
672, 43.95308930192651
672.5, 43.98177247014456
673, 43.98177247014456
673.5, 44.010455638362615
674, 44.03913880658067
674.5, 44.03913880658067
675, 44.153871479452874
675.5, 44.153871479452874
676, 44.23992098410703
676.5, 44.23992098410703
677, 44.35465365697924
677.5, 44.41201999341534
678, 44.41201999341534
678.5, 44.4980694980695
679, 44.4980694980695
679.5, 44.584119002723654
680, 44.5554358345056
680.5, 44.5554358345056
681, 44.5554358345056
681.5, 44.5554358345056
682, 44.584119002723654
682.5, 44.584119002723654
683, 44.67016850737781
683.5, 44.69885167559586
684, 44.69885167559586
684.5, 44.64148533915976
685, 44.64148533915976
685.5, 44.64148533915976
686, 44.72753484381391
686.5, 44.72753484381391
687, 44.87095068490417
687.5, 44.87095068490417
688, 45.01436652599443
688.5, 45.07173286243054
689, 45.07173286243054
689.5, 45.07173286243054
690, 45.07173286243054
690.5, 45.01436652599443
691, 45.01436652599443
691.5, 45.01436652599443
692, 45.01436652599443
692.5, 45.01436652599443
693, 45.01436652599443
693.5, 45.01436652599443
694, 45.043049694212485
694.5, 45.10041603064859
695, 45.10041603064859
695.5, 45.186465535302744
696, 45.186465535302744
696.5, 45.2725150399569
697, 45.2725150399569
697.5, 45.358564544611056
698, 45.41593088104716
698.5, 45.41593088104716
699, 45.44461404926521
699.5, 45.44461404926521
700, 45.473297217483264
700.5, 45.53066355391937
701, 45.53066355391937
701.5, 45.55934672213742
702, 45.55934672213742
702.5, 45.55934672213742
703, 45.55934672213742
703.5, 45.473297217483264
704, 45.44461404926521
704.5, 45.44461404926521
705, 45.58802989035547
705.5, 45.58802989035547
706, 45.616713058573524
706.5, 45.58802989035547
707, 45.58802989035547
707.5, 45.58802989035547
708, 45.58802989035547
708.5, 45.616713058573524
709, 45.616713058573524
709.5, 45.616713058573524
710, 45.616713058573524
710.5, 45.616713058573524
711, 45.55934672213742
711.5, 45.55934672213742
712, 45.41593088104716
712.5, 45.53066355391937
713, 45.53066355391937
713.5, 45.55934672213742
714, 45.55934672213742
714.5, 45.501980385701316
715, 45.501980385701316
715.5, 45.501980385701316
716, 45.53066355391937
716.5, 45.53066355391937
717, 45.53066355391937
717.5, 45.53066355391937
718, 45.55934672213742
718.5, 45.55934672213742
719, 45.55934672213742
719.5, 45.501980385701316
720, 45.501980385701316
720.5, 45.473297217483264
721, 45.501980385701316
721.5, 45.501980385701316
722, 45.501980385701316
722.5, 45.501980385701316
723, 45.41593088104716
723.5, 45.41593088104716
724, 45.41593088104716
724.5, 45.41593088104716
725, 45.41593088104716
725.5, 45.41593088104716
726, 45.41593088104716
726.5, 45.41593088104716
727, 45.44461404926521
727.5, 45.44461404926521
728, 45.41593088104716
728.5, 45.41593088104716
729, 45.38724771282911
729.5, 45.38724771282911
730, 45.38724771282911
730.5, 45.44461404926521
731, 45.44461404926521
731.5, 45.41593088104716
732, 45.41593088104716
732.5, 45.358564544611056
733, 45.329881376393004
733.5, 45.329881376393004
734, 45.329881376393004
734.5, 45.329881376393004
735, 45.41593088104716
735.5, 45.41593088104716
736, 45.358564544611056
736.5, 45.329881376393004
737, 45.329881376393004
737.5, 45.186465535302744
738, 45.186465535302744
738.5, 45.215148703520796
739, 45.2725150399569
739.5, 45.2725150399569
740, 45.15778236708469
740.5, 45.15778236708469
741, 45.186465535302744
741.5, 45.329881376393004
742, 45.329881376393004
742.5, 45.2725150399569
743, 45.2725150399569
743.5, 45.215148703520796
744, 45.215148703520796
744.5, 45.10041603064859
745, 45.10041603064859
745.5, 45.10041603064859
746, 45.12909919886664
746.5, 45.12909919886664
747, 45.15778236708469
747.5, 45.10041603064859
748, 45.10041603064859
748.5, 44.95700018955833
749, 44.95700018955833
749.5, 44.87095068490417
750, 44.87095068490417
750.5, 44.87095068490417
751, 44.84226751668612
751.5, 44.84226751668612
752, 44.81358434846807
752.5, 44.81358434846807
753, 44.756218012031965
753.5, 44.612802170941706
754, 44.612802170941706
754.5, 44.584119002723654
755, 44.584119002723654
755.5, 44.5554358345056
756, 44.5554358345056
756.5, 44.584119002723654
757, 44.584119002723654
757.5, 44.584119002723654
758, 44.584119002723654
758.5, 44.584119002723654
759, 44.64148533915976
759.5, 44.67016850737781
760, 44.67016850737781
760.5, 44.612802170941706
761, 44.612802170941706
761.5, 44.612802170941706
762, 44.612802170941706
762.5, 44.67016850737781
763, 44.69885167559586
763.5, 44.69885167559586
764, 44.584119002723654
764.5, 44.584119002723654
765, 44.440703161633394
765.5, 44.297287320543134
766, 44.297287320543134
766.5, 44.297287320543134
767, 44.297287320543134
767.5, 44.35465365697924
768, 44.26860415232508
768.5, 44.26860415232508
769, 44.21123781588898
769.5, 44.21123781588898
770, 44.153871479452874
770.5, 44.153871479452874
771, 44.182554647670926
771.5, 44.23992098410703
772, 44.23992098410703
772.5, 44.09650514301677
773, 44.09650514301677
773.5, 44.03913880658067
774, 43.92440613370846
774.5, 43.92440613370846
775, 43.8383566290543
775.5, 43.8383566290543
776, 43.7809902926182
776.5, 43.7809902926182
777, 43.69494078796404
777.5, 43.63757445152794
778, 43.63757445152794
778.5, 43.55152494687378
779, 43.55152494687378
779.5, 43.580208115091835
780, 43.55152494687378
780.5, 43.55152494687378
781, 43.49415861043768
781.5, 43.49415861043768
782, 43.49415861043768
782.5, 43.49415861043768
783, 43.46547544221963
783.5, 43.32205960112937
784, 43.32205960112937
784.5, 43.17864376003911
785, 43.17864376003911
785.5, 43.0639110871669
786, 43.0065447507308
786.5, 43.0065447507308
787, 43.0065447507308
787.5, 43.0065447507308
788, 43.0639110871669
788.5, 42.89181207785859
789, 42.89181207785859
789.5, 42.80576257320443
790, 42.80576257320443
790.5, 42.63366356389612
791, 42.63366356389612
791.5, 42.49024772280586
792.0000000000002, 42.3468318817156
792.5, 42.3468318817156
793.0000000000002, 42.232099208843394
793.5, 42.232099208843394
794, 42.14604970418924
794.5, 42.088683367753134
795, 42.088683367753134
795.5000000000002, 41.91658435844482
796, 41.91658435844482
796.5000000000002, 41.83053485379067
797, 41.83053485379067
797.5000000000002, 41.658435844482355
798, 41.515020003392095
798.5, 41.515020003392095
799, 41.48633683517404
799.5, 41.48633683517404
800.0000000000002, 41.515020003392095
800.5, 41.48633683517404
801.0000000000002, 41.48633683517404
801.5, 41.42897049873794
802, 41.42897049873794
802.5, 41.28555465764768
803, 41.28555465764768
803.5000000000002, 41.17082198477547
804, 41.11345564833937
804.5000000000002, 41.11345564833937
805, 40.97003980724911
805.5000000000002, 40.97003980724911
806, 40.88399030259495
806.5, 40.74057446150469
807.0000000000002, 40.74057446150469
807.5, 40.625841788632485
808.0000000000002, 40.625841788632485
808.5, 40.56847545219638
809.0000000000002, 40.56847545219638
809.5, 40.45374277932417
810, 40.36769327467002
810.5, 40.36769327467002
811, 40.339010106451965
811.5000000000002, 40.339010106451965
812, 40.195594265361706
812.5000000000002, 40.1382279289256
813, 40.1382279289256
813.5, 40.052178424271446
814, 40.052178424271446
814.5, 39.96612891961729
815.0000000000002, 39.908762583181186
815.5, 39.908762583181186
816.0000000000002, 39.82271307852703
816.5, 39.82271307852703
817.0000000000002, 39.79402991030898
817.5, 39.79402991030898
818, 39.82271307852703
818.5, 39.82271307852703
819, 39.82271307852703
819.5000000000002, 39.82271307852703
820, 39.82271307852703
820.5000000000002, 39.736663573872875
821, 39.67929723743677
821.5, 39.67929723743677
822, 39.65061406921872
822.5, 39.65061406921872
823.0000000000002, 39.593247732782615
823.5, 39.593247732782615
824.0000000000002, 39.593247732782615
824.5, 39.62193090100067
825.0000000000002, 39.62193090100067
825.5, 39.62193090100067
826, 39.62193090100067
826.5000000000002, 39.65061406921872
827, 39.65061406921872
827.5000000000002, 39.65061406921872
828, 39.65061406921872
828.5000000000002, 39.65061406921872
857, 40.052178424271446
857.5000000000002, 40.052178424271446
858, 40.052178424271446
858.5000000000002, 40.052178424271446
859, 40.023495256053394
859.5000000000002, 39.99481208783534
860, 39.99481208783534
860.5, 39.96612891961729
861, 39.96612891961729
861.5, 39.96612891961729
862.0000000000002, 39.96612891961729
862.5, 39.99481208783534
863.0000000000002, 40.10954476070755
863.5, 40.10954476070755
864.0000000000002, 40.1382279289256
864.5, 40.1382279289256
865, 40.1382279289256
865.5000000000002, 40.166911097143654
866, 40.166911097143654
866.5000000000002, 40.166911097143654
867, 40.166911097143654
867.5000000000002, 40.22427743357976
868, 40.22427743357976
868.5, 40.22427743357976
869, 40.22427743357976
869.5, 40.22427743357976
870.0000000000002, 40.339010106451965
870.5, 40.339010106451965
871.0000000000002, 40.39637644288807
871.5, 40.45374277932417
872, 40.45374277932417
872.5, 40.482425947542225
873, 40.482425947542225
873.5000000000002, 40.51110911576028
874, 40.53979228397833
874.5000000000002, 40.53979228397833
875, 40.51110911576028
875.5000000000002, 40.51110911576028
876, 40.45374277932417
876.5, 40.45374277932417
877.0000000000002, 40.56847545219638
877.5, 40.65452495685054
878.0000000000002, 40.65452495685054
878.5, 40.769257629722745
879.0000000000002, 40.769257629722745
879.5, 40.8553071343769
880, 40.912673470813004
880.5, 40.912673470813004
881, 41.28555465764768
881.5000000000002, 41.28555465764768
882, 41.25687148942963
882.5000000000002, 41.25687148942963
883, 41.199505152993524
883.5000000000002, 41.228188321211576
884, 41.228188321211576
884.5, 41.31423782586573
885.0000000000002, 41.31423782586573
885.5, 41.45765366695599
886.0000000000002, 41.48633683517404
886.5, 41.48633683517404
887.0000000000002, 41.515020003392095
887.5, 41.515020003392095
888, 41.54370317161015
888.5000000000002, 41.54370317161015
889, 41.48633683517404
889.5000000000002, 41.42897049873794
890, 41.42897049873794
890.5000000000002, 41.228188321211576
891, 41.228188321211576
891.5, 41.28555465764768
892, 41.40028733051989
892.5, 41.40028733051989
893.0000000000002, 41.658435844482355
893.5, 41.658435844482355
894.0000000000002, 41.658435844482355
894.5, 41.68711901270041
895.0000000000002, 41.68711901270041
895.5, 41.77316851735456
896, 41.77316851735456
896.5000000000002, 41.85921802200872
897, 41.85921802200872
897.5000000000002, 42.00263386309898
898, 42.117366535971186
898.5000000000002, 42.117366535971186
899, 42.20341604062534
899.5, 42.20341604062534
900, 42.3468318817156
900.5, 42.46156455458781
901.0000000000002, 42.46156455458781
901.5, 42.60498039567807
902.0000000000002, 42.60498039567807
902.5, 42.86312890964054
903.0000000000002, 42.86312890964054
903.5, 43.0065447507308
904, 43.17864376003911
904.5000000000002, 43.17864376003911
905, 43.20732692825716
905.5000000000002, 43.20732692825716
906, 43.37942593756547
906.5000000000002, 43.580208115091835
907, 43.580208115091835
907.5, 43.92440613370846
908.0000000000002, 43.92440613370846
908.5, 44.06782197479872
909.0000000000002, 44.06782197479872
909.5, 44.41201999341534
910.0000000000002, 44.5554358345056
910.5, 44.5554358345056
911, 44.899633853122225
911.5, 44.899633853122225
912, 45.15778236708469
912.5000000000002, 45.30119820817495
913, 45.30119820817495
913.5000000000002, 45.645396226791576
914, 45.645396226791576
914.5000000000002, 45.788812067881835
915, 46.10432691828041
915.5, 46.10432691828041
916.0000000000002, 46.41984176867898
916.5, 46.41984176867898
917.0000000000002, 46.56325760976924
917.5, 46.56325760976924
918.0000000000002, 46.7066734508595
918.5, 46.87877246016781
919, 46.87877246016781
919.5000000000002, 46.964821964821965
920, 46.964821964821965
920.5000000000002, 47.28033681522054
921, 47.45243582452885
921.5000000000002, 47.45243582452885
922, 47.538485329183004
922.5000000000002, 47.538485329183004
923, 47.91136651601768
923.5, 47.91136651601768
924.0000000000002, 48.08346552532599
924.5, 48.2555645346343
925.0000000000002, 48.2555645346343
925.5, 48.48502988037872
926.0000000000002, 48.48502988037872
926.5, 48.68581205790508
927, 48.9726437400856
927.5000000000002, 48.9726437400856
928, 49.37420809513833
928.5000000000002, 49.37420809513833
929, 49.488940768010536
929.5000000000002, 49.488940768010536
930, 49.83313878662716
930.5, 50.00523779593547
931, 50.00523779593547
931.5, 50.17733680524378
932.0000000000002, 50.17733680524378
932.5, 50.349435814552095
933.0000000000002, 50.43548531920625
933.5, 50.43548531920625
934.0000000000002, 50.69363383316872
934.5, 50.69363383316872
935, 51.00914868356729
935.5000000000002, 51.00914868356729
936, 51.29598036574781
936.5000000000002, 51.58281204792833
937, 51.58281204792833
937.5000000000002, 51.8983268983269
938, 51.8983268983269
938.5, 51.984376402981056
939.0000000000002, 52.414623926251835
939.5, 52.414623926251835
940.0000000000002, 52.558039767342095
940.5, 52.558039767342095
941.0000000000002, 52.78750511308651
941.5, 53.04565362704898
942.0000000000002, 53.04565362704898
942.5, 53.160386299921186
943, 53.160386299921186
943.5000000000002, 53.447217982101705
944, 53.447217982101705
944.5000000000002, 53.67668332784612
945, 53.84878233715443
945.5000000000002, 53.84878233715443
946, 54.1069308511169
946.5, 54.1069308511169
947.0000000000002, 54.164297187553004
947.5, 54.30771302864326
948.0000000000002, 54.30771302864326
948.5, 54.50849520616963
949.0000000000002, 54.50849520616963
949.5, 54.623227879041835
950, 54.623227879041835
950.5, 55.25425757983898
951, 55.56977243023755
951.5000000000002, 55.56977243023755
952, 55.82792094420002
952.5000000000002, 55.82792094420002
953, 56.00001995350832
953.5000000000002, 56.22948529925274
954, 56.22948529925274
954.5, 56.54500014965131
955.0000000000002, 56.54500014965131
955.5, 56.803148663613776
956.0000000000002, 56.803148663613776
956.5, 57.11866351401235
957.0000000000002, 57.26207935510261
957.5, 57.26207935510261
958, 57.520227869065074
958.5000000000002, 57.520227869065074
959, 57.57759420550118
959.5000000000002, 57.72101004659144
960, 57.72101004659144
960.5000000000002, 57.835742719463646
961, 57.835742719463646
961.5000000000002, 58.00784172877196
962, 58.00784172877196
962.5, 58.43808925204274
963.0000000000002, 58.61018826135105
963.5, 58.61018826135105
964.0000000000002, 58.724920934223256
964.5, 58.724920934223256
965.0000000000002, 58.6388714295691
965.5, 58.81097043887741
966, 58.81097043887741
966.5000000000002, 59.21253479393014
967, 59.21253479393014
967.5000000000002, 59.614099148982866
968, 59.84356449472728
968.5000000000002, 59.84356449472728
969, 60.27381201799806
969.5, 60.27381201799806
970.0000000000002, 60.58932686839663
970.5, 60.58932686839663
971.0000000000002, 60.761425877704944
971.5, 60.99089122344936
972.0000000000002, 60.99089122344936
972.5, 61.076940728103516
973.0000000000002, 61.076940728103516
973.5, 61.27772290562988
974, 61.363772410284035
974.5000000000002, 61.363772410284035
975, 61.650604092464555
975.5000000000002, 61.650604092464555
976, 61.99480211108118
976.5000000000002, 61.99480211108118
977, 62.31031696147975
977.5, 62.36768329791585
978.0000000000002, 62.36768329791585
978.5, 62.62583181187832
979.0000000000002, 62.62583181187832
979.5, 62.79793082118663
980.0000000000002, 63.17081200802131
980.5, 63.17081200802131
981.0000000000002, 63.34291101732962
981.5, 63.34291101732962
982, 63.37159418554767
982.5000000000002, 63.37159418554767
983, 63.428960521983775
983.5000000000002, 63.859208045254555
984, 63.859208045254555
984.5000000000002, 63.94525754990871
985, 63.94525754990871
985.5, 64.00262388634482
986.0000000000002, 64.28945556852534
986.5, 64.28945556852534
987.0000000000002, 64.63365358714196
987.5, 64.63365358714196
988.0000000000002, 64.74838626001417
988.5, 64.74838626001417
989.0000000000002, 64.89180210110442
989.5000000000002, 64.94916843754052
990, 64.94916843754052
990.5000000000002, 65.29336645615714
991, 65.29336645615714
991.5000000000002, 65.43678229724742
992, 65.66624764299183
992.5000000000002, 65.66624764299183
993, 65.80966348408208
993.5, 65.80966348408208
994.0000000000002, 65.83834665230015
994.5, 65.86702982051818
995.0000000000002, 65.86702982051818
995.5, 66.2112278391348
996.0000000000002, 66.2112278391348
996.5, 66.49805952131533
997, 66.49805952131533
997.5000000000002, 66.6414753624056
998, 66.89962387636805
998.5000000000002, 66.89962387636805
999, 67.18645555854857
999.5000000000002, 67.18645555854857
1000, 67.24382189498468
1000.5000000000002, 67.30118823142078
1001.0000000000002, 67.30118823142078
1001.5, 69.48110901599273
1001.5, 67.35855456785688
1002.0000000000002, 69.48110901599273
1002.0000000000002, 67.35855456785688
1002.5, 69.42374267955663
1002.5, 67.50197040894716
1003.0000000000002, 69.42374267955663
1003.0000000000002, 67.50197040894716
1003.5, 68.62061396945117
1004.0000000000002, 68.39114862370675
1004.5, 68.39114862370675
1005, 68.27641595083455
1005.5000000000002, 68.27641595083455
1006, 68.24773278261651
1006.5000000000002, 68.59193080123313
1007, 68.59193080123313
1007.5000000000002, 68.79271297875948
1008, 68.79271297875948
1008.5000000000002, 68.9648119880678
1009.0000000000002, 68.9648119880678
1009.5, 69.22296050203028
1010.0000000000002, 69.42374267955663
1010.5, 69.42374267955663
1011.0000000000002, 69.6818911935191
1011.5, 69.6818911935191
1012.0000000000002, 69.6818911935191
1012.5, 69.73925752995521
1013, 69.73925752995521
1013.5000000000002, 70.11213871678987
1014, 70.11213871678987
1014.5000000000002, 70.37028723075235
1015, 70.68580208115091
1015.5000000000002, 70.68580208115091
1016, 70.82921792224118
1016.5, 70.82921792224118
1017.0000000000002, 70.82921792224118
1017.5, 70.82921792224118
1018.0000000000002, 70.77185158580508
1018.5, 70.82921792224118
1019.0000000000002, 70.82921792224118
1019.5, 70.94395059511339
1020.0000000000002, 70.94395059511339
1020.5000000000002, 71.25946544551195
1021, 71.43156445482026
1021.5000000000002, 71.43156445482026
1022, 71.68971296878274
1022.5000000000002, 71.68971296878274
1023, 71.89049514630909
1023.5000000000002, 71.89049514630909
1024, 72.03391098739937
1024.5, 72.29205950136182
1025.0000000000002, 72.29205950136182
1025.5, 72.52152484710624
1026.0000000000002, 72.52152484710624
1026.5, 72.63625751997844
1027.0000000000002, 72.80835652928675
1027.5, 72.80835652928675
1028.0000000000002, 72.89440603394092
1028.5000000000002, 72.89440603394092
1029, 73.00913870681313
1029.5000000000002, 73.00913870681313
1030, 73.06650504324924
1030.5000000000002, 73.09518821146727
1031, 73.09518821146727
1031.5000000000002, 73.09518821146727
1032.0000000000002, 73.09518821146727
1032.5, 73.26728722077559
1033.0000000000002, 73.46806939830196
1033.5, 73.46806939830196
1034.0000000000002, 73.5541189029561
1034.5, 73.5541189029561
1035.0000000000002, 73.78358424870052
1035.5, 73.78358424870052
1036, 73.81226741691859
1036.5000000000002, 73.81226741691859
1037, 73.81226741691859
1037.5000000000002, 73.81226741691859
1038, 73.81226741691859
1038.5000000000002, 73.75490108048248
1039, 73.89831692157273
1039.5000000000002, 73.89831692157273
1040.0000000000002, 74.01304959444494
1040.5, 74.01304959444494
1041.0000000000002, 74.12778226731714
1041.5, 74.38593078127963
1042.0000000000002, 74.38593078127963
1042.5, 74.52934662236987
1043.0000000000002, 74.52934662236987
1043.5, 74.75881196811429
1044, 74.75881196811429
1044.5000000000002, 74.55802979058794
1045, 74.61539612702404
1045.5000000000002, 74.61539612702404
1046, 74.61539612702404
1046.5000000000002, 74.61539612702404
1047, 74.67276246346015
1047.5000000000002, 74.78749513633235
1048.0000000000002, 74.78749513633235
1048.5, 74.70144563167818
1049.0000000000002, 74.70144563167818
1049.5, 74.64407929524208
1050.0000000000002, 74.64407929524208
1050.5, 74.84486147276846
1051.0000000000002, 74.29988127662546
1051.5000000000002, 74.29988127662546
1052, 74.0990990990991
1052.5000000000002, 74.0990990990991
1053, 73.9270000897908
1053.5000000000002, 73.9270000897908
1054, 73.9270000897908
1054.5000000000002, 74.01304959444494
1055, 74.01304959444494
1055.5, 74.0990990990991
1056.0000000000002, 74.0990990990991
1056.5, 74.12778226731714
1057.0000000000002, 73.89831692157273
1057.5, 73.89831692157273
1058.0000000000002, 73.72621791226442
1058.5, 73.72621791226442
1059.0000000000002, 73.64016840761028
1059.5000000000002, 73.18123771612144
1060, 73.18123771612144
1060.5000000000002, 73.03782187503117
1061, 73.03782187503117
1061.5000000000002, 72.86572286572286
1062, 72.86572286572286
1062.5000000000002, 72.77967336106872
1063.0000000000002, 72.69362385641455
1063.5, 72.69362385641455
1064.0000000000002, 72.4928416788882
1064.5, 72.4928416788882
1065.0000000000002, 72.40679217423403
1065.5, 72.20600999670768
1066.0000000000002, 72.20600999670768
1066.5, 72.0052278191813
1067.0000000000002, 72.0052278191813
1067.5000000000002, 72.0625941556174
1068, 72.09127732383547
1068.5000000000002, 72.09127732383547
1069, 72.09127732383547
1069.5000000000002, 72.09127732383547
1070, 71.83312880987299
1070.5000000000002, 71.83312880987299
1071.0000000000002, 71.60366346412857
1071.5, 71.51761395947443
1072.0000000000002, 71.51761395947443
1072.5, 71.40288128660222
1073.0000000000002, 71.40288128660222
1073.5, 70.97263376333143
1074.0000000000002, 70.65711891293287
1074.5, 70.65711891293287
1075, 70.42765356718846
1075.5000000000002, 70.42765356718846
1076, 70.02608921213573
1076.5000000000002, 70.02608921213573
1077, 69.82530703460935
1077.5000000000002, 69.65320802530104
1078, 69.65320802530104
1078.5000000000002, 69.76794069817325
1079.0000000000002, 69.76794069817325
1079.5, 69.71057436173714
1080.0000000000002, 69.39505951133859
1080.5, 69.39505951133859
1081.0000000000002, 68.90744565163169
1081.5, 68.90744565163169
1082.0000000000002, 68.70666347410534
1082.5000000000002, 68.70666347410534
1083, 68.76402981054144
1083.5000000000002, 68.67798030588727
1084, 68.67798030588727
1084.5000000000002, 68.53456446479703
1085, 68.53456446479703
1085.5000000000002, 68.27641595083455
1086, 68.04695060509013
1086.5000000000002, 68.04695060509013
1087.0000000000002, 67.90353476399989
1087.5, 67.90353476399989
1088.0000000000002, 67.50197040894716
1088.5, 67.50197040894716
1089.0000000000002, 67.27250506320274
1089.5, 66.95699021280416
1090.0000000000002, 66.95699021280416
1090.5000000000002, 66.6988416988417
1091, 66.6988416988417
1091.5000000000002, 66.52674268953339
1092, 66.0391288298265
1092.5000000000002, 66.0391288298265
1093, 65.78098031586404
1093.5000000000002, 65.78098031586404
1094, 65.40809912902935
1094.5, 65.37941596081131
1095.0000000000002, 65.37941596081131
1095.5, 64.94916843754052
1096.0000000000002, 64.94916843754052
1096.5, 64.51892091426976
1097.0000000000002, 64.51892091426976
1097.5, 64.17472289565313
1098.0000000000002, 64.03130705456286
1098.5000000000002, 64.03130705456286
1099, 64.03130705456286
1099.5000000000002, 64.03130705456286
1100, 63.80184170881845
1100.5000000000002, 63.51501002663793
1101, 63.51501002663793
1101.5000000000002, 62.998712998712996
1102.0000000000002, 62.998712998712996
1102.5, 62.79793082118663
1103.0000000000002, 62.79793082118663
1103.5, 62.56846547544222
1104.0000000000002, 62.45373280257001
1104.5, 62.45373280257001
1105.0000000000002, 62.42504963435196
1105.5, 62.42504963435196
1106.0000000000002, 62.109534783953386
1106.5000000000002, 61.76533676533676
1107, 61.76533676533676
1107.5000000000002, 61.44982191493819
1108, 61.44982191493819
1108.5000000000002, 61.33508924206598
1109, 61.33508924206598
1109.5000000000002, 61.076940728103516
1110.0000000000002, 60.790109045922996
1110.5, 60.790109045922996
1111.0000000000002, 60.24512884978001
1111.5, 60.24512884978001
1112.0000000000002, 59.98698033581754
1112.5, 59.64278231720092
1113.0000000000002, 59.64278231720092
1113.5000000000002, 59.3559506350204
1114, 59.3559506350204
1114.5000000000002, 59.24121796214819
1115, 59.24121796214819
1115.5000000000002, 58.95438627996767
1116, 58.81097043887741
1116.5000000000002, 58.81097043887741
1117, 58.38072291560663
1117.5000000000002, 58.38072291560663
1118.0000000000002, 58.03652489699001
1118.5, 57.807059551245594
1119.0000000000002, 57.807059551245594
1119.5, 57.46286153262897
1120.0000000000002, 57.46286153262897
1120.5, 56.97524767292209
1121.0000000000002, 56.946564504704035
1121.5000000000002, 56.946564504704035
1122, 56.803148663613776
1122.5000000000002, 56.803148663613776
1123, 56.516316981433256
1123.5000000000002, 56.516316981433256
1124, 56.22948529925274
1124.5000000000002, 55.799237775981965
1125, 55.799237775981965
1125.5000000000002, 55.62713876667365
1126.0000000000002, 55.62713876667365
1126.5, 55.48372292558339
1127.0000000000002, 55.082158570530666
1127.5, 55.082158570530666
1128.0000000000002, 54.99610906587651
1128.5, 54.99610906587651
1129.0000000000002, 54.50849520616963
1129.5000000000002, 54.50849520616963
1130, 54.45112886973352
1130.5000000000002, 54.27902986042521
1131, 54.27902986042521
1131.5000000000002, 53.82009916893638
1132, 53.82009916893638
1132.5000000000002, 53.590633823191965
1133.0000000000002, 53.3898516456656
1133.5, 53.3898516456656
1134.0000000000002, 53.21775263635729
1134.5, 53.21775263635729
1135.0000000000002, 53.131703131703134
1135.5, 53.131703131703134
1136.0000000000002, 52.58672293556015
1136.5, 52.35725758981573
1137.0000000000002, 52.35725758981573
1137.5000000000002, 52.04174273941716
1138, 52.04174273941716
1138.5000000000002, 51.78359422545469
1139, 51.86964373010885
1139.5000000000002, 51.86964373010885
1140, 51.8983268983269
1140.5000000000002, 51.8983268983269
1141.0000000000002, 51.29598036574781
1141.5, 51.00914868356729
1142.0000000000002, 51.00914868356729
1142.5, 50.60758432851456
1143.0000000000002, 50.60758432851456
1143.5, 50.4068021509882
1144.0000000000002, 50.4068021509882
1144.5000000000002, 50.03392096415352
1145.0000000000002, 50.03392096415352
1145.5000000000002, 50.03392096415352
1146, 49.919188291281316
1146.5000000000002, 49.919188291281316
1147, 49.80445561840911
1147.5000000000002, 49.37420809513833
1148, 49.37420809513833
1148.5000000000002, 49.316841758702225
1149.0000000000002, 49.316841758702225
1149.5, 49.11605958117586
1150.0000000000002, 49.11605958117586
1150.5, 48.77186156255924
1151.0000000000002, 48.599762553250926
1151.5, 48.599762553250926
1152.0000000000002, 48.22688136641625
1152.5000000000002, 48.22688136641625
1153, 48.37029720750651
1153.5000000000002, 48.16951502998015
1154, 48.16951502998015
1154.5000000000002, 47.76795067492742
1155, 47.76795067492742
1155.5000000000002, 47.62453483383716
1156.0000000000002, 47.62453483383716
1156.5000000000002, 47.4811189927469
1157, 47.108237805912225
1157.5, 47.108237805912225
1158.0000000000002, 46.87877246016781
1158.5000000000002, 46.87877246016781
1159, 46.62062394620534
1159.5, 46.534574441551186
1160.0000000000002, 46.534574441551186
1160.5000000000002, 46.505891273333134
1161.0000000000002, 46.505891273333134
1161.5, 46.30510909580677
1162, 46.30510909580677
1162.5000000000002, 46.075643750062355
1163.0000000000002, 45.84617840431794
1163.5, 45.84617840431794
1164, 45.501980385701316
1164.5000000000002, 45.501980385701316
1165.0000000000002, 45.41593088104716
1165.5000000000002, 45.186465535302744
1166, 45.186465535302744
1166.5, 44.92831702134028
1167.0000000000002, 44.92831702134028
1167.5000000000002, 44.78490118025002
1168.0000000000002, 44.35465365697924
1168.5, 44.35465365697924
1169, 44.26860415232508
1169.5000000000002, 44.26860415232508
1170.0000000000002, 44.23992098410703
1170.5, 44.23992098410703
1171, 44.06782197479872
1171.5000000000002, 43.98177247014456
1172.0000000000002, 43.98177247014456
1172.5000000000002, 43.92440613370846
1173, 43.92440613370846
1173.5, 43.66625761974599
1174.0000000000002, 43.408109105783524
1174.5000000000002, 43.408109105783524
1175, 43.149960591821056
1175.5, 43.149960591821056
1176.0000000000002, 43.09259425538495
1176.5000000000002, 43.09259425538495
1177.0000000000002, 42.74839623676833
1177.5, 42.691029900332225
1178, 42.691029900332225
1178.5000000000002, 42.547614059241965
1179.0000000000002, 42.547614059241965
1179.5000000000002, 42.49024772280586
1180, 42.46156455458781
1180.5, 42.46156455458781
1181.0000000000002, 42.260782377061446
1181.5000000000002, 42.260782377061446
1182, 42.117366535971186
1182.5, 42.117366535971186
1183.0000000000002, 41.83053485379067
1183.5000000000002, 41.68711901270041
1184.0000000000002, 41.68711901270041
1184.5, 41.5723863398282
1185, 41.5723863398282
1185.5000000000002, 41.60106950804625
1186.0000000000002, 41.60106950804625
1186.5, 41.60106950804625
1187, 41.60106950804625
1187.5000000000002, 41.60106950804625
1188.0000000000002, 41.48633683517404
1188.5000000000002, 41.48633683517404
1189, 41.342920994083784
1189.5, 41.084772480121316
1190.0000000000002, 41.084772480121316
1190.5000000000002, 41.02740614368521
1191.0000000000002, 41.02740614368521
1191.5, 40.97003980724911
1192, 40.71189129328664
1192.5000000000002, 40.71189129328664
1193.0000000000002, 40.65452495685054
1193.5, 40.65452495685054
1194, 40.59715862041443
1194.5000000000002, 40.56847545219638
1195.0000000000002, 40.56847545219638
1195.5000000000002, 40.51110911576028
1196, 40.51110911576028
1196.5, 40.339010106451965
1197.0000000000002, 40.339010106451965
1197.5000000000002, 40.31032693823391
1198, 40.28164377001586
1198.5, 40.28164377001586
1199.0000000000002, 40.339010106451965
1199.5000000000002, 40.339010106451965
1200.0000000000002, 40.31032693823391
1200.5, 40.22427743357976
1201, 40.22427743357976
1201.5000000000002, 40.1382279289256
1202.0000000000002, 40.1382279289256
1202.5, 39.99481208783534
1203, 39.99481208783534
1203.5000000000002, 39.908762583181186
1204.0000000000002, 39.65061406921872
1204.5000000000002, 39.65061406921872
1205, 39.593247732782615
1205.5, 39.593247732782615
1206.0000000000002, 39.79402991030898
1206.5000000000002, 39.908762583181186
1207.0000000000002, 39.908762583181186
1207.5, 39.93744575139924
1208, 39.93744575139924
1208.5000000000002, 39.908762583181186
1209.0000000000002, 39.908762583181186
1209.5, 39.908762583181186
1210, 39.79402991030898
1210.5000000000002, 39.79402991030898
1211.0000000000002, 39.62193090100067
1211.5000000000002, 39.62193090100067
1212, 39.449831891692355
1212.5, 39.39246555525625
1213.0000000000002, 39.39246555525625
1213.5000000000002, 39.39246555525625
1214, 39.39246555525625
1214.5, 39.4211487234743
1215.0000000000002, 39.4211487234743
1215.5000000000002, 39.53588139634651
1216.0000000000002, 39.65061406921872
1216.5, 39.65061406921872
1217, 39.67929723743677
1217.5000000000002, 39.67929723743677
1218.0000000000002, 39.593247732782615
1218.5000000000002, 39.593247732782615
1219, 39.593247732782615
1219.5, 39.76534674209093
1220.0000000000002, 39.76534674209093
1220.5000000000002, 39.593247732782615
1221, 39.53588139634651
1221.5, 39.53588139634651
1222.0000000000002, 39.4211487234743
1222.5000000000002, 39.4211487234743
1223.0000000000002, 39.306416050602095
1223.5, 39.306416050602095
1224, 39.24904971416599
1224.5000000000002, 39.306416050602095
1225.0000000000002, 39.306416050602095
1225.5, 39.33509921882015
1226, 39.33509921882015
1226.5000000000002, 39.24904971416599
1227.0000000000002, 39.163000209511836
1227.5000000000002, 39.163000209511836
1228, 39.163000209511836
1228.5, 39.163000209511836
1229.0000000000002, 39.3637823870382
1229.5000000000002, 39.3637823870382
1230.0000000000002, 39.449831891692355
1230.5, 39.449831891692355
1231, 39.449831891692355
1231.5000000000002, 39.27773288238404
1232.0000000000002, 39.27773288238404
1232.5, 39.24904971416599
1233, 39.24904971416599
1233.5000000000002, 39.24904971416599
1234.0000000000002, 39.019584368421576
1234.5000000000002, 39.019584368421576
1235, 38.96221803198547
1235.5, 38.96221803198547
1236.0000000000002, 38.93353486376742
1236.5000000000002, 38.96221803198547
1237, 38.96221803198547
1237.5, 39.07695070485768
1238.0000000000002, 39.07695070485768
1238.5000000000002, 39.07695070485768
1239.0000000000002, 39.10563387307573
1239.5, 39.10563387307573
1240, 39.22036654594794
1240.5000000000002, 39.22036654594794
1241.0000000000002, 39.65061406921872
1241.5000000000002, 39.65061406921872
1242, 39.85139624674508
1242.5000000000002, 39.908762583181186
1243.0000000000002, 39.908762583181186
1243.5000000000002, 39.736663573872875
1244, 39.736663573872875
1244.5, 39.53588139634651
1245.0000000000002, 39.4211487234743
1245.5000000000002, 39.4211487234743
1246.0000000000002, 39.3637823870382
1246.5, 39.3637823870382
1247, 39.3637823870382
1247.5000000000002, 39.39246555525625
1248.0000000000002, 39.39246555525625
1248.5, 39.306416050602095
1249, 39.306416050602095
1249.5000000000002, 39.22036654594794
1250.0000000000002, 39.22036654594794
1250.5000000000002, 39.306416050602095
1251, 39.33509921882015
1251.5, 39.33509921882015
1252.0000000000002, 39.306416050602095
1252.5000000000002, 39.306416050602095
1253, 39.33509921882015
1253.5, 39.39246555525625
1254.0000000000002, 39.39246555525625
1254.5000000000002, 39.47851505991041
1255.0000000000002, 39.47851505991041
1255.5, 39.27773288238404
1256, 39.27773288238404
1256.5000000000002, 39.19168337772989
1257.0000000000002, 39.27773288238404
1257.5000000000002, 39.27773288238404
1258, 39.39246555525625
1258.5, 39.39246555525625
1259.0000000000002, 39.67929723743677
1259.5000000000002, 39.53588139634651
1260, 39.53588139634651
1260.5, 39.27773288238404
1261.0000000000002, 39.27773288238404
1261.5000000000002, 39.19168337772989
1262.0000000000002, 39.19168337772989
1262.5, 39.306416050602095
1263, 39.50719822812846
1263.5000000000002, 39.50719822812846
1264.0000000000002, 39.306416050602095
1264.5, 39.306416050602095
1265, 39.33509921882015
1265.5000000000002, 39.3637823870382
1266.0000000000002, 39.3637823870382
1266.5000000000002, 39.306416050602095
1267, 39.306416050602095
1267.5, 39.22036654594794
1268.0000000000002, 39.163000209511836
1268.5000000000002, 39.163000209511836
1269.0000000000002, 39.306416050602095
1269.5, 39.306416050602095
1270, 39.50719822812846
1270.5000000000002, 39.50719822812846
1271.0000000000002, 39.50719822812846
1271.5, 39.50719822812846
1272, 39.50719822812846
1272.5000000000002, 39.4211487234743
1273.0000000000002, 39.4211487234743
1273.5000000000002, 39.39246555525625
1274, 39.39246555525625
1274.5, 39.39246555525625
1275.0000000000002, 39.593247732782615
1275.5000000000002, 39.593247732782615
1276, 39.62193090100067
1276.5, 39.62193090100067
1277.0000000000002, 39.62193090100067
1277.5000000000002, 39.62193090100067
1278.0000000000002, 39.62193090100067
1278.5, 39.62193090100067
1279, 39.62193090100067
1279.5000000000002, 39.62193090100067
1280.0000000000002, 39.67929723743677
1280.5000000000002, 39.67929723743677
1281, 39.79402991030898
1281.5000000000002, 39.79402991030898
1282.0000000000002, 39.96612891961729
1282.5000000000002, 39.96612891961729
1283, 39.93744575139924
1283.5, 39.96612891961729
1284.0000000000002, 39.96612891961729
1284.5000000000002, 40.195594265361706
1285.0000000000002, 40.195594265361706
1285.5, 40.22427743357976
1286, 40.25296060179781
1286.5000000000002, 40.25296060179781
1287.0000000000002, 40.339010106451965
1287.5, 40.339010106451965
1288, 40.28164377001586
1288.5000000000002, 40.28164377001586
1289.0000000000002, 40.25296060179781
1289.5000000000002, 40.22427743357976
1290, 40.22427743357976
1290.5, 40.22427743357976
1291.0000000000002, 40.22427743357976
1291.5000000000002, 40.39637644288807
1294.0000000000002, 40.39637644288807
1294.5, 40.39637644288807
1295, 40.39637644288807
1295.5000000000002, 40.39637644288807
1296.0000000000002, 40.39637644288807
1296.5000000000002, 40.1382279289256
1297, 40.1382279289256
1297.5, 40.10954476070755
1298.0000000000002, 39.96612891961729
1298.5000000000002, 39.96612891961729
1299, 40.052178424271446
1299.5, 40.052178424271446
1300.0000000000002, 40.0808615924895
1300.5000000000002, 40.1382279289256
1301.0000000000002, 40.1382279289256
1301.5, 40.0808615924895
1302, 40.0808615924895
1302.5000000000002, 39.99481208783534
1303.0000000000002, 39.99481208783534
1303.5000000000002, 40.023495256053394
1304, 39.96612891961729
1304.5, 39.96612891961729
1305, 39.79402991030898
1305.5000000000002, 39.79402991030898
1306, 39.67929723743677
1306.5, 39.65061406921872
1307, 39.65061406921872
1307.5000000000002, 39.79402991030898
1308.0000000000002, 39.79402991030898
1308.5, 39.70798040565482
1309, 39.70798040565482
1309.5, 39.56456456456456
1310.0000000000002, 39.33509921882015
1310.5, 39.33509921882015
1311, 39.24904971416599
1311.5, 39.24904971416599
1312.0000000000002, 39.24904971416599
1312.5000000000002, 39.3637823870382
1313, 39.3637823870382
1313.5, 39.47851505991041
1314, 39.47851505991041
1314.5000000000002, 39.56456456456456
1315, 39.56456456456456
1315.5, 39.56456456456456
1316, 39.56456456456456
1316.5, 39.56456456456456
1317.0000000000002, 39.96612891961729
1317.5, 39.96612891961729
1318, 39.85139624674508
1318.5, 39.62193090100067
1319.0000000000002, 39.62193090100067
1319.5000000000002, 39.79402991030898
1320, 39.79402991030898
1320.5, 39.76534674209093
1321, 39.67929723743677
1321.5000000000002, 39.67929723743677
1322, 39.56456456456456
1322.5, 39.56456456456456
1323, 39.62193090100067
1323.5000000000002, 39.62193090100067
1324.0000000000002, 39.67929723743677
1324.5, 39.67929723743677
1325, 39.67929723743677
1325.5, 39.65061406921872
1326.0000000000002, 39.65061406921872
1326.5, 39.593247732782615
1327, 39.67929723743677
1327.5, 39.67929723743677
1328, 39.908762583181186
1328.5000000000002, 39.908762583181186
1329, 39.79402991030898
1329.5, 39.79402991030898
1330, 39.76534674209093
1330.5000000000002, 39.880079414963134
1331.0000000000002, 39.880079414963134
1331.5, 39.67929723743677
1332, 39.67929723743677
1332.5, 39.62193090100067
1333.0000000000002, 39.908762583181186
1333.5, 39.908762583181186
1334, 39.96612891961729
1334.5, 39.96612891961729
1335.0000000000002, 39.93744575139924
1335.5000000000002, 39.93744575139924
1336, 39.908762583181186
1336.5, 39.85139624674508
1337, 39.85139624674508
1337.5000000000002, 39.79402991030898
1338, 39.79402991030898
1338.5, 39.67929723743677
1339, 39.62193090100067
1339.5000000000002, 39.62193090100067
1340.0000000000002, 39.67929723743677
1340.5, 39.67929723743677
1341, 39.736663573872875
1341.5, 39.736663573872875
1342.0000000000002, 39.76534674209093
1342.5000000000002, 39.76534674209093
1343, 39.76534674209093
1343.5, 39.67929723743677
1344, 39.67929723743677
1344.5000000000002, 39.62193090100067
1345, 39.76534674209093
1345.5, 39.76534674209093
1346, 39.79402991030898
1346.5000000000002, 39.79402991030898
1347.0000000000002, 39.67929723743677
1347.5, 39.593247732782615
1348, 39.593247732782615
1348.5, 39.53588139634651
1349.0000000000002, 39.53588139634651
1349.5, 39.50719822812846
1350, 39.50719822812846
1350.5, 39.39246555525625
1351.0000000000002, 39.306416050602095
1351.5000000000002, 39.306416050602095
1352, 39.3637823870382
1352.5, 39.3637823870382
1353, 39.449831891692355
1353.5000000000002, 39.67929723743677
1354.0000000000002, 39.67929723743677
1354.5, 39.85139624674508
1355, 39.85139624674508
1355.5, 39.79402991030898
1356.0000000000002, 39.79402991030898
1356.5, 39.736663573872875
1357, 39.62193090100067
1357.5, 39.62193090100067
1358.0000000000002, 39.62193090100067
1358.5000000000002, 39.62193090100067
1359, 39.70798040565482
1359.5, 39.56456456456456
1360, 39.56456456456456
1360.5000000000002, 39.53588139634651
1361, 39.53588139634651
1361.5, 39.56456456456456
1362, 39.56456456456456
1362.5000000000002, 39.62193090100067
1363.0000000000002, 39.67929723743677
1363.5, 39.67929723743677
1364, 39.67929723743677
1364.5, 39.67929723743677
1365.0000000000002, 39.56456456456456
1365.5, 39.3637823870382
1366, 39.3637823870382
1366.5, 39.306416050602095
1367, 39.306416050602095
1367.5000000000002, 39.306416050602095
1368, 39.33509921882015
1368.5, 39.33509921882015
1369, 39.4211487234743
1369.5000000000002, 39.4211487234743
1370.0000000000002, 39.53588139634651
1370.5, 39.53588139634651
1371, 39.67929723743677
1371.5, 39.70798040565482
1372.0000000000002, 39.70798040565482
1372.5, 39.70798040565482
1373, 39.70798040565482
1373.5, 39.70798040565482
1374.0000000000002, 39.67929723743677
1374.5000000000002, 39.67929723743677
1375, 39.67929723743677
1375.5, 39.67929723743677
1376, 39.62193090100067
1376.5000000000002, 39.62193090100067
1377, 39.53588139634651
1377.5, 39.47851505991041
1378, 39.47851505991041
1378.5000000000002, 39.76534674209093
1379.0000000000002, 39.76534674209093
1379.5, 39.880079414963134
1380, 39.82271307852703
1380.5, 39.82271307852703
1381.0000000000002, 39.79402991030898
1381.5000000000002, 39.79402991030898
1382, 39.70798040565482
1382.5, 39.70798040565482
1383, 39.76534674209093
1383.5000000000002, 39.79402991030898
1384, 39.79402991030898
1384.5, 39.53588139634651
1385, 39.53588139634651
1385.5000000000002, 39.53588139634651
1386.0000000000002, 39.70798040565482
1386.5, 39.70798040565482
1387, 39.82271307852703
1387.5, 39.82271307852703
1388.0000000000002, 39.85139624674508
1388.5, 39.85139624674508
1389, 39.79402991030898
1389.5, 39.880079414963134
1390.0000000000002, 39.880079414963134
1390.5000000000002, 39.908762583181186
1391, 39.908762583181186
1391.5, 39.79402991030898
1392, 39.79402991030898
1392.5000000000002, 39.79402991030898
1393.0000000000002, 39.85139624674508
1393.5, 39.85139624674508
1394, 39.96612891961729
1394.5, 40.023495256053394
1395.0000000000002, 40.023495256053394
1395.5, 40.166911097143654
1396, 40.166911097143654
1396.5, 40.68320812506859
1396.5, 38.76143585445911
1397.0000000000002, 40.68320812506859
1397.0000000000002, 38.76143585445911
843.6987322893362, 39.68968968968968
852.6472781506338, 39.88988988988988
848.173005219985, 39.68968968968968
836.2416107382551, 39.58958958958958
839.2244593586877, 39.68968968968968
831.7673378076063, 39.58958958958958
