300, 42.375198902788966
300.5, 42.375198902788966
301, 42.375198902788966
301.5, 42.40391081165654
302, 42.40391081165654
302.5, 42.40391081165654
303, 42.40391081165654
303.5, 42.40391081165654
304, 42.40391081165654
304.5, 42.46133462939167
305, 42.46133462939167
305.5, 42.46133462939167
306, 42.46133462939167
306.5, 42.46133462939167
307, 42.49004653825924
307.5, 42.49004653825924
308, 42.51875844712682
308.5, 42.51875844712682
309, 42.51875844712682
309.5, 42.51875844712682
310, 42.51875844712682
310.5, 42.57618226486195
311, 42.57618226486195
311.5, 42.57618226486195
312, 42.57618226486195
312.5, 42.60489417372952
313, 42.6336060825971
313.5, 42.6336060825971
314, 42.66231799146466
314.5, 42.66231799146466
315, 42.691029900332225
315.5, 42.691029900332225
316, 42.691029900332225
316.5, 42.691029900332225
317, 42.691029900332225
317.5, 42.748453718067374
318, 42.748453718067374
318.5, 42.748453718067374
319, 42.748453718067374
319.5, 42.748453718067374
320, 42.748453718067374
320.5, 42.8058775358025
321, 42.8058775358025
321.5, 42.83458944467007
322, 42.83458944467007
322.5, 42.83458944467007
323, 42.83458944467007
323.5, 42.83458944467007
324, 42.86330135353765
324.5, 42.86330135353765
325, 42.86330135353765
325.5, 42.86330135353765
326, 42.86330135353765
326.5, 42.92072517127278
327, 42.92072517127278
327.5, 42.949437080140356
328, 42.949437080140356
328.5, 42.949437080140356
329, 42.949437080140356
329.5, 42.97814898900793
330, 42.97814898900793
330.5, 42.97814898900793
331, 43.035572806743055
331.5, 43.035572806743055
332, 43.035572806743055
332.5, 43.035572806743055
333, 43.06428471561063
333.5, 43.06428471561063
334, 43.0929966244782
334.5, 43.12170853334576
335, 43.12170853334576
335.5, 43.15042044221333
336, 43.15042044221333
336.5, 43.15042044221333
337, 43.15042044221333
337.5, 43.17913235108091
338, 43.17913235108091
338.5, 43.17913235108091
339, 43.207844259948466
339.5, 43.207844259948466
340, 43.26526807768361
340.5, 43.26526807768361
341, 43.293979986551186
341.5, 43.293979986551186
342, 43.32269189541874
342.5, 43.32269189541874
343, 43.32269189541874
343.5, 43.380115713153884
344, 43.380115713153884
344.5, 43.380115713153884
345, 43.380115713153884
345.5, 43.40882762202146
346, 43.40882762202146
346.5, 43.43753953088902
347, 43.43753953088902
347.5, 43.43753953088902
348, 43.46625143975659
348.5, 43.46625143975659
349, 43.49496334862417
349.5, 43.49496334862417
350, 43.52367525749173
350.5, 43.52367525749173
351, 43.552387166359296
351.5, 43.552387166359296
352, 43.552387166359296
352.5, 43.609810984094445
353, 43.609810984094445
353.5, 43.638522892962
354, 43.638522892962
354.5, 43.66723480182957
355, 43.66723480182957
355.5, 43.66723480182957
356, 43.69594671069714
356.5, 43.69594671069714
357, 43.72465861956472
357.5, 43.72465861956472
358, 43.75337052843228
358.5, 43.75337052843228
359, 43.78208243729985
359.5, 43.78208243729985
360, 43.78208243729985
360.5, 43.839506255035
361, 43.839506255035
361.5, 43.839506255035
362, 43.839506255035
362.5, 43.868218163902554
363, 43.868218163902554
363.5, 43.9256419816377
364, 43.95435389050527
364.5, 43.95435389050527
365, 43.95435389050527
365.5, 43.95435389050527
366, 43.98306579937283
366.5, 43.98306579937283
367, 44.04048961710798
367.5, 44.06920152597554
368, 44.06920152597554
368.5, 44.09791343484311
369, 44.09791343484311
369.5, 44.09791343484311
370, 44.09791343484311
370.5, 44.155337252578256
371, 44.155337252578256
371.5, 44.18404916144581
372, 44.212761070313384
372.5, 44.212761070313384
373, 44.241472979180955
373.5, 44.241472979180955
374, 44.29889679691609
374.5, 44.29889679691609
375, 44.29889679691609
375.5, 44.29889679691609
376, 44.29889679691609
376.5, 44.35632061465124
377, 44.35632061465124
377.5, 44.35632061465124
378, 44.35632061465124
378.5, 44.413744432386366
379, 44.413744432386366
379.5, 44.44245634125394
380, 44.471168250121515
380.5, 44.471168250121515
381, 44.49988015898908
381.5, 44.49988015898908
382, 44.557303976724214
382.5, 44.557303976724214
383, 44.58601588559179
383.5, 44.58601588559179
384, 44.58601588559179
384.5, 44.64343970332692
385, 44.64343970332692
385.5, 44.67215161219449
386, 44.67215161219449
386.5, 44.70086352106207
387, 44.70086352106207
387.5, 44.758287338797196
388, 44.758287338797196
388.5, 44.786999247664774
389, 44.8444230653999
389.5, 44.8444230653999
390, 44.8444230653999
390.5, 44.8444230653999
391, 44.87313497426747
391.5, 44.87313497426747
392, 44.930558792002614
392.5, 44.930558792002614
393, 44.95927070087018
393.5, 44.95927070087018
394, 44.95927070087018
394.5, 45.01669451860533
395, 45.01669451860533
395.5, 45.045406427472884
396, 45.045406427472884
396.5, 45.102830245208025
397, 45.1315421540756
397.5, 45.1315421540756
398, 45.16025406294316
398.5, 45.16025406294316
399, 45.18896597181073
399.5, 45.18896597181073
400, 45.24638978954588
400.5, 45.24638978954588
401, 45.27510169841344
401.5, 45.332525516148586
402, 45.332525516148586
402.5, 45.36123742501615
403, 45.36123742501615
403.5, 45.418661242751284
404, 45.418661242751284
404.5, 45.44737315161886
405, 45.44737315161886
405.5, 45.44737315161886
406, 45.50479696935399
406.5, 45.50479696935399
407, 45.50479696935399
407.5, 45.50479696935399
408, 45.53350887822156
408.5, 45.53350887822156
409, 45.56222078708914
409.5, 45.619644604824266
410, 45.619644604824266
410.5, 45.64835651369184
411, 45.64835651369184
411.5, 45.70578033142697
412, 45.70578033142697
412.5, 45.76320414916212
413, 45.76320414916212
413.5, 45.82062796689725
414, 45.8780517846324
414.5, 45.8780517846324
415, 45.906763693499954
415.5, 45.906763693499954
416, 45.964187511235096
416.5, 45.964187511235096
417, 45.992899420102674
417.5, 45.992899420102674
418, 46.0503232378378
418.5, 46.13645896444051
419, 46.13645896444051
419.5, 46.16517087330808
420, 46.16517087330808
420.5, 46.22259469104322
421, 46.22259469104322
421.5, 46.251306599910784
422, 46.251306599910784
422.5, 46.280018508778355
423, 46.3374423265135
423.5, 46.3374423265135
424, 46.36615423538106
424.5, 46.36615423538106
425, 46.42357805311621
425.5, 46.42357805311621
426, 46.452289961983766
426.5, 46.50971377971891
427, 46.50971377971891
427.5, 46.538425688586486
428, 46.538425688586486
428.5, 46.59584950632161
429, 46.59584950632161
429.5, 46.65327332405676
430, 46.65327332405676
430.5, 46.73940905065947
431, 46.796832868394596
431.5, 46.796832868394596
432, 46.854256686129744
432.5, 46.854256686129744
433, 46.94039241273244
433.5, 46.94039241273244
434, 46.99781623046758
434.5, 46.99781623046758
435, 47.02652813933515
435.5, 47.112663865937854
436, 47.112663865937854
436.5, 47.170087683673
437, 47.170087683673
437.5, 47.22751150140813
438, 47.22751150140813
438.5, 47.313647228010836
439, 47.37107104574598
439.5, 47.37107104574598
440, 47.457206772348684
440.5, 47.457206772348684
441, 47.51463059008383
441.5, 47.51463059008383
442, 47.57205440781896
442.5, 47.57205440781896
443, 47.6294782255541
443.5, 47.68690204328924
444, 47.68690204328924
444.5, 47.74432586102437
445, 47.74432586102437
445.5, 47.83046158762709
446, 47.83046158762709
446.5, 47.88788540536222
447, 47.88788540536222
447.5, 48.002733040832496
448, 48.06015685856764
448.5, 48.06015685856764
449, 48.0888687674352
449.5, 48.0888687674352
450, 48.14629258517035
450.5, 48.14629258517035
451, 48.23242831177305
451.5, 48.318564038375754
452, 48.318564038375754
452.5, 48.347275947243325
453, 48.347275947243325
453.5, 48.40469976497846
454, 48.40469976497846
454.5, 48.51954740044874
455, 48.51954740044874
455.5, 48.63439503591901
456, 48.69181885365416
456.5, 48.69181885365416
457, 48.72053076252172
457.5, 48.72053076252172
458, 48.80666648912444
458.5, 48.80666648912444
459, 48.864090306859566
459.5, 48.864090306859566
460, 48.97893794232984
460.5, 49.06507366893255
461, 49.06507366893255
461.5, 49.09378557780012
462, 49.09378557780012
462.5, 49.208633213270396
463, 49.208633213270396
463.5, 49.2947689398731
464, 49.2947689398731
464.5, 49.35219275760825
465, 49.40961657534338
465.5, 49.40961657534338
466, 49.495752301946084
466.5, 49.495752301946084
467, 49.61059993741636
467.5, 49.61059993741636
468, 49.696735664019066
468.5, 49.782871390621786
469, 49.782871390621786
469.5, 49.869007117224484
470, 49.869007117224484
470.5, 49.92643093495962
471, 49.92643093495962
471.5, 50.01256666156233
472, 50.01256666156233
472.5, 50.069990479297466
473, 50.18483811476774
473.5, 50.18483811476774
474, 50.27097384137045
474.5, 50.27097384137045
475, 50.357109567973154
475.5, 50.357109567973154
476, 50.4145333857083
476.5, 50.4145333857083
477, 50.558092930046136
477.5, 50.61551674778128
478, 50.61551674778128
478.5, 50.701652474383984
479, 50.701652474383984
479.5, 50.78778820098669
480, 50.78778820098669
480.5, 50.8739239275894
481, 50.93134774532454
481.5, 50.93134774532454
482, 51.01748347192724
482.5, 51.01748347192724
483, 51.07490728966239
483.5, 51.07490728966239
484, 51.218466834000225
484.5, 51.218466834000225
485, 51.30460256060294
485.5, 51.41945019607321
486, 51.41945019607321
486.5, 51.50558592267593
487, 51.50558592267593
487.5, 51.563009740411054
488, 51.563009740411054
488.5, 51.64914546701376
489, 51.64914546701376
489.5, 51.73528119361647
490, 51.821416920219185
490.5, 51.821416920219185
491, 51.87884073795431
491.5, 51.87884073795431
492, 51.93626455568946
492.5, 51.93626455568946
493, 52.02240028229216
493.5, 52.108536008894866
494, 52.108536008894866
494.5, 52.13724791776244
495, 52.13724791776244
495.5, 52.19467173549757
496, 52.19467173549757
496.5, 52.280807462100285
497, 52.280807462100285
497.5, 52.33823127983542
498, 52.366943188703
498.5, 52.366943188703
499, 52.424367006438125
499.5, 52.424367006438125
500, 52.453078915305696
500.5, 52.453078915305696
501, 52.453078915305696
501.5, 52.453078915305696
502, 52.481790824173274
502.5, 52.481790824173274
503, 52.481790824173274
503.5, 52.51050273304083
504, 52.51050273304083
504.5, 52.51050273304083
505, 52.51050273304083
505.5, 52.56792655077597
506, 52.56792655077597
506.5, 52.5392146419084
507, 52.51050273304083
507.5, 52.51050273304083
508, 52.481790824173274
508.5, 52.481790824173274
509, 52.453078915305696
509.5, 52.453078915305696
510, 52.453078915305696
510.5, 52.424367006438125
511, 52.424367006438125
511.5, 52.424367006438125
512, 52.424367006438125
512.5, 52.30951937096785
513, 52.30951937096785
513.5, 52.280807462100285
514, 52.280807462100285
514.5, 52.22338364436514
515, 52.19467173549757
515.5, 52.19467173549757
516, 52.13724791776244
516.5, 52.13724791776244
517, 52.108536008894866
517.5, 52.108536008894866
518, 52.02240028229216
518.5, 52.02240028229216
519, 51.96497646455702
519.5, 51.93626455568946
520, 51.93626455568946
520.5, 51.907552646821884
521, 51.907552646821884
521.5, 51.85012882908675
522, 51.85012882908675
522.5, 51.76399310248404
523, 51.73528119361647
523.5, 51.73528119361647
524, 51.7065692847489
524.5, 51.7065692847489
525, 51.591721649278625
525.5, 51.591721649278625
526, 51.50558592267593
526.5, 51.50558592267593
527, 51.47687401380835
527.5, 51.39073828720565
528, 51.39073828720565
528.5, 51.3333144694705
529, 51.3333144694705
529.5, 51.27589065173537
530, 51.27589065173537
530.5, 51.18975492513267
531, 51.18975492513267
531.5, 51.13233110739752
532, 51.01748347192724
532.5, 51.01748347192724
533, 50.960059654192115
533.5, 50.960059654192115
534, 50.8739239275894
534.5, 50.8739239275894
535, 50.81650010985426
535.5, 50.81650010985426
536, 50.78778820098669
536.5, 50.730364383251555
537, 50.730364383251555
537.5, 50.67294056551641
538, 50.67294056551641
538.5, 50.644228656648856
539, 50.644228656648856
539.5, 50.58680483891371
540, 50.558092930046136
540.5, 50.558092930046136
541, 50.52938102117858
541.5, 50.52938102117858
542, 50.500669112311
542.5, 50.500669112311
543, 50.44324529457587
543.5, 50.44324529457587
544, 50.44324529457587
544.5, 50.44324529457587
545, 50.44324529457587
545.5, 50.44324529457587
546, 50.44324529457587
546.5, 50.44324529457587
547, 50.44324529457587
547.5, 50.44324529457587
548, 50.44324529457587
548.5, 50.47195720344343
549, 50.52938102117858
549.5, 50.52938102117858
550, 50.500669112311
550.5, 50.500669112311
551, 50.47195720344343
551.5, 50.47195720344343
552, 50.47195720344343
552.5, 50.47195720344343
553, 50.47195720344343
553.5, 50.44324529457587
554, 50.44324529457587
554.5, 50.58680483891371
555, 50.58680483891371
555.5, 50.644228656648856
556, 50.644228656648856
556.5, 50.701652474383984
557, 50.730364383251555
557.5, 50.730364383251555
558, 50.78778820098669
558.5, 50.78778820098669
559, 50.8739239275894
559.5, 50.8739239275894
560, 50.902635836456966
560.5, 50.902635836456966
561, 50.98877156305967
561.5, 51.04619538079481
562, 51.04619538079481
562.5, 51.13233110739752
563, 51.13233110739752
563.5, 51.247178742867796
564, 51.247178742867796
564.5, 51.30460256060294
565, 51.30460256060294
565.5, 51.30460256060294
566, 51.30460256060294
566.5, 51.30460256060294
567, 51.39073828720565
567.5, 51.39073828720565
568, 51.44816210494078
568.5, 51.44816210494078
569, 51.50558592267593
569.5, 51.53429783154348
570, 51.53429783154348
570.5, 51.53429783154348
571, 51.53429783154348
571.5, 51.563009740411054
572, 51.563009740411054
572.5, 51.591721649278625
573, 51.591721649278625
573.5, 51.591721649278625
574, 51.591721649278625
574.5, 51.591721649278625
575, 51.591721649278625
575.5, 51.591721649278625
576, 51.591721649278625
576.5, 51.591721649278625
577, 51.6204335581462
577.5, 51.6204335581462
578, 51.6204335581462
578.5, 51.64914546701376
579, 51.64914546701376
579.5, 51.64914546701376
580, 51.64914546701376
580.5, 51.6204335581462
581, 51.6204335581462
581.5, 51.6204335581462
582, 51.6204335581462
582.5, 51.6204335581462
583, 51.6204335581462
583.5, 51.6204335581462
584, 51.591721649278625
584.5, 51.591721649278625
585, 51.563009740411054
585.5, 51.563009740411054
586, 51.53429783154348
586.5, 51.50558592267593
587, 51.50558592267593
587.5, 51.44816210494078
588, 51.44816210494078
588.5, 51.44816210494078
589, 51.44816210494078
589.5, 51.41945019607321
590, 51.41945019607321
590.5, 51.39073828720565
591, 51.39073828720565
591.5, 51.39073828720565
592, 51.36202637833807
592.5, 51.36202637833807
593, 51.16104301626509
593.5, 51.16104301626509
594, 51.13233110739752
594.5, 51.16104301626509
595, 51.16104301626509
595.5, 51.16104301626509
596, 51.16104301626509
596.5, 51.13233110739752
597, 51.13233110739752
597.5, 51.01748347192724
598, 51.01748347192724
598.5, 50.93134774532454
599, 50.902635836456966
599.5, 50.902635836456966
600, 50.8739239275894
600.5, 50.8739239275894
601, 50.78778820098669
601.5, 50.78778820098669
602, 50.730364383251555
602.5, 50.730364383251555
603, 50.67294056551641
603.5, 50.61551674778128
604, 50.61551674778128
604.5, 50.58680483891371
605, 50.58680483891371
605.5, 50.558092930046136
606, 50.558092930046136
606.5, 50.52938102117858
607, 50.52938102117858
607.5, 50.44324529457587
608, 50.4145333857083
608.5, 50.4145333857083
609, 50.357109567973154
609.5, 50.357109567973154
610, 50.29968575023802
610.5, 50.29968575023802
611, 50.29968575023802
611.5, 50.27097384137045
612, 50.27097384137045
612.5, 50.21355002363532
613, 50.21355002363532
613.5, 50.15612620590017
614, 50.15612620590017
614.5, 50.069990479297466
615, 50.069990479297466
615.5, 50.041278570429895
616, 50.01256666156233
616.5, 50.01256666156233
617, 49.98385475269477
617.5, 49.98385475269477
618, 49.95514284382719
618.5, 49.95514284382719
619, 49.92643093495962
619.5, 49.92643093495962
620, 49.869007117224484
620.5, 49.81158329948934
621, 49.81158329948934
621.5, 49.72544757288664
622, 49.72544757288664
622.5, 49.66802375515151
623, 49.66802375515151
623.5, 49.66802375515151
624, 49.696735664019066
624.5, 49.696735664019066
625, 49.63931184628393
625.5, 49.63931184628393
626, 49.58188802854879
626.5, 49.58188802854879
627, 49.55317611968123
627.5, 49.55317611968123
628, 49.55317611968123
628.5, 49.524464210813655
629, 49.524464210813655
629.5, 49.495752301946084
630, 49.495752301946084
630.5, 49.46704039307852
631, 49.46704039307852
631.5, 49.35219275760825
632, 49.35219275760825
632.5, 49.26605703100553
633, 49.237345122137974
633.5, 49.237345122137974
634, 49.208633213270396
634.5, 49.208633213270396
635, 49.151209395535254
635.5, 49.151209395535254
636, 49.09378557780012
636.5, 49.06507366893255
637, 49.06507366893255
637.5, 49.06507366893255
638, 49.06507366893255
638.5, 49.06507366893255
639, 49.06507366893255
639.5, 48.95022603346227
640, 48.95022603346227
640.5, 48.89280221572714
641, 48.864090306859566
641.5, 48.864090306859566
642, 48.77795458025686
642.5, 48.77795458025686
643, 48.72053076252172
643.5, 48.72053076252172
644, 48.69181885365416
644.5, 48.69181885365416
645, 48.663106944786584
645.5, 48.60568312705145
646, 48.60568312705145
646.5, 48.54825930931631
647, 48.54825930931631
647.5, 48.51954740044874
648, 48.51954740044874
648.5, 48.4621235827136
649, 48.4621235827136
649.5, 48.40469976497846
650, 48.347275947243325
650.5, 48.347275947243325
651, 48.26114022064063
651.5, 48.26114022064063
652, 48.23242831177305
652.5, 48.23242831177305
653, 48.175004494037914
653.5, 48.11758067630277
654, 48.11758067630277
654.5, 48.0888687674352
655, 48.0888687674352
655.5, 48.06015685856764
656, 48.06015685856764
656.5, 47.974021131964925
657, 47.974021131964925
657.5, 47.88788540536222
658, 47.80174967875951
658.5, 47.80174967875951
659, 47.77303776989194
659.5, 47.77303776989194
660, 47.68690204328924
660.5, 47.68690204328924
661, 47.57205440781896
661.5, 47.57205440781896
662, 47.51463059008383
662.5, 47.457206772348684
663, 47.457206772348684
663.5, 47.399782954613556
664, 47.399782954613556
664.5, 47.28493531914328
665, 47.28493531914328
665.5, 47.19879959254057
666, 47.141375774805425
666.5, 47.141375774805425
667, 47.0839519570703
667.5, 47.0839519570703
668, 46.99781623046758
668.5, 46.99781623046758
669, 46.91168050386487
669.5, 46.91168050386487
670, 46.796832868394596
670.5, 46.73940905065947
671, 46.73940905065947
671.5, 46.68198523292432
672, 46.68198523292432
672.5, 46.56713759745404
673, 46.56713759745404
673.5, 46.48100187085134
674, 46.48100187085134
674.5, 46.452289961983766
675, 46.42357805311621
675.5, 46.42357805311621
676, 46.39486614424863
676.5, 46.39486614424863
677, 46.39486614424863
677.5, 46.39486614424863
678, 46.36615423538106
678.5, 46.30873041764593
679, 46.30873041764593
679.5, 46.251306599910784
680, 46.251306599910784
680.5, 46.16517087330808
681, 46.16517087330808
681.5, 46.07903514670537
682, 46.07903514670537
682.5, 46.0503232378378
683, 45.992899420102674
683.5, 45.992899420102674
684, 45.964187511235096
684.5, 45.964187511235096
685, 45.906763693499954
685.5, 45.906763693499954
686, 45.8780517846324
686.5, 45.8780517846324
687, 45.84933987576482
687.5, 45.791916058029685
688, 45.791916058029685
688.5, 45.791916058029685
689, 45.791916058029685
689.5, 45.73449224029454
690, 45.73449224029454
690.5, 45.70578033142697
691, 45.70578033142697
691.5, 45.64835651369184
692, 45.590932695956695
692.5, 45.590932695956695
693, 45.590932695956695
693.5, 45.590932695956695
694, 45.53350887822156
694.5, 45.53350887822156
695, 45.47608506048642
695.5, 45.44737315161886
696, 45.44737315161886
696.5, 45.44737315161886
697, 45.44737315161886
697.5, 45.38994933388371
698, 45.38994933388371
698.5, 45.38994933388371
699, 45.38994933388371
699.5, 45.36123742501615
700, 45.36123742501615
700.5, 45.36123742501615
701, 45.332525516148586
701.5, 45.332525516148586
702, 45.38994933388371
702.5, 45.38994933388371
703, 45.36123742501615
703.5, 45.36123742501615
704, 45.30381360728101
704.5, 45.24638978954588
705, 45.24638978954588
705.5, 45.2176778806783
706, 45.2176778806783
706.5, 45.2176778806783
707, 45.2176778806783
707.5, 45.18896597181073
708, 45.16025406294316
708.5, 45.16025406294316
709, 45.1315421540756
709.5, 45.1315421540756
710, 45.1315421540756
710.5, 45.1315421540756
711, 45.16025406294316
711.5, 45.16025406294316
712, 45.18896597181073
712.5, 45.1315421540756
713, 45.1315421540756
713.5, 45.102830245208025
714, 45.102830245208025
714.5, 45.102830245208025
715, 45.102830245208025
715.5, 45.102830245208025
716, 45.102830245208025
716.5, 45.074118336340455
717, 45.01669451860533
717.5, 45.01669451860533
718, 44.95927070087018
718.5, 44.95927070087018
719, 44.95927070087018
719.5, 44.95927070087018
720, 44.95927070087018
720.5, 44.95927070087018
721, 44.98798260973775
721.5, 44.95927070087018
722, 44.95927070087018
722.5, 44.95927070087018
723, 44.95927070087018
723.5, 44.95927070087018
724, 44.95927070087018
724.5, 44.95927070087018
725, 44.95927070087018
725.5, 44.95927070087018
726, 44.930558792002614
726.5, 44.930558792002614
727, 44.90184688313505
727.5, 44.90184688313505
728, 44.90184688313505
728.5, 44.90184688313505
729, 44.98798260973775
729.5, 45.01669451860533
730, 45.01669451860533
730.5, 45.01669451860533
731, 45.01669451860533
731.5, 44.98798260973775
732, 44.98798260973775
732.5, 44.98798260973775
733, 44.98798260973775
733.5, 44.95927070087018
734, 44.930558792002614
734.5, 44.930558792002614
735, 44.930558792002614
735.5, 44.930558792002614
736, 44.95927070087018
736.5, 44.95927070087018
737, 44.98798260973775
737.5, 45.01669451860533
738, 45.01669451860533
738.5, 45.01669451860533
739, 45.01669451860533
739.5, 45.01669451860533
740, 45.01669451860533
740.5, 44.98798260973775
741, 44.98798260973775
741.5, 44.98798260973775
742, 45.045406427472884
742.5, 45.045406427472884
743, 45.102830245208025
743.5, 45.102830245208025
744, 45.102830245208025
744.5, 45.102830245208025
745, 45.074118336340455
745.5, 45.074118336340455
746, 45.074118336340455
746.5, 45.074118336340455
747, 45.074118336340455
747.5, 45.074118336340455
748, 45.074118336340455
748.5, 45.074118336340455
749, 45.074118336340455
749.5, 45.045406427472884
750, 45.045406427472884
750.5, 45.045406427472884
751, 45.01669451860533
751.5, 45.01669451860533
752, 44.98798260973775
752.5, 44.98798260973775
753, 44.95927070087018
753.5, 44.95927070087018
754, 44.98798260973775
754.5, 45.045406427472884
755, 45.045406427472884
755.5, 45.102830245208025
756, 45.102830245208025
756.5, 45.102830245208025
757, 45.102830245208025
757.5, 45.102830245208025
758, 45.102830245208025
758.5, 45.074118336340455
759, 45.074118336340455
759.5, 45.074118336340455
760, 45.074118336340455
760.5, 45.074118336340455
761, 45.074118336340455
761.5, 45.074118336340455
762, 45.045406427472884
762.5, 45.045406427472884
763, 45.045406427472884
763.5, 45.102830245208025
764, 45.102830245208025
764.5, 45.102830245208025
765, 45.102830245208025
765.5, 45.102830245208025
766, 45.102830245208025
766.5, 45.1315421540756
767, 45.01669451860533
767.5, 45.01669451860533
768, 45.045406427472884
768.5, 45.045406427472884
769, 45.045406427472884
769.5, 45.045406427472884
770, 45.1315421540756
770.5, 45.1315421540756
771, 45.1315421540756
771.5, 45.1315421540756
772, 45.1315421540756
772.5, 45.074118336340455
773, 45.074118336340455
773.5, 45.045406427472884
774, 45.045406427472884
774.5, 45.045406427472884
775, 45.045406427472884
775.5, 45.045406427472884
776, 45.045406427472884
776.5, 45.045406427472884
777, 44.98798260973775
777.5, 44.98798260973775
778, 44.98798260973775
778.5, 44.98798260973775
779, 44.98798260973775
779.5, 44.98798260973775
780, 44.98798260973775
780.5, 44.930558792002614
781, 44.930558792002614
781.5, 44.90184688313505
782, 44.90184688313505
782.5, 44.87313497426747
783, 44.87313497426747
783.5, 44.8444230653999
784, 44.815711156532345
784.5, 44.815711156532345
785, 44.815711156532345
785.5, 44.815711156532345
786, 44.815711156532345
786.5, 44.815711156532345
787, 44.758287338797196
787.5, 44.758287338797196
788, 44.729575429929625
788.5, 44.729575429929625
789, 44.729575429929625
789.5, 44.70086352106207
790, 44.70086352106207
790.5, 44.67215161219449
791, 44.67215161219449
791.5, 44.557303976724214
792, 44.471168250121515
792.5, 44.471168250121515
793, 44.44245634125394
793.5, 44.44245634125394
794, 44.3850325235188
794.5, 44.3850325235188
795, 44.29889679691609
795.5, 44.29889679691609
796, 44.27018488804853
796.5, 44.212761070313384
797, 44.212761070313384
797.5, 44.12662534371068
798, 44.12662534371068
798.5, 44.09791343484311
799, 44.09791343484311
799.5, 44.04048961710798
800, 44.04048961710798
800.5, 44.0117777082404
801, 43.896930072770125
801.5, 43.896930072770125
802, 43.868218163902554
802.5, 43.868218163902554
803, 43.868218163902554
803.5, 43.868218163902554
804, 43.78208243729985
804.5, 43.78208243729985
805, 43.72465861956472
805.5, 43.638522892962
806, 43.638522892962
806.5, 43.58109907522687
807, 43.58109907522687
807.5, 43.552387166359296
808, 43.552387166359296
808.5, 43.49496334862417
809, 43.40882762202146
809.5, 43.40882762202146
810, 43.35140380428631
810.5, 43.35140380428631
811, 43.207844259948466
811.5, 43.207844259948466
812, 43.12170853334576
812.5, 43.12170853334576
813, 43.06428471561063
813.5, 43.035572806743055
814, 43.035572806743055
814.5, 43.006860897875484
815, 43.006860897875484
815.5, 42.97814898900793
816, 42.97814898900793
816.5, 42.86330135353765
817, 42.86330135353765
817.5, 42.83458944467007
818, 42.8058775358025
818.5, 42.8058775358025
819, 42.691029900332225
819.5, 42.691029900332225
820, 42.66231799146466
820.5, 42.66231799146466
821, 42.60489417372952
821.5, 42.57618226486195
822, 42.57618226486195
822.5, 42.547470355994385
823, 42.547470355994385
823.5, 42.49004653825924
824, 42.49004653825924
824.5, 42.49004653825924
825, 42.49004653825924
825.5, 42.432622720524115
826, 42.40391081165654
826.5, 42.40391081165654
827, 42.40391081165654
827.5, 42.40391081165654
828, 42.40391081165654
828.5, 42.40391081165654
829, 42.40391081165654
829.5, 42.40391081165654
830, 42.40391081165654
830.5, 42.40391081165654
831, 42.40391081165654
831.5, 42.40391081165654
832, 42.40391081165654
832.5, 42.40391081165654
833, 42.40391081165654
833.5, 42.432622720524115
834, 42.432622720524115
834.5, 42.49004653825924
835, 42.57618226486195
835.5, 42.57618226486195
836, 42.66231799146466
836.5, 42.66231799146466
837, 42.719741809199796
837.5, 42.719741809199796
838, 42.77716562693493
838.5, 42.86330135353765
839, 42.86330135353765
839.5, 42.92072517127278
840, 42.92072517127278
840.5, 42.97814898900793
841, 42.97814898900793
841.5, 42.949437080140356
842, 42.949437080140356
842.5, 42.89201326240521
843, 42.8058775358025
843.5, 42.8058775358025
844, 42.748453718067374
844.5, 42.748453718067374
845, 42.66231799146466
845.5, 42.66231799146466
846, 42.51875844712682
846.5, 42.51875844712682
847, 42.49004653825924
847.5, 42.51875844712682
848, 42.51875844712682
848.5, 42.57618226486195
849, 42.57618226486195
849.5, 42.66231799146466
850, 42.66231799146466
850.5, 42.6336060825971
851, 42.60489417372952
851.5, 42.60489417372952
852, 42.49004653825924
852.5, 42.49004653825924
853, 42.46133462939167
853.5, 42.46133462939167
854, 42.49004653825924
854.5, 42.49004653825924
855, 42.49004653825924
855.5, 42.40391081165654
856, 42.40391081165654
856.5, 42.346486993921395
857, 42.346486993921395
857.5, 42.31777508505384
858, 42.31777508505384
858.5, 42.31777508505384
859, 42.31777508505384
859.5, 42.346486993921395
860, 42.26035126731869
860.5, 42.26035126731869
861, 42.23163935845112
861.5, 42.23163935845112
862, 42.28906317618626
862.5, 42.28906317618626
863, 42.375198902788966
863.5, 42.40391081165654
864, 42.40391081165654
864.5, 42.432622720524115
865, 42.432622720524115
865.5, 42.46133462939167
866, 42.46133462939167
866.5, 42.46133462939167
867, 42.46133462939167
867.5, 42.46133462939167
868, 42.432622720524115
868.5, 42.432622720524115
869, 42.40391081165654
869.5, 42.40391081165654
870, 42.46133462939167
870.5, 42.46133462939167
871, 42.51875844712682
871.5, 42.51875844712682
872, 42.547470355994385
872.5, 42.547470355994385
873, 42.547470355994385
873.5, 42.547470355994385
874, 42.547470355994385
874.5, 42.547470355994385
875, 42.547470355994385
875.5, 42.60489417372952
876, 42.60489417372952
876.5, 42.6336060825971
877, 42.66231799146466
877.5, 42.66231799146466
878, 42.66231799146466
878.5, 42.66231799146466
879, 42.691029900332225
879.5, 42.691029900332225
880, 42.77716562693493
880.5, 42.8058775358025
881, 42.8058775358025
881.5, 42.8058775358025
882, 42.8058775358025
882.5, 42.8058775358025
883, 42.8058775358025
883.5, 42.86330135353765
884, 42.86330135353765
884.5, 42.89201326240521
885, 42.949437080140356
885.5, 42.949437080140356
886, 43.006860897875484
886.5, 43.006860897875484
887, 43.06428471561063
887.5, 43.06428471561063
888, 43.0929966244782
888.5, 43.0929966244782
889, 43.12170853334576
889.5, 43.0929966244782
890, 43.0929966244782
890.5, 43.0929966244782
891, 43.0929966244782
891.5, 43.12170853334576
892, 43.12170853334576
892.5, 43.17913235108091
893, 43.207844259948466
893.5, 43.207844259948466
894, 43.26526807768361
894.5, 43.26526807768361
895, 43.32269189541874
895.5, 43.32269189541874
896, 43.380115713153884
896.5, 43.380115713153884
897, 43.40882762202146
897.5, 43.43753953088902
898, 43.43753953088902
898.5, 43.49496334862417
899, 43.49496334862417
899.5, 43.58109907522687
900, 43.58109907522687
900.5, 43.69594671069714
901, 43.69594671069714
901.5, 43.81079434616742
902, 43.81079434616742
902.5, 43.81079434616742
903, 43.81079434616742
903.5, 43.81079434616742
904, 43.839506255035
904.5, 43.839506255035
905, 43.868218163902554
905.5, 43.98306579937283
906, 43.98306579937283
906.5, 44.04048961710798
907, 44.04048961710798
907.5, 44.155337252578256
908, 44.155337252578256
908.5, 44.29889679691609
909, 44.29889679691609
909.5, 44.413744432386366
910, 44.49988015898908
910.5, 44.49988015898908
911, 44.64343970332692
911.5, 44.64343970332692
912, 44.758287338797196
912.5, 44.758287338797196
913, 44.98798260973775
913.5, 44.98798260973775
914, 45.1315421540756
914.5, 45.2176778806783
915, 45.2176778806783
915.5, 45.36123742501615
916, 45.36123742501615
916.5, 45.50479696935399
917, 45.50479696935399
917.5, 45.677068422559415
918, 45.677068422559415
918.5, 45.82062796689725
919, 45.8780517846324
919.5, 45.8780517846324
920, 45.906763693499954
920.5, 45.906763693499954
921, 45.992899420102674
921.5, 45.992899420102674
922, 46.07903514670537
922.5, 46.251306599910784
923, 46.251306599910784
923.5, 46.39486614424863
924, 46.39486614424863
924.5, 46.50971377971891
925, 46.50971377971891
925.5, 46.65327332405676
926, 46.65327332405676
926.5, 46.796832868394596
927, 46.99781623046758
927.5, 46.99781623046758
928, 47.141375774805425
928.5, 47.141375774805425
929, 47.19879959254057
929.5, 47.19879959254057
930, 47.313647228010836
930.5, 47.313647228010836
931, 47.399782954613556
931.5, 47.485918681216255
932, 47.485918681216255
932.5, 47.658190134421666
933, 47.658190134421666
933.5, 47.74432586102437
934, 47.74432586102437
934.5, 47.94530922309737
935, 48.14629258517035
935.5, 48.14629258517035
936, 48.28985212950818
936.5, 48.28985212950818
937, 48.51954740044874
937.5, 48.51954740044874
938, 48.54825930931631
939, 48.63439503591901
939.5, 48.89280221572714
940, 48.89280221572714
940.5, 49.036361760064985
941, 49.036361760064985
941.5, 49.1224974866677
942, 49.1224974866677
942.5, 49.237345122137974
943, 49.237345122137974
943.5, 49.2947689398731
944, 49.40961657534338
944.5, 49.40961657534338
945, 49.524464210813655
945.5, 49.524464210813655
946, 49.61059993741636
946.5, 49.61059993741636
947, 49.72544757288664
947.5, 49.72544757288664
948, 49.81158329948934
948.5, 49.897719026092055
949, 49.897719026092055
949.5, 50.041278570429895
950, 50.041278570429895
950.5, 50.15612620590017
951, 50.15612620590017
951.5, 50.24226193250288
952, 50.29968575023802
952.5, 50.29968575023802
953, 50.385821476840725
953.5, 50.385821476840725
954, 50.47195720344343
954.5, 50.47195720344343
955, 50.52938102117858
955.5, 50.52938102117858
956, 50.58680483891371
956.5, 50.67294056551641
957, 50.67294056551641
957.5, 50.81650010985426
958, 50.81650010985426
958.5, 50.84521201872184
959, 50.84521201872184
959.5, 50.93134774532454
960, 50.93134774532454
960.5, 50.93134774532454
961, 50.960059654192115
961.5, 50.960059654192115
962, 51.04619538079481
962.5, 51.04619538079481
963, 51.16104301626509
963.5, 51.16104301626509
964, 51.3333144694705
964.5, 51.44816210494078
965, 51.44816210494078
965.5, 51.563009740411054
966, 51.563009740411054
966.5, 51.7065692847489
967, 51.7065692847489
967.5, 51.821416920219185
968, 51.821416920219185
968.5, 51.96497646455702
969, 52.13724791776244
969.5, 52.13724791776244
970, 52.22338364436514
970.5, 52.22338364436514
971, 52.366943188703
971.5, 52.366943188703
972, 52.481790824173274
972.5, 52.481790824173274
973, 52.62535036851111
973.5, 52.85504563945166
974, 52.85504563945166
974.5, 52.99860518378951
975, 52.99860518378951
975.5, 53.17087663699492
976, 53.17087663699492
976.5, 53.257012363597624
977, 53.343148090200344
977.5, 53.343148090200344
978, 53.42928381680304
978.5, 53.42928381680304
979, 53.601555270008454
979.5, 53.601555270008454
980, 53.85996244981658
980.5, 53.85996244981658
981, 53.974810085286855
981.5, 54.204505356227415
982, 54.204505356227415
982.5, 54.34806490056525
983, 54.34806490056525
983.5, 54.66389589810851
984, 54.66389589810851
984.5, 54.807455442446354
985, 54.807455442446354
985.5, 54.9510149867842
986, 55.151998348857184
986.5, 55.151998348857184
987, 55.29555789319504
987.5, 55.29555789319504
988, 55.525253164135584
988.5, 55.525253164135584
989, 55.697524617340996
989.5, 55.697524617340996
990, 55.81237225281127
990.5, 55.89850797941398
991, 55.89850797941398
991.5, 55.95593179714912
992, 55.95593179714912
992.5, 56.04206752375183
993, 56.04206752375183
993.5, 56.386610430162655
994, 56.558881883368066
994.5, 56.558881883368066
995, 56.70244142770592
995.5, 56.70244142770592
996, 56.874712880911325
996.5, 56.874712880911325
997, 57.07569624298431
997.5, 57.07569624298431
998, 57.448951058262715
998.5, 57.707358238070825
999, 57.707358238070825
999.5, 57.8222058735411
1000, 57.8222058735411
1000.5, 58.080613053349225
1001, 58.080613053349225
1001.5, 58.310308324289785
1002, 58.310308324289785
1002.5, 58.62613932183304
1003, 58.8558345927736
1003.5, 58.8558345927736
1004, 59.028106045979
1004.5, 59.028106045979
1005, 59.34393704352226
1005.5, 59.34393704352226
1006, 59.631056132197955
1006.5, 59.832039494270944
1007, 59.832039494270944
1007.5, 60.17658240068176
1008, 60.17658240068176
1008.5, 60.434989580489884
1009, 60.434989580489884
1009.5, 60.83695630463585
1010, 60.83695630463585
1010.5, 61.03793966670884
1011, 61.21021111991425
1011.5, 61.21021111991425
1012, 61.58346593519264
1012.5, 61.58346593519264
1013, 61.75573738839806
1013.5, 61.75573738839806
1014, 62.128992203676454
1014.5, 62.128992203676454
1015, 62.674518472160266
1015.5, 63.019061378571095
1016, 63.019061378571095
1016.5, 63.22004474064408
1017, 63.22004474064408
1017.5, 63.67943528252518
1018, 63.67943528252518
1018.5, 64.05269009780358
1019, 64.3972330042144
1019.5, 64.3972330042144
1020, 64.82791163722794
1020.5, 64.82791163722794
1021, 65.0576069081685
1021.5, 65.0576069081685
1022, 65.5169974500496
1022.5, 65.5169974500496
1023, 65.94767608306313
1023.5, 66.34964280720911
1024, 66.34964280720911
1024.5, 68.07235733926325
1025, 68.07235733926325
1025.5, 68.41690024567407
1025.5, 65.97638799193071
1026, 68.41690024567407
1026, 65.97638799193071
1026.5, 68.87629078755518
1026.5, 66.43577853381181
1027, 68.87629078755518
1027, 66.43577853381181
1027.5, 68.18720497473352
1028, 68.50303597227678
1028.5, 68.50303597227678
1029, 69.04856224076059
1029.5, 69.04856224076059
1030, 69.47924087377413
1030.5, 69.47924087377413
1031, 69.85249568905252
1031.5, 69.85249568905252
1032, 70.36931004866877
1032.5, 70.77127677281473
1033, 70.77127677281473
1033.5, 71.43165067676883
1034, 71.43165067676883
1034.5, 73.06822948222026
1034.5, 70.59900531960932
1035, 73.06822948222026
1035, 70.59900531960932
1035.5, 73.2979247531608
1036, 73.7573152950419
1036.5, 73.7573152950419
1037, 73.12565329995539
1037.5, 73.12565329995539
1038, 74.67609637880412
1038.5, 74.67609637880412
1039, 75.36518219162578
1039.5, 75.36518219162578
1040, 75.9968441867123
1040, 73.44148429749865
1040.5, 76.34138709312313
1040.5, 73.78602720390948
1041, 76.34138709312313
1041, 73.78602720390948
1041.5, 76.80077763500422
1041.5, 74.30284156352572
1042, 76.80077763500422
1042, 74.30284156352572
1042.5, 77.08789672367992
1042.5, 74.61867256106899
1043, 77.08789672367992
1043, 74.61867256106899
1043.5, 76.34138709312313
1044, 76.34138709312313
1044.5, 76.91562527047451
1045, 77.26016817688533
1045.5, 77.26016817688533
1046, 77.74827062763401
1046.5, 77.74827062763401
1047, 78.17894926064754
1047.5, 78.17894926064754
1048, 78.52349216705836
1048.5, 79.01159461780705
1049, 79.01159461780705
1049.5, 79.27000179761517
1050, 79.27000179761517
1050.5, 79.78681615723141
1051, 79.78681615723141
1051.5, 80.27491860798008
1052, 80.27491860798008
1052.5, 80.59074960552334
1053, 80.9927163296693
1053.5, 80.9927163296693
1054, 81.42339496268283
1054.5, 81.42339496268283
1055, 81.65309023362339
1055.5, 81.65309023362339
1056, 82.05505695776935
1056.5, 82.05505695776935
1057, 82.39959986418019
1057.5, 82.68671895285587
1058, 82.68671895285587
1058.5, 83.11739758586941
1059, 83.11739758586941
1059.5, 83.4045166745451
1060, 83.4045166745451
1060.5, 83.74905958095593
1061, 83.74905958095593
1061.5, 83.97875485189648
1062, 84.17973821396947
1062.5, 84.17973821396947
1063, 84.6965525735857
1063.5, 84.6965525735857
1064, 84.9836716622614
1064.5, 84.9836716622614
1065, 85.18465502433438
1065.5, 85.38563838640736
1066, 85.38563838640736
1066.5, 85.61533365734792
1067, 85.61533365734792
1067.5, 85.84502892828847
1068, 85.84502892828847
1068.5, 85.95987656375874
1069, 85.95987656375874
1069.5, 86.01730038149388
1070, 86.24699565243444
1070.5, 86.24699565243444
1071, 86.5628266499777
1071.5, 86.5628266499777
1072, 86.70638619431554
1072.5, 86.70638619431554
1073, 86.7350981031831
1073.5, 86.7350981031831
1074, 86.96479337412366
1074.5, 87.1083529184615
1075, 87.1083529184615
1075.5, 87.22320055393179
1076, 87.22320055393179
1076.5, 87.25191246279935
1077, 87.25191246279935
1077.5, 87.3093362805345
1078, 87.45289582487234
1078.5, 87.45289582487234
1079, 87.42418391600476
1079.5, 87.42418391600476
1080, 87.36676009826962
1080.5, 87.36676009826962
1081, 87.45289582487234
1081.5, 87.45289582487234
1082, 87.4816077337399
1082.5, 87.4816077337399
1083, 87.4816077337399
1083.5, 87.3954720071372
1084, 87.3954720071372
1084.5, 87.25191246279935
1085, 87.25191246279935
1085.5, 87.1083529184615
1086, 87.1083529184615
1086.5, 86.99350528299124
1087, 86.79252192091825
1087.5, 86.79252192091825
1088, 86.70638619431554
1088.5, 86.70638619431554
1089, 86.59153855884526
1089.5, 86.59153855884526
1090, 86.33313137903714
1090.5, 86.10343610809659
1091, 86.10343610809659
1091.5, 85.98858847262632
1092, 85.98858847262632
1092.5, 85.61533365734792
1093, 85.61533365734792
1093.5, 85.4430622041425
1094, 85.4430622041425
1094.5, 85.09851929773167
1095, 84.72526448245328
1095.5, 84.72526448245328
1096, 84.49556921151273
1096.5, 84.49556921151273
1097, 84.12231439623433
1097.5, 84.12231439623433
1098, 83.7777714898235
1098.5, 83.7777714898235
1099, 83.54807621888295
1099.5, 82.97383804153156
1100, 82.97383804153156
1100.5, 82.68671895285587
1101, 82.68671895285587
1101.5, 82.42831177304775
1102, 82.42831177304775
1102.5, 81.96892123116666
1103, 81.96892123116666
1103.5, 81.71051405135853
1104, 81.22241160060986
1104.5, 81.22241160060986
1105, 80.67688533212605
1105.5, 80.67688533212605
1106, 80.4471900611855
1106.5, 80.4471900611855
1107, 81.27983541834499
1107, 78.81061125573406
1107.5, 79.55712088629085
1108, 79.55712088629085
1108.5, 79.1551541621449
1109, 79.1551541621449
1109.5, 78.55220407592594
1110, 78.55220407592594
1110.5, 78.17894926064754
1111, 78.17894926064754
1111.5, 78.92545889120433
1111.5, 76.4562347285934
1112, 78.4086445315881
1112, 75.93942036897715
1112.5, 78.4086445315881
1112.5, 75.93942036897715
1113, 78.1215254429124
1113, 75.59487746256633
1113.5, 78.1215254429124
1113.5, 75.59487746256633
1114, 77.60471108329617
1114, 75.04935119408252
1114.5, 77.60471108329617
1114.5, 75.04935119408252
1115, 77.08789672367992
1115, 74.58996065220141
1115.5, 77.08789672367992
1115.5, 74.58996065220141
1116, 76.62850618179881
1116, 74.10185820145274
1116.5, 75.9968441867123
1116.5, 73.47019620636623
1117, 75.9968441867123
1117, 73.47019620636623
1117.5, 75.53745364483119
1117.5, 73.03951757335268
1118, 75.53745364483119
1118, 73.03951757335268
1118.5, 75.02063928521494
1118.5, 72.49399130486887
1119, 75.02063928521494
1119, 72.49399130486887
1119.5, 74.44640110786357
1119.5, 71.89104121864992
1120, 74.10185820145274
1120, 71.48907449450397
1120.5, 74.10185820145274
1120.5, 71.48907449450397
1121, 73.03951757335268
1121, 71.00097204375528
1121.5, 73.03951757335268
1121.5, 71.00097204375528
1122, 71.77619358317965
1122, 70.42673386640391
1122.5, 71.77619358317965
1122.5, 70.42673386640391
1123, 71.5464983122391
1123, 69.90991950678766
1123.5, 71.5464983122391
1123.5, 69.90991950678766
1124, 71.80490549204723
1124, 69.36439323830385
1124.5, 70.19703859546335
1125, 70.19703859546335
1125.5, 70.82870059054987
1125.5, 68.38818833680651
1126, 70.82870059054987
1126, 68.38818833680651
1126.5, 70.42673386640391
1126.5, 67.9287977949254
1127, 70.42673386640391
1127, 67.9287977949254
1127.5, 69.85249568905252
1127.5, 67.38327152644159
1128, 69.85249568905252
1128, 67.38327152644159
1128.5, 69.39310514717141
1128.5, 66.80903334909021
1129, 68.99113842302546
1129, 66.32093089834154
1129.5, 68.99113842302546
1129.5, 66.32093089834154
1130, 68.47432406340921
1130, 65.890252265328
1130.5, 68.47432406340921
1130.5, 65.890252265328
1131, 68.07235733926325
1131, 65.40214981457933
1131.5, 68.07235733926325
1131.5, 65.40214981457933
1132, 67.38327152644159
1132, 64.88533545496308
1132.5, 67.38327152644159
1132.5, 64.88533545496308
1133, 66.80903334909021
1133.5, 65.11503072590364
1134, 65.11503072590364
1134.5, 64.56950445741982
1135, 64.56950445741982
1135.5, 64.08140200667114
1136, 64.08140200667114
1136.5, 64.8566235460955
1136.5, 62.41611129235215
1137, 64.45465682194956
1137.5, 64.45465682194956
1138, 62.76065419876298
1138.5, 62.76065419876298
1139, 62.24383983914673
1139.5, 62.24383983914673
1140, 61.92800884160347
1140.5, 61.92800884160347
1141, 61.38248257311966
1141.5, 60.77953248690071
1142, 60.77953248690071
1142.5, 60.463701489357454
1143, 60.463701489357454
1143.5, 60.06173476521149
1144, 60.06173476521149
1144.5, 59.745903767668224
1145, 59.745903767668224
1145.5, 59.28651322578713
1146, 58.82712268390602
1146.5, 58.82712268390602
1147, 58.51129168636276
1147.5, 58.51129168636276
1148, 58.02318923561408
1148.5, 58.02318923561408
1149, 57.59251060260055
1149.5, 57.30539151392486
1150, 57.30539151392486
1150.5, 56.78857715430862
1151, 56.78857715430862
1151.5, 56.44403424789779
1152, 56.44403424789779
1152.5, 56.15691515922211
1153, 56.15691515922211
1153.5, 55.697524617340996
1154, 55.55396507300315
1154.5, 55.55396507300315
1155, 55.18071025772476
1155.5, 55.18071025772476
1156, 54.5777601715058
1156.5, 54.5777601715058
1157, 54.29064108283011
1157.5, 54.29064108283011
1158, 53.91738626755171
1158.5, 53.71640290547873
1159, 53.71640290547873
1159.5, 53.42928381680304
1160, 53.42928381680304
1160.5, 53.113452819259784
1161, 53.113452819259784
1161.5, 52.71148609511382
1162, 52.453078915305696
1162.5, 52.453078915305696
1163, 52.165959826630015
1163.5, 52.165959826630015
1164, 51.87884073795431
1164.5, 51.87884073795431
1165, 51.64914546701376
1165.5, 51.64914546701376
1166, 51.218466834000225
1166.5, 51.01748347192724
1167, 51.01748347192724
1167.5, 50.701652474383984
1168, 50.701652474383984
1168.5, 50.47195720344343
1169, 50.47195720344343
1169.5, 50.18483811476774
1170, 50.18483811476774
1170.5, 49.92643093495962
1171, 49.72544757288664
1171.5, 49.72544757288664
1172, 49.438328484210956
1172.5, 49.438328484210956
1173, 49.151209395535254
1173.5, 49.151209395535254
1174, 48.97893794232984
1174.5, 48.97893794232984
1175, 48.663106944786584
1175.5, 48.49083549158118
1176, 48.49083549158118
1176.5, 48.318564038375754
1177, 48.318564038375754
1177.5, 48.0888687674352
1178, 48.0888687674352
1178.5, 47.88788540536222
1179, 47.77303776989194
1179.5, 47.77303776989194
1180, 47.485918681216255
1180.5, 47.485918681216255
1181, 47.37107104574598
1181.5, 47.37107104574598
1182, 47.19879959254057
1182.5, 47.19879959254057
1183, 46.99781623046758
1183.5, 46.94039241273244
1184, 46.94039241273244
1184.5, 46.73940905065947
1185, 46.73940905065947
1185.5, 46.50971377971891
1186, 46.50971377971891
1186.5, 46.36615423538106
1187, 46.36615423538106
1187.5, 46.16517087330808
1188, 46.07903514670537
1188.5, 46.07903514670537
1189, 45.906763693499954
1189.5, 45.906763693499954
1190, 45.677068422559415
1190.5, 45.677068422559415
1191, 45.47608506048642
1191.5, 45.36123742501615
1192, 45.36123742501615
1192.5, 45.30381360728101
1193, 45.30381360728101
1193.5, 45.18896597181073
1194, 45.18896597181073
1194.5, 44.98798260973775
1195, 44.98798260973775
1195.5, 44.90184688313505
1196, 44.8444230653999
1196.5, 44.8444230653999
1197, 44.786999247664774
1197.5, 44.786999247664774
1198, 44.729575429929625
1198.5, 44.729575429929625
1199, 44.49988015898908
1199.5, 44.49988015898908
1200, 44.413744432386366
1200.5, 44.29889679691609
1201, 44.29889679691609
1201.5, 44.212761070313384
1202, 44.212761070313384
1202.5, 44.155337252578256
1203, 44.155337252578256
1203.5, 44.06920152597554
1204, 43.98306579937283
1204.5, 43.98306579937283
1205, 43.896930072770125
1205.5, 43.896930072770125
1206, 43.78208243729985
1206.5, 43.78208243729985
1207, 43.78208243729985
1207.5, 43.78208243729985
1208, 43.78208243729985
1208.5, 43.66723480182957
1209, 43.66723480182957
1209.5, 43.58109907522687
1210, 43.58109907522687
1210.5, 43.52367525749173
1211, 43.52367525749173
1211.5, 43.49496334862417
1212, 43.49496334862417
1212.5, 43.43753953088902
1213, 43.380115713153884
1213.5, 43.380115713153884
1214, 43.17913235108091
1214.5, 43.17913235108091
1215, 43.15042044221333
1215.5, 43.15042044221333
1216, 43.17913235108091
1216.5, 43.17913235108091
1217, 43.12170853334576
1217.5, 43.12170853334576
1218, 43.12170853334576
1218.5, 43.12170853334576
1219, 43.12170853334576
1219.5, 43.15042044221333
1220, 43.15042044221333
1220.5, 43.17913235108091
1221, 43.035572806743055
1221.5, 43.035572806743055
1222, 42.949437080140356
1222.5, 42.949437080140356
1223, 42.89201326240521
1223.5, 42.89201326240521
1224, 42.86330135353765
1224.5, 42.86330135353765
1225, 42.83458944467007
1225.5, 42.8058775358025
1226, 42.8058775358025
1226.5, 42.8058775358025
1227, 42.8058775358025
1227.5, 42.77716562693493
1228, 42.77716562693493
1228.5, 42.77716562693493
1229, 42.77716562693493
1229.5, 42.8058775358025
1230, 42.83458944467007
1230.5, 42.83458944467007
1231, 42.8058775358025
1231.5, 42.8058775358025
1232, 42.8058775358025
1232.5, 42.8058775358025
1233, 42.77716562693493
1233.5, 42.77716562693493
1234, 42.77716562693493
1234.5, 42.8058775358025
1235, 42.8058775358025
1235.5, 42.8058775358025
1236, 42.8058775358025
1236.5, 42.748453718067374
1237, 42.748453718067374
1237.5, 42.66231799146466
1238, 42.6336060825971
1238.5, 42.6336060825971
1239, 42.60489417372952
1239.5, 42.60489417372952
1240, 42.51875844712682
1240.5, 42.51875844712682
1241, 42.51875844712682
1241.5, 42.51875844712682
1242, 42.51875844712682
1242.5, 42.60489417372952
1243, 42.60489417372952
1243.5, 42.691029900332225
1244, 42.691029900332225
1244.5, 42.691029900332225
1245, 42.691029900332225
1245.5, 42.691029900332225
1246, 42.691029900332225
1246.5, 42.691029900332225
1247, 42.6336060825971
1247.5, 42.6336060825971
1248, 42.66231799146466
1248.5, 42.66231799146466
1249, 42.6336060825971
1249.5, 42.6336060825971
1250, 42.691029900332225
1250.5, 42.719741809199796
1251, 42.719741809199796
1251.5, 42.691029900332225
1252, 42.691029900332225
1252.5, 42.66231799146466
1253, 42.66231799146466
1253.5, 42.6336060825971
1254, 42.6336060825971
1254.5, 42.60489417372952
1255, 42.547470355994385
1255.5, 42.547470355994385
1256, 42.547470355994385
1256.5, 42.547470355994385
1257, 42.547470355994385
1257.5, 42.547470355994385
1258, 42.547470355994385
1258.5, 42.547470355994385
1259, 42.547470355994385
1259.5, 42.6336060825971
1260, 42.6336060825971
1260.5, 42.60489417372952
1261, 42.60489417372952
1261.5, 42.57618226486195
1262, 42.57618226486195
1262.5, 42.547470355994385
1263, 42.51875844712682
1263.5, 42.51875844712682
1264, 42.49004653825924
1264.5, 42.49004653825924
1265, 42.49004653825924
1265.5, 42.49004653825924
1266, 42.49004653825924
1266.5, 42.49004653825924
1267, 42.49004653825924
1267.5, 42.49004653825924
1268, 42.49004653825924
1268.5, 42.49004653825924
1269, 42.49004653825924
1269.5, 42.49004653825924
1270, 42.49004653825924
1270.5, 42.49004653825924
1271, 42.49004653825924
1271.5, 42.49004653825924
1272, 42.46133462939167
1272.5, 42.46133462939167
1273, 42.49004653825924
1273.5, 42.49004653825924
1274, 42.547470355994385
1274.5, 42.547470355994385
1275, 42.60489417372952
1275.5, 42.60489417372952
1276, 42.60489417372952
1276.5, 42.60489417372952
1277, 42.60489417372952
1277.5, 42.51875844712682
1278, 42.51875844712682
1278.5, 42.49004653825924
1279, 42.49004653825924
1279.5, 42.49004653825924
1280, 42.51875844712682
1280.5, 42.51875844712682
1281, 42.57618226486195
1281.5, 42.57618226486195
1282, 42.60489417372952
1282.5, 42.60489417372952
1283, 42.6336060825971
1283.5, 42.6336060825971
1283.9999999999998, 42.6336060825971
1284.5, 42.60489417372952
1285, 42.60489417372952
1285.5, 42.57618226486195
1286, 42.57618226486195
1286.5, 42.57618226486195
1287, 42.57618226486195
1287.5, 42.6336060825971
1288, 42.6336060825971
1288.5, 42.66231799146466
1289, 42.691029900332225
1289.5, 42.691029900332225
1290, 42.719741809199796
1290.5, 42.719741809199796
1291, 42.66231799146466
1291.5, 42.66231799146466
1292, 42.748453718067374
1292.5, 42.83458944467007
1293, 42.83458944467007
1297, 42.8058775358025
1297.5, 42.8058775358025
1298, 42.77716562693493
1298.5, 42.77716562693493
1299, 42.8058775358025
1299.5, 42.8058775358025
1300, 42.8058775358025
1300.5, 42.8058775358025
1301, 42.83458944467007
1301.4999999999998, 42.8058775358025
1302, 42.8058775358025
1302.5, 42.77716562693493
1303, 42.77716562693493
1303.5, 42.719741809199796
1304, 42.719741809199796
1304.5, 42.691029900332225
1305, 42.66231799146466
1305.5, 42.66231799146466
1306, 42.691029900332225
1306.5, 42.691029900332225
1307, 42.691029900332225
1307.5, 42.691029900332225
1308, 42.691029900332225
1308.5, 42.691029900332225
1309, 42.66231799146466
1309.5, 42.66231799146466
1310, 42.66231799146466
1310.4999999999998, 42.66231799146466
1311, 42.66231799146466
1311.4999999999998, 42.66231799146466
1312, 42.66231799146466
1312.4999999999998, 42.60489417372952
1313, 42.60489417372952
1313.5, 42.57618226486195
1314, 42.547470355994385
1314.5, 42.547470355994385
1315, 42.46133462939167
1315.5, 42.46133462939167
1315.9999999999998, 42.49004653825924
1316.5, 42.49004653825924
1316.9999999999998, 42.547470355994385
1317.5, 42.57618226486195
1317.9999999999998, 42.57618226486195
1318.5, 42.57618226486195
1319, 42.57618226486195
1319.5, 42.547470355994385
1320, 42.547470355994385
1320.5, 42.51875844712682
1321, 42.51875844712682
1321.4999999999998, 42.51875844712682
1322, 42.51875844712682
1322.4999999999998, 42.51875844712682
1323, 42.547470355994385
1323.4999999999998, 42.547470355994385
1324, 42.60489417372952
1324.4999999999998, 42.60489417372952
1325, 42.60489417372952
1325.5, 42.60489417372952
1326, 42.60489417372952
1326.5, 42.547470355994385
1327, 42.547470355994385
1327.5, 42.49004653825924
1327.9999999999998, 42.49004653825924
1328.5, 42.51875844712682
1328.9999999999998, 42.51875844712682
1329.5, 42.547470355994385
1329.9999999999998, 42.547470355994385
1330.5, 42.60489417372952
1331, 42.60489417372952
1331.5, 42.60489417372952
1332, 42.57618226486195
1332.5, 42.57618226486195
1333, 42.547470355994385
1333.4999999999998, 42.547470355994385
1334, 42.51875844712682
1334.4999999999998, 42.51875844712682
1335, 42.51875844712682
1335.4999999999998, 42.57618226486195
1336, 42.57618226486195
1336.5, 42.60489417372952
1337, 42.60489417372952
1337.5, 42.60489417372952
1338, 42.60489417372952
1338.5, 42.60489417372952
1338.9999999999998, 42.60489417372952
1339.5, 42.60489417372952
1339.9999999999998, 42.51875844712682
1340.5, 42.51875844712682
1340.9999999999998, 42.49004653825924
1341.5, 42.49004653825924
1341.9999999999998, 42.46133462939167
1342.5, 42.46133462939167
1343, 42.46133462939167
1343.5, 42.46133462939167
1344, 42.46133462939167
1344.4999999999998, 42.49004653825924
1345, 42.49004653825924
1345.4999999999998, 42.49004653825924
1346, 42.49004653825924
1346.4999999999998, 42.49004653825924
1347, 42.46133462939167
1347.4999999999998, 42.46133462939167
1348, 42.432622720524115
1348.5, 42.432622720524115
1349, 42.432622720524115
1349.5, 42.432622720524115
1350, 42.432622720524115
1350.5, 42.432622720524115
1350.9999999999998, 42.432622720524115
1351.5, 42.46133462939167
1351.9999999999998, 42.46133462939167
1352.5, 42.40391081165654
1352.9999999999998, 42.40391081165654
1353.5, 42.375198902788966
1354, 42.375198902788966
1354.5, 42.31777508505384
1355, 42.31777508505384
1355.5, 42.31777508505384
1356, 42.346486993921395
1356.4999999999998, 42.346486993921395
1357, 42.375198902788966
1357.4999999999998, 42.375198902788966
1358, 42.40391081165654
1358.4999999999998, 42.40391081165654
1359, 42.46133462939167
1359.4999999999998, 42.46133462939167
1360, 42.46133462939167
1360.5, 42.49004653825924
1361, 42.49004653825924
1361.5, 42.547470355994385
1361.9999999999998, 42.547470355994385
1362.5, 42.57618226486195
1362.9999999999998, 42.57618226486195
1363.5, 42.57618226486195
1363.9999999999998, 42.547470355994385
1364.5, 42.547470355994385
1364.9999999999998, 42.57618226486195
1365.5, 42.57618226486195
1366, 42.6336060825971
1366.5, 42.6336060825971
1367, 42.60489417372952
1367.5, 42.60489417372952
1368, 42.547470355994385
1368.4999999999998, 42.49004653825924
1369, 42.49004653825924
1369.4999999999998, 42.49004653825924
1370, 42.49004653825924
1370.4999999999998, 42.49004653825924
1371, 42.49004653825924
1371.5, 42.60489417372952
1372, 42.60489417372952
1372.5, 42.57618226486195
1373, 42.51875844712682
1373.5, 42.51875844712682
1373.9999999999998, 42.51875844712682
1374.5, 42.51875844712682
1374.9999999999998, 42.49004653825924
1375.5, 42.49004653825924
1375.9999999999998, 42.40391081165654
1376.5, 42.46133462939167
1376.9999999999998, 42.46133462939167
1377.5, 42.49004653825924
1378, 42.49004653825924
1378.5, 42.547470355994385
1379, 42.547470355994385
1379.4999999999998, 42.547470355994385
1380, 42.547470355994385
1380.4999999999998, 42.547470355994385
1381, 42.57618226486195
1381.4999999999998, 42.57618226486195
1382, 42.547470355994385
1382.4999999999998, 42.547470355994385
1383, 42.51875844712682
1383.5, 42.51875844712682
1384, 42.57618226486195
1384.5, 42.57618226486195
1385, 42.60489417372952
1385.5, 42.547470355994385
1385.9999999999998, 42.547470355994385
1386.5, 42.547470355994385
1386.9999999999998, 42.547470355994385
1387.5, 42.547470355994385
1387.9999999999998, 42.547470355994385
1388.5, 42.547470355994385
1389, 42.547470355994385
1389.5, 42.547470355994385
1390, 42.51875844712682
1390.5, 42.51875844712682
1391, 42.57618226486195
1391.4999999999998, 42.57618226486195
1392, 42.60489417372952
1392.4999999999998, 42.60489417372952
1393, 42.66231799146466
1393.4999999999998, 42.719741809199796
1394, 42.719741809199796
1394.4999999999998, 42.719741809199796
1395, 42.719741809199796
1395.5, 42.60489417372952
1396, 42.60489417372952
1396.5, 42.60489417372952
1396.9999999999998, 42.60489417372952
1397.5, 42.6336060825971
1397.9999999999998, 42.691029900332225
1398.5, 42.691029900332225
1398.9999999999998, 42.691029900332225
1399.5, 42.691029900332225
1399.9999999999998, 42.6336060825971
1036.2573099415204, 72.54509018036072
1034.6978557504874, 71.84368737474949
1034.6978557504874, 72.24448897795591
1026.9005847953217, 67.33466933867734
1025.3411306042885, 66.83366733466933
1026.9005847953217, 67.73547094188376
