300.5, 44.26185648304609
301, 44.26185648304609
301.5, 44.26185648304609
302, 44.26185648304609
302.5, 44.32663061845219
303, 44.32663061845219
303.5, 44.32663061845219
304, 44.32663061845219
304.5, 44.32663061845219
305, 44.32663061845219
305.5, 44.391404753858296
306, 44.391404753858296
306.5, 44.45617888926439
307, 44.45617888926439
307.5, 44.45617888926439
308, 44.45617888926439
308.5, 44.520953024670504
309, 44.520953024670504
309.5, 44.520953024670504
310, 44.520953024670504
310.5, 44.585727160076615
311, 44.585727160076615
311.5, 44.61811422777966
312, 44.61811422777966
312.5, 44.682888363185775
313, 44.682888363185775
313.5, 44.71527543088882
314, 44.78004956629493
314.5, 44.78004956629493
315, 44.78004956629493
315.5, 44.78004956629493
316, 44.84482370170104
316.5, 44.84482370170104
317, 44.87721076940408
317.5, 44.87721076940408
318, 44.94198490481019
318.5, 44.94198490481019
319, 45.0067590402163
319.5, 45.0067590402163
320, 45.03914610791934
320.5, 45.03914610791934
321, 45.10392024332546
321.5, 45.10392024332546
322, 45.10392024332546
322.5, 45.10392024332546
323, 45.168694378731566
323.5, 45.168694378731566
324, 45.168694378731566
324.5, 45.168694378731566
325, 45.23346851413767
325.5, 45.23346851413767
326, 45.298242649543766
326.5, 45.298242649543766
327, 45.36301678494988
327.5, 45.36301678494988
328, 45.36301678494988
328.5, 45.42779092035599
329, 45.42779092035599
329.5, 45.42779092035599
330, 45.42779092035599
330.5, 45.49256505576209
331, 45.49256505576209
331.5, 45.5573391911682
332, 45.5573391911682
332.5, 45.58972625887125
333, 45.58972625887125
333.5, 45.68688746198041
334, 45.68688746198041
334.5, 45.71927452968345
335, 45.71927452968345
335.5, 45.784048665089564
336, 45.784048665089564
336.5, 45.848822800495675
337, 45.848822800495675
337.5, 45.881209868198724
338, 45.881209868198724
338.5, 45.945984003604835
339, 45.945984003604835
339.5, 46.01075813901094
340, 46.01075813901094
340.5, 46.04314520671399
341, 46.04314520671399
341.5, 46.1079193421201
342, 46.1079193421201
342.5, 46.14030640982314
343, 46.14030640982314
343.5, 46.237467612932306
344, 46.26985468063536
344.5, 46.26985468063536
345, 46.334628816041466
345.5, 46.334628816041466
346, 46.39940295144756
346.5, 46.39940295144756
347, 46.431790019150625
347.5, 46.431790019150625
348, 46.49656415455673
348.5, 46.49656415455673
349, 46.59372535766589
349.5, 46.59372535766589
350, 46.62611242536894
350.5, 46.62611242536894
351, 46.69088656077505
351.5, 46.69088656077505
352, 46.75566069618115
352.5, 46.75566069618115
353, 46.85282189929031
353.5, 46.85282189929031
354, 46.88520896699336
354.5, 46.88520896699336
355, 46.94998310239947
355.5, 46.94998310239947
356, 47.014757237805576
356.5, 47.014757237805576
357, 47.111918440914735
357.5, 47.111918440914735
358, 47.17669257632084
358.5, 47.17669257632084
359, 47.209079644023895
359.5, 47.241466711726936
360, 47.241466711726936
360.5, 47.30624084713305
361, 47.30624084713305
361.5, 47.37101498253916
362, 47.37101498253916
362.5, 47.43578911794526
363, 47.43578911794526
363.5, 47.500563253351366
364, 47.500563253351366
364.5, 47.597724456460526
365, 47.597724456460526
365.5, 47.66249859186662
366, 47.66249859186662
366.5, 47.792046862678845
367, 47.792046862678845
367.5, 47.85682099808495
368, 47.85682099808495
368.5, 47.92159513349105
369, 47.92159513349105
369.5, 47.98636926889716
370, 47.98636926889716
370.5, 48.11591753970937
371, 48.11591753970937
371.5, 48.14830460741242
372, 48.14830460741242
372.5, 48.24546581052158
373, 48.24546581052158
373.5, 48.31023994592769
374, 48.375014081333795
374.5, 48.375014081333795
375, 48.4397882167399
375.5, 48.4397882167399
376, 48.504562352146
376.5, 48.504562352146
377, 48.60172355525516
377.5, 48.60172355525516
378, 48.63411062295822
378.5, 48.63411062295822
379, 48.69888475836432
379.5, 48.69888475836432
380, 48.76365889377042
380.5, 48.76365889377042
381, 48.860820096879586
381.5, 48.860820096879586
382, 48.957981299988745
382.5, 48.957981299988745
383, 49.02275543539485
383.5, 49.02275543539485
384, 49.152303706207064
384.5, 49.152303706207064
385, 49.21707784161317
385.5, 49.21707784161317
386, 49.28185197701927
386.5, 49.28185197701927
387, 49.37901318012843
387.5, 49.37901318012843
388, 49.50856145094064
388.5, 49.50856145094064
389, 49.57333558634675
389.5, 49.6704967894559
390, 49.6704967894559
390.5, 49.80004506026812
391, 49.80004506026812
391.5, 49.929593331080326
392, 49.929593331080326
392.5, 50.026754534189486
393, 50.026754534189486
393.5, 50.09152866959559
394, 50.09152866959559
394.5, 50.123915737298645
395, 50.123915737298645
395.5, 50.1563028050017
396, 50.1563028050017
396.5, 50.25346400811086
397, 50.25346400811086
397.5, 50.38301227892307
398, 50.38301227892307
398.5, 50.48017348203223
399, 50.48017348203223
399.5, 50.57733468514139
400, 50.57733468514139
400.5, 50.67449588825055
401, 50.67449588825055
401.5, 50.804044159062755
402, 50.804044159062755
402.5, 50.83643122676581
403, 50.83643122676581
403.5, 50.96597949757802
404, 51.03075363298412
404.5, 51.03075363298412
405, 51.127914836093275
405.5, 51.127914836093275
406, 51.22507603920244
406.5, 51.22507603920244
407, 51.289850174608546
407.5, 51.289850174608546
408, 51.41939844542076
408.5, 51.41939844542076
409, 51.51655964852992
409.5, 51.51655964852992
410, 51.61372085163907
410.5, 51.61372085163907
411, 51.71088205474823
411.5, 51.71088205474823
412, 51.775656190154336
412.5, 51.775656190154336
413, 51.872817393263496
413.5, 51.872817393263496
414, 52.00236566407571
414.5, 52.00236566407571
415, 52.13191393488792
415.5, 52.13191393488792
416, 52.229075137997086
416.5, 52.229075137997086
417, 52.358623408809294
417.5, 52.358623408809294
418, 52.4881716796215
418.5, 52.4881716796215
419, 52.58533288273066
419.5, 52.68249408583982
420, 52.68249408583982
420.5, 52.844429424355084
421, 52.844429424355084
421.5, 52.90920355976119
422, 52.90920355976119
422.5, 53.038751830573396
423, 53.038751830573396
423.5, 53.16830010138561
424, 53.16830010138561
424.5, 53.29784837219782
425, 53.29784837219782
425.5, 53.36262250760393
426, 53.36262250760393
426.5, 53.524557846119194
427, 53.524557846119194
427.5, 53.68649318463446
428, 53.68649318463446
428.5, 53.84842852314972
429, 53.84842852314972
429.5, 53.97797679396193
430, 53.97797679396193
430.5, 54.172299200180255
431, 54.172299200180255
431.5, 54.26946040328941
432, 54.26946040328941
432.5, 54.43139574180467
433, 54.43139574180467
433.5, 54.52855694491383
434, 54.52855694491383
434.5, 54.72287935113215
435, 54.88481468964741
435.5, 54.88481468964741
436, 54.981975892756566
436.5, 54.981975892756566
437, 55.14391123127184
437.5, 55.14391123127184
438, 55.27345950208405
438.5, 55.27345950208405
439, 55.370620705193204
439.5, 55.370620705193204
440, 55.46778190830236
440.5, 55.46778190830236
441, 55.59733017911457
441.5, 55.59733017911457
442, 55.69449138222374
442.5, 55.69449138222374
443, 55.79165258533289
443.5, 55.79165258533289
444, 55.98597499155121
444.5, 55.98597499155121
445, 56.14791033006647
445.5, 56.14791033006647
446, 56.30984566858174
446.5, 56.30984566858174
447, 56.471781007097
447.5, 56.471781007097
448, 56.60132927790921
448.5, 56.60132927790921
449, 56.76326461642447
449.5, 56.89281288723669
450, 56.89281288723669
450.5, 57.022361158048895
451, 57.022361158048895
451.5, 57.18429649656416
452, 57.18429649656416
452.5, 57.28145769967332
453, 57.28145769967332
453.5, 57.37861890278248
454, 57.37861890278248
454.5, 57.50816717359469
455, 57.50816717359469
455.5, 57.605328376703845
456, 57.605328376703845
456.5, 57.73487664751606
457, 57.73487664751606
457.5, 57.86442491832827
458, 57.86442491832827
458.5, 57.99397318914048
459, 57.99397318914048
459.5, 58.09113439224964
460, 58.09113439224964
460.5, 58.22068266306185
461, 58.22068266306185
461.5, 58.31784386617102
462, 58.31784386617102
462.5, 58.44739213698322
463, 58.44739213698322
463.5, 58.51216627238933
464, 58.51216627238933
464.5, 58.64171454320154
465, 58.8036498817168
465.5, 58.8036498817168
466, 58.90081108482597
466.5, 58.90081108482597
467, 59.03035935563817
467.5, 59.03035935563817
468, 59.12752055874733
468.5, 59.12752055874733
469, 59.28945589726259
469.5, 59.28945589726259
470, 59.38661710037175
470.5, 59.38661710037175
471, 59.516165371183966
471.5, 59.516165371183966
472, 59.613326574293126
472.5, 59.613326574293126
473, 59.71048777740228
473.5, 59.71048777740228
474, 59.80764898051144
474.5, 59.80764898051144
475, 59.9048101836206
475.5, 59.9048101836206
476, 60.001971386729764
476.5, 60.001971386729764
477, 60.131519657541965
477.5, 60.131519657541965
478, 60.26106792835419
478.5, 60.26106792835419
479, 60.39061619916639
479.5, 60.52016446997861
480, 60.52016446997861
480.5, 60.58493860538471
481, 60.58493860538471
481.5, 60.682099808493874
482, 60.682099808493874
482.5, 60.74687394389997
483, 60.74687394389997
483.5, 60.876422214712186
484, 60.876422214712186
484.5, 60.9411963501183
485, 60.9411963501183
485.5, 61.03835755322745
486, 61.03835755322745
486.5, 61.10313168863356
487, 61.10313168863356
487.5, 61.13551875633661
488, 61.13551875633661
488.5, 61.13551875633661
489, 61.13551875633661
489.5, 61.16790582403966
490, 61.16790582403966
490.5, 61.20029289174271
491, 61.20029289174271
491.5, 61.20029289174271
492, 61.20029289174271
492.5, 61.10313168863356
493, 61.10313168863356
493.5, 61.03835755322745
494, 61.03835755322745
494.5, 60.97358341782134
495, 60.876422214712186
495.5, 60.876422214712186
496, 60.811648079306075
496.5, 60.811648079306075
497, 60.71448687619692
497.5, 60.71448687619692
498, 60.55255153768165
498.5, 60.55255153768165
499, 60.325842063760284
499.5, 60.325842063760284
500, 60.26106792835419
500.5, 60.26106792835419
501, 60.03435845443281
501.5, 60.03435845443281
502, 59.77526191280839
502.5, 59.77526191280839
503, 59.58093950659008
503.5, 59.58093950659008
504, 59.32184296496565
504.5, 59.32184296496565
505, 59.062746423341224
505.5, 59.062746423341224
506, 58.8036498817168
506.5, 58.8036498817168
507, 58.57694040779543
507.5, 58.57694040779543
508, 58.285456798467955
508.5, 58.285456798467955
509, 57.99397318914048
509.5, 57.99397318914048
510, 57.76726371521911
510.5, 57.47578010589164
511, 57.47578010589164
511.5, 57.15190942886111
512, 57.15190942886111
512.5, 56.82803875183058
513, 56.82803875183058
513.5, 56.60132927790921
514, 56.60132927790921
514.5, 56.27745860087868
515, 56.27745860087868
515.5, 55.9212008561451
516, 55.9212008561451
516.5, 55.72687844992679
517, 55.72687844992679
517.5, 55.50016897600541
518, 55.50016897600541
518.5, 55.176298298974885
519, 55.176298298974885
519.5, 54.94958882505352
520, 54.94958882505352
520.5, 54.787653486538254
521, 54.787653486538254
521.5, 54.496169877210775
522, 54.496169877210775
522.5, 54.23707333558635
523, 54.23707333558635
523.5, 54.07513799707109
524, 54.07513799707109
524.5, 53.84842852314972
525, 53.5893319815253
525.5, 53.5893319815253
526, 53.39500957530698
526.5, 53.39500957530698
527, 53.233074236791715
527.5, 53.233074236791715
528, 53.07113889827645
528.5, 53.07113889827645
529, 52.941590627464244
529.5, 52.941590627464244
530, 52.844429424355084
530.5, 52.844429424355084
531, 52.68249408583982
531.5, 52.68249408583982
532, 52.455784611918446
532.5, 52.455784611918446
533, 52.29384927340318
533.5, 52.29384927340318
534, 52.164301002590975
534.5, 52.164301002590975
535, 52.09952686718487
535.5, 52.09952686718487
536, 51.969978596372655
536.5, 51.969978596372655
537, 51.872817393263496
537.5, 51.872817393263496
538, 51.74326912245129
538.5, 51.74326912245129
539, 51.678494987045184
539.5, 51.678494987045184
540, 51.61372085163907
540.5, 51.54894671623297
541, 51.54894671623297
541.5, 51.54894671623297
542, 51.54894671623297
542.5, 51.51655964852992
543, 51.51655964852992
543.5, 51.484172580826865
544, 51.484172580826865
544.5, 51.35462431001465
545, 51.35462431001465
545.5, 51.3222372423116
546, 51.3222372423116
546.5, 51.289850174608546
547, 51.289850174608546
547.5, 51.2574631069055
548, 51.2574631069055
548.5, 51.192688971499386
549, 51.192688971499386
549.5, 51.16030190379634
550, 51.16030190379634
550.5, 51.192688971499386
551, 51.192688971499386
551.5, 51.22507603920244
552, 51.22507603920244
552.5, 51.16030190379634
553, 51.16030190379634
553.5, 51.16030190379634
554, 51.16030190379634
554.5, 51.16030190379634
555, 51.22507603920244
555.5, 51.22507603920244
556, 51.289850174608546
556.5, 51.289850174608546
557, 51.289850174608546
557.5, 51.289850174608546
558, 51.289850174608546
558.5, 51.289850174608546
559, 51.289850174608546
559.5, 51.289850174608546
560, 51.3222372423116
560.5, 51.3222372423116
561, 51.41939844542076
561.5, 51.41939844542076
562, 51.51655964852992
562.5, 51.51655964852992
563, 51.61372085163907
563.5, 51.61372085163907
564, 51.64610791934213
564.5, 51.64610791934213
565, 51.678494987045184
565.5, 51.678494987045184
566, 51.775656190154336
566.5, 51.775656190154336
567, 51.84043032556045
567.5, 51.84043032556045
568, 51.90520446096655
568.5, 51.90520446096655
569, 51.90520446096655
569.5, 51.90520446096655
570, 51.93759152866961
570.5, 51.93759152866961
571, 51.93759152866961
571.5, 51.969978596372655
572, 51.969978596372655
572.5, 51.969978596372655
573, 51.969978596372655
573.5, 52.00236566407571
574, 52.00236566407571
574.5, 52.00236566407571
575, 52.00236566407571
575.5, 52.03475273177876
576, 52.03475273177876
576.5, 52.03475273177876
577, 52.03475273177876
577.5, 52.00236566407571
578, 52.00236566407571
578.5, 51.93759152866961
579, 51.93759152866961
579.5, 51.93759152866961
580, 51.93759152866961
580.5, 51.872817393263496
581, 51.872817393263496
581.5, 51.84043032556045
582, 51.84043032556045
582.5, 51.969978596372655
583, 51.969978596372655
583.5, 52.00236566407571
584, 52.00236566407571
584.5, 52.00236566407571
585, 52.00236566407571
585.5, 51.90520446096655
586, 51.84043032556045
586.5, 51.84043032556045
587, 51.84043032556045
587.5, 51.84043032556045
588, 51.84043032556045
588.5, 51.84043032556045
589, 51.74326912245129
589.5, 51.74326912245129
590, 51.678494987045184
590.5, 51.678494987045184
591, 51.61372085163907
591.5, 51.61372085163907
592, 51.581333783936024
592.5, 51.581333783936024
593, 51.51655964852992
593.5, 51.51655964852992
594, 51.45178551312381
594.5, 51.45178551312381
595, 51.387011377717705
595.5, 51.387011377717705
596, 51.3222372423116
596.5, 51.3222372423116
597, 51.2574631069055
597.5, 51.2574631069055
598, 51.16030190379634
598.5, 51.16030190379634
599, 51.095527768390234
599.5, 51.095527768390234
600, 50.96597949757802
600.5, 50.804044159062755
601, 50.804044159062755
601.5, 50.64210882054749
602, 50.64210882054749
602.5, 50.51256054973528
603, 50.51256054973528
603.5, 50.48017348203223
604, 50.48017348203223
604.5, 50.415399346626124
605, 50.415399346626124
605.5, 50.221076940407805
606, 50.221076940407805
606.5, 50.1563028050017
607, 50.1563028050017
607.5, 50.026754534189486
608, 50.026754534189486
608.5, 49.929593331080326
609, 49.929593331080326
609.5, 49.76765799256506
610, 49.76765799256506
610.5, 49.6704967894559
611, 49.6704967894559
611.5, 49.60572265404979
612, 49.60572265404979
612.5, 49.50856145094064
613, 49.50856145094064
613.5, 49.37901318012843
614, 49.37901318012843
614.5, 49.28185197701927
615, 49.28185197701927
615.5, 49.184690773910106
616, 49.08752957080095
616.5, 49.08752957080095
617, 48.957981299988745
617.5, 48.957981299988745
618, 48.89320716458264
618.5, 48.89320716458264
619, 48.76365889377042
619.5, 48.76365889377042
620, 48.66649769066127
620.5, 48.66649769066127
621, 48.63411062295822
621.5, 48.63411062295822
622, 48.60172355525516
622.5, 48.60172355525516
623, 48.504562352146
623.5, 48.504562352146
624, 48.4397882167399
624.5, 48.4397882167399
625, 48.4397882167399
625.5, 48.4397882167399
626, 48.34262701363073
626.5, 48.34262701363073
627, 48.24546581052158
627.5, 48.24546581052158
628, 48.180691675115476
628.5, 48.180691675115476
629, 48.14830460741242
629.5, 48.14830460741242
630, 48.08353047200631
630.5, 48.01875633660021
631, 48.01875633660021
631.5, 47.95398220119411
632, 47.95398220119411
632.5, 47.92159513349105
633, 47.92159513349105
633.5, 47.85682099808495
634, 47.85682099808495
634.5, 47.75965979497579
635, 47.75965979497579
635.5, 47.727272727272734
636, 47.727272727272734
636.5, 47.66249859186662
637, 47.66249859186662
637.5, 47.597724456460526
638, 47.597724456460526
638.5, 47.56533738875747
639, 47.56533738875747
639.5, 47.46817618564832
640, 47.46817618564832
640.5, 47.40340205024221
641, 47.40340205024221
641.5, 47.3386279148361
642, 47.3386279148361
642.5, 47.30624084713305
643, 47.30624084713305
643.5, 47.3386279148361
644, 47.3386279148361
644.5, 47.30624084713305
645, 47.30624084713305
645.5, 47.241466711726936
646, 47.241466711726936
646.5, 47.241466711726936
647, 47.209079644023895
647.5, 47.209079644023895
648, 47.144305508617784
648.5, 47.144305508617784
649, 47.111918440914735
649.5, 47.111918440914735
650, 47.07953137321168
650.5, 47.07953137321168
651, 47.014757237805576
651.5, 47.014757237805576
652, 46.98237017010251
652.5, 46.98237017010251
653, 46.98237017010251
653.5, 46.98237017010251
654, 46.94998310239947
654.5, 46.94998310239947
655, 46.88520896699336
655.5, 46.88520896699336
656, 46.82043483158725
656.5, 46.82043483158725
657, 46.7232736284781
657.5, 46.7232736284781
658, 46.7232736284781
658.5, 46.7232736284781
659, 46.7232736284781
659.5, 46.7232736284781
660, 46.7232736284781
660.5, 46.7232736284781
670.5, 46.464177086853674
671, 46.464177086853674
671.5, 46.39940295144756
672, 46.39940295144756
672.5, 46.30224174833841
673, 46.30224174833841
673.5, 46.26985468063536
674, 46.26985468063536
674.5, 46.237467612932306
675, 46.237467612932306
675.5, 46.30224174833841
676, 46.334628816041466
676.5, 46.334628816041466
677, 46.334628816041466
677.5, 46.334628816041466
678, 46.36701588374452
678.5, 46.36701588374452
679, 46.30224174833841
679.5, 46.30224174833841
680, 46.26985468063536
680.5, 46.26985468063536
681, 46.334628816041466
681.5, 46.334628816041466
682, 46.36701588374452
682.5, 46.36701588374452
683, 46.36701588374452
683.5, 46.36701588374452
684, 46.334628816041466
684.5, 46.334628816041466
685, 46.26985468063536
685.5, 46.26985468063536
686, 46.20508054522925
686.5, 46.20508054522925
687, 46.1726934775262
687.5, 46.1726934775262
688, 46.26985468063536
688.5, 46.26985468063536
689, 46.30224174833841
689.5, 46.30224174833841
690, 46.237467612932306
690.5, 46.237467612932306
691, 46.20508054522925
691.5, 46.20508054522925
692, 46.20508054522925
692.5, 46.237467612932306
693, 46.237467612932306
693.5, 46.20508054522925
694, 46.20508054522925
694.5, 46.20508054522925
695, 46.20508054522925
695.5, 46.20508054522925
696, 46.20508054522925
696.5, 46.26985468063536
697, 46.26985468063536
697.5, 46.26985468063536
698, 46.26985468063536
698.5, 46.30224174833841
699, 46.30224174833841
699.5, 46.334628816041466
700, 46.334628816041466
700.5, 46.30224174833841
701, 46.30224174833841
701.5, 46.30224174833841
702, 46.30224174833841
702.5, 46.26985468063536
703, 46.26985468063536
703.5, 46.30224174833841
704, 46.30224174833841
704.5, 46.36701588374452
705, 46.36701588374452
705.5, 46.36701588374452
706, 46.334628816041466
706.5, 46.334628816041466
707, 46.334628816041466
707.5, 46.334628816041466
708, 46.26985468063536
708.5, 46.26985468063536
709, 46.237467612932306
709.5, 46.237467612932306
710, 46.26985468063536
710.5, 46.26985468063536
711, 46.30224174833841
711.5, 46.30224174833841
712, 46.30224174833841
712.5, 46.30224174833841
713, 46.30224174833841
713.5, 46.30224174833841
714, 46.30224174833841
714.5, 46.30224174833841
715, 46.26985468063536
715.5, 46.26985468063536
716, 46.237467612932306
716.5, 46.237467612932306
717, 46.26985468063536
717.5, 46.26985468063536
718, 46.30224174833841
718.5, 46.30224174833841
719, 46.334628816041466
719.5, 46.334628816041466
720, 46.39940295144756
720.5, 46.39940295144756
721, 46.431790019150625
721.5, 46.431790019150625
722, 46.431790019150625
722.5, 46.464177086853674
723, 46.464177086853674
723.5, 46.528951222259785
724, 46.528951222259785
724.5, 46.464177086853674
725, 46.464177086853674
725.5, 46.431790019150625
726, 46.431790019150625
726.5, 46.39940295144756
727, 46.39940295144756
727.5, 46.464177086853674
728, 46.464177086853674
728.5, 46.49656415455673
729, 46.49656415455673
729.5, 46.561338289962826
730, 46.561338289962826
730.5, 46.59372535766589
731, 46.59372535766589
731.5, 46.62611242536894
732, 46.62611242536894
732.5, 46.65849949307199
733, 46.65849949307199
733.5, 46.65849949307199
734, 46.65849949307199
734.5, 46.59372535766589
735, 46.59372535766589
735.5, 46.59372535766589
736, 46.59372535766589
736.5, 46.62611242536894
737, 46.65849949307199
737.5, 46.65849949307199
738, 46.62611242536894
738.5, 46.62611242536894
739, 46.65849949307199
739.5, 46.65849949307199
740, 46.69088656077505
740.5, 46.69088656077505
741, 46.75566069618115
741.5, 46.75566069618115
742, 46.78804776388421
742.5, 46.78804776388421
743, 46.88520896699336
743.5, 46.88520896699336
744, 46.98237017010251
744.5, 46.98237017010251
745, 47.014757237805576
745.5, 47.014757237805576
746, 47.047144305508624
746.5, 47.047144305508624
747, 47.111918440914735
747.5, 47.111918440914735
748, 47.111918440914735
748.5, 47.111918440914735
749, 47.111918440914735
749.5, 47.111918440914735
750, 47.047144305508624
750.5, 47.047144305508624
751, 46.98237017010251
751.5, 46.98237017010251
752, 46.98237017010251
752.5, 47.014757237805576
753, 47.014757237805576
753.5, 47.047144305508624
754, 47.047144305508624
754.5, 47.047144305508624
755, 47.047144305508624
755.5, 47.07953137321168
756, 47.07953137321168
756.5, 47.17669257632084
757, 47.17669257632084
757.5, 47.27385377943
758, 47.27385377943
758.5, 47.40340205024221
759, 47.40340205024221
759.5, 47.43578911794526
760, 47.43578911794526
760.5, 47.53295032105442
761, 47.53295032105442
761.5, 47.53295032105442
762, 47.53295032105442
762.5, 47.63011152416358
763, 47.63011152416358
763.5, 47.694885659569685
764, 47.694885659569685
764.5, 47.75965979497579
765, 47.75965979497579
765.5, 47.82443393038189
766, 47.82443393038189
766.5, 47.85682099808495
767, 47.85682099808495
767.5, 47.85682099808495
768, 47.95398220119411
768.5, 47.95398220119411
769, 47.98636926889716
769.5, 47.98636926889716
770, 48.01875633660021
770.5, 48.01875633660021
771, 48.08353047200631
771.5, 48.08353047200631
772, 48.08353047200631
772.5, 48.08353047200631
773, 48.14830460741242
773.5, 48.14830460741242
774, 48.180691675115476
774.5, 48.180691675115476
775, 48.24546581052158
775.5, 48.24546581052158
776, 48.34262701363073
776.5, 48.34262701363073
777, 48.4397882167399
777.5, 48.4397882167399
778, 48.472175284442955
778.5, 48.472175284442955
779, 48.472175284442955
779.5, 48.472175284442955
780, 48.472175284442955
780.5, 48.472175284442955
781, 48.504562352146
781.5, 48.66649769066127
782, 48.66649769066127
782.5, 48.66649769066127
783, 48.66649769066127
783.5, 48.60172355525516
784, 48.60172355525516
784.5, 48.66649769066127
785, 48.66649769066127
785.5, 48.76365889377042
786, 48.76365889377042
786.5, 48.76365889377042
787, 48.76365889377042
787.5, 48.76365889377042
788, 48.76365889377042
788.5, 48.82843302917653
789, 48.82843302917653
789.5, 48.860820096879586
790, 48.860820096879586
790.5, 48.860820096879586
791, 48.860820096879586
791.5, 48.82843302917653
792, 48.82843302917653
792.5, 48.79604596147348
793, 48.79604596147348
793.5, 48.79604596147348
794, 48.79604596147348
794.5, 48.73127182606738
795, 48.73127182606738
795.5, 48.73127182606738
796, 48.73127182606738
796.5, 48.66649769066127
797, 48.63411062295822
797.5, 48.63411062295822
798, 48.63411062295822
798.5, 48.63411062295822
799, 48.63411062295822
799.5, 48.63411062295822
800, 48.63411062295822
800.5, 48.63411062295822
801, 48.63411062295822
801.5, 48.63411062295822
802, 48.53694941984906
802.5, 48.53694941984906
803, 48.472175284442955
803.5, 48.472175284442955
804, 48.4397882167399
804.5, 48.4397882167399
805, 48.4397882167399
805.5, 48.4397882167399
806, 48.4397882167399
806.5, 48.4397882167399
807, 48.4397882167399
807.5, 48.4397882167399
808, 48.4397882167399
808.5, 48.4397882167399
809, 48.40740114903684
809.5, 48.40740114903684
810, 48.40740114903684
810.5, 48.40740114903684
811, 48.21307874281853
811.5, 48.21307874281853
812, 48.05114340430327
812.5, 47.92159513349105
813, 47.92159513349105
813.5, 47.85682099808495
814, 47.85682099808495
814.5, 47.75965979497579
815, 47.75965979497579
815.5, 47.66249859186662
816, 47.66249859186662
816.5, 47.56533738875747
817, 47.56533738875747
817.5, 47.46817618564832
818, 47.46817618564832
818.5, 47.37101498253916
819, 47.37101498253916
819.5, 47.27385377943
820, 47.27385377943
820.5, 47.209079644023895
821, 47.209079644023895
821.5, 47.144305508617784
822, 47.144305508617784
822.5, 46.98237017010251
823, 46.98237017010251
823.5, 46.88520896699336
824, 46.88520896699336
824.5, 46.75566069618115
825, 46.75566069618115
825.5, 46.65849949307199
826, 46.65849949307199
826.5, 46.59372535766589
827, 46.49656415455673
827.5, 46.49656415455673
828, 46.36701588374452
828.5, 46.36701588374452
829, 46.20508054522925
829.5, 46.20508054522925
830, 46.1079193421201
830.5, 46.1079193421201
831, 46.04314520671399
831.5, 46.04314520671399
832, 45.978371071307876
832.5, 45.978371071307876
833, 45.91359693590178
833.5, 45.91359693590178
834, 45.81643573279262
834.5, 45.81643573279262
835, 45.751661597386516
835.5, 45.751661597386516
836, 45.881209868198724
836.5, 45.881209868198724
837, 45.945984003604835
837.5, 45.945984003604835
838, 46.04314520671399
838.5, 46.04314520671399
839, 46.07553227441704
839.5, 46.07553227441704
840, 45.978371071307876
840.5, 45.978371071307876
841, 45.848822800495675
841.5, 45.848822800495675
842, 45.784048665089564
842.5, 45.58972625887125
843, 45.58972625887125
843.5, 45.49256505576209
844, 45.49256505576209
844.5, 45.36301678494988
845, 45.36301678494988
845.5, 45.201081446434614
846, 45.201081446434614
846.5, 45.10392024332546
847, 45.10392024332546
847.5, 45.0067590402163
848, 45.0067590402163
848.5, 44.90959783710714
849, 44.90959783710714
849.5, 44.87721076940408
850, 44.87721076940408
850.5, 44.84482370170104
851, 44.84482370170104
851.5, 44.78004956629493
852, 44.78004956629493
852.5, 44.61811422777966
853, 44.61811422777966
853.5, 44.488565956967456
854, 44.488565956967456
854.5, 44.391404753858296
855, 44.391404753858296
855.5, 44.35901768615524
856, 44.35901768615524
856.5, 44.32663061845219
857, 44.29424355074914
857.5, 44.29424355074914
858, 44.32663061845219
858.5, 44.32663061845219
859, 44.32663061845219
859.5, 44.32663061845219
860, 44.26185648304609
860.5, 44.26185648304609
861, 44.22946941534303
861.5, 44.22946941534303
862, 44.22946941534303
862.5, 44.22946941534303
863, 44.29424355074914
863.5, 44.29424355074914
864, 44.32663061845219
864.5, 44.32663061845219
865, 44.29424355074914
865.5, 44.29424355074914
866, 44.32663061845219
866.5, 44.32663061845219
867, 44.32663061845219
867.5, 44.32663061845219
868, 44.32663061845219
868.5, 44.32663061845219
869, 44.35901768615524
869.5, 44.35901768615524
870, 44.35901768615524
870.5, 44.35901768615524
871, 44.391404753858296
871.5, 44.391404753858296
872, 44.391404753858296
872.5, 44.391404753858296
873, 44.391404753858296
873.5, 44.391404753858296
874, 44.391404753858296
874.5, 44.35901768615524
875, 44.35901768615524
875.5, 44.391404753858296
876, 44.391404753858296
876.5, 44.42379182156135
877, 44.42379182156135
877.5, 44.488565956967456
878, 44.488565956967456
878.5, 44.585727160076615
879, 44.585727160076615
879.5, 44.61811422777966
880, 44.61811422777966
880.5, 44.61811422777966
881, 44.61811422777966
881.5, 44.682888363185775
882, 44.682888363185775
882.5, 44.71527543088882
883, 44.71527543088882
883.5, 44.74766249859188
884, 44.74766249859188
884.5, 44.74766249859188
885, 44.74766249859188
885.5, 44.65050129548272
886, 44.65050129548272
886.5, 44.78004956629493
887, 44.78004956629493
887.5, 44.87721076940408
888, 44.97437197251325
888.5, 44.97437197251325
889, 44.90959783710714
889.5, 44.90959783710714
890, 44.90959783710714
890.5, 44.90959783710714
891, 44.94198490481019
891.5, 44.94198490481019
892, 44.87721076940408
892.5, 44.87721076940408
893, 44.90959783710714
893.5, 44.90959783710714
894, 44.94198490481019
894.5, 44.94198490481019
895, 45.0067590402163
895.5, 45.0067590402163
896, 45.0067590402163
896.5, 45.0067590402163
897, 45.03914610791934
897.5, 45.03914610791934
898, 45.071533175622406
898.5, 45.071533175622406
899, 45.10392024332546
899.5, 45.10392024332546
900, 45.10392024332546
900.5, 45.10392024332546
901, 45.168694378731566
901.5, 45.168694378731566
902, 45.168694378731566
902.5, 45.23346851413767
903, 45.23346851413767
903.5, 45.23346851413767
904, 45.23346851413767
904.5, 45.265855581840725
905, 45.265855581840725
905.5, 45.298242649543766
906, 45.298242649543766
906.5, 45.39540385265293
907, 45.39540385265293
907.5, 45.46017798805903
908, 45.46017798805903
908.5, 45.42779092035599
909, 45.42779092035599
909.5, 45.42779092035599
910, 45.42779092035599
910.5, 45.46017798805903
911, 45.46017798805903
911.5, 45.6221133265743
912, 45.6221133265743
912.5, 45.68688746198041
913, 45.68688746198041
913.5, 45.881209868198724
914, 45.881209868198724
914.5, 46.01075813901094
915, 46.01075813901094
915.5, 46.1726934775262
916, 46.1726934775262
916.5, 46.334628816041466
917, 46.334628816041466
917.5, 46.36701588374452
918, 46.39940295144756
918.5, 46.39940295144756
919, 46.334628816041466
919.5, 46.334628816041466
920, 46.36701588374452
920.5, 46.36701588374452
921, 46.39940295144756
921.5, 46.39940295144756
922, 46.431790019150625
922.5, 46.431790019150625
923, 46.464177086853674
923.5, 46.464177086853674
924, 46.528951222259785
924.5, 46.528951222259785
925, 46.62611242536894
925.5, 46.62611242536894
926, 46.69088656077505
926.5, 46.69088656077505
927, 46.78804776388421
927.5, 46.78804776388421
928, 46.85282189929031
928.5, 46.85282189929031
929, 46.88520896699336
929.5, 46.88520896699336
930, 46.98237017010251
930.5, 46.98237017010251
931, 47.047144305508624
931.5, 47.047144305508624
932, 47.111918440914735
932.5, 47.17669257632084
933, 47.17669257632084
933.5, 47.241466711726936
934, 47.241466711726936
934.5, 47.241466711726936
935, 47.241466711726936
935.5, 47.27385377943
936, 47.27385377943
936.5, 47.46817618564832
937, 47.46817618564832
937.5, 47.597724456460526
938, 47.597724456460526
938.5, 47.694885659569685
939, 47.694885659569685
939.5, 47.889208065788004
940, 47.889208065788004
940.5, 47.92159513349105
941, 47.92159513349105
941.5, 47.95398220119411
942, 47.95398220119411
942.5, 48.01875633660021
943, 48.01875633660021
943.5, 48.31023994592769
944, 48.31023994592769
944.5, 48.472175284442955
945, 48.472175284442955
945.5, 48.56933648755211
946, 48.56933648755211
946.5, 48.69888475836432
947, 48.69888475836432
947.5, 48.89320716458264
948, 48.957981299988745
948.5, 48.957981299988745
949, 49.055142503097905
949.5, 49.055142503097905
950, 49.21707784161317
950.5, 49.21707784161317
951, 49.31423904472233
951.5, 49.31423904472233
952, 49.50856145094064
952.5, 49.50856145094064
953, 49.638109721752855
953.5, 49.638109721752855
954, 49.80004506026812
954.5, 49.80004506026812
955, 49.96198039878338
955.5, 49.96198039878338
956, 50.415399346626124
956.5, 50.415399346626124
957, 50.48017348203223
957.5, 50.48017348203223
958, 50.51256054973528
958.5, 50.51256054973528
959, 50.54494761743833
959.5, 50.54494761743833
960, 50.83643122676581
960.5, 50.83643122676581
961, 50.83643122676581
961.5, 50.83643122676581
962, 50.93359242987496
962.5, 51.127914836093275
963, 51.127914836093275
963.5, 51.22507603920244
964, 51.22507603920244
964.5, 51.35462431001465
965, 51.35462431001465
965.5, 51.51655964852992
966, 51.51655964852992
966.5, 51.74326912245129
967, 51.74326912245129
967.5, 51.84043032556045
968, 51.84043032556045
968.5, 52.03475273177876
969, 52.03475273177876
969.5, 52.164301002590975
970, 52.164301002590975
970.5, 52.4233975442154
971, 52.4233975442154
971.5, 52.650107018136765
972, 52.650107018136765
972.5, 52.81204235665203
973, 52.81204235665203
973.5, 52.97397769516729
974, 52.97397769516729
974.5, 53.20068716908867
975, 53.20068716908867
975.5, 53.29784837219782
976, 53.29784837219782
976.5, 53.6541061169314
977, 53.6541061169314
977.5, 53.84842852314972
978, 53.913202658555825
978.5, 53.913202658555825
979, 53.97797679396193
979.5, 53.97797679396193
980, 54.07513799707109
980.5, 54.07513799707109
981, 54.23707333558635
981.5, 54.23707333558635
982, 54.56094401261688
982.5, 54.56094401261688
983, 54.7552664188352
983.5, 54.7552664188352
984, 54.981975892756566
984.5, 54.981975892756566
985, 55.04675002816268
985.5, 55.04675002816268
986, 55.27345950208405
986.5, 55.27345950208405
987, 55.40300777289625
987.5, 55.40300777289625
988, 55.46778190830236
988.5, 55.46778190830236
989, 55.50016897600541
989.5, 55.50016897600541
990, 55.662104314520676
990.5, 55.662104314520676
991, 55.759265517629835
991.5, 55.759265517629835
992, 55.9212008561451
992.5, 55.9212008561451
993, 56.08313619466036
993.5, 56.27745860087868
994, 56.27745860087868
994.5, 56.407006871690896
995, 56.407006871690896
995.5, 56.56894221020616
996, 56.56894221020616
996.5, 56.89281288723669
997, 56.89281288723669
997.5, 57.05474822575195
998, 57.05474822575195
998.5, 57.21668356426722
999, 57.21668356426722
999.5, 57.34623183507942
1000, 57.34623183507942
1000.5, 57.34623183507942
1001, 57.34623183507942
1001.5, 57.44339303818858
1002, 57.44339303818858
1002.5, 57.63771544440691
1003, 57.63771544440691
1003.5, 57.799650782922164
1004, 57.799650782922164
1004.5, 58.12352145995269
1005, 58.12352145995269
1005.5, 58.285456798467955
1006, 58.285456798467955
1006.5, 58.54455334009238
1007, 58.54455334009238
1007.5, 58.83603694941986
1008, 58.99797228793513
1008.5, 58.99797228793513
1009, 59.22468176185649
1009.5, 59.22468176185649
1010, 59.3542300326687
1010.5, 59.3542300326687
1011, 59.58093950659008
1011.5, 59.58093950659008
1012, 59.742874845105334
1012.5, 59.742874845105334
1013, 60.03435845443281
1013.5, 60.03435845443281
1014, 60.325842063760284
1014.5, 60.325842063760284
1015, 60.682099808493874
1015.5, 60.682099808493874
1016, 60.84403514700914
1016.5, 60.84403514700914
1017, 61.10313168863356
1017.5, 61.10313168863356
1018, 61.394615297961025
1018.5, 61.394615297961025
1019, 61.588937704179344
1019.5, 61.588937704179344
1020, 61.91280838120987
1020.5, 61.91280838120987
1021, 62.2366790582404
1021.5, 62.2366790582404
1022, 62.46338853216178
1022.5, 62.46338853216178
1023, 62.722485073786196
1023.5, 63.01396868311367
1024, 63.01396868311367
1024.5, 63.337839360144194
1025, 63.337839360144194
1025.5, 63.467387630956416
1026, 63.467387630956416
1026.5, 63.82364537568999
1027, 63.82364537568999
1027.5, 64.17990312042357
1028, 64.17990312042357
1028.5, 64.34183845893884
1029, 64.34183845893884
1029.5, 64.63332206826632
1030, 64.63332206826632
1030.5, 64.95719274529685
1031, 64.95719274529685
1031.5, 65.21628928692127
1032, 65.21628928692127
1032.5, 65.5401599639518
1033, 65.5401599639518
1033.5, 65.83164357327928
1034, 65.83164357327928
1034.5, 65.99357891179454
1035, 65.99357891179454
1035.5, 66.18790131801285
1036, 66.18790131801285
1036.5, 66.47938492734033
1037, 66.47938492734033
1037.5, 66.67370733355864
1038, 66.80325560437086
1038.5, 66.80325560437086
1039, 66.99757801058917
1039.5, 66.99757801058917
1040, 67.1919004168075
1040.5, 67.1919004168075
1041, 67.67770643235329
1041.5, 67.67770643235329
1042, 67.8720288385716
1042.5, 67.8720288385716
1043, 68.16351244789908
1043.5, 68.16351244789908
1044, 68.58454432803876
1044.5, 68.58454432803876
1045, 68.84364086966318
1045.5, 68.84364086966318
1046, 68.87602793736625
1046.5, 68.87602793736625
1047, 69.1027374112876
1047.5, 69.1027374112876
1048, 69.39422102061508
1048.5, 69.39422102061508
1049, 69.49138222372424
1049.5, 69.49138222372424
1050, 69.65331756223951
1050.5, 69.65331756223951
1051, 69.94480117156698
1051.5, 69.94480117156698
1052, 70.17151064548835
1052.5, 70.17151064548835
1053, 70.33344598400362
1053.5, 70.52776839022192
1054, 70.52776839022192
1054.5, 70.46299425481583
1055, 70.46299425481583
1055.5, 70.49538132251888
1056, 70.49538132251888
1056.5, 70.7544778641433
1057, 70.7544778641433
1057.5, 71.11073560887688
1058, 71.11073560887688
1058.5, 71.33744508279824
1059, 71.33744508279824
1059.5, 71.53176748901657
1060, 71.53176748901657
1060.5, 71.62892869212573
1061, 71.62892869212573
1061.5, 71.79086403064099
1062, 71.79086403064099
1062.5, 71.8556381660471
1063, 71.8556381660471
1063.5, 72.01757350456236
1064, 72.01757350456236
1064.5, 72.37383124929595
1065, 72.37383124929595
1065.5, 72.56815365551427
1066, 72.56815365551427
1066.5, 72.6005407232173
1067, 72.6005407232173
1067.5, 72.69770192632647
1068, 72.69770192632647
1068.5, 72.95679846795089
1069, 73.0863467387631
1069.5, 73.0863467387631
1070, 73.18350794187226
1070.5, 73.18350794187226
1071, 73.31305621268447
1071.5, 73.31305621268447
1072, 73.57215275430889
1072.5, 73.57215275430889
1073, 73.76647516052722
1073.5, 73.76647516052722
1074, 73.92841049904249
1074.5, 73.92841049904249
1075, 74.0579587698547
1075.5, 74.0579587698547
1076, 74.41421651458828
1076.5, 74.41421651458828
1077, 74.47899064999437
1077.5, 74.47899064999437
1078, 74.77047425932184
1078.5, 74.77047425932184
1079, 74.83524839472796
1079.5, 74.83524839472796
1080, 75.02957080094627
1080.5, 75.02957080094627
1081, 75.12673200405544
1081.5, 75.12673200405544
1082, 75.25628027486763
1082.5, 75.25628027486763
1083, 75.2886673425707
1083.5, 75.3534414779768
1084, 75.3534414779768
1084.5, 75.51537681649205
1085, 75.51537681649205
1085.5, 75.64492508730427
1086, 75.64492508730427
1086.5, 75.70969922271038
1087, 75.70969922271038
1087.5, 75.74208629041344
1088, 75.74208629041344
1088.5, 75.67731215500733
1089, 75.67731215500733
1089.5, 75.67731215500733
1090, 75.67731215500733
1090.5, 75.80686042581954
1091, 75.80686042581954
1091.5, 75.83924749352259
1092, 75.83924749352259
1092.5, 76.06595696744395
1093, 76.06595696744395
1093.5, 76.09834403514702
1094, 76.09834403514702
1094.5, 75.93640869663176
1095, 75.93640869663176
1095.5, 76.00118283203786
1096, 76.00118283203786
1096.5, 76.03356989974091
1097, 76.03356989974091
1097.5, 76.06595696744395
1098, 76.06595696744395
1098.5, 75.93640869663176
1099, 75.9687957643348
1099.5, 75.9687957643348
1100, 76.00118283203786
1100.5, 76.00118283203786
1101, 76.00118283203786
1101.5, 76.00118283203786
1102, 75.93640869663176
1102.5, 75.93640869663176
1103, 75.87163456122565
1103.5, 75.87163456122565
1104, 75.87163456122565
1104.5, 75.87163456122565
1105, 75.9687957643348
1105.5, 75.9687957643348
1106, 76.00118283203786
1106.5, 76.00118283203786
1107, 76.00118283203786
1107.5, 76.00118283203786
1108, 75.87163456122565
1108.5, 75.87163456122565
1109, 75.74208629041344
1109.5, 75.74208629041344
1110, 75.58015095189818
1110.5, 75.58015095189818
1111, 75.2886673425707
1111.5, 75.2886673425707
1112, 75.25628027486763
1112.5, 75.25628027486763
1113, 75.25628027486763
1113.5, 75.09434493635237
1114, 75.09434493635237
1114.5, 74.83524839472796
1115, 74.83524839472796
1115.5, 74.64092598850964
1116, 74.64092598850964
1116.5, 74.51137771769743
1117, 74.51137771769743
1117.5, 74.38182944688522
1118, 74.38182944688522
1118.5, 74.38182944688522
1119, 74.38182944688522
1119.5, 74.28466824377605
1120, 74.28466824377605
1120.5, 74.15511997296385
1121, 74.15511997296385
1121.5, 74.12273290526079
1122, 74.12273290526079
1122.5, 73.96079756674553
1123, 73.96079756674553
1123.5, 73.83124929593332
1124, 73.83124929593332
1124.5, 73.50737861890279
1125, 73.50737861890279
1125.5, 73.34544328038753
1126, 73.34544328038753
1126.5, 72.98918553565395
1127, 72.98918553565395
1127.5, 72.6005407232173
1128, 72.6005407232173
1128.5, 72.27667004618678
1129, 72.24428297848374
1129.5, 72.24428297848374
1130, 72.21189591078068
1130.5, 72.21189591078068
1131, 71.88802523375014
1131.5, 71.88802523375014
1132, 71.56415455671961
1132.5, 71.56415455671961
1133, 71.36983215050131
1133.5, 71.36983215050131
1134, 71.20789681198605
1134.5, 71.20789681198605
1135, 71.04596147347078
1135.5, 71.04596147347078
1136, 70.65731666103414
1136.5, 70.65731666103414
1137, 70.52776839022192
1137.5, 70.52776839022192
1138, 70.33344598400362
1138.5, 70.33344598400362
1139, 70.17151064548835
1139.5, 70.17151064548835
1140, 70.04196237467613
1140.5, 70.04196237467613
1141, 69.68570462994256
1141.5, 69.68570462994256
1142, 69.42660808831812
1142.5, 69.42660808831812
1143, 68.9731891404754
1143.5, 68.9731891404754
1144, 68.74647966655402
1144.5, 68.64931846344487
1145, 68.64931846344487
1145.5, 68.22828658330516
1146, 68.22828658330516
1146.5, 68.0663512447899
1147, 68.0663512447899
1147.5, 67.74248056775937
1148, 67.74248056775937
1148.5, 67.58054522924411
1149, 67.58054522924411
1149.5, 67.3214486876197
1150, 67.3214486876197
1150.5, 67.09473921369833
1151, 67.09473921369833
1151.5, 66.8356426720739
1152, 66.8356426720739
1152.5, 66.57654613044949
1153, 66.57654613044949
1153.5, 66.38222372423115
1154, 66.38222372423115
1154.5, 66.02596597949758
1155, 66.02596597949758
1155.5, 65.76686943787317
1156, 65.76686943787317
1156.5, 65.57254703165484
1157, 65.57254703165484
1157.5, 65.34583755773349
1158, 65.34583755773349
1158.5, 65.11912808381211
1159, 64.86003154218767
1159.5, 64.86003154218767
1160, 64.60093500056325
1160.5, 64.60093500056325
1161, 64.37422552664188
1161.5, 64.37422552664188
1162, 64.08274191731442
1162.5, 64.08274191731442
1163, 63.92080657879915
1163.5, 63.92080657879915
1164, 63.62932296947167
1164.5, 63.62932296947167
1165, 63.435000563253354
1165.5, 63.435000563253354
1166, 63.01396868311367
1166.5, 63.01396868311367
1167, 62.754872141489244
1167.5, 62.754872141489244
1168, 62.59293680297398
1168.5, 62.59293680297398
1169, 62.10713078742819
1169.5, 62.10713078742819
1170, 61.94519544891293
1170.5, 61.94519544891293
1171, 61.588937704179344
1171.5, 61.588937704179344
1172, 61.26506702714882
1172.5, 61.26506702714882
1173, 61.005970485524394
1173.5, 61.005970485524394
1174, 60.84403514700914
1174.5, 60.61732567308776
1175, 60.61732567308776
1175.5, 60.26106792835419
1176, 60.26106792835419
1176.5, 59.87242311591755
1177, 59.87242311591755
1177.5, 59.45139123577786
1178, 59.45139123577786
1178.5, 59.25706882955954
1179, 59.25706882955954
1179.5, 58.933198152529016
1180, 58.933198152529016
1180.5, 58.8036498817168
1181, 58.8036498817168
1181.5, 58.54455334009238
1182, 58.54455334009238
1182.5, 58.285456798467955
1183, 58.285456798467955
1183.5, 58.15590852765575
1184, 58.15590852765575
1184.5, 57.89681198603133
1185, 57.89681198603133
1185.5, 57.5729413090008
1186, 57.5729413090008
1186.5, 57.41100597048553
1187, 57.41100597048553
1187.5, 57.21668356426722
1188, 57.21668356426722
1188.5, 56.86042581953363
1189, 56.56894221020616
1189.5, 56.56894221020616
1190, 56.342232736284785
1190.5, 56.342232736284785
1191, 56.115523262363425
1191.5, 56.115523262363425
1192, 55.69449138222374
1192.5, 55.69449138222374
1193, 55.50016897600541
1193.5, 55.50016897600541
1194, 55.3058465697871
1194.5, 55.3058465697871
1195, 54.91720175735046
1195.5, 54.91720175735046
1196, 54.65810521572604
1196.5, 54.65810521572604
1197, 54.46378280950773
1197.5, 54.46378280950773
1198, 54.23707333558635
1198.5, 54.23707333558635
1199, 54.010363861664985
1199.5, 54.010363861664985
1200, 53.78365438774362
1200.5, 53.78365438774362
1201, 53.55694491382224
1201.5, 53.55694491382224
1202, 53.26546130449477
1202.5, 53.26546130449477
1203, 52.97397769516729
1203.5, 52.97397769516729
1204, 52.747268221245925
1204.5, 52.164301002590975
1205, 52.164301002590975
1205.5, 52.00236566407571
1206, 52.00236566407571
1206.5, 51.80804325785739
1207, 51.80804325785739
1207.5, 51.71088205474823
1208, 51.71088205474823
1208.5, 51.484172580826865
1209, 51.484172580826865
1209.5, 51.3222372423116
1210, 51.3222372423116
1210.5, 51.127914836093275
1211, 51.127914836093275
1211.5, 50.998366565281074
1212, 50.998366565281074
1212.5, 50.804044159062755
1213, 50.804044159062755
1213.5, 50.51256054973528
1214, 50.51256054973528
1214.5, 50.318238143516965
1215, 50.318238143516965
1215.5, 50.026754534189486
1216, 50.026754534189486
1216.5, 49.76765799256506
1217, 49.76765799256506
1217.5, 49.6704967894559
1218, 49.6704967894559
1218.5, 49.50856145094064
1219, 49.50856145094064
1219.5, 49.37901318012843
1220, 49.24946490931622
1220.5, 49.24946490931622
1221, 49.152303706207064
1222, 48.79604596147348
1222.5, 48.79604596147348
1223, 48.56933648755211
1223.5, 48.56933648755211
1224, 48.34262701363073
1224.5, 48.34262701363073
1225, 48.14830460741242
1225.5, 48.14830460741242
1226, 47.98636926889716
1226.5, 47.98636926889716
1227, 47.727272727272734
1227.5, 47.727272727272734
1228, 47.597724456460526
1228.5, 47.597724456460526
1229, 47.43578911794526
1229.5, 47.43578911794526
1230, 47.27385377943
1230.5, 47.27385377943
1231, 47.111918440914735
1231.5, 47.111918440914735
1232, 47.111918440914735
1232.5, 47.111918440914735
1233, 46.94998310239947
1233.5, 46.94998310239947
1234, 46.82043483158725
1234.5, 46.7232736284781
1235, 46.7232736284781
1235.5, 46.69088656077505
1236, 46.69088656077505
1236.5, 46.528951222259785
1237, 46.528951222259785
1237.5, 46.431790019150625
1238, 46.431790019150625
1238.5, 46.26985468063536
1239, 46.26985468063536
1239.5, 46.237467612932306
1240, 46.237467612932306
1240.5, 46.237467612932306
1241, 46.237467612932306
1241.5, 46.237467612932306
1242, 46.237467612932306
1242.5, 46.1079193421201
1243, 46.1079193421201
1243.5, 46.1079193421201
1244, 46.1079193421201
1244.5, 46.1079193421201
1245, 46.1079193421201
1245.5, 46.1079193421201
1246, 46.1079193421201
1246.5, 46.14030640982314
1247, 46.14030640982314
1247.5, 46.1079193421201
1248, 46.1079193421201
1248.5, 46.07553227441704
1249, 46.07553227441704
1249.5, 45.784048665089564
1250, 45.71927452968345
1250.5, 45.71927452968345
1251, 45.751661597386516
1251.5, 45.751661597386516
1252, 45.751661597386516
1252.5, 45.751661597386516
1253, 45.784048665089564
1253.5, 45.784048665089564
1254, 45.751661597386516
1254.5, 45.751661597386516
1255, 45.71927452968345
1255.5, 45.71927452968345
1256, 45.58972625887125
1256.5, 45.58972625887125
1257, 45.49256505576209
1257.5, 45.49256505576209
1258, 45.49256505576209
1258.5, 45.49256505576209
1259, 45.5573391911682
1259.5, 45.5573391911682
1260, 45.52495212346515
1260.5, 45.52495212346515
1261, 45.46017798805903
1261.5, 45.46017798805903
1262, 45.42779092035599
1262.5, 45.42779092035599
1263, 45.36301678494988
1263.5, 45.36301678494988
1264, 45.36301678494988
1264.5, 45.23346851413767
1265, 45.23346851413767
1265.5, 45.201081446434614
1266, 45.201081446434614
1266.5, 45.201081446434614
1267, 45.201081446434614
1267.5, 45.168694378731566
1267.9999999999998, 45.168694378731566
1268.5, 45.13630731102851
1269, 45.13630731102851
1269.5, 45.10392024332546
1269.9999999999998, 45.10392024332546
1270.5, 45.03914610791934
1271, 45.03914610791934
1271.5, 45.071533175622406
1271.9999999999998, 45.071533175622406
1272.5, 45.13630731102851
1273, 45.13630731102851
1273.5, 45.10392024332546
1273.9999999999998, 45.10392024332546
1274.5, 45.03914610791934
1275, 45.03914610791934
1275.5, 44.97437197251325
1275.9999999999998, 44.97437197251325
1276.5, 44.97437197251325
1277, 44.97437197251325
1277.5, 45.03914610791934
1277.9999999999998, 45.03914610791934
1278.5, 45.10392024332546
1279, 45.10392024332546
1279.5, 45.23346851413767
1279.9999999999998, 45.23346851413767
1280.5, 45.23346851413767
1281, 45.265855581840725
1281.5, 45.265855581840725
1281.9999999999998, 45.298242649543766
1282.5, 45.298242649543766
1283, 45.39540385265293
1283.5, 45.39540385265293
1283.9999999999998, 45.42779092035599
1284.5, 45.42779092035599
1285, 45.39540385265293
1285.5, 45.39540385265293
1285.9999999999998, 45.39540385265293
1286.5, 45.39540385265293
1287, 45.52495212346515
1287.5, 45.52495212346515
1287.9999999999998, 45.52495212346515
1288.5, 45.52495212346515
1289, 45.49256505576209
1289.5, 45.49256505576209
1289.9999999999998, 45.58972625887125
1290.5, 45.58972625887125
1291, 45.654500394277356
1291.5, 45.654500394277356
1291.9999999999998, 45.68688746198041
1292.5, 45.68688746198041
1293, 45.751661597386516
1293.5, 45.751661597386516
1293.9999999999998, 45.978371071307876
1294.5, 45.978371071307876
1295, 45.945984003604835
1295.5, 45.848822800495675
1295.9999999999998, 45.848822800495675
1296.5, 45.68688746198041
1297, 45.68688746198041
1297.5, 45.68688746198041
1297.9999999999998, 45.68688746198041
1298.5, 45.6221133265743
1299, 45.6221133265743
1299.5, 45.52495212346515
1299.9999999999998, 45.52495212346515
1300.5, 45.42779092035599
1301, 45.42779092035599
1301.5, 45.33062971724683
1302, 45.33062971724683
1302.5, 45.23346851413767
1303, 45.23346851413767
1303.5, 45.10392024332546
1304, 45.10392024332546
1304.5, 45.03914610791934
1305, 45.03914610791934
1305.5, 45.03914610791934
1306, 45.03914610791934
1306.5, 45.071533175622406
1307, 45.071533175622406
1307.5, 45.10392024332546
1308, 45.10392024332546
1308.5, 45.03914610791934
1309, 45.03914610791934
1309.5, 44.94198490481019
1310, 44.90959783710714
1310.5, 44.90959783710714
1311, 44.84482370170104
1311.5, 44.84482370170104
1312, 44.682888363185775
1312.5, 44.682888363185775
1313, 44.585727160076615
1313.5, 44.585727160076615
1314, 44.585727160076615
1314.5, 44.585727160076615
1315, 44.55334009237356
1315.5, 44.55334009237356
1316, 44.488565956967456
1316.5, 44.488565956967456
1317, 44.520953024670504
1317.5, 44.520953024670504
1318, 44.55334009237356
1318.5, 44.55334009237356
1319, 44.65050129548272
1319.5, 44.65050129548272
1320, 44.74766249859188
1320.5, 44.74766249859188
1321, 44.87721076940408
1321.5, 44.87721076940408
1322, 44.87721076940408
1322.5, 44.87721076940408
1323, 44.87721076940408
1323.5, 44.87721076940408
1324, 44.78004956629493
1324.5, 44.78004956629493
1325, 44.71527543088882
1325.5, 44.61811422777966
1326, 44.61811422777966
1326.5, 44.61811422777966
1327, 44.61811422777966
1327.5, 44.585727160076615
1328, 44.585727160076615
1328.5, 44.61811422777966
1329, 44.61811422777966
1329.5, 44.74766249859188
1330, 44.74766249859188
1330.5, 44.78004956629493
1331, 44.78004956629493
1331.5, 44.71527543088882
1332, 44.71527543088882
1332.5, 44.682888363185775
1333, 44.682888363185775
1333.5, 44.65050129548272
1334, 44.65050129548272
1334.5, 44.585727160076615
1335, 44.585727160076615
1335.5, 44.45617888926439
1336, 44.45617888926439
1336.5, 44.391404753858296
1337, 44.391404753858296
1337.5, 44.520953024670504
1338, 44.520953024670504
1338.5, 44.520953024670504
1339, 44.520953024670504
1339.5, 44.55334009237356
1340, 44.65050129548272
1340.5, 44.65050129548272
1341, 44.61811422777966
1341.5, 44.61811422777966
1342, 44.585727160076615
1342.5, 44.585727160076615
1343, 44.55334009237356
1343.5, 44.55334009237356
1344, 44.65050129548272
1344.5, 44.65050129548272
1345, 44.55334009237356
1345.5, 44.55334009237356
1346, 44.488565956967456
1346.5, 44.488565956967456
1347, 44.488565956967456
1347.5, 44.488565956967456
1348, 44.42379182156135
1348.5, 44.42379182156135
1349, 44.35901768615524
1349.5, 44.35901768615524
1350, 44.35901768615524
1350.5, 44.35901768615524
1351, 44.32663061845219
1351.5, 44.32663061845219
1352, 44.32663061845219
1352.5, 44.32663061845219
1353, 44.35901768615524
1353.5, 44.35901768615524
1354, 44.391404753858296
1354.5, 44.391404753858296
1355, 44.32663061845219
1355.5, 44.32663061845219
1356, 44.32663061845219
1356.5, 44.391404753858296
1357, 44.391404753858296
1357.5, 44.391404753858296
1358, 44.391404753858296
1358.5, 44.42379182156135
1359, 44.42379182156135
1359.5, 44.42379182156135
1360, 44.42379182156135
1360.5, 44.35901768615524
1361, 44.35901768615524
1361.5, 44.35901768615524
1362, 44.35901768615524
1362.5, 44.35901768615524
1363, 44.35901768615524
1363.5, 44.35901768615524
1364, 44.35901768615524
1364.5, 44.391404753858296
1365, 44.391404753858296
1365.5, 44.35901768615524
1366, 44.35901768615524
1366.5, 44.32663061845219
1367, 44.32663061845219
1367.5, 44.29424355074914
1368, 44.29424355074914
1368.5, 44.22946941534303
1369, 44.22946941534303
1369.5, 44.16469527993693
1370, 44.16469527993693
1370.5, 44.13230821223387
1371, 44.13230821223387
1371.5, 44.13230821223387
1372, 44.13230821223387
1372.5, 44.13230821223387
1373, 44.22946941534303
1373.5, 44.22946941534303
1374, 44.42379182156135
1374.5, 44.42379182156135
1375, 44.35901768615524
1375.5, 44.35901768615524
1376, 44.32663061845219
1376.5, 44.32663061845219
1377, 44.32663061845219
1377.5, 44.32663061845219
1378, 44.29424355074914
1378.5, 44.29424355074914
1379, 44.32663061845219
1379.5, 44.32663061845219
1380, 44.45617888926439
1380.5, 44.45617888926439
1381, 44.45617888926439
1381.5, 44.45617888926439
1382, 44.391404753858296
1382.5, 44.391404753858296
1383, 44.391404753858296
1383.5, 44.391404753858296
1384, 44.32663061845219
1384.5, 44.32663061845219
1385, 44.26185648304609
1385.5, 44.32663061845219
1386, 44.32663061845219
1386.5, 44.42379182156135
1387, 44.42379182156135
1387.5, 44.32663061845219
1388, 44.32663061845219
1388.5, 44.29424355074914
1389, 44.29424355074914
1389.5, 44.29424355074914
1390, 44.29424355074914
1390.5, 44.32663061845219
1391, 44.32663061845219
1391.5, 44.26185648304609
1392, 44.26185648304609
1392.5, 44.22946941534303
1393, 44.22946941534303
1393.5, 44.16469527993693
1394, 44.16469527993693
1394.5, 44.002759941421665
1395, 44.002759941421665
1395.5, 44.06753407682777
1396, 44.06753407682777
1396.5, 44.16469527993693
1397, 44.16469527993693
1397.5, 44.26185648304609
1398, 44.26185648304609
1398.5, 44.19708234763997
1399, 44.19708234763997
1399.5, 44.13230821223387
1400, 44.13230821223387
664.1509433962265, 46.51515151515151
668.6792452830189, 46.414141414141405
