300, 9.380984566858203
300.5, 9.413371634561244
301, 9.413371634561244
301.5, 9.4457587022643
302, 9.4457587022643
302.5, 9.478145769967341
303, 9.478145769967341
303.5, 9.510532837670397
304, 9.510532837670397
304.5, 9.542919905373466
305, 9.542919905373466
305.5, 9.575306973076508
306, 9.575306973076508
306.5, 9.640081108482605
307, 9.640081108482605
307.5, 9.704855243888716
308, 9.704855243888716
308.5, 9.737242311591771
309, 9.737242311591771
309.5, 9.834403514700924
310, 9.834403514700924
310.5, 9.86679058240398
311, 9.86679058240398
311.5, 9.899177650107035
312, 9.899177650107035
312.5, 9.963951785513132
313, 9.963951785513132
313.5, 10.028725920919243
314, 10.093500056325354
314.5, 10.093500056325354
315, 10.15827419173145
315.5, 10.15827419173145
316, 10.223048327137576
316.5, 10.223048327137576
317, 10.287822462543673
317.5, 10.287822462543673
318, 10.320209530246714
318.5, 10.320209530246714
319, 10.38498366565284
319.5, 10.38498366565284
320, 10.417370733355881
320.5, 10.417370733355881
321, 10.482144868761978
321.5, 10.482144868761978
322, 10.546919004168089
322.5, 10.546919004168089
323, 10.6116931395742
323.5, 10.6116931395742
324, 10.676467274980297
324.5, 10.676467274980297
325, 10.708854342683352
325.5, 10.708854342683352
326, 10.773628478089464
326.5, 10.773628478089464
327, 10.806015545792505
327.5, 10.806015545792505
328, 10.903176748901686
328.5, 10.967950884307783
329, 10.967950884307783
329.5, 11.06511208741695
330, 11.06511208741695
330.5, 11.129886222823046
331, 11.129886222823046
331.5, 11.162273290526088
332, 11.162273290526088
332.5, 11.259434493635254
333, 11.259434493635254
333.5, 11.29182156133831
334, 11.29182156133831
334.5, 11.356595696744407
335, 11.356595696744407
335.5, 11.453756899853573
336, 11.453756899853573
336.5, 11.486143967556615
337, 11.486143967556615
337.5, 11.550918102962726
338, 11.550918102962726
338.5, 11.615692238368837
339, 11.615692238368837
339.5, 11.71285344147799
340, 11.71285344147799
340.5, 11.7776275768841
341, 11.7776275768841
341.5, 11.842401712290197
342, 11.842401712290197
342.5, 11.907175847696323
343, 11.907175847696323
343.5, 11.939562915399364
344, 12.00433705080546
344.5, 12.00433705080546
345, 12.069111186211572
345.5, 12.069111186211572
346, 12.166272389320724
346.5, 12.166272389320724
347, 12.263433592429891
347.5, 12.263433592429891
348, 12.328207727835988
348.5, 12.328207727835988
349, 12.392981863242099
349.5, 12.392981863242099
350, 12.522530134054307
350.5, 12.522530134054307
351, 12.587304269460432
351.5, 12.587304269460432
352, 12.65207840486653
352.5, 12.65207840486653
353, 12.781626675678737
353.5, 12.781626675678737
354, 12.846400811084834
354.5, 12.846400811084834
355, 12.911174946490945
355.5, 12.911174946490945
356, 13.008336149600098
356.5, 13.008336149600098
357, 13.073110285006209
357.5, 13.073110285006209
358, 13.13788442041232
358.5, 13.13788442041232
359, 13.202658555818417
359.5, 13.332206826630639
360, 13.332206826630639
360.5, 13.396980962036736
361, 13.396980962036736
361.5, 13.461755097442847
362, 13.461755097442847
362.5, 13.526529232848944
363, 13.526529232848944
363.5, 13.591303368255055
364, 13.591303368255055
364.5, 13.688464571364207
365, 13.688464571364207
365.5, 13.785625774473374
366, 13.785625774473374
366.5, 13.915174045285582
367, 13.915174045285582
367.5, 14.012335248394734
368, 14.012335248394734
368.5, 14.077109383800845
369, 14.077109383800845
369.5, 14.141883519206957
370, 14.141883519206957
370.5, 14.206657654613053
371, 14.206657654613053
371.5, 14.336205925425276
372, 14.336205925425276
372.5, 14.433367128534428
373, 14.433367128534428
373.5, 14.53052833164358
374, 14.627689534752747
374.5, 14.627689534752747
375, 14.7248507378619
375.5, 14.7248507378619
376, 14.789624873268025
376.5, 14.789624873268025
377, 14.886786076377163
377.5, 14.886786076377163
378, 14.951560211783288
378.5, 14.951560211783288
379, 15.016334347189385
379.5, 15.016334347189385
380, 15.113495550298552
380.5, 15.113495550298552
381, 15.21065675340769
381.5, 15.21065675340769
382, 15.275430888813801
382.5, 15.275430888813801
383, 15.40497915962601
383.5, 15.40497915962601
384, 15.534527430438217
384.5, 15.534527430438217
385, 15.631688633547398
385.5, 15.631688633547398
386, 15.728849836656536
386.5, 15.728849836656536
387, 15.858398107468759
387.5, 15.858398107468759
388, 15.923172242874855
388.5, 15.923172242874855
389, 16.020333445984022
389.5, 16.08510758139012
390, 16.08510758139012
390.5, 16.182268784499286
391, 16.182268784499286
391.5, 16.279429987608438
392, 16.279429987608438
392.5, 16.37659119071759
393, 16.37659119071759
393.5, 16.603300664638965
394, 16.603300664638965
394.5, 16.668074800045076
395, 16.668074800045076
395.5, 16.732848935451173
396, 16.732848935451173
396.5, 16.862397206263395
397, 16.862397206263395
397.5, 16.991945477075618
398, 16.991945477075618
398.5, 17.12149374788781
399, 17.12149374788781
399.5, 17.25104201870002
400, 17.25104201870002
400.5, 17.348203221809186
401, 17.348203221809186
401.5, 17.477751492621408
402, 17.477751492621408
402.5, 17.542525628027505
403, 17.542525628027505
403.5, 17.607299763433602
404, 17.73684803424581
404.5, 17.73684803424581
405, 17.83400923735499
405.5, 17.83400923735499
406, 17.93117044046413
406.5, 17.93117044046413
407, 18.060718711276337
407.5, 18.060718711276337
408, 18.19026698208856
408.5, 18.19026698208856
409, 18.28742818519771
409.5, 18.28742818519771
410, 18.38458938830688
410.5, 18.38458938830688
411, 18.546524726822142
411.5, 18.546524726822142
412, 18.643685929931294
412.5, 18.643685929931294
413, 18.773234200743502
413.5, 18.773234200743502
414, 18.935169539258766
414.5, 18.935169539258766
415, 19.032330742367932
415.5, 19.032330742367932
416, 19.16187901318014
416.5, 19.16187901318014
417, 19.356201419398474
417.5, 19.356201419398474
418, 19.420975554804556
418.5, 19.420975554804556
419, 19.55052382561678
419.5, 19.615297961022875
420, 19.615297961022875
420.5, 19.77723329953814
421, 19.77723329953814
421.5, 19.90678157035036
422, 19.90678157035036
422.5, 20.068716908865625
423, 20.068716908865625
423.5, 20.23065224738089
424, 20.23065224738089
424.5, 20.32781345049004
425, 20.32781345049004
425.5, 20.522135856708374
426, 20.522135856708374
426.5, 20.716458262926693
427, 20.716458262926693
427.5, 20.846006533738887
428, 20.846006533738887
428.5, 21.00794187225415
429, 21.00794187225415
429.5, 21.13749014306636
430, 21.13749014306636
430.5, 21.267038413878566
431, 21.267038413878566
431.5, 21.428973752393844
432, 21.428973752393844
432.5, 21.590909090909108
433, 21.590909090909108
433.5, 21.72045736172133
434, 21.72045736172133
434.5, 21.914779767939635
435, 22.0767151064549
435.5, 22.0767151064549
436, 22.20626337726712
436.5, 22.20626337726712
437, 22.335811648079314
437.5, 22.335811648079314
438, 22.497746986594578
438.5, 22.497746986594578
439, 22.627295257406786
439.5, 22.627295257406786
440, 22.756843528219008
440.5, 22.756843528219008
441, 22.85400473132816
441.5, 22.85400473132816
442, 22.98355300214037
442.5, 22.98355300214037
443, 23.145488340655632
443.5, 23.145488340655632
444, 23.33981074687395
444.5, 23.33981074687395
445, 23.372197814577007
445.5, 23.372197814577007
446, 23.59890728849838
446.5, 23.59890728849838
447, 23.728455559310603
447.5, 23.728455559310603
448, 23.858003830122797
448.5, 23.858003830122797
449, 23.922777965528923
449.5, 24.084713304044186
450, 24.084713304044186
450.5, 24.21426157485638
451, 24.21426157485638
451.5, 24.311422777965532
452, 24.311422777965532
452.5, 24.473358116480796
453, 24.473358116480796
453.5, 24.538132251886907
454, 24.538132251886907
454.5, 24.635293454996074
455, 24.635293454996074
455.5, 24.732454658105226
456, 24.732454658105226
456.5, 24.82961586121438
457, 24.82961586121438
457.5, 24.92677706432356
458, 24.92677706432356
458.5, 24.991551199729642
459, 24.991551199729642
459.5, 25.088712402838823
460, 25.088712402838823
460.5, 25.153486538244906
461, 25.153486538244906
461.5, 25.283034809057142
462, 25.283034809057142
462.5, 25.38019601216628
463, 25.38019601216628
463.5, 25.444970147572405
464, 25.444970147572405
464.5, 25.5745184183846
465, 25.67167962149375
465.5, 25.67167962149375
466, 25.801227892305974
466.5, 25.801227892305974
467, 25.898389095415126
467.5, 25.898389095415126
468, 25.96316323082125
468.5, 25.96316323082125
469, 26.027937366227334
469.5, 26.027937366227334
470, 26.027937366227334
470.5, 26.027937366227334
471, 26.06032443393039
471.5, 26.06032443393039
472, 26.157485637039557
472.5, 26.157485637039557
473, 26.189872704742598
473.5, 26.189872704742598
474, 26.28703390785178
474.5, 26.28703390785178
475, 26.384195110960917
475.5, 26.384195110960917
476, 26.481356314070084
476.5, 26.481356314070084
477, 26.610904584882306
477.5, 26.610904584882306
478, 26.610904584882306
478.5, 26.610904584882306
479, 26.67567872028839
479.5, 26.77283992339757
480, 26.77283992339757
480.5, 26.837614058803652
481, 26.837614058803652
481.5, 26.93477526191282
482, 26.93477526191282
482.5, 26.99954939731893
483, 26.99954939731893
483.5, 27.064323532725027
484, 27.064323532725027
484.5, 27.129097668131152
485, 27.129097668131152
485.5, 27.129097668131152
486, 27.129097668131152
486.5, 27.161484735834193
487, 27.161484735834193
487.5, 27.193871803537235
488, 27.193871803537235
488.5, 27.161484735834193
489, 27.161484735834193
489.5, 27.193871803537235
490, 27.193871803537235
490.5, 27.22625887124029
491, 27.22625887124029
491.5, 27.193871803537235
492, 27.193871803537235
492.5, 27.161484735834193
493, 27.161484735834193
493.5, 27.161484735834193
494, 27.161484735834193
494.5, 27.193871803537235
495, 27.096710600428082
495.5, 27.096710600428082
496, 27.03193646502197
496.5, 27.03193646502197
497, 26.902388194209763
497.5, 26.902388194209763
498, 26.77283992339757
498.5, 26.77283992339757
499, 26.67567872028839
499.5, 26.67567872028839
500, 26.578517517179236
500.5, 26.578517517179236
501, 26.384195110960917
501.5, 26.384195110960917
502, 26.25464684014871
502.5, 26.25464684014871
503, 26.157485637039557
503.5, 26.157485637039557
504, 25.930776163118196
504.5, 25.930776163118196
505, 25.736453756899863
505.5, 25.736453756899863
506, 25.60690548608767
506.5, 25.60690548608767
507, 25.444970147572405
507.5, 25.444970147572405
508, 25.218260673651017
508.5, 25.218260673651017
509, 24.991551199729642
509.5, 24.991551199729642
510, 24.797228793511337
510.5, 24.570519319589962
511, 24.570519319589962
511.5, 24.27903571026249
512, 24.27903571026249
512.5, 24.084713304044186
513, 24.084713304044186
513.5, 23.922777965528923
514, 23.922777965528923
514.5, 23.631294356201423
515, 23.631294356201423
515.5, 23.501746085389215
516, 23.501746085389215
516.5, 23.404584882280076
517, 23.404584882280076
517.5, 23.210262476061743
518, 23.210262476061743
518.5, 22.91877886673427
519, 22.91877886673427
519.5, 22.724456460515967
520, 22.724456460515967
520.5, 22.627295257406786
521, 22.627295257406786
521.5, 22.238650444970176
522, 22.238650444970176
522.5, 22.011940971048787
523, 22.011940971048787
523.5, 21.882392700236593
524, 21.882392700236593
524.5, 21.72045736172133
525, 21.62329615861215
525.5, 21.62329615861215
526, 21.62329615861215
526.5, 21.62329615861215
527, 21.428973752393844
527.5, 21.428973752393844
528, 21.202264278472484
528.5, 21.202264278472484
529, 20.910780669144998
529.5, 20.910780669144998
530, 20.748845330629734
530.5, 20.748845330629734
531, 20.651684127520568
531.5, 20.651684127520568
532, 20.554522924411415
532.5, 20.554522924411415
533, 20.45736172130225
533.5, 20.45736172130225
534, 20.295426382786985
534.5, 20.295426382786985
535, 20.13349104427172
535.5, 20.13349104427172
536, 20.003942773459514
536.5, 20.003942773459514
537, 19.939168638053403
537.5, 19.939168638053403
538, 19.842007434944264
538.5, 19.842007434944264
539, 19.712459164132042
539.5, 19.712459164132042
540, 19.64768502872593
540.5, 19.55052382561678
541, 19.55052382561678
541.5, 19.453362622507612
542, 19.453362622507612
542.5, 19.420975554804556
543, 19.420975554804556
543.5, 19.388588487101515
544, 19.388588487101515
544.5, 19.356201419398474
545, 19.356201419398474
545.5, 19.420975554804556
546, 19.420975554804556
546.5, 19.356201419398474
547, 19.356201419398474
547.5, 19.323814351695404
548, 19.323814351695404
548.5, 19.259040216289293
549, 19.259040216289293
549.5, 19.22665314858625
550, 19.22665314858625
550.5, 19.22665314858625
551, 19.22665314858625
551.5, 19.16187901318014
552, 19.16187901318014
552.5, 19.16187901318014
553, 19.16187901318014
553.5, 19.19426608088321
554, 19.19426608088321
554.5, 19.259040216289293
555, 19.22665314858625
555.5, 19.22665314858625
556, 19.22665314858625
556.5, 19.22665314858625
557, 19.22665314858625
557.5, 19.22665314858625
558, 19.29142728399235
558.5, 19.29142728399235
559, 19.323814351695404
559.5, 19.323814351695404
560, 19.388588487101515
560.5, 19.388588487101515
561, 19.453362622507612
561.5, 19.453362622507612
562, 19.485749690210667
562.5, 19.485749690210667
563, 19.55052382561678
563.5, 19.55052382561678
564, 19.615297961022875
564.5, 19.615297961022875
565, 19.680072096429
565.5, 19.680072096429
566, 19.809620367241195
566.5, 19.809620367241195
567, 19.90678157035036
567.5, 19.90678157035036
568, 19.971555705756458
568.5, 19.971555705756458
569, 20.036329841162583
569.5, 20.036329841162583
570, 20.036329841162583
570.5, 20.036329841162583
571, 20.036329841162583
571.5, 20.036329841162583
572, 20.036329841162583
572.5, 20.101103976568666
573, 20.101103976568666
573.5, 20.13349104427172
574, 20.13349104427172
574.5, 20.165878111974777
575, 20.165878111974777
575.5, 20.198265179677847
576, 20.198265179677847
576.5, 20.26303931508393
577, 20.26303931508393
577.5, 20.295426382786985
578, 20.295426382786985
578.5, 20.32781345049004
579, 20.32781345049004
579.5, 20.295426382786985
580, 20.295426382786985
580.5, 20.26303931508393
581, 20.26303931508393
581.5, 20.26303931508393
582, 20.26303931508393
582.5, 20.32781345049004
583, 20.32781345049004
583.5, 20.392587585896152
584, 20.392587585896152
584.5, 20.392587585896152
585, 20.392587585896152
585.5, 20.36020051819311
586, 20.295426382786985
586.5, 20.295426382786985
587, 20.32781345049004
587.5, 20.32781345049004
588, 20.392587585896152
588.5, 20.392587585896152
589, 20.36020051819311
589.5, 20.36020051819311
590, 20.295426382786985
590.5, 20.295426382786985
591, 20.198265179677847
591.5, 20.198265179677847
592, 20.101103976568666
592.5, 20.101103976568666
593, 20.036329841162583
593.5, 20.036329841162583
594, 20.003942773459514
594.5, 20.003942773459514
595, 20.003942773459514
595.5, 20.003942773459514
596, 19.939168638053403
596.5, 19.939168638053403
597, 19.809620367241195
597.5, 19.809620367241195
598, 19.744846231835098
598.5, 19.744846231835098
599, 19.64768502872593
599.5, 19.64768502872593
600, 19.420975554804556
600.5, 19.388588487101515
601, 19.388588487101515
601.5, 19.29142728399235
602, 19.29142728399235
602.5, 19.09710487777403
603, 19.09710487777403
603.5, 18.96755660696182
604, 18.96755660696182
604.5, 18.838008336149628
605, 18.838008336149628
605.5, 18.643685929931294
606, 18.643685929931294
606.5, 18.5141376591191
607, 18.5141376591191
607.5, 18.41697645600992
608, 18.41697645600992
608.5, 18.255041117494656
609, 18.255041117494656
609.5, 18.060718711276337
610, 18.060718711276337
610.5, 17.93117044046413
611, 17.93117044046413
611.5, 17.80162216965192
612, 17.80162216965192
612.5, 17.607299763433602
613, 17.607299763433602
613.5, 17.44536442491834
614, 17.44536442491834
614.5, 17.348203221809186
615, 17.348203221809186
615.5, 17.186267883293922
616, 17.0567196124817
616.5, 17.0567196124817
617, 16.927171341669492
617.5, 16.927171341669492
618, 16.797623070857284
618.5, 16.797623070857284
619, 16.668074800045076
619.5, 16.668074800045076
620, 16.53852652923287
620.5, 16.53852652923287
621, 16.506139461529813
621.5, 16.506139461529813
622, 16.4413653261237
622.5, 16.4413653261237
623, 16.279429987608438
623.5, 16.279429987608438
624, 16.149881716796244
624.5, 16.149881716796244
625, 16.08510758139012
625.5, 16.08510758139012
626, 15.8907851751718
626.5, 15.8907851751718
627, 15.728849836656536
627.5, 15.728849836656536
628, 15.631688633547398
628.5, 15.631688633547398
629, 15.566914498141273
629.5, 15.566914498141273
630, 15.437366227329065
630.5, 15.307817956516857
631, 15.307817956516857
631.5, 15.178269685704649
632, 15.178269685704649
632.5, 15.081108482595482
633, 15.081108482595482
633.5, 14.854399008674108
634, 14.854399008674108
634.5, 14.7248507378619
635, 14.7248507378619
635.5, 14.692463670158844
636, 14.692463670158844
636.5, 14.562915399346636
637, 14.562915399346636
637.5, 14.465754196237484
638, 14.465754196237484
638.5, 14.433367128534428
639, 14.433367128534428
639.5, 14.271431790019179
640, 14.271431790019179
640.5, 14.174270586910012
641, 14.174270586910012
641.5, 14.109496451503915
642, 14.109496451503915
642.5, 13.979948180691693
643, 13.979948180691693
643.5, 13.915174045285582
644, 13.915174045285582
644.5, 13.85039990987947
645, 13.85039990987947
645.5, 13.753238706770318
646, 13.656077503661166
646.5, 13.656077503661166
647, 13.62369043595811
647.5, 13.62369043595811
648, 13.591303368255055
648.5, 13.591303368255055
649, 13.526529232848944
649.5, 13.526529232848944
650, 13.396980962036736
650.5, 13.396980962036736
651, 13.36459389433368
651.5, 13.36459389433368
652, 13.299819758927583
652.5, 13.299819758927583
653, 13.235045623521472
653.5, 13.235045623521472
654, 13.105497352709264
654.5, 13.105497352709264
655, 13.040723217303153
655.5, 13.040723217303153
656, 12.975949081897056
656.5, 12.975949081897056
657, 12.943562014194
657.5, 12.943562014194
658, 12.87878787878789
658.5, 12.87878787878789
659, 12.846400811084834
659.5, 12.846400811084834
660, 12.781626675678737
660.5, 12.781626675678737
661, 12.749239607975696
661.5, 12.749239607975696
662, 12.749239607975696
662.5, 12.716852540272626
663, 12.716852540272626
663.5, 12.619691337163474
664, 12.619691337163474
664.5, 12.587304269460432
665, 12.587304269460432
665.5, 12.554917201757362
666, 12.554917201757362
666.5, 12.522530134054307
667, 12.522530134054307
667.5, 12.425368930945169
668, 12.425368930945169
668.5, 12.425368930945169
669, 12.425368930945169
669.5, 12.425368930945169
670, 12.425368930945169
670.5, 12.263433592429891
671, 12.263433592429891
671.5, 12.166272389320724
672, 12.166272389320724
672.5, 12.069111186211572
673, 12.069111186211572
673.5, 12.036724118508516
674, 12.036724118508516
674.5, 12.101498253914627
675, 12.101498253914627
675.5, 12.166272389320724
676, 12.231046524726835
676.5, 12.231046524726835
677, 12.19865945702378
677.5, 12.19865945702378
678, 12.19865945702378
678.5, 12.19865945702378
679, 12.231046524726835
679.5, 12.231046524726835
680, 12.295820660132947
680.5, 12.295820660132947
681, 12.263433592429891
681.5, 12.263433592429891
682, 12.231046524726835
682.5, 12.231046524726835
683, 12.19865945702378
683.5, 12.19865945702378
684, 12.263433592429891
684.5, 12.263433592429891
685, 12.263433592429891
685.5, 12.263433592429891
686, 12.231046524726835
686.5, 12.231046524726835
687, 12.231046524726835
687.5, 12.231046524726835
688, 12.231046524726835
688.5, 12.231046524726835
689, 12.295820660132947
689.5, 12.295820660132947
690, 12.328207727835988
690.5, 12.328207727835988
691, 12.328207727835988
691.5, 12.263433592429891
692, 12.263433592429891
692.5, 12.231046524726835
693, 12.231046524726835
693.5, 12.263433592429891
694, 12.263433592429891
694.5, 12.295820660132947
695, 12.295820660132947
695.5, 12.295820660132947
696, 12.295820660132947
696.5, 12.295820660132947
697, 12.295820660132947
697.5, 12.360594795539043
698, 12.360594795539043
698.5, 12.425368930945169
699, 12.425368930945169
699.5, 12.45775599864821
700, 12.45775599864821
700.5, 12.522530134054307
701, 12.522530134054307
701.5, 12.522530134054307
702, 12.522530134054307
702.5, 12.522530134054307
703, 12.522530134054307
703.5, 12.522530134054307
704, 12.522530134054307
704.5, 12.522530134054307
705, 12.522530134054307
705.5, 12.522530134054307
706, 12.554917201757362
706.5, 12.554917201757362
707, 12.554917201757362
707.5, 12.554917201757362
708, 12.587304269460432
708.5, 12.587304269460432
709, 12.587304269460432
709.5, 12.587304269460432
710, 12.587304269460432
710.5, 12.587304269460432
711, 12.68446547256957
711.5, 12.68446547256957
712, 12.716852540272626
712.5, 12.716852540272626
713, 12.749239607975696
713.5, 12.749239607975696
714, 12.716852540272626
714.5, 12.716852540272626
715, 12.68446547256957
715.5, 12.68446547256957
716, 12.716852540272626
716.5, 12.716852540272626
717, 12.716852540272626
717.5, 12.716852540272626
718, 12.749239607975696
718.5, 12.749239607975696
719, 12.749239607975696
719.5, 12.749239607975696
720, 12.814013743381793
720.5, 12.814013743381793
721, 12.846400811084834
721.5, 12.814013743381793
722, 12.814013743381793
722.5, 12.749239607975696
723, 12.749239607975696
723.5, 12.716852540272626
724, 12.716852540272626
724.5, 12.814013743381793
725, 12.814013743381793
725.5, 12.87878787878789
726, 12.87878787878789
726.5, 12.911174946490945
727, 12.911174946490945
727.5, 12.943562014194
728, 12.943562014194
728.5, 12.943562014194
729, 12.943562014194
729.5, 12.943562014194
730, 12.943562014194
730.5, 12.975949081897056
731, 12.975949081897056
731.5, 12.943562014194
732, 12.943562014194
732.5, 12.975949081897056
733, 12.975949081897056
733.5, 13.105497352709264
734, 13.105497352709264
734.5, 13.105497352709264
735, 13.105497352709264
735.5, 13.073110285006209
736, 13.073110285006209
736.5, 13.073110285006209
737, 13.13788442041232
737.5, 13.13788442041232
738, 13.13788442041232
738.5, 13.13788442041232
739, 13.13788442041232
739.5, 13.13788442041232
740, 13.13788442041232
740.5, 13.13788442041232
741, 13.202658555818417
741.5, 13.202658555818417
742, 13.36459389433368
742.5, 13.36459389433368
743, 13.429368029739805
743.5, 13.429368029739805
744, 13.558916300552
744.5, 13.558916300552
745, 13.526529232848944
745.5, 13.526529232848944
746, 13.526529232848944
746.5, 13.526529232848944
747, 13.526529232848944
747.5, 13.526529232848944
748, 13.526529232848944
748.5, 13.526529232848944
749, 13.526529232848944
749.5, 13.526529232848944
750, 13.526529232848944
750.5, 13.526529232848944
751, 13.558916300552
751.5, 13.591303368255055
752, 13.591303368255055
752.5, 13.591303368255055
753, 13.591303368255055
753.5, 13.558916300552
754, 13.558916300552
754.5, 13.526529232848944
755, 13.526529232848944
755.5, 13.526529232848944
756, 13.526529232848944
756.5, 13.591303368255055
757, 13.591303368255055
757.5, 13.656077503661166
758, 13.656077503661166
758.5, 13.785625774473374
759, 13.785625774473374
759.5, 13.85039990987947
760, 13.85039990987947
760.5, 13.915174045285582
761, 13.915174045285582
761.5, 13.947561112988652
762, 13.947561112988652
762.5, 14.012335248394734
763, 14.012335248394734
763.5, 14.141883519206957
764, 14.141883519206957
764.5, 14.206657654613053
765, 14.206657654613053
765.5, 14.206657654613053
766, 14.206657654613053
766.5, 14.239044722316109
767, 14.336205925425276
767.5, 14.336205925425276
768, 14.368592993128317
768.5, 14.368592993128317
769, 14.465754196237484
769.5, 14.465754196237484
770, 14.53052833164358
770.5, 14.53052833164358
771, 14.562915399346636
771.5, 14.562915399346636
772, 14.627689534752747
772.5, 14.627689534752747
773, 14.627689534752747
773.5, 14.627689534752747
774, 14.660076602455803
774.5, 14.660076602455803
775, 14.660076602455803
775.5, 14.660076602455803
776, 14.692463670158844
776.5, 14.692463670158844
777, 14.789624873268025
777.5, 14.789624873268025
778, 14.854399008674108
778.5, 14.854399008674108
779, 14.919173144080219
779.5, 14.919173144080219
780, 14.951560211783288
780.5, 14.951560211783288
781, 15.016334347189385
781.5, 15.016334347189385
782, 15.016334347189385
782.5, 15.016334347189385
783, 15.016334347189385
783.5, 15.048721414892427
784, 15.048721414892427
784.5, 15.081108482595482
785, 15.081108482595482
785.5, 15.081108482595482
786, 15.081108482595482
786.5, 15.113495550298552
787, 15.113495550298552
787.5, 15.145882618001593
788, 15.145882618001593
788.5, 15.21065675340769
789, 15.21065675340769
789.5, 15.275430888813801
790, 15.275430888813801
790.5, 15.340205024219912
791, 15.340205024219912
791.5, 15.372592091922954
792, 15.372592091922954
792.5, 15.340205024219912
793, 15.340205024219912
793.5, 15.275430888813801
794, 15.275430888813801
794.5, 15.145882618001593
795, 15.145882618001593
795.5, 15.081108482595482
796, 15.081108482595482
796.5, 15.113495550298552
797, 15.178269685704649
797.5, 15.178269685704649
798, 15.081108482595482
798.5, 15.081108482595482
799, 15.016334347189385
799.5, 15.016334347189385
800, 14.98394727948633
800.5, 14.98394727948633
801, 14.98394727948633
801.5, 14.98394727948633
802, 14.919173144080219
802.5, 14.919173144080219
803, 14.919173144080219
803.5, 14.919173144080219
804, 14.919173144080219
804.5, 14.919173144080219
805, 14.951560211783288
805.5, 14.951560211783288
806, 14.886786076377163
806.5, 14.886786076377163
807, 14.822011940971066
807.5, 14.822011940971066
808, 14.789624873268025
808.5, 14.789624873268025
809, 14.692463670158844
809.5, 14.692463670158844
810, 14.692463670158844
810.5, 14.692463670158844
811, 14.692463670158844
811.5, 14.692463670158844
812, 14.53052833164358
812.5, 14.400980060831372
813, 14.400980060831372
813.5, 14.30381885772222
814, 14.30381885772222
814.5, 14.109496451503915
815, 14.109496451503915
815.5, 13.979948180691693
816, 13.979948180691693
816.5, 13.915174045285582
817, 13.915174045285582
817.5, 13.85039990987947
818, 13.85039990987947
818.5, 13.62369043595811
819, 13.62369043595811
819.5, 13.591303368255055
820, 13.591303368255055
820.5, 13.494142165145902
821, 13.494142165145902
821.5, 13.396980962036736
822, 13.396980962036736
822.5, 13.332206826630639
823, 13.332206826630639
823.5, 13.170271488115361
824, 13.170271488115361
824.5, 12.975949081897056
825, 12.975949081897056
825.5, 12.846400811084834
826, 12.846400811084834
826.5, 12.716852540272626
827, 12.587304269460432
827.5, 12.587304269460432
828, 12.490143066351251
828.5, 12.490143066351251
829, 12.295820660132947
829.5, 12.295820660132947
830, 12.231046524726835
830.5, 12.231046524726835
831, 12.133885321617683
831.5, 12.133885321617683
832, 12.00433705080546
832.5, 12.00433705080546
833, 11.939562915399364
833.5, 11.939562915399364
834, 11.874788779993253
834.5, 11.874788779993253
835, 11.810014644587156
835.5, 11.810014644587156
836, 11.842401712290197
836.5, 11.842401712290197
837, 11.842401712290197
837.5, 11.842401712290197
838, 11.907175847696323
838.5, 11.907175847696323
839, 11.939562915399364
839.5, 11.939562915399364
840, 11.874788779993253
840.5, 11.874788779993253
841, 11.71285344147799
841.5, 11.71285344147799
842, 11.486143967556615
842.5, 11.259434493635254
843, 11.259434493635254
843.5, 11.09749915511999
844, 11.09749915511999
844.5, 10.806015545792505
845, 10.806015545792505
845.5, 10.676467274980297
846, 10.676467274980297
846.5, 10.6116931395742
847, 10.6116931395742
847.5, 10.6116931395742
848, 10.6116931395742
848.5, 10.579306071871144
849, 10.579306071871144
849.5, 10.482144868761978
850, 10.482144868761978
850.5, 10.38498366565284
851, 10.38498366565284
851.5, 10.287822462543673
852, 10.287822462543673
852.5, 10.190661259434506
853, 10.190661259434506
853.5, 10.061112988622298
854, 10.061112988622298
854.5, 9.996338853216187
855, 9.996338853216187
855.5, 9.86679058240398
856, 9.86679058240398
856.5, 9.769629379294827
857, 9.67246817618566
857.5, 9.67246817618566
858, 9.542919905373466
858.5, 9.542919905373466
859, 9.478145769967341
859.5, 9.478145769967341
860, 9.478145769967341
860.5, 9.478145769967341
861, 9.575306973076508
861.5, 9.575306973076508
862, 9.542919905373466
862.5, 9.542919905373466
863, 9.478145769967341
863.5, 9.478145769967341
864, 9.4457587022643
864.5, 9.4457587022643
865, 9.4457587022643
865.5, 9.4457587022643
866, 9.4457587022643
866.5, 9.4457587022643
867, 9.4457587022643
867.5, 9.4457587022643
868, 9.542919905373466
868.5, 9.542919905373466
869, 9.542919905373466
869.5, 9.542919905373466
870, 9.478145769967341
870.5, 9.478145769967341
871, 9.413371634561244
871.5, 9.413371634561244
872, 9.4457587022643
872.5, 9.510532837670397
873, 9.510532837670397
873.5, 9.542919905373466
874, 9.542919905373466
874.5, 9.575306973076508
875, 9.575306973076508
875.5, 9.575306973076508
876, 9.575306973076508
876.5, 9.575306973076508
877, 9.575306973076508
877.5, 9.575306973076508
878, 9.575306973076508
878.5, 9.542919905373466
879, 9.542919905373466
879.5, 9.640081108482605
880, 9.640081108482605
880.5, 9.704855243888716
881, 9.704855243888716
881.5, 9.769629379294827
882, 9.769629379294827
882.5, 9.769629379294827
883, 9.769629379294827
883.5, 9.737242311591771
884, 9.737242311591771
884.5, 9.640081108482605
885, 9.640081108482605
885.5, 9.640081108482605
886, 9.640081108482605
886.5, 9.737242311591771
887, 9.737242311591771
887.5, 9.802016446997868
888, 9.834403514700924
888.5, 9.834403514700924
889, 9.802016446997868
889.5, 9.802016446997868
890, 9.737242311591771
890.5, 9.737242311591771
891, 9.704855243888716
891.5, 9.704855243888716
892, 9.802016446997868
892.5, 9.802016446997868
893, 9.769629379294827
893.5, 9.769629379294827
894, 9.769629379294827
894.5, 9.769629379294827
895, 9.769629379294827
895.5, 9.769629379294827
896, 9.737242311591771
896.5, 9.737242311591771
897, 9.769629379294827
897.5, 9.769629379294827
898, 9.802016446997868
898.5, 9.802016446997868
899, 9.769629379294827
899.5, 9.769629379294827
900, 9.802016446997868
900.5, 9.802016446997868
901, 9.834403514700924
901.5, 9.834403514700924
902, 9.899177650107035
902.5, 9.93156471781009
903, 9.93156471781009
903.5, 9.93156471781009
904, 9.93156471781009
904.5, 9.996338853216187
905, 9.996338853216187
905.5, 10.061112988622298
906, 10.061112988622298
906.5, 10.061112988622298
907, 10.061112988622298
907.5, 10.093500056325354
908, 10.093500056325354
908.5, 10.093500056325354
909, 10.093500056325354
909.5, 10.15827419173145
910, 10.15827419173145
910.5, 10.255435394840617
911, 10.255435394840617
911.5, 10.38498366565284
912, 10.38498366565284
912.5, 10.482144868761978
913, 10.482144868761978
913.5, 10.579306071871144
914, 10.579306071871144
914.5, 10.676467274980297
915, 10.676467274980297
915.5, 10.741241410386408
916, 10.741241410386408
916.5, 10.935563816604727
917, 10.935563816604727
917.5, 11.03272501971388
918, 11.09749915511999
918.5, 11.09749915511999
919, 11.129886222823046
919.5, 11.129886222823046
920, 11.162273290526088
920.5, 11.162273290526088
921, 11.227047425932213
921.5, 11.227047425932213
922, 11.324208629041351
922.5, 11.324208629041351
923, 11.388982764447462
923.5, 11.388982764447462
924, 11.453756899853573
924.5, 11.453756899853573
925, 11.486143967556615
925.5, 11.486143967556615
926, 11.583305170665781
926.5, 11.583305170665781
927, 11.550918102962726
927.5, 11.550918102962726
928, 11.583305170665781
928.5, 11.583305170665781
929, 11.842401712290197
929.5, 11.842401712290197
930, 11.874788779993253
930.5, 11.874788779993253
931, 11.874788779993253
931.5, 11.874788779993253
932, 11.907175847696323
932.5, 12.00433705080546
933, 12.00433705080546
933.5, 12.069111186211572
934, 12.069111186211572
934.5, 12.166272389320724
935, 12.166272389320724
935.5, 12.263433592429891
936, 12.263433592429891
936.5, 12.45775599864821
937, 12.45775599864821
937.5, 12.554917201757362
938, 12.554917201757362
938.5, 12.65207840486653
939, 12.65207840486653
939.5, 12.846400811084834
940, 12.846400811084834
940.5, 12.975949081897056
941, 12.975949081897056
941.5, 13.073110285006209
942, 13.073110285006209
942.5, 13.299819758927583
943, 13.299819758927583
943.5, 13.494142165145902
944, 13.494142165145902
944.5, 13.558916300552
945, 13.558916300552
945.5, 13.753238706770318
946, 13.753238706770318
946.5, 13.915174045285582
947, 13.915174045285582
947.5, 13.979948180691693
948, 14.04472231609779
948.5, 14.04472231609779
949, 14.174270586910012
949.5, 14.174270586910012
950, 14.400980060831372
950.5, 14.400980060831372
951, 14.53052833164358
951.5, 14.53052833164358
952, 14.692463670158844
952.5, 14.692463670158844
953, 14.98394727948633
953.5, 14.98394727948633
954, 15.113495550298552
954.5, 15.113495550298552
955, 15.21065675340769
955.5, 15.21065675340769
956, 15.40497915962601
956.5, 15.40497915962601
957, 15.599301565844328
957.5, 15.599301565844328
958, 15.631688633547398
958.5, 15.631688633547398
959, 15.858398107468759
959.5, 15.858398107468759
960, 16.149881716796244
960.5, 16.149881716796244
961, 16.37659119071759
961.5, 16.37659119071759
962, 16.4413653261237
962.5, 16.47375239382677
963, 16.47375239382677
963.5, 16.506139461529813
964, 16.506139461529813
964.5, 16.603300664638965
965, 16.603300664638965
965.5, 16.862397206263395
966, 16.862397206263395
966.5, 16.991945477075618
967, 16.991945477075618
967.5, 17.0567196124817
968, 17.0567196124817
968.5, 17.38059028951224
969, 17.38059028951224
969.5, 17.542525628027505
970, 17.542525628027505
970.5, 17.639686831136657
971, 17.639686831136657
971.5, 17.83400923735499
972, 17.83400923735499
972.5, 17.995944575870254
973, 17.995944575870254
973.5, 18.093105778979393
974, 18.093105778979393
974.5, 18.319815252900767
975, 18.319815252900767
975.5, 18.48175059141603
976, 18.48175059141603
976.5, 18.643685929931294
977, 18.643685929931294
977.5, 18.902782471555724
978, 19.19426608088321
978.5, 19.19426608088321
979, 19.388588487101515
979.5, 19.388588487101515
980, 19.485749690210667
980.5, 19.485749690210667
981, 19.58291089331982
981.5, 19.58291089331982
982, 19.615297961022875
982.5, 19.615297961022875
983, 19.874394502647306
983.5, 19.874394502647306
984, 19.939168638053403
984.5, 19.939168638053403
985, 20.003942773459514
985.5, 20.003942773459514
986, 20.198265179677847
986.5, 20.198265179677847
987, 20.489748789005304
987.5, 20.489748789005304
988, 20.619297059817512
988.5, 20.619297059817512
989, 20.748845330629734
989.5, 20.748845330629734
990, 20.748845330629734
990.5, 20.748845330629734
991, 20.781232398332776
991.5, 20.781232398332776
992, 20.846006533738887
992.5, 20.846006533738887
993, 20.910780669144998
993.5, 21.00794187225415
994, 21.00794187225415
994.5, 21.13749014306636
995, 21.13749014306636
995.5, 21.234651346175525
996, 21.234651346175525
996.5, 21.39658668469079
997, 21.39658668469079
997.5, 21.558522023206066
998, 21.558522023206066
998.5, 21.655683226315205
999, 21.655683226315205
999.5, 21.68807029401826
1000, 21.68807029401826
1000.5, 21.68807029401826
1001, 21.68807029401826
1001.5, 21.72045736172133
1002, 21.72045736172133
1002.5, 21.882392700236593
1003, 21.882392700236593
1003.5, 22.0767151064549
1004, 22.0767151064549
1004.5, 22.271037512673217
1005, 22.271037512673217
1005.5, 22.335811648079314
1006, 22.335811648079314
1006.5, 22.40058578348544
1007, 22.40058578348544
1007.5, 22.335811648079314
1008, 22.465359918891522
1008.5, 22.465359918891522
1009, 22.594908189703744
1009.5, 22.594908189703744
1010, 22.724456460515967
1010.5, 22.724456460515967
1011, 22.821617663625105
1011.5, 22.821617663625105
1012, 22.85400473132816
1012.5, 22.85400473132816
1013, 22.85400473132816
1013.5, 22.85400473132816
1014, 23.177875408358688
1014.5, 23.177875408358688
1015, 23.242649543764813
1015.5, 23.242649543764813
1016, 23.372197814577007
1016.5, 23.372197814577007
1017, 23.501746085389215
1017.5, 23.501746085389215
1018, 23.631294356201423
1018.5, 23.631294356201423
1019, 23.728455559310603
1019.5, 23.728455559310603
1020, 23.7932296947167
1020.5, 23.7932296947167
1021, 23.987552100935005
1021.5, 23.987552100935005
1022, 24.01993916863806
1022.5, 24.01993916863806
1023, 24.117100371747227
1023.5, 24.311422777965532
1024, 24.311422777965532
1024.5, 24.376196913371643
1025, 24.376196913371643
1025.5, 24.50574518418385
1026, 24.50574518418385
1026.5, 24.764841725808296
1027, 24.764841725808296
1027.5, 24.862002928917434
1028, 24.862002928917434
1028.5, 24.92677706432356
1029, 24.92677706432356
1029.5, 24.9591641320266
1030, 24.9591641320266
1030.5, 25.088712402838823
1031, 25.088712402838823
1031.5, 25.121099470541864
1032, 25.121099470541864
1032.5, 25.250647741354086
1033, 25.250647741354086
1033.5, 25.347808944463225
1034, 25.347808944463225
1034.5, 25.5745184183846
1035, 25.5745184183846
1035.5, 25.736453756899863
1036, 25.736453756899863
1036.5, 25.86600202771207
1037, 25.86600202771207
1037.5, 25.86600202771207
1038, 26.06032443393039
1038.5, 26.06032443393039
1039, 26.125098569336515
1039.5, 26.125098569336515
1040, 26.222259772445653
1040.5, 26.222259772445653
1041, 26.35180804325786
1041.5, 26.35180804325786
1042, 26.54613044947618
1042.5, 26.54613044947618
1043, 26.708065787991444
1043.5, 26.708065787991444
1044, 26.902388194209763
1044.5, 26.902388194209763
1045, 27.096710600428082
1045.5, 27.096710600428082
1046, 27.22625887124029
1046.5, 27.22625887124029
1047, 27.258645938943346
1047.5, 27.258645938943346
1048, 27.51774248056776
1048.5, 27.51774248056776
1049, 27.582516615973873
1049.5, 27.582516615973873
1050, 27.776839022192192
1050.5, 27.776839022192192
1051, 27.971161428410525
1051.5, 27.971161428410525
1052, 28.068322631519663
1052.5, 28.068322631519663
1053, 28.13309676692579
1053.5, 28.359806240847135
1054, 28.359806240847135
1054.5, 28.521741579362413
1055, 28.521741579362413
1055.5, 28.683676917877676
1056, 28.683676917877676
1056.5, 28.84561225639294
1057, 28.84561225639294
1057.5, 29.007547594908218
1058, 29.007547594908218
1058.5, 29.0723217303143
1059, 29.0723217303143
1059.5, 29.137095865720426
1060, 29.137095865720426
1060.5, 29.234257068829564
1061, 29.234257068829564
1061.5, 29.26664413653262
1062, 29.26664413653262
1062.5, 29.493353610454008
1063, 29.493353610454008
1063.5, 29.590514813563146
1064, 29.590514813563146
1064.5, 29.687676016672313
1065, 29.687676016672313
1065.5, 29.94677255829673
1066, 29.94677255829673
1066.5, 30.141094964515048
1067, 30.141094964515048
1067.5, 30.33541737073338
1068, 30.33541737073338
1068.5, 30.464965641545575
1069, 30.5297397769517
1069.5, 30.5297397769517
1070, 30.788836318576102
1070.5, 30.788836318576102
1071, 30.98315872479442
1071.5, 30.98315872479442
1072, 31.242255266418837
1072.5, 31.242255266418837
1073, 31.50135180804328
1073.5, 31.50135180804328
1074, 31.566125943449364
1074.5, 31.566125943449364
1075, 31.59851301115242
1075.5, 31.59851301115242
1076, 31.728061281964642
1076.5, 31.728061281964642
1077, 31.922383688182947
1077.5, 31.922383688182947
1078, 32.18148022980739
1078.5, 32.18148022980739
1079, 32.40818970372874
1079.5, 32.40818970372874
1080, 32.63489917765011
1080.5, 32.63489917765011
1081, 32.82922158386843
1081.5, 32.82922158386843
1082, 32.95876985468064
1082.5, 32.95876985468064
1083, 33.05593105778982
1083.5, 33.31502759941422
1084, 33.31502759941422
1084.5, 33.41218880252339
1085, 33.41218880252339
1085.5, 33.50935000563254
1086, 33.50935000563254
1086.5, 33.60651120874169
1087, 33.60651120874169
1087.5, 33.574124141038666
1088, 33.574124141038666
1088.5, 33.63889827644475
1089, 33.63889827644475
1089.5, 33.703672411850874
1090, 33.703672411850874
1090.5, 33.73605947955393
1091, 33.73605947955393
1091.5, 33.89799481806919
1092, 33.89799481806919
1092.5, 33.962768953475276
1093, 33.962768953475276
1093.5, 34.12470429199054
1094, 34.12470429199054
1094.5, 34.254252562802776
1095, 34.254252562802776
1095.5, 34.2866396305058
1096, 34.2866396305058
1096.5, 34.31902669820886
1097, 34.31902669820886
1097.5, 34.254252562802776
1098, 34.254252562802776
1098.5, 34.383800833614984
1099, 34.54573617213025
1099.5, 34.54573617213025
1100, 34.772445646051594
1100.5, 34.772445646051594
1101, 35.031542187676024
1101.5, 35.031542187676024
1102, 35.09631632308215
1102.5, 35.09631632308215
1103, 35.19347752619129
1103.5, 35.19347752619129
1104, 35.22586459389434
1104.5, 35.22586459389434
1105, 35.16109045848823
1105.5, 35.16109045848823
1106, 35.16109045848823
1106.5, 35.16109045848823
1107, 35.19347752619129
1107.5, 35.19347752619129
1108, 34.93438098456687
1108.5, 34.93438098456687
1109, 35.19347752619129
1109.5, 35.19347752619129
1110, 35.323025797003496
1110.5, 35.323025797003496
1111, 35.4525740678157
1111.5, 35.4525740678157
1112, 35.4525740678157
1112.5, 35.4525740678157
1113, 35.323025797003496
1113.5, 35.16109045848823
1114, 35.16109045848823
1114.5, 35.12870339078518
1115, 35.12870339078518
1115.5, 34.901993916863816
1116, 34.901993916863816
1116.5, 34.901993916863816
1117, 34.901993916863816
1117.5, 34.901993916863816
1118, 34.901993916863816
1118.5, 34.96676805226991
1119, 34.96676805226991
1119.5, 34.99915511997297
1120, 34.99915511997297
1120.5, 34.901993916863816
1121, 34.901993916863816
1121.5, 34.5781232398333
1122, 34.5781232398333
1122.5, 34.67528444294244
1123, 34.67528444294244
1123.5, 34.74005857834855
1124, 34.74005857834855
1124.5, 34.642897375239386
1125, 34.642897375239386
1125.5, 34.41618790131804
1126, 34.41618790131804
1126.5, 34.254252562802776
1127, 34.254252562802776
1127.5, 34.12470429199054
1128, 34.12470429199054
1128.5, 33.99515602117833
1129, 33.89799481806919
1129.5, 33.89799481806919
1130, 33.76844654725696
1130.5, 33.76844654725696
1131, 33.80083361496001
1131.5, 33.80083361496001
1132, 33.73605947955393
1132.5, 33.73605947955393
1133, 33.60651120874169
1133.5, 33.60651120874169
1134, 33.54173707333561
1134.5, 33.54173707333561
1135, 33.41218880252339
1135.5, 33.41218880252339
1136, 33.44457587022643
1136.5, 33.44457587022643
1137, 33.44457587022643
1137.5, 33.44457587022643
1138, 33.31502759941422
1138.5, 33.31502759941422
1139, 33.08831812549285
1139.5, 33.08831812549285
1140, 32.89399571927456
1140.5, 32.89399571927456
1141, 32.69967331305624
1141.5, 32.69967331305624
1142, 32.505350906837904
1142.5, 32.505350906837904
1143, 32.37580263602571
1143.5, 32.37580263602571
1144, 32.246254365213474
1144.5, 32.05193195899518
1145, 32.05193195899518
1145.5, 31.760448349667683
1146, 31.760448349667683
1146.5, 31.66328714655853
1147, 31.66328714655853
1147.5, 31.468964740340212
1148, 31.468964740340212
1148.5, 31.30702940182495
1149, 31.30702940182495
1149.5, 31.242255266418837
1150, 31.242255266418837
1150.5, 31.01554579249749
1151, 31.01554579249749
1151.5, 30.788836318576102
1152, 30.788836318576102
1152.5, 30.62690098006084
1153, 30.62690098006084
1153.5, 30.400191506139464
1154, 30.400191506139464
1154.5, 30.270643235327256
1155, 30.270643235327256
1155.5, 30.04393376140588
1156, 30.04393376140588
1156.5, 30.04393376140588
1157, 30.04393376140588
1157.5, 30.04393376140588
1158, 30.04393376140588
1158.5, 29.94677255829673
1159, 29.784837219781465
1159.5, 29.784837219781465
1160, 29.363805339641786
1160.5, 29.363805339641786
1161, 29.0723217303143
1161.5, 29.0723217303143
1162, 28.8132251886899
1162.5, 28.8132251886899
1163, 28.48935451165937
1163.5, 28.48935451165937
1164, 28.39219330855019
1164.5, 28.39219330855019
1165, 28.359806240847135
1165.5, 28.359806240847135
1166, 28.16548383462883
1166.5, 28.16548383462883
1167, 27.938774360707455
1167.5, 27.938774360707455
1168, 27.744451954489136
1168.5, 27.744451954489136
1169, 27.323420074349457
1169.5, 27.323420074349457
1170, 27.096710600428082
1170.5, 27.096710600428082
1171, 26.93477526191282
1171.5, 26.93477526191282
1172, 26.643291652585347
1172.5, 26.643291652585347
1173, 26.416582178663973
1173.5, 26.416582178663973
1174, 26.25464684014871
1174.5, 26.125098569336515
1175, 26.125098569336515
1175.5, 25.736453756899863
1176, 25.736453756899863
1176.5, 25.509744282978488
1177, 25.509744282978488
1177.5, 25.315421876760183
1178, 25.315421876760183
1178.5, 24.89438999662049
1179, 24.89438999662049
1179.5, 24.635293454996074
1180, 24.635293454996074
1180.5, 24.50574518418385
1181, 24.50574518418385
1181.5, 24.14948743945027
1182, 24.14948743945027
1182.5, 23.955165033231964
1183, 23.955165033231964
1183.5, 23.7932296947167
1184, 23.7932296947167
1184.5, 23.59890728849838
1185, 23.59890728849838
1185.5, 23.08071420524955
1186, 23.08071420524955
1186.5, 23.015940069843424
1187, 23.015940069843424
1187.5, 22.951165934437327
1188, 22.951165934437327
1188.5, 22.85400473132816
1189, 22.465359918891522
1189.5, 22.465359918891522
1190, 22.044328038751857
1190.5, 22.044328038751857
1191, 21.882392700236593
1191.5, 21.882392700236593
1192, 21.590909090909108
1192.5, 21.590909090909108
1193, 21.558522023206066
1193.5, 21.558522023206066
1194, 21.428973752393844
1194.5, 21.428973752393844
1195, 21.13749014306636
1195.5, 21.13749014306636
1196, 20.94316773684804
1196.5, 20.94316773684804
1197, 20.684071195223623
1197.5, 20.684071195223623
1198, 20.424974653599193
1198.5, 20.424974653599193
1199, 20.165878111974777
1199.5, 20.165878111974777
1200, 19.809620367241195
1200.5, 19.809620367241195
1201, 19.518136757913737
1201.5, 19.518136757913737
1202, 19.22665314858625
1202.5, 19.22665314858625
1203, 18.935169539258766
1203.5, 18.935169539258766
1204, 18.740847133040447
1204.5, 18.578911794525183
1205, 18.578911794525183
1205.5, 18.125492846682448
1206, 18.125492846682448
1206.5, 17.769235101948865
1207, 17.769235101948865
1207.5, 17.607299763433602
1208, 17.607299763433602
1208.5, 17.283429086403075
1209, 17.283429086403075
1209.5, 17.089106680184756
1210, 17.089106680184756
1210.5, 17.02433254477866
1211, 17.02433254477866
1211.5, 16.76523600315423
1212, 16.76523600315423
1212.5, 16.57091359693591
1213, 16.57091359693591
1213.5, 16.37659119071759
1214, 16.37659119071759
1214.5, 16.182268784499286
1215, 16.182268784499286
1215.5, 15.826011039765703
1216, 15.826011039765703
1216.5, 15.566914498141273
1217, 15.566914498141273
1217.5, 15.340205024219912
1218, 15.340205024219912
1218.5, 15.178269685704649
1219, 15.178269685704649
1219.5, 15.178269685704649
1220, 15.048721414892427
1220.5, 15.048721414892427
1221, 14.757237805564955
1221.5, 14.757237805564955
1222, 14.433367128534428
1222.5, 14.433367128534428
1223, 14.30381885772222
1223.5, 14.30381885772222
1224, 13.915174045285582
1224.5, 13.915174045285582
1225, 13.720851639067263
1225.5, 13.720851639067263
1226, 13.688464571364207
1226.5, 13.688464571364207
1227, 13.461755097442847
1227.5, 13.461755097442847
1228, 13.36459389433368
1228.5, 13.36459389433368
1229, 13.13788442041232
1229.5, 13.13788442041232
1230, 12.87878787878789
1231, 12.68446547256957
1231.5, 12.68446547256957
1232, 12.554917201757362
1232.5, 12.554917201757362
1233, 12.392981863242099
1233.5, 12.392981863242099
1234, 12.263433592429891
1234.5, 12.036724118508516
1235, 12.036724118508516
1235.5, 11.745240509181059
1236, 11.745240509181059
1236.5, 11.550918102962726
1237, 11.550918102962726
1237.5, 11.550918102962726
1238, 11.550918102962726
1238.5, 11.388982764447462
1239, 11.388982764447462
1239.5, 11.356595696744407
1240, 11.356595696744407
1240.5, 11.388982764447462
1241, 11.388982764447462
1241.5, 11.29182156133831
1242, 11.29182156133831
1242.5, 11.09749915511999
1243, 11.09749915511999
1243.5, 11.162273290526088
1244, 11.162273290526088
1244.5, 11.227047425932213
1245, 11.227047425932213
1245.5, 11.324208629041351
1246, 11.324208629041351
1246.5, 11.259434493635254
1247, 11.259434493635254
1247.5, 11.259434493635254
1248, 11.259434493635254
1248.5, 11.259434493635254
1249, 11.259434493635254
1249.5, 11.194660358229143
1250, 11.000337952010824
1250.5, 11.000337952010824
1251, 10.967950884307783
1251.5, 10.967950884307783
1252, 10.967950884307783
1252.5, 10.967950884307783
1253, 10.903176748901686
1253.5, 10.903176748901686
1254, 10.870789681198616
1254.5, 10.870789681198616
1255, 10.708854342683352
1255.5, 10.708854342683352
1256, 10.741241410386408
1256.5, 10.741241410386408
1257, 10.773628478089464
1257.5, 10.773628478089464
1258, 10.773628478089464
1258.5, 10.773628478089464
1259, 10.741241410386408
1259.5, 10.741241410386408
1260, 10.83840261349556
1260.5, 10.83840261349556
1261, 10.773628478089464
1261.5, 10.773628478089464
1262, 10.676467274980297
1262.5, 10.676467274980297
1263, 10.546919004168089
1263.5, 10.546919004168089
1264, 10.482144868761978
1264.5, 10.482144868761978
1265, 10.482144868761978
1265.5, 10.417370733355881
1266, 10.417370733355881
1266.5, 10.38498366565284
1267, 10.38498366565284
1267.5, 10.287822462543673
1267.9999999999998, 10.287822462543673
1268.5, 10.223048327137576
1269, 10.223048327137576
1269.5, 10.38498366565284
1269.9999999999998, 10.38498366565284
1270.5, 10.38498366565284
1271, 10.38498366565284
1271.5, 10.417370733355881
1271.9999999999998, 10.417370733355881
1272.5, 10.482144868761978
1273, 10.482144868761978
1273.5, 10.482144868761978
1273.9999999999998, 10.482144868761978
1274.5, 10.38498366565284
1275, 10.38498366565284
1275.5, 10.287822462543673
1275.9999999999998, 10.287822462543673
1276.5, 10.223048327137576
1277, 10.223048327137576
1277.5, 10.15827419173145
1277.9999999999998, 10.15827419173145
1278.5, 10.15827419173145
1279, 10.15827419173145
1279.5, 10.190661259434506
1279.9999999999998, 10.223048327137576
1280.5, 10.223048327137576
1281, 10.287822462543673
1281.5, 10.287822462543673
1281.9999999999998, 10.38498366565284
1282.5, 10.38498366565284
1283, 10.482144868761978
1283.5, 10.482144868761978
1283.9999999999998, 10.546919004168089
1284.5, 10.546919004168089
1285, 10.6116931395742
1285.5, 10.6116931395742
1285.9999999999998, 10.644080207277241
1286.5, 10.644080207277241
1287, 10.449757801058936
1287.5, 10.449757801058936
1287.9999999999998, 10.514531936465033
1288.5, 10.514531936465033
1289, 10.6116931395742
1289.5, 10.6116931395742
1289.9999999999998, 10.773628478089464
1290.5, 10.773628478089464
1291, 10.806015545792505
1291.5, 10.806015545792505
1291.9999999999998, 10.83840261349556
1292.5, 10.83840261349556
1293, 10.708854342683352
1293.5, 10.708854342683352
1293.9999999999998, 10.935563816604727
1294.5, 10.935563816604727
1295, 10.967950884307783
1295.5, 10.967950884307783
1295.9999999999998, 10.967950884307783
1296.5, 10.903176748901686
1297, 10.903176748901686
1297.5, 10.773628478089464
1297.9999999999998, 10.773628478089464
1298.5, 10.676467274980297
1299, 10.676467274980297
1299.5, 10.579306071871144
1299.9999999999998, 10.579306071871144
1300.5, 10.482144868761978
1301, 10.482144868761978
1301.5, 10.449757801058936
1302, 10.449757801058936
1302.5, 10.38498366565284
1303, 10.38498366565284
1303.5, 10.38498366565284
1304, 10.38498366565284
1304.5, 10.35259659794977
1305, 10.35259659794977
1305.5, 10.287822462543673
1306, 10.287822462543673
1306.5, 10.093500056325354
1307, 10.093500056325354
1307.5, 9.899177650107035
1308, 9.899177650107035
1308.5, 9.899177650107035
1309, 9.899177650107035
1309.5, 9.996338853216187
1310, 9.86679058240398
1310.5, 9.86679058240398
1311, 9.834403514700924
1311.5, 9.834403514700924
1312, 9.802016446997868
1312.5, 9.802016446997868
1313, 9.769629379294827
1313.5, 9.769629379294827
1314, 9.575306973076508
1314.5, 9.575306973076508
1315, 9.542919905373466
1315.5, 9.542919905373466
1316, 9.542919905373466
1316.5, 9.542919905373466
1317, 9.737242311591771
1317.5, 9.737242311591771
1318, 9.769629379294827
1318.5, 9.769629379294827
1319, 9.834403514700924
1319.5, 9.834403514700924
1320, 9.899177650107035
1320.5, 9.899177650107035
1321, 9.899177650107035
1321.5, 9.899177650107035
1322, 9.963951785513132
1322.5, 9.963951785513132
1323, 9.996338853216187
1323.5, 9.996338853216187
1324, 9.802016446997868
1324.5, 9.802016446997868
1325, 9.67246817618566
1325.5, 9.607694040779563
1326, 9.607694040779563
1326.5, 9.737242311591771
1327, 9.737242311591771
1327.5, 9.86679058240398
1328, 9.86679058240398
1328.5, 9.834403514700924
1329, 9.834403514700924
1329.5, 9.737242311591771
1330, 9.737242311591771
1330.5, 9.769629379294827
1331, 9.769629379294827
1331.5, 9.704855243888716
1332, 9.704855243888716
1332.5, 9.704855243888716
1333, 9.704855243888716
1333.5, 9.802016446997868
1334, 9.802016446997868
1334.5, 9.769629379294827
1335, 9.769629379294827
1335.5, 9.802016446997868
1336, 9.802016446997868
1336.5, 9.86679058240398
1337, 9.86679058240398
1337.5, 9.737242311591771
1338, 9.737242311591771
1338.5, 9.769629379294827
1339, 9.769629379294827
1339.5, 9.769629379294827
1340, 9.737242311591771
1340.5, 9.737242311591771
1341, 9.802016446997868
1341.5, 9.802016446997868
1342, 9.834403514700924
1342.5, 9.834403514700924
1343, 9.86679058240398
1343.5, 9.86679058240398
1344, 9.640081108482605
1344.5, 9.640081108482605
1345, 9.640081108482605
1345.5, 9.640081108482605
1346, 9.640081108482605
1346.5, 9.640081108482605
1347, 9.607694040779563
1347.5, 9.607694040779563
1348, 9.607694040779563
1348.5, 9.607694040779563
1349, 9.575306973076508
1349.5, 9.575306973076508
1350, 9.478145769967341
1350.5, 9.478145769967341
1351, 9.478145769967341
1351.5, 9.478145769967341
1352, 9.478145769967341
1352.5, 9.478145769967341
1353, 9.510532837670397
1353.5, 9.510532837670397
1354, 9.413371634561244
1354.5, 9.413371634561244
1355, 9.219049228342925
1355.5, 9.154275092936814
1356, 9.154275092936814
1356.5, 9.18666216063987
1357, 9.18666216063987
1357.5, 9.380984566858203
1358, 9.380984566858203
1358.5, 9.575306973076508
1359, 9.575306973076508
1359.5, 9.607694040779563
1360, 9.607694040779563
1360.5, 9.413371634561244
1361, 9.413371634561244
1361.5, 9.316210431452078
1362, 9.316210431452078
1362.5, 9.348597499155133
1363, 9.348597499155133
1363.5, 9.542919905373466
1364, 9.542919905373466
1364.5, 9.575306973076508
1365, 9.575306973076508
1365.5, 9.413371634561244
1366, 9.413371634561244
1366.5, 9.316210431452078
1367, 9.316210431452078
1367.5, 9.089500957530717
1368, 9.089500957530717
1368.5, 9.154275092936814
1369, 9.154275092936814
1369.5, 9.18666216063987
1370, 9.18666216063987
1370.5, 9.478145769967341
1371, 9.510532837670397
1371.5, 9.510532837670397
1372, 9.510532837670397
1372.5, 9.510532837670397
1373, 9.510532837670397
1373.5, 9.510532837670397
1374, 9.575306973076508
1374.5, 9.575306973076508
1375, 9.737242311591771
1375.5, 9.737242311591771
1376, 9.640081108482605
1376.5, 9.640081108482605
1377, 9.542919905373466
1377.5, 9.542919905373466
1378, 9.542919905373466
1378.5, 9.542919905373466
1379, 9.575306973076508
1379.5, 9.575306973076508
1380, 9.640081108482605
1380.5, 9.640081108482605
1381, 9.769629379294827
1381.5, 9.769629379294827
1382, 9.86679058240398
1382.5, 9.86679058240398
1383, 9.834403514700924
1383.5, 9.834403514700924
1384, 9.575306973076508
1384.5, 9.575306973076508
1385, 9.478145769967341
1385.5, 9.4457587022643
1386, 9.4457587022643
1386.5, 9.478145769967341
1387, 9.478145769967341
1387.5, 9.607694040779563
1388, 9.607694040779563
1388.5, 9.704855243888716
1389, 9.704855243888716
1389.5, 9.704855243888716
1390, 9.704855243888716
1390.5, 9.607694040779563
1391, 9.607694040779563
1391.5, 9.510532837670397
1392, 9.510532837670397
1392.5, 9.704855243888716
1393, 9.704855243888716
1393.5, 9.737242311591771
1394, 9.737242311591771
1394.5, 9.769629379294827
1395, 9.769629379294827
1395.5, 9.737242311591771
1396, 9.737242311591771
1396.5, 9.67246817618566
1397, 9.67246817618566
1397.5, 9.380984566858203
1398, 9.380984566858203
1398.5, 9.348597499155133
1399, 9.348597499155133
1399.5, 9.316210431452078
1400, 9.316210431452078
