298, 56.47358660807291
298.5, 56.44267236936989
299, 56.390056727669794
299.5, 56.42787419883971
300, 56.51155983728947
300.5, 56.531730945619145
301, 56.563333596440806
301.5, 56.620750711633015
302, 56.68560432922779
303, 56.79963821924092
303.5, 56.82864660268969
304, 56.84182023529274
304.5, 56.862235301897144
305, 56.90184411530262
305.5, 56.962665275858086
306, 57.03138326421612
306.5, 57.0962793918572
307, 57.15569166315031
307.5, 57.20272494780287
308, 57.22898742031521
308.5, 57.26737236696552
309, 57.34970742503249
309.5, 57.42060082475903
310, 57.448831630077514
310.5, 57.48908138188375
311, 57.55830238272634
311.5, 57.628518842683064
312, 57.68905306409514
312.5, 57.73983509701865
313, 57.78408053862411
313.5, 57.839898791707434
314, 57.94996750695594
314.5, 58.10246414223061
315, 58.23713772200652
315.5, 58.36415256728143
316, 58.513257476952745
316.5, 58.645655008120904
317, 58.71929865740978
317.5, 58.72042373747537
318, 58.680531757668696
318.5, 58.66271817844749
319, 58.644487827485406
319.5, 58.587112680003735
320, 58.562275137738226
320.5, 58.612159168260305
321, 58.672080263689786
321.5, 58.717219798585994
322, 58.774170541906635
322.5, 58.870163423799326
323, 59.015042402752165
323.5, 59.15349937020441
324, 59.24972877605527
324.5, 59.33549479429335
325, 59.43339941593803
325.5, 59.54235653237143
326, 59.600541913417004
326.5, 59.550430710396135
327, 59.471202967594664
327.5, 59.44529355621155
328, 59.49500293736028
328.5, 59.6004928808578
329, 59.70778259738397
329.5, 59.76933209811767
330, 59.76664757380504
330.5, 59.77940581842832
331, 59.85940653097984
331.5, 59.959282631403326
332, 60.03739375314047
332.5, 60.07503972613813
333, 60.106822873433174
333.5, 60.17804147735019
334, 60.271171071198765
334.5, 60.35616722479783
335, 60.410638491975526
335.5, 60.45544777675577
336, 60.543271050163206
336.5, 60.64113280137939
337, 60.69452951139142
337.5, 60.738367997321326
338, 60.80332231653564
338.5, 60.87040431000808
339, 60.933675725036096
339.5, 61.00273441414463
340, 61.06267830732947
340.5, 61.101754633891034
341, 61.17059415788894
341.5, 61.288346613588175
342, 61.38683787996778
342.5, 61.44438155675058
343, 61.49233548848233
343.5, 61.54062152904525
344, 61.588138239003804
344.5, 61.63785718371346
345, 61.698221569924705
345.5, 61.78486132354608
346, 61.88438714236281
346.5, 61.959405721914756
347, 62.018637944275525
347.5, 62.090412592322494
348, 62.185722938932514
348.5, 62.28977222960759
349, 62.35026508393413
349.5, 62.392425102541594
350, 62.505476388561746
350.5, 62.63736000289611
351, 62.697522779268475
351.5, 62.73161566125033
352, 62.79251490727206
352.5, 62.88188437145473
353, 62.98058576612899
353.5, 63.05824995249811
354, 63.11501718013766
354.5, 63.16975582878706
355, 63.25280850359417
355.5, 63.36903572424404
356, 63.471021132680875
356.5, 63.54679744670535
357, 63.622780749443486
357.5, 63.70560724223825
358, 63.78949978250221
358.5, 63.86273623585886
359, 63.924687073070814
359.5, 63.99754261503283
360, 64.080092399685
360.5, 64.14910535798784
361, 64.21154888588737
361.5, 64.28620380170096
362, 64.37611689110449
362.5, 64.47438021886981
363, 64.56328196996286
363.5, 64.6416312512281
364, 64.72558312674843
364.5, 64.83038959304206
365, 64.96067432912051
365.5, 65.08272755929276
366, 65.16762875206534
366.5, 65.21508187682257
367, 65.26086803125587
367.5, 65.36166527326006
368, 65.47683847872285
368.5, 65.54382385832105
369, 65.60917103816858
369.5, 65.7077877460743
370, 65.80242138007478
370.5, 65.87972682438593
371, 65.95657810013643
371.5, 66.03907278861209
372, 66.12926059862625
372.5, 66.2371172616859
373, 66.35524373571953
373.5, 66.44155883114625
374, 66.5003050705023
374.5, 66.58000265709819
375, 66.68588000971802
375.5, 66.80056991584733
376, 66.90789328654276
376.5, 66.992877366194
377, 67.04398198603633
377.5, 67.08922797470593
378, 67.1852280669616
378.5, 67.3043513287622
379, 67.39251750486335
379.5, 67.46169778791507
380, 67.53790207363866
380.5, 67.64134082129965
381, 67.75705219258703
381.5, 67.84359972493645
382, 67.92276541714844
382.5, 68.032467989108
383, 68.14633307019457
383.5, 68.24224041964499
384, 68.33574426193117
384.5, 68.43292500410813
385, 68.52775793674498
385.5, 68.62568433576979
386, 68.7351000779436
386.5, 68.85219543244149
387, 68.96723870846711
387.5, 69.06611399685123
388, 69.16067353221982
388.5, 69.28272804373523
389, 69.41299144518463
389.5, 69.51676915853484
390, 69.601934169262
390.5, 69.68215372554963
391, 69.76206378876147
391.5, 69.84253465170362
392, 69.9221585116339
392.5, 70.00312175788754
393, 70.08634669696428
393.5, 70.16069569106487
394, 70.23365365237736
394.5, 70.35110978799669
395, 70.5026093662743
395.5, 70.6290054648386
396, 70.76280336161393
396.5, 70.94937275868692
397, 71.09972093994223
397.5, 71.17189612203124
398, 71.27135995444837
398.5, 71.40844609802953
399, 71.49605369685305
399.5, 71.54919832623918
400, 71.62229493380194
400.5, 71.71383107511453
401, 71.81085276632818
401.5, 71.90535776221766
402, 72.0014425724283
402.5, 72.11165890914563
403, 72.2242966933661
403.5, 72.32242260184896
404, 72.41722215295951
404.5, 72.51550532069771
405, 72.60339556947024
405.5, 72.68184795203314
406, 72.7677787877294
406.5, 72.8709822674346
407, 72.98917714557376
407.5, 73.08860441228224
408, 73.16262668521388
408.5, 73.26790661139829
409, 73.40265749472064
409.5, 73.50933646950193
410, 73.60185587745404
410.5, 73.7153763835991
411, 73.82275891961613
411.5, 73.91334952852183
412, 74.03445670528384
412.5, 74.184872051163
413, 74.3169294928851
413.5, 74.44560323511527
414, 74.60360379385888
414.5, 74.76573211279215
415, 74.91038138039588
415.5, 75.04889380072736
416, 75.17679701444297
416.5, 75.27587377738158
417, 75.37311838013976
417.5, 75.50137760595983
418, 75.6263828089166
418.5, 75.72258685738319
419, 75.81172047456946
419.5, 75.90918789681976
420, 76.02027180915519
420.5, 76.16072606609903
421, 76.33300525235032
421.5, 76.46684105170807
422, 76.53886593361588
422.5, 76.64505801790747
423, 76.81620706565995
423.5, 77.00656907326267
424, 77.1726487874606
424.5, 77.29009239719409
425, 77.39823490709719
425.5, 77.52711049599249
426, 77.6601420258956
426.5, 77.78779280470567
427, 77.91309696570971
427.5, 78.04415602071172
428, 78.18733109441654
428.5, 78.33334463677207
429, 78.47678776566616
429.5, 78.6266415847652
430, 78.78894495848712
430.5, 78.96397735240824
431, 79.14091084919052
431.5, 79.30641578289294
432, 79.4587858610409
432.5, 79.60264075676375
433, 79.74857385612503
433.5, 79.89360768041284
434, 80.02400832357556
434.5, 80.1526953580949
435, 80.2971912323442
435.5, 80.43989115404264
436, 80.5680675752592
436.5, 80.69408309229819
437, 80.823210491149
437.5, 80.95163883394189
438, 81.08039901604943
438.5, 81.21082889926123
439, 81.3352692125514
439.5, 81.44846890162815
440, 81.55433173215079
440.5, 81.66699416953111
441, 81.80530974882122
441.5, 81.95201759353425
442, 82.08192249993303
442.5, 82.21001393375512
443, 82.35282745075811
443.5, 82.51077721741247
444, 82.67259634209171
444.5, 82.82058770761229
445, 82.9642137891583
445.5, 83.12116855361384
446, 83.2873566031021
446.5, 83.44054105897669
447, 83.53771929283728
447.5, 83.6113484344329
448, 83.75128162010044
448.5, 83.89143813721645
449, 83.93836444304846
449.5, 84.00096291097914
450, 84.14001034635709
450.5, 84.23771406306149
451, 84.2915807787812
451.5, 84.41337138749557
452, 84.56655070052268
452.5, 84.66900140884216
453, 84.76026626749159
453.5, 84.87494208074132
454, 84.98328876814325
454.5, 85.07697192891395
455, 85.17544162923986
455.5, 85.29759981881583
456, 85.44784287452727
456.5, 85.57784167572714
457, 85.65873744757621
457.5, 85.72193902452267
458, 85.78649791787984
458.5, 85.8546866230184
459, 85.94391189790237
459.5, 86.06318708350476
460, 86.15844221500546
460.5, 86.20365324235534
461, 86.25344482151506
461.5, 86.33881422262922
462, 86.45489149458905
462.5, 86.56218669563681
463, 86.62622733840459
463.5, 86.69621668100511
464, 86.79787502272762
464.5, 86.87629440441229
465, 86.91822695596055
465.5, 86.95540541302023
466, 86.98319437098294
466.5, 86.99717148212068
467, 87.06754450995477
467.5, 87.20780798578554
468, 87.29539644461815
468.5, 87.3146296009434
469, 87.36070186674203
469.5, 87.46227612509539
470, 87.59990881747758
470.5, 87.70650959089683
471, 87.75207195990208
471.5, 87.7957312964586
472, 87.84665811471865
472.5, 87.86917171871264
473, 87.94035415877799
473.5, 88.13634760727463
474, 88.3077336641091
474.5, 88.36509394575604
475, 88.4307520018177
475.5, 88.5354272086827
476, 88.60864813534688
476.5, 88.67067995437584
477, 88.76726109337271
477.5, 88.858743591418
478, 88.93032111299568
478.5, 89.04856895190939
479, 89.18369978074274
479.5, 89.22646425390806
480, 89.26120201039114
480.5, 89.40685864760117
481, 89.53498606412973
481.5, 89.56118294276646
482, 89.59341394453403
482.5, 89.66532258756453
483, 89.72368594052999
483.5, 89.76674795146616
484, 89.80889897832957
484.5, 89.82071781494164
485, 89.81921628601889
485.5, 89.922645400344
486, 90.11684839079692
486.5, 90.25687194388935
487, 90.2716812945694
487.5, 90.1571817227923
488, 90.0139545225707
488.5, 89.90588437480646
489, 89.78300505075404
489.5, 89.65081537665077
490, 89.5702530077928
490.5, 89.51245769670871
491, 89.42191261459249
491.5, 89.31826643765048
492, 89.22265598204689
492.5, 89.12457463994957
493, 89.0102732264937
493.5, 88.86761577336897
494, 88.69587997733414
494.5, 88.50346617890806
495, 88.31188256071707
495.5, 88.12435535355928
496, 87.90563904251836
496.5, 87.65938574337305
497, 87.42621741448247
497.5, 87.2054148880502
498, 86.98043512055003
498.5, 86.75641310632328
499, 86.53402561203096
499.50000000000006, 86.29614730039992
500, 86.0358303961183
500.5, 85.75975993127177
501.00000000000006, 85.49006123058878
501.5, 85.24068443235674
502, 84.96557681092246
502.5, 84.64216031741539
503, 84.31799218937897
503.5, 84.01624896822514
504, 83.7280580879918
504.5, 83.43726017838175
505.00000000000006, 83.13201421526031
505.5, 82.82858686910166
506, 82.53915265645065
506.5, 82.25533549558791
507, 81.96570089258296
507.5, 81.66101534717248
508, 81.35686696428496
508.5, 81.0699847714964
509.00000000000006, 80.77395100413393
509.5, 80.45218826217395
510, 80.1256696868126
510.50000000000006, 79.80538771784009
511, 79.48789443830836
511.5, 79.16353487812535
512, 78.82576627769241
512.5, 78.49078409261749
513, 78.16944171606507
513.5, 77.8530215387681
514, 77.5486560691269
514.5, 77.27484798492085
515, 76.9991920426353
515.5, 76.68779810589497
516, 76.39957913257422
516.5, 76.16347801109646
517, 75.91274524027372
517.5, 75.63407510907854
518, 75.37269259039606
518.5, 75.14469167445927
519, 74.93586010045054
519.5, 74.67654068748354
520, 74.35796465689991
520.5, 74.10502053868628
521, 73.9264786618646
521.5, 73.71772381654839
522, 73.48583812416173
522.5, 73.28247845021814
523, 73.10712392631198
523.5, 72.93632321005143
524, 72.72982510771405
524.5, 72.49957445566469
525, 72.30506696885689
525.5, 72.16584396746669
526, 72.06486527530618
526.5, 71.92534765714024
527, 71.72369211707627
527.5, 71.55927811710718
528, 71.45760984003479
528.5, 71.36212869523139
529, 71.23765738611523
529.5, 71.0756095462418
530, 70.92191879131175
530.5, 70.7977764303669
531, 70.65554403332374
531.5, 70.49022040021141
532, 70.34227534737666
532.5, 70.22613952711012
533, 70.13403258690442
533.5, 70.0265647515831
534, 69.89247715387211
534.5, 69.78442102827317
535, 69.6927874801723
535.5, 69.55377716488084
536, 69.41066903470846
536.5, 69.32820615471827
537, 69.2445925837759
537.5, 69.12492656099319
538, 69.03899609833282
538.5, 68.99904764553008
539, 68.95593930507582
539.5, 68.90546307185531
540, 68.86005538379226
540.5, 68.80539588313434
541, 68.7380845097224
541.5, 68.68558234628225
542, 68.63978082567817
542.5, 68.56288675458173
543, 68.48359270338062
543.5, 68.44553140097665
544, 68.42032881244285
544.5, 68.38580106320566
545, 68.362703060207
545.5, 68.34886333618047
546, 68.31976378755567
546.5, 68.28726672166505
547, 68.27144568278152
547.5, 68.2527180615694
548, 68.2191192213393
548.5, 68.190318728806
549, 68.1764719926569
549.5, 68.17445970433153
550, 68.17510899258303
550.5, 68.16645037140565
551, 68.13643763654588
551.5, 68.0864407779464
552, 68.04212292689758
552.5, 68.01240147364996
553, 67.98914409296049
553.5, 67.97833646302641
554, 67.98901888009237
554.5, 68.01369293571994
555, 68.04499886262425
555.5, 68.0827183279456
556, 68.11478506276606
556.5, 68.12132721813578
557, 68.11897161663259
557.5, 68.13292144949241
558, 68.15112003050633
558.5, 68.16525018302069
559, 68.18925579245729
559.5, 68.20581635898145
560, 68.1756291451155
560.5, 68.14705389521926
561, 68.18463687158612
561.5, 68.24633611431102
562, 68.29356622942568
562.5, 68.34204366395184
563, 68.40852355468854
563.5, 68.49898390383893
564, 68.5692513221684
564.5, 68.57009999769434
565, 68.52772419953263
565.5, 68.48805600391016
566, 68.49774380532686
566.5, 68.55406545953264
567, 68.61056533976105
567.5, 68.65359227268269
568, 68.68717535241892
568.5, 68.71723885710108
569, 68.7488265309252
569.5, 68.78412958581941
570, 68.8162771148433
570.5, 68.83324349326297
571, 68.8502332424577
571.5, 68.88460499441673
572, 68.90992848832006
572.5, 68.90950277667619
573, 68.90391909837813
573.5, 68.90494257632098
574, 68.91275586351296
574.5, 68.93466423530695
575, 68.97777948330076
575.5, 69.03388338309918
576, 69.07587484443246
576.5, 69.0515489081028
577, 68.97767815005294
577.5, 68.93044163203935
578, 68.90567293341925
578.5, 68.87129395971954
579, 68.84539970752519
579.5, 68.83379720693834
580, 68.79895575794077
580.5, 68.74665837005581
581, 68.72407122778763
581.5, 68.73779809301467
582, 68.7657148813006
582.5, 68.75651346115494
583, 68.71137013578908
583.5, 68.73694771553433
584, 68.83066236505385
584.5, 68.88427936853853
585, 68.87755581039559
585.5, 68.83513953832166
586, 68.77833548432646
586.5, 68.72685579146491
587, 68.69868533928296
587.5, 68.70328597393514
588, 68.74029975794272
588.5, 68.79445409438434
589, 68.84625691881145
589.5, 68.8875631880078
590, 68.9085510449399
590.5, 68.8927350490146
591, 68.85625020485793
591.5, 68.84209144276802
592, 68.85003226836646
592.5, 68.85772148351586
593, 68.84230612543273
593.5, 68.79494596878303
594, 68.73277099997645
594.5, 68.66808218492264
595, 68.60253801092696
595.5, 68.51071772829411
596, 68.38145932995305
596.5, 68.30781043884664
597, 68.3295770026701
597.5, 68.34393359671631
598, 68.30308000474676
598.5, 68.22788244814296
599, 68.14586226018498
599.5, 68.07320473239227
600, 67.97578435133346
600.5, 67.8427992924494
601, 67.72695289492626
601.5, 67.63542854249046
602, 67.5300501087707
602.5, 67.41433346076386
603, 67.3102729137392
603.5, 67.22795351493853
604, 67.15430090818859
604.5, 67.04163834212218
605, 66.90750413060682
605.5, 66.82180942157635
606, 66.73957465913178
606.5, 66.58894696402089
607, 66.41625923949897
607.5, 66.26936200014126
608, 66.14602636658293
608.5, 66.03576348663272
609, 65.92385769223084
609.5, 65.78288196071026
610, 65.60543386734321
610.5, 65.48336737535246
611, 65.44589018552225
611.5, 65.36701252339245
612, 65.2265266916086
612.5, 65.11172909341185
613, 65.02506053035427
613.5, 64.93253398468362
614, 64.82943448670771
614.5, 64.7177319288324
615, 64.59923914854213
615.5, 64.48698336831916
616, 64.39799199742681
616.5, 64.2933380233628
617, 64.13852654822725
617.5, 64.02098163832507
618, 63.98021899820884
618.5, 63.91606799176622
619, 63.79380324467203
619.5, 63.655191534732985
620, 63.53477416004799
620.5, 63.455732412668105
621, 63.41726793233889
621.5, 63.403476555675006
622, 63.382251230077
622.5, 63.34750950293176
623, 63.31443276776501
623.5, 63.2538036105187
624, 63.13345489215094
624.5, 62.994965139513134
625, 62.879191570456186
625.5, 62.79261809894073
626, 62.73231901257456
626.5, 62.68818466835151
627, 62.63568969009294
627.5, 62.55591792766983
628, 62.47773822722272
628.5, 62.42687801749694
629, 62.400865204432534
629.5, 62.36949672950737
630, 62.290292521458625
630.5, 62.21437873175425
631, 62.19632412002826
631.5, 62.12803253881891
632, 61.96932120470226
632.5, 61.870646474698994
633, 61.836594639838175
633.5, 61.73278795299985
634, 61.594666074697294
634.5, 61.51490946995671
635, 61.4748437335704
635.5, 61.44271040924379
636, 61.411253173349984
636.5, 61.36137033941913
637, 61.26818856795275
637.5, 61.173697361363914
638, 61.13702008741098
638.5, 61.156399832471045
639, 61.19666636544632
639.5, 61.19063914088569
640, 61.13328379269702
640.5, 61.077305303436944
641, 61.03362112229269
641.5, 60.99591145915006
642, 60.97479002939256
642.5, 60.96422921709588
643, 60.92209069887767
643.5, 60.852279556578
644, 60.79961572600563
644.5, 60.75219320437944
645, 60.68468060479434
645.5, 60.629733074685554
646, 60.60160148754644
646.5, 60.556691702641714
647, 60.48791382844708
647.5, 60.42453474079147
648, 60.3582785780139
648.5, 60.27961828672844
649, 60.24676457078076
649.5, 60.282511368665936
650, 60.31674616421038
650.5, 60.328321177396745
651, 60.344841264965176
651.5, 60.3305910226109
652, 60.2487003342479
652.5, 60.17937512681278
653, 60.167918646083045
653.5, 60.14595685858677
654, 60.091939603199094
654.5, 60.0380475864502
655, 59.99340075068065
655.5, 59.95660508263061
656, 59.93335807523029
656.5, 59.919890362622326
657, 59.89316503503805
657.5, 59.858883249980266
658, 59.84535810968229
658.5, 59.82469407792543
659, 59.76170863096473
659.5, 59.69989993438192
660, 59.66908744905884
660.5, 59.641089694016635
661, 59.62519973759617
661.5, 59.66263289582424
662, 59.713541532369476
662.5, 59.71484726601154
663, 59.66906113548055
663.5, 59.60147688334507
664, 59.55000187422452
664.5, 59.539617214151534
665, 59.57690170354907
665.5, 59.62941768000586
666, 59.65598398359513
666.5, 59.65360798083463
667, 59.62488797435882
667.5, 59.56707006369154
668, 59.50032868824188
668.5, 59.46077213616953
669, 59.4311496667838
669.5, 59.38204884426661
670, 59.338391505048655
670.5, 59.32113099212967
671, 59.319915556590175
671.5, 59.32054305162306
672, 59.31018473601636
672.5, 59.29090876004434
673, 59.27191700660545
673.5, 59.26174317883315
674, 59.26217044927935
674.5, 59.26395610911237
675, 59.28114795766534
675.5, 59.34237760192174
676, 59.40440918441373
676.5, 59.41243910611456
677, 59.402352852632816
677.5, 59.40425030295979
678, 59.397873548906944
678.5, 59.36189286571324
679, 59.28754236071484
679.5, 59.2348387918077
680, 59.262113800730255
680.5, 59.29490433413666
681, 59.27809285127689
681.5, 59.2503218803942
682, 59.25398344634761
682.5, 59.315159445178224
683, 59.3761598930431
683.5, 59.363675441655545
684, 59.2997831813339
684.5, 59.24008490095474
685, 59.256110336100214
685.5, 59.33201215697194
686, 59.378852886403884
686.5, 59.40435776765164
687, 59.450040774404464
687.5, 59.50041295619205
688, 59.52436054018094
688.5, 59.48953036883176
689, 59.41781642735876
689.5, 59.376131725050186
690, 59.37589905495629
690.5, 59.40190300921635
691, 59.44441759806092
691.5, 59.493685448935324
692, 59.537601623092165
692.5, 59.567847849748695
693, 59.57778332063958
693.5, 59.54302860409181
694, 59.4493704587638
694.5, 59.35383602673045
695, 59.31265961162655
695.5, 59.34687783821678
696, 59.41914258068946
696.5, 59.451619102265894
697, 59.46029237838403
697.5, 59.49067456330284
698, 59.52319831280752
698.5, 59.52867937217286
699, 59.49079099866824
699.5, 59.43852014329814
700, 59.43571377827645
700.5, 59.4895087635091
701, 59.573630309282684
701.5, 59.64336593361777
702, 59.67566086220057
702.5, 59.694527247863675
703, 59.710464244116956
703.5, 59.716949964289554
704, 59.71281472683694
704.5, 59.69965720621871
705, 59.67857113620682
705.5, 59.66931741790837
706, 59.72247958043986
706.5, 59.81094536931495
707, 59.84032648039735
707.5, 59.79591779047161
708, 59.71615863008939
708.5, 59.687344005908315
709, 59.75112867626556
709.5, 59.8463639574244
710, 59.907038445712786
710.5, 59.884568628271225
711, 59.82447740744167
711.5, 59.79776881998461
712, 59.799208515323926
712.5, 59.813788969773576
713, 59.84135219297387
713.5, 59.87475069458321
714, 59.90205641463286
714.5, 59.93889647201722
715, 59.99692354684422
715.5, 60.02206633149491
716, 59.98808673768911
716.5, 59.94745307032544
717, 59.93543649302757
717.5, 59.95913621879249
718, 59.99469330485191
718.5, 60.01373641384548
719, 60.025711990521934
719.5, 60.0311818618368
720, 60.00088444705461
720.5, 59.965428603313924
721, 59.99965589513248
721.5, 60.05078409325925
722, 60.04473852900202
722.5, 60.0646962421567
723, 60.153021846496635
723.5, 60.21190293225235
724.0000000000001, 60.200589694266114
724.5, 60.1490933989031
725, 60.106160652385874
725.5, 60.111808841394435
726, 60.14395874950966
726.5000000000001, 60.17677224663535
727, 60.20498891009504
727.5, 60.23715044404129
728, 60.28790158979365
728.5, 60.33201475858983
729, 60.34418809044358
729.5, 60.37218575780292
730, 60.43999854035969
730.5, 60.498626514494816
731, 60.543403495148574
731.5, 60.61081411305396
732.0000000000001, 60.66952243599561
732.5, 60.676048795218605
733, 60.668488607501494
733.5, 60.67231237403936
734, 60.65613744037469
734.5000000000001, 60.620015137546574
735, 60.595779981610534
735.5, 60.58429536697446
736, 60.57735794460727
736.5, 60.59170315405098
737, 60.63818499106573
737.5000000000001, 60.70552776628879
738, 60.770248558203086
738.5, 60.803563371348524
739, 60.809384204271154
739.5, 60.81251485760713
740.0000000000001, 60.85551289392146
740.5, 60.942322954281906
741, 61.001716092109696
741.5, 61.0269290319074
742, 61.07140252440097
742.5, 61.119349288477295
743.0000000000001, 61.136942336811515
743.5, 61.15354402054895
744, 61.18800744978314
744.5, 61.21380466976767
745, 61.227366868582806
745.5000000000001, 61.24737508855312
746, 61.25917572687434
746.5, 61.249484440351836
747, 61.272279114436984
747.5, 61.343714848303264
748, 61.385447481137845
748.5, 61.3943346709563
749, 61.43651968323398
749.5, 61.48470505196666
750, 61.48844877831772
750.5, 61.486074853386434
751.0000000000001, 61.50475048491578
751.5, 61.515064586771906
752, 61.530118584212694
752.5, 61.59838854239253
753, 61.68231992524746
753.5000000000001, 61.72318049139249
754, 61.74242120588149
754.5, 61.76086758698958
755, 61.765528736021025
755.5, 61.78145902786744
756, 61.8614823372739
756.5000000000001, 61.96387105988396
757, 62.03368902938304
757.5, 62.14047875607868
758, 62.31046484308594
758.5, 62.441131914909484
759.0000000000001, 62.51027800583363
759.5, 62.57457473919869
760, 62.60862098130992
760.5, 62.57583506896563
761, 62.55255040828143
761.5, 62.57612818267542
762.0000000000001, 62.57032245398325
762.5, 62.58419762707752
763, 62.76293912506503
763.5, 62.97731016801822
764, 63.037089052584626
764.5000000000001, 63.030459894432184
765, 63.05866482317528
765.5, 63.126016008738915
766, 63.2097533169377
766.5, 63.279434136359
767.0000000000001, 63.37040969058949
767.5000000000001, 63.51936317240253
768, 63.64806478706981
768.5, 63.71001924986816
769, 63.76403113154806
769.5, 63.83111646570369
770.0000000000001, 63.890648912354905
770.5, 63.95999555405768
771, 64.05916910119558
771.5, 64.14620969862105
772, 64.19426555801897
772.5000000000001, 64.22973796569585
773, 64.2618048522237
773.5, 64.28531640392373
774, 64.35430016300049
774.5, 64.51935336388466
775, 64.70992247569603
775.5000000000001, 64.8700917819279
776, 65.02071802629462
776.5, 65.14727049371646
777, 65.20144180571938
777.5, 65.19458829120114
778.0000000000001, 65.16369746674792
778.5, 65.13074508621493
779, 65.11165491142685
779.5, 65.11754660770836
780, 65.15420917386925
780.5, 65.21921206764131
781.0000000000001, 65.28043863535396
781.5, 65.31588065054575
782, 65.39409883058718
782.5, 65.54371320739692
783, 65.68379718275929
783.5000000000001, 65.77211440897526
784, 65.81625234242713
784.5, 65.8423517990166
785, 65.87521940274108
785.5, 65.90460156148677
786.0000000000001, 65.92096276672946
786.5000000000001, 65.93053523147717
787, 65.92937753014586
787.5, 65.90765461085282
788, 65.89825859477702
788.5, 65.93775902244181
789.0000000000001, 65.99863111779928
789.5000000000001, 66.04938349370721
790.0000000000001, 66.08008511530664
790.5, 66.11099553094809
791, 66.18084450051725
791.5000000000001, 66.26508353243908
792.0000000000001, 66.3212817653239
792.5000000000001, 66.35600292777198
793, 66.36514431521317
793.5, 66.3087066807868
794, 66.23854197503479
794.5000000000001, 66.27621457720947
795.0000000000001, 66.37799056886861
795.5, 66.44297765019834
796, 66.46132061075764
796.5, 66.45692555205687
797.0000000000001, 66.47324302552288
797.5000000000001, 66.4918613219275
798.0000000000001, 66.44438609834177
798.5, 66.34531973949018
799, 66.24863893784506
799.5000000000001, 66.20188389207847
800.0000000000001, 66.2289814064261
800.5000000000001, 66.31115614381784
801, 66.37586702377855
801.5, 66.32304926132107
802, 66.20465775601956
802.5000000000001, 66.12285285378387
803.0000000000001, 66.09015734491373
803.5000000000001, 66.09089663508891
804, 66.09708094464021
804.5, 66.09581379643123
805.0000000000001, 66.08837646551268
805.5000000000001, 66.06582517697703
806.0000000000001, 66.02047311646653
806.5, 65.9687978319571
807, 65.93225780948119
807.5, 65.9296751249566
808.0000000000001, 65.950235930468
808.5000000000001, 65.95938746156126
809.0000000000001, 65.95397289518644
809.5, 65.94232507860909
810, 65.9172847702674
810.5000000000001, 65.87138182692125
811.0000000000001, 65.80356545565417
811.5000000000001, 65.72064348695982
812, 65.63577979658785
812.5, 65.55893359181002
813, 65.48852179875496
813.5000000000001, 65.38661027548494
814.0000000000001, 65.25035819639916
814.5, 65.1534149740023
815, 65.11523621463583
815.5, 65.09619294550352
816.0000000000001, 65.05290497371232
816.5000000000001, 64.96002023706701
817.0000000000001, 64.86175844408035
817.5, 64.79523321232456
818, 64.75475410722306
818.5000000000001, 64.72467426312704
819.0000000000001, 64.68336886916984
819.5000000000001, 64.60208758798522
820, 64.46431395537665
820.5, 64.31134349612756
821, 64.180127643831
821.5000000000001, 64.07519954657477
822.0000000000001, 63.99906343950905
822.5000000000001, 63.95154366964639
823, 63.900253159756055
823.5, 63.81700280663481
824.0000000000001, 63.74647337736651
824.5000000000001, 63.69440829310957
825.0000000000001, 63.56987518617706
825.5, 63.38030954528036
826, 63.224268645273064
826.5, 63.11227959415718
827.0000000000001, 63.00937786775789
827.5000000000001, 62.87629636581743
828.0000000000001, 62.699049209055445
828.5, 62.511526755381716
829, 62.354450190226075
829.5000000000001, 62.258087940774054
830.0000000000001, 62.15541898225257
830.5000000000001, 61.9651823953987
831, 61.7274187312387
831.5, 61.518692459746404
832.0000000000001, 61.42457613863391
832.5000000000001, 61.40826973378638
833.0000000000001, 61.33628870299229
833.5000000000001, 61.228830710973014
834, 61.14631968079926
834.5, 61.01665672940123
835.0000000000001, 60.80360819977227
835.5000000000001, 60.59008481756714
836.0000000000001, 60.42031841886939
836.5, 60.287317468829826
837, 60.15940272819152
837.5000000000001, 60.01071432212648
838.0000000000001, 59.877383790364775
838.5000000000001, 59.77093971063463
839, 59.63490142906167
839.5, 59.4679531341073
840, 59.3218235351848
840.5000000000001, 59.20428504086979
841.0000000000001, 59.09760954027381
841.5000000000001, 58.97212106981678
842, 58.82318531987231
842.5, 58.69438997461463
843.0000000000001, 58.586336549165814
843.5000000000001, 58.461013567957465
844.0000000000001, 58.33253156979771
844.5, 58.23014850692108
845, 58.143387486328436
845.5, 58.06163989487334
846.0000000000001, 57.99045596206181
846.5000000000001, 57.92776784282874
847.0000000000001, 57.86401694804392
847.5, 57.79970997809107
848, 57.73739460796946
848.5000000000001, 57.66871354652399
849.0000000000001, 57.58867059624936
849.5000000000001, 57.50319530880239
850, 57.423360723476826
850.5, 57.3625399277899
851.0000000000001, 57.32256613675817
851.5000000000001, 57.29474698841434
852.0000000000001, 57.25246869691753
852.5000000000001, 57.19696901350057
853, 57.18279482508687
853.5, 57.170598488120234
854.0000000000001, 57.05327365573061
854.5000000000001, 56.92809982694385
855.0000000000001, 56.935298345587654
855.5, 57.00454097837505
856, 57.04488477899508
856.5000000000001, 57.019351585857855
857.0000000000001, 56.94619451174934
857.5000000000001, 56.884154782589654
858, 56.84459136238235
858.5, 56.82006551503349
859, 56.82066906905496
859.5000000000001, 56.840795634163065
860.0000000000001, 56.841719166238214
860.5000000000001, 56.83929715020252
861, 56.88914072867076
861.5, 56.92970129401618
862.0000000000001, 56.87962651878871
862.5000000000001, 56.79580735218446
863.0000000000001, 56.74220188148372
863.5, 56.7365088397956
864, 56.77590641619023
864.5, 56.83904578654727
865.0000000000001, 56.873499273774776
865.5000000000001, 56.83620574033054
866.0000000000001, 56.77283635917327
866.5, 56.734841025535374
867, 56.74485650169881
867.5000000000001, 56.7826900464409
868.0000000000001, 56.79731150522934
868.5000000000001, 56.78888911140446
869, 56.776123569887424
869.5, 56.753203449698795
870.0000000000001, 56.73010235863115
870.5000000000001, 56.75271623530059
871.0000000000001, 56.80778377393927
871.5000000000001, 56.83311146533245
872, 56.846055405916765
872.5, 56.882510638669864
873.0000000000001, 56.90234000353689
873.5000000000001, 56.88371033694586
874.0000000000001, 56.868396323504214
874.5, 56.87176535237986
875, 56.8832037246268
875.5000000000001, 56.93188609892743
876.0000000000001, 57.03697288264033
876.5000000000001, 57.10860470135975
877, 57.09275650609237
877.5, 57.04451677520203
878, 56.99655672793022
878.5000000000001, 56.95433197975791
879.0000000000001, 56.95907474337443
879.5000000000001, 57.03931322919998
880, 57.11181039480052
880.5, 57.13629092079314
881.0000000000001, 57.19267545314125
881.5000000000001, 57.280216091345594
882.0000000000001, 57.31904896878533
882.5, 57.29389775609087
883, 57.22848663042529
883.5000000000001, 57.170373464062834
884.0000000000001, 57.151483886460575
884.5000000000001, 57.16547299418763
885.0000000000001, 57.20114852999393
885.5, 57.24711870802825
886, 57.296530623629394
886.5000000000001, 57.339728793972164
887.0000000000001, 57.34898670335279
887.5000000000001, 57.326712692933235
888, 57.334216224919395
888.5, 57.372780825143714
889.0000000000001, 57.38839175152695
889.5000000000001, 57.37921017562144
890.0000000000001, 57.36455807613036
890.5000000000001, 57.34568871199181
891, 57.32704413861325
891.5, 57.32573133981918
892.0000000000001, 57.34527586641664
892.5000000000001, 57.378004089513766
893.0000000000001, 57.437947437968774
893.5, 57.535134872219416
894, 57.625807403158475
894.5000000000001, 57.67662130436829
895.0000000000001, 57.696232604902384
895.5000000000001, 57.71060036766468
896.0000000000001, 57.74914555307562
896.5, 57.77298903601109
897, 57.734260923409465
897.5000000000001, 57.67299304329842
898.0000000000001, 57.63564378826472
898.5000000000001, 57.64282830642838
899, 57.69868569641006
899.5, 57.791693802581364
900.0000000000001, 57.887848598114466
900.5000000000001, 57.95612744118163
901.0000000000001, 58.014989119221994
901.5, 58.069418162734074
902, 58.08176901565402
902.5000000000001, 58.058916281276296
903.0000000000001, 58.04813274610193
903.5000000000001, 58.054552865802016
904.0000000000001, 58.066905598006166
904.5, 58.09066842273496
905, 58.13541619113345
905.5000000000001, 58.20964899801419
906.0000000000001, 58.29250310634616
906.5000000000001, 58.339445286673936
907, 58.33459565842097
907.5, 58.28661479447349
908.0000000000001, 58.24222014239941
908.5000000000001, 58.23806373122613
909.0000000000001, 58.27630334160778
909.5000000000001, 58.34581506925822
910, 58.42713638248227
910.5, 58.50612595663976
911.0000000000001, 58.568310983025555
911.5000000000001, 58.588242719321684
912.0000000000001, 58.55726701115876
912.5, 58.50253509237431
913, 58.47269104250688
913.5000000000001, 58.52210267888851
914.0000000000001, 58.61921535415618
914.5000000000001, 58.69982139560152
915.0000000000001, 58.73167950667871
915.5, 58.714208828342805
916.0000000000001, 58.68923748621386
916.5000000000001, 58.675170913352865
917.0000000000001, 58.66645424137454
917.5000000000001, 58.67334469311297
918, 58.704809628683435
918.5, 58.73575923403518
919.0000000000001, 58.75090956319857
919.5000000000001, 58.76677490413908
920.0000000000001, 58.80143417101293
920.5, 58.86827398590375
921, 58.95644673792876
921.5000000000001, 59.04383700249984
922.0000000000001, 59.10934967267747
922.5000000000001, 59.143103195887754
923.0000000000001, 59.155594141837895
923.5, 59.17132451318772
924, 59.218239725423395
924.5000000000001, 59.26387449785711
925.0000000000001, 59.27323059664623
925.5000000000001, 59.30797409307511
926, 59.394505792961986
926.5, 59.45873796482805
927.0000000000001, 59.48344018383523
927.5000000000001, 59.509808461037906
928.0000000000001, 59.5453327522587
928.5000000000001, 59.58616985935584
929, 59.64973637483992
929.5, 59.73443161831822
930.0000000000001, 59.79711705761247
930.5000000000001, 59.82309165069677
931.0000000000001, 59.827915631380506
931.5, 59.82537752185043
932, 59.83066062600357
932.5000000000001, 59.868896355997755
933.0000000000001, 59.93805992164957
933.5000000000001, 59.986704682656985
934.0000000000001, 60.03212916888774
934.5, 60.14533780260856
935.0000000000001, 60.278319188103545
935.5000000000001, 60.35397586270068
936.0000000000001, 60.4008333969661
936.5000000000001, 60.46082287645217
937, 60.553922729073534
937.5, 60.652953385776854
938.0000000000001, 60.697706090679084
938.5000000000001, 60.69667470833676
939.0000000000001, 60.69493992532119
939.5, 60.74857312028772
940, 60.85567366375479
940.5000000000001, 60.91201486050612
941.0000000000001, 60.93528292970769
941.5000000000001, 61.043842113655195
942.0000000000001, 61.17770843185132
942.5, 61.23433580676426
943, 61.273924255265
943.5000000000001, 61.35314096670516
944.0000000000001, 61.45465277099146
944.5000000000001, 61.55087459080454
945, 61.61820503155233
945.5, 61.68321090691714
946.0000000000001, 61.78445453485799
946.5000000000001, 61.91673945055784
947.0000000000001, 62.05211196199487
947.5000000000001, 62.14282408123396
948, 62.20015094059024
948.5000000000001, 62.28369118405621
949.0000000000001, 62.3866280180024
949.5000000000001, 62.475572597097646
950.0000000000001, 62.53927397353936
950.5, 62.58482636005761
951, 62.6414931428963
951.5000000000001, 62.70815128801089
952.0000000000001, 62.76098057980037
952.5000000000001, 62.83668842080729
953.0000000000001, 62.981445972406625
953.5, 63.16869223861805
954.0000000000001, 63.352692348276605
954.5000000000001, 63.485939544259736
955.0000000000001, 63.573885383048676
955.5000000000001, 63.66798720666915
956, 63.79363204179593
956.5, 63.94739955062454
957.0000000000001, 64.06934216476452
957.5000000000001, 64.13160883935086
958.0000000000001, 64.18544476713718
958.5, 64.25222802928728
959, 64.32155220140355
959.5000000000001, 64.41111853795627
960.0000000000001, 64.5380044878829
960.5000000000001, 64.66598705936994
961.0000000000001, 64.76472731154823
961.5, 64.83851804243722
962, 64.9365794621022
962.5000000000001, 65.12591733773115
963.0000000000001, 65.31131933934202
963.5000000000001, 65.38112171776385
964, 65.4467990644612
964.5, 65.58154879846361
965.0000000000001, 65.70114107922569
965.5000000000001, 65.77305089838282
966.0000000000001, 65.82823230943549
966.5000000000001, 65.90063815382315
967, 66.01594685058181
967.5000000000001, 66.1683556523891
968.0000000000001, 66.33388322766325
968.5000000000001, 66.47169612439087
969.0000000000001, 66.5964463188611
969.5, 66.7644960744454
970, 66.94283682895424
970.5000000000001, 67.0719894040657
971.0000000000001, 67.15430301610915
971.5000000000001, 67.22572959709461
972.0000000000001, 67.35289813996093
972.5, 67.52248472641595
973.0000000000001, 67.65499836813625
973.5000000000001, 67.75644554293635
974.0000000000001, 67.87086412365083
974.5000000000001, 68.02778172345089
975, 68.2137324122329
975.5, 68.34861711309564
976.0000000000001, 68.43521214317475
976.5000000000001, 68.5491629210635
977.0000000000001, 68.68511575523192
977.5000000000001, 68.80002073056221
978, 68.85922100066551
978.5000000000001, 68.8798945674219
979.0000000000001, 68.96452359600111
979.5000000000001, 69.1409210450685
980.0000000000001, 69.35599316190579
980.5, 69.5282209128437
981.0000000000001, 69.60730974468
981.5000000000001, 69.7003827719507
982.0000000000001, 69.86711925566578
982.5000000000001, 70.02077664531693
983, 70.12462367404163
983.5, 70.20801784435102
984.0000000000001, 70.34570903842234
984.5000000000001, 70.57571887648308
985.0000000000001, 70.72893303125747
985.5000000000001, 70.74335171631503
986, 70.82400258376141
986.5000000000001, 71.00444711586952
987.0000000000001, 71.1541620938159
987.5000000000001, 71.3011441556642
988.0000000000001, 71.50051150004543
988.5, 71.62192994845498
989, 71.62231818336053
989.5000000000001, 71.6814483310752
990.0000000000001, 71.80918807765224
990.5000000000001, 71.85903105622053
991.0000000000001, 71.85831913061381
991.5, 71.89459616078483
992.0000000000001, 71.9636217785945
992.5000000000001, 72.0553559176048
993.0000000000001, 72.18524753734664
993.5000000000001, 72.33410181300407
994, 72.45088093810871
994.5, 72.50514277753393
995.0000000000001, 72.51084878825336
995.5000000000001, 72.60481718892987
996.0000000000001, 72.8167624469809
996.5000000000001, 72.94484591032257
997, 72.97254519823132
997.5000000000001, 73.05554663638779
998.0000000000001, 73.1829837351051
998.5000000000001, 73.28464994900503
999.0000000000001, 73.37360933980257
999.5, 73.49134079757187
1000.0000000000001, 73.69009547203686
1000.5000000000001, 73.90579691596864
1001.0000000000001, 73.98844450407728
1001.5000000000001, 73.96532433323472
1002, 73.93563676716057
1002.5, 73.94815763274366
1003.0000000000001, 74.01298141805407
1003.5000000000001, 74.0938609722796
1004.0000000000001, 74.1918515284764
1004.5000000000001, 74.33900642367823
1005, 74.50550420604894
1005.5000000000001, 74.64997522018878
1006.0000000000001, 74.79779238037565
1006.5000000000001, 74.97289057044117
1007.0000000000001, 75.16787614073131
1007.5, 75.34301841680049
1008, 75.44670945315863
1008.5000000000001, 75.5450282730768
1009.0000000000001, 75.71813385738749
1009.5000000000001, 75.89404473104915
1010.0000000000001, 76.0313692264114
1010.5, 76.2012576780114
1011.0000000000001, 76.40084974635178
1011.5000000000001, 76.55728035916175
1012.0000000000001, 76.6685022339699
1012.5000000000001, 76.7469852641652
1013, 76.73200866494153
1013.5000000000001, 76.6135509918712
1014.0000000000001, 76.50288836668994
1014.5000000000001, 76.53868845186582
1015.0000000000001, 76.83035103871656
1015.5000000000001, 77.14989608345597
1016, 77.25275641402584
1016.5000000000001, 77.41136706966921
1017.0000000000001, 77.75004409628951
1017.5000000000001, 77.93574748347395
1018.0000000000001, 77.94842617754183
1018.5, 78.06148363775837
1019.0000000000001, 78.24479187002358
1019.5000000000001, 78.36083813047776
1020.0000000000001, 78.42346778972978
1020.5000000000001, 78.48141970016425
1021, 78.58281719808083
1021.5, 78.75444662663902
1022.0000000000001, 78.99194415447475
1022.5000000000001, 79.20036402188195
1023.0000000000001, 79.29795155635354
1023.5000000000001, 79.40398229885056
1024, 79.58801843409125
1024.5, 79.75264068900115
1025, 79.8543670752418
1025.5, 79.91765562347943
1026, 79.98551361737577
1026.5, 80.08645287337627
1027, 80.16944060890128
1027.5, 80.23414388123318
1028, 80.3949881564448
1028.5, 80.6181940749529
1029, 80.74813413192147
1029.5, 80.82945540911886
1030, 80.98284860188767
1030.5, 81.25199672254713
1031, 81.5586411784624
1031.5, 81.65504762422405
1032, 81.60693364541969
1032.5, 81.736318732145
1033, 81.98624907594994
1033.5, 82.15768449833058
1034, 82.20345510378658
1034.5, 82.1507259505613
1035, 82.09550514730856
1035.5, 82.10524004452346
1036, 82.20783013673535
1036.5, 82.37845890062604
1037, 82.57244510521961
1037.5, 82.761138756284
1038, 82.93611292953591
1038.5, 83.11685502689951
1039, 83.29395694850028
1039.5, 83.43257361115853
1040, 83.52755655501852
1040.5, 83.59845483021553
1041, 83.70137817192
1041.5, 83.85176903048547
1042, 83.9807792105415
1042.5, 84.06981996979381
1043, 84.15614235971796
1043.5, 84.28977032312322
1044, 84.48562798440597
1044.5, 84.61407043844808
1045, 84.62136078358377
1045.5, 84.64183199433927
1046, 84.71655152790082
1046.5, 84.79394060191434
1047, 84.90768260220207
1047.5, 85.09917706624827
1048, 85.28653513477826
1048.5, 85.42526077060397
1049, 85.58278249371855
1049.5, 85.7469139033424
1050, 85.83672656060871
1050.5, 85.88867047017591
1051, 85.9803628144108
1051.5, 86.13310408271755
1052, 86.33032081327747
1052.5, 86.51415520735502
1053, 86.68760773237595
1053.5, 86.89795772704838
1054, 87.07108672960621
1054.5, 87.13244089946723
1055, 87.2150487497284
1055.5, 87.37565110944982
1056, 87.46055491788667
1056.5, 87.47739686200731
1057, 87.57715043155169
1057.5, 87.71785432373778
1058, 87.80911267689564
1058.5, 87.92296822910158
1059, 88.08197195402374
1059.5, 88.16350294055879
1060, 88.19986179167515
1060.5, 88.35223623655416
1061, 88.57068487935939
1061.5, 88.7283417761227
1062, 88.78921939136039
1062.5, 88.80276890305045
1063, 88.92267885051871
1063.5, 89.09826196528134
1064, 89.13118241370702
1064.5, 89.21135045515734
1065, 89.55999007440342
1065.5, 89.84241889225432
1066, 89.84936587655628
1066.5, 89.8097909206958
1067, 89.82005442745383
1067.5, 89.83458665040814
1068, 89.97167952493324
1068.5, 90.32984728232755
1069, 90.64955938579803
1069.5, 90.77222717355455
1070, 90.85847489971762
1070.5, 91.01409271082149
1071, 91.24698127083495
1071.5, 91.42815603905969
1072, 91.4574142963527
1072.5, 91.56366696238592
1073, 91.85425541980631
1073.5, 92.09700251806854
1074, 92.20110809625943
1074.5, 92.23173838845982
1075, 92.21057758540411
1075.5, 92.16969323898262
1076, 92.26083565172068
1076.5, 92.50721532533115
1077, 92.66829792653814
1077.5, 92.72673765549568
1078, 92.87225447460358
1078.5, 93.12109750421851
1079, 93.39845767588206
1079.5, 93.6094732422652
1080, 93.74143160851163
1080.5, 93.92681947208388
1081, 94.14527768013308
1081.5, 94.25408907580137
1082, 94.35434150380193
1082.5, 94.58288386403821
1083, 94.78501800950882
1083.5, 94.87138592104431
1084, 94.97896867310521
1084.5, 95.13372505823244
1085, 95.25047184413869
1085.5, 95.33566059376184
1086, 95.41772862104564
1086.5, 95.44248009783439
1087, 95.39056444827925
1087.5, 95.33670122567862
1088, 95.34595234684424
1088.5, 95.44508694836551
1089, 95.50033182178473
1089.5, 95.42906965429235
1090, 95.59949394543858
1090.5, 96.11498251747203
1091, 96.45186593541861
1091.5, 96.48115433240808
1092, 96.47757717218491
1092.5, 96.58967915116774
1093, 96.83445597717146
1093.5, 96.99540429663796
1094, 96.99023758625124
1094.5, 97.05498377857312
1095, 97.20420514449386
1095.5, 97.24906528197981
1096, 97.22623809077159
1096.5, 97.24561811311618
1097, 97.28707190792319
1097.5, 97.36589155151832
1098, 97.60126831297855
1098.5, 97.90513742469557
1099, 98.03160317755068
1099.5, 98.0567384509833
1100, 98.15112231138912
1100.5, 98.27135194881554
1101, 98.35686612290473
1101.5, 98.40378652661681
1102, 98.43865465711222
1102.5, 98.5056768196258
1103, 98.61139355069378
1103.5, 98.74593430848947
1104, 98.90492423767742
1104.5, 99.06920548291095
1105, 99.19234374861001
1105.5, 99.24751875900556
1106, 99.23078998847022
1106.5, 99.15691052985903
1107, 99.06358989583241
1107.5, 99.0403128565405
1108, 99.12025090279867
1108.5, 99.21927199644173
1109, 99.30085717246341
1109.5, 99.37949339712107
1110, 99.44299502810772
1110.5, 99.48206448425114
1111, 99.54527271686688
1111.5, 99.62580530683569
1112, 99.60360069354189
1112.5, 99.50107534149691
1113, 99.46072869946832
1113.5, 99.46529069274733
1114, 99.44070467742932
1114.5, 99.38582252408926
1115, 99.33139058835306
1115.5, 99.33304305091325
1116, 99.40326437553361
1116.5, 99.51079875400004
1117, 99.60866136276533
1117.5, 99.65207757253465
1118, 99.62839271916695
1118.5, 99.56055419670834
1119, 99.51849630679061
1119.5, 99.51467339954353
1120, 99.51075391993197
1120.5, 99.51526300210315
1121, 99.5481450532322
1121.5, 99.58833252352726
1122, 99.60893376011296
1122.5, 99.59041167739616
1123, 99.53919263212495
1123.5, 99.48180495097802
1124, 99.42230168811172
1124.5, 99.3637808190998
1125, 99.34449331607682
1125.5, 99.36532161681308
1126, 99.35041050450603
1126.5, 99.2805261309408
1127, 99.19391155284639
1127.5, 99.11880341937086
1128, 99.06404720225099
1128.5, 98.98985429264229
1129, 98.90721695954593
1129.5, 98.92624166668301
1130, 98.97418704652902
1130.5, 98.84444709153746
1131, 98.65580951497914
1131.5, 98.59131207032912
1132, 98.51095985547165
1132.5, 98.34669261704822
1133, 98.27570997185138
1133.5, 98.29971477756249
1134, 98.25863099921686
1134.5, 98.15420844737949
1135, 98.04781838428374
1135.5, 97.93351997088388
1136, 97.82733958816316
1136.5, 97.80583440190999
1137, 97.85224793315098
1137.5, 97.86920898153393
1138, 97.83675727271999
1138.5, 97.76934271326137
1139, 97.6701903750089
1139.5, 97.55357952456302
1140, 97.45650159309588
1140.5, 97.39242614471269
1141, 97.34843736464134
1141.5, 97.2895113556665
1142, 97.18241075880026
1142.5, 97.03593637853808
1143, 96.87986416413743
1143.5, 96.75893921612457
1144, 96.6149762681924
1144.5, 96.32986354526618
1145, 96.05724041733038
1145.5, 95.98523900461512
1146, 95.96740807381202
1146.5, 95.87306925812736
1147, 95.73179181406984
1147.5, 95.58574904198811
1148, 95.46454672112648
1148.5, 95.32657088390141
1149, 95.1360414435633
1149.5, 94.99532594051371
1150, 94.91991638602353
1150.5, 94.72686508795067
1151, 94.39554788715294
1151.5, 94.07111125175872
1152, 93.8968318440061
1152.5, 93.93632432890725
1153, 93.98256147593689
1153.5, 93.92156286067593
1154, 93.90234421989614
1154.5, 93.9479843335745
1155, 93.95341958375622
1155.5, 93.89593943148964
1156, 93.78748714290016
1156.5, 93.61883423908178
1157, 93.39395880252997
1157.5, 93.14877277875723
1158, 92.92671565524883
1158.5, 92.76292973135413
1159, 92.59848599793486
1159.5, 92.37068361736499
1160, 92.15951082534227
1160.5, 92.02763828874903
1161, 91.94897872623918
1161.5, 91.85170245272165
1162, 91.65338528710032
1162.5, 91.44737791641798
1163, 91.35326368503881
1163.5, 91.29082312478619
1164, 91.18162099855917
1164.5, 91.03097158345254
1165, 90.88566487228168
1165.5, 90.80529413519587
1166, 90.71715923228473
1166.5, 90.53905569096896
1167, 90.3753626952614
1167.5, 90.28561589980853
1168, 90.18214933584184
1168.5, 90.0651998458864
1169, 90.00826312328137
1169.5, 89.9298418718015
1170, 89.72519997663048
1170.5, 89.4688614060252
1171, 89.22875898358839
1171.5, 88.99130996011834
1172, 88.74940889860439
1172.5000000000002, 88.50845995862626
1173, 88.26719961704114
1173.5, 88.01234666530772
1174, 87.70028312653695
1174.5, 87.34785379684823
1175.0000000000002, 87.08305184590553
1175.5, 86.90784494904929
1176, 86.72110006953946
1176.5, 86.58706389480444
1177, 86.59178304568394
1177.5000000000002, 86.6182700172403
1178, 86.56141102941297
1178.5, 86.4162815139358
1179, 86.17633989514722
1179.5, 85.84128197998105
1180, 85.54083597191848
1180.5, 85.39076427942949
1181, 85.2421662634896
1181.5, 84.99631880408478
1182, 84.74565505641446
1182.5, 84.58188049127126
1183, 84.54728412261483
1183.5000000000002, 84.44403372902248
1184, 84.09131767397139
1184.5, 83.7631765769526
1185, 83.6400543008719
1185.5, 83.56366617303432
1186.0000000000002, 83.42511025813931
1186.5, 83.19942841388192
1187, 82.92415970763811
1187.5, 82.66785540849058
1188, 82.5098639459092
1188.5000000000002, 82.43276650302393
1189, 82.2561175460643
1189.5, 81.99662580500039
1190, 81.83465869031913
1190.5, 81.72045609159979
1191.0000000000002, 81.53262025637864
1191.5, 81.28589112355021
1192, 81.02448419351165
1192.5, 80.78905933973391
1193, 80.58614220870433
1193.5, 80.39326484623042
1194, 80.20029373420076
1194.5000000000002, 79.99991838682412
1195, 79.77315954864515
1195.5, 79.53732526136147
1196, 79.37227355142744
1196.5, 79.25426682553423
1197.0000000000002, 79.07572341935199
1197.5, 78.84957056156769
1198, 78.6275029344283
1198.5, 78.39528069663193
1199, 78.17165508192556
1199.5000000000002, 78.04795667039589
1200, 77.90740375360923
1200.5, 77.50735568643867
1201, 77.13607755356921
1201.5, 77.12882913533892
1202.0000000000002, 77.1049443282546
1202.5, 76.81690456995526
1203, 76.51929001740275
1203.5, 76.29352889949547
1204, 76.03671685966471
1204.5000000000002, 75.78558098833857
1205, 75.60029778755522
1205.5, 75.38388960935805
1206, 75.1208810372384
1206.5, 74.98621272370102
1207, 74.90586484038062
1207.5, 74.61665413696679
1208.0000000000002, 74.26513629965818
1208.5, 74.09845723945
1209, 74.03349413457836
1209.5, 73.93615233442365
1210, 73.71826437007518
1210.5000000000002, 73.41147209854218
1211, 73.140787890751
1211.5, 72.94845298196115
1212, 72.81453270664687
1212.5, 72.64080831088104
1213.0000000000002, 72.38075493920316
1213.5, 72.10468072267348
1214, 71.81496519452848
1214.5, 71.46421466351124
1215, 71.17569198766421
1215.5000000000002, 71.07002957604384
1216, 70.97492594625417
1216.5, 70.75440983216056
1217, 70.45375810551504
1217.5, 70.20093608617206
1218, 70.13898808664347
1218.5, 70.08045713369748
1219, 69.80382384280182
1219.5, 69.51076011179997
1220, 69.34200296470105
1220.5, 69.17125178130198
1221, 68.93471337051862
1221.5000000000002, 68.65955211001219
1222, 68.45107562993697
1222.5, 68.3732863348125
1223, 68.22193730692095
1223.5, 67.91384400805602
1224.0000000000002, 67.67086984294801
1224.5, 67.5311515886502
1225, 67.35514676654026
1225.5, 67.12541024949306
1226, 66.88082270906594
1226.5000000000002, 66.64872169850963
1227, 66.43982327746467
1227.5, 66.24020126219656
1228, 66.03003683635163
1228.5, 65.7997626808519
1229.0000000000002, 65.64178365810963
1229.5, 65.61037509225335
1230, 65.45978120922284
1230.5, 65.11027182544181
1231, 64.87219827337339
1231.5, 64.772977949169
1232, 64.58153482695351
1232.5000000000002, 64.31316445710206
1233, 64.06858639516666
1233.5, 63.832086954550114
1234, 63.60977427984
1234.5, 63.48371511087783
1235.0000000000002, 63.398058141200316
1235.5, 63.19463759351206
1236, 62.93684266383651
1236.5, 62.75339804299522
1237, 62.634501621981485
1237.5000000000002, 62.50774830022627
1238, 62.25556417708892
1238.5, 61.95252424060759
1239, 61.81283265219071
1239.5, 61.762343047567995
1240.0000000000002, 61.63964798475847
1240.5, 61.45559832820567
1241, 61.28005920950013
1241.5, 61.21238677686828
1242, 61.229434081144305
1242.5000000000002, 61.21223944969608
1243, 61.173891079848005
1243.5, 61.145241190443
1244, 60.999583869024846
1244.5, 60.72108724591621
1245, 60.53640883154856
1245.5, 60.463072468849525
1246.0000000000002, 60.33721085580614
1246.5, 60.21631630667705
1247, 60.21863353456235
1247.5, 60.3038593304169
1248, 60.3613222840398
1248.5000000000002, 60.23038543893333
1249, 59.96112101058062
1249.5, 59.769297727552306
1250, 59.65214366800138
1250.5, 59.526704803327604
1251.0000000000002, 59.39368662459481
1251.5, 59.28708663013445
1252, 59.26108275178844
1252.5, 59.269759975187796
1253, 59.207235923662374
1253.5000000000002, 59.211591369694155
1254, 59.41298601611706
1254.5, 59.51323667876228
1255, 59.34401769978739
1255.5, 59.12238459276777
1256.0000000000002, 58.974551755481734
1256.5, 58.90149714318856
1257.0000000000002, 58.83788343249901
1257.5, 58.723977438036954
1258, 58.620704021182924
1258.5, 58.58340445079234
1259, 58.60878563285162
1259.5000000000002, 58.644408933754505
1260, 58.614205914219426
1260.5, 58.55879411670566
1261, 58.54617042230117
1261.5, 58.549179277623146
1262.0000000000002, 58.520975839887186
1262.5, 58.42937444213685
1263, 58.47527465125281
1264.5000000000002, 58.59466257813278
1265, 58.00991403462906
1265.5, 58.04215510527661
1266, 58.2284769313765
1266.5, 58.30461841219454
1267.0000000000002, 58.28245151052671
1267.5, 58.19010027902487
1268, 58.06692024289385
1268.5, 57.98076384660128
1269, 57.94224413019384
1269.5000000000002, 57.85818013345246
1270, 57.755515457802716
1270.5000000000002, 57.75793309631822
1271, 57.83249366824562
1271.5, 57.891881827134156
1272, 57.91775074529992
1272.5, 57.92787334187278
1273.0000000000002, 57.97286039785616
1273.5, 58.04276113099169
1274, 58.07058520985352
1274.5, 57.9919204450354
1275, 57.79246431325233
1275.5000000000002, 57.626474218385155
1276, 57.592399794273724
1276.5, 57.628029034021075
1277, 57.67920686524927
1277.5, 57.71237656347437
1278.0000000000002, 57.685955124649034
1278.5, 57.5854441679429
1279, 57.505357303160224
1279.5, 57.48281772331223
1280, 57.41992294913023
1280.5000000000002, 57.332620704133156
1281, 57.331834860565934
1281.5, 57.38124487001924
1282, 57.408099010767636
1282.5, 57.45515329444773
1283, 57.5192428235121
1283.5, 57.48120616055221
1284.0000000000002, 57.36866154763006
1284.5, 57.33271582536885
1285, 57.38259709907772
1285.5, 57.45847437594946
1286, 57.495022052432645
1286.5000000000002, 57.4745231446451
1287, 57.46078691240612
1287.5, 57.4648310796307
1288, 57.4476532292454
1288.5, 57.405604175539175
1289.0000000000002, 57.35395084907306
1289.5, 57.31440662322878
1290, 57.30895583350488
1290.5, 57.354376867752116
1291, 57.40554128913678
1291.5000000000002, 57.376676172141146
1292, 57.29151018998921
1292.5, 57.21493703150248
1293, 57.17662624785613
1293.5, 57.166889141597856
1294.0000000000002, 57.1257635251882
1294.5, 57.07363696827186
1295.0000000000002, 57.09304359019239
1295.5, 57.157232627559274
1296, 57.19564648536614
1296.5, 57.16451903112793
1297, 57.06463921849746
1297.5000000000002, 56.96413895782755
1298, 56.943981991432025
1298.5, 57.07204764055464
1299, 57.275389467190614
1299.5, 57.42921801706167
1300.0000000000002, 57.454185273578936
1300.5, 57.34049941273268
1301.0000000000002, 57.18140304254575
1301.5, 57.076458914443364
1302.0000000000002, 57.10204839425187
1302.5000000000002, 57.185624422680704
1303, 57.21831728489417
1303.5000000000002, 57.20326557994849
1304, 57.17998230157686
1304.5000000000002, 57.203410761394224
1305.0000000000002, 57.240152501514245
1305.5, 57.19587319148975
1306.0000000000002, 57.124605031075625
1306.5, 57.11446990226511
1307.0000000000002, 57.130485703369466
1307.5000000000002, 57.14305389772306
1308, 57.17723917633368
1308.5000000000002, 57.22917177068288
1309, 57.26057779737947
1309.5000000000002, 57.20577178673238
1310, 57.04346726303628
1310.5, 56.94931684477941
1311.0000000000002, 56.99509361683309
1311.5, 57.00494045212667
1312.0000000000002, 56.92328941675151
1312.5, 56.82237753670765
1313, 56.75983559571723
1313.5000000000002, 56.75315605444799
1314, 56.71047513413
1314.5000000000002, 56.60282633397696
1315, 56.54692396867547
1315.5000000000002, 56.57910738712918
1316.0000000000002, 56.652805856070835
1316.5, 56.73642742110269
1317.0000000000002, 56.81466857997157
1317.5, 56.90033306735589
1318.0000000000002, 56.98725022666185
1318.5000000000002, 57.02733457898738
1319, 56.99958562611797
1319.5000000000002, 56.917457615296826
1320, 56.84353786906897
1320.5000000000002, 56.834382138965395
1321.0000000000002, 56.84846487926584
1321.5, 56.85956133668371
1322.0000000000002, 56.901999686583515
1322.5, 56.95331816379624
1323.0000000000002, 56.94626702902928
1323.5, 56.899602642988675
1324, 56.855445840529
1324.5000000000002, 56.7972515588877
1325, 56.72656098109841
1325.5000000000002, 56.69554130960222
1326, 56.70324075952946
1326.5, 56.706466876301135
1327.0000000000002, 56.7356243653292
1327.5, 56.828282467713066
1328.0000000000002, 56.926703481917734
1328.5, 56.9902235233372
1329.0000000000002, 57.041907272855404
1329.5000000000002, 57.071248690791144
1330, 57.041223430003214
1330.5000000000002, 56.98378454381935
1331, 56.941008029088906
1331.5000000000002, 56.878557424251895
1332.0000000000002, 56.79052880467929
1332.5, 56.74502189591018
1333.0000000000002, 56.73696157570706
1333.5, 56.702482394180585
1334.0000000000002, 56.67690890543755
1334.5, 56.70930108960195
1335, 56.73486385591361
1335.5000000000002, 56.72651653092534
1336, 56.76001679437216
1336.5000000000002, 56.814177883294356
1337, 56.79067003585189
1337.5, 56.731055544580876
1338.0000000000002, 56.717200098235914
1338.5, 56.74334796840216
1339.0000000000002, 56.79077307479047
1339.5, 56.850720719395184
1340.0000000000002, 56.89745340409726
1340.5000000000002, 56.89685818457462
1341, 56.87265755688212
1341.5000000000002, 56.85926765659129
1342, 56.83550918758934
1342.5000000000002, 56.78683765782151
1343.0000000000002, 56.73103514299559
1343.5, 56.68419661355887
1344.0000000000002, 56.65669146322578
1344.5, 56.648608764628136
1345.0000000000002, 56.66350870235609
1345.5000000000002, 56.73251517446063
1346, 56.828932887807284
1346.5000000000002, 56.82356222547139
1347, 56.72432229925164
1347.5000000000002, 56.65731969607597
1348, 56.64921622257872
1348.5, 56.67772292094413
1349.0000000000002, 56.7151763756397
1349.5, 56.74655033763136
1350.0000000000002, 56.77903268884173
1350.5, 56.79282779766929
1351, 56.75274015002533
1351.5000000000002, 56.703606153523346
1352, 56.7120859396119
1352.5000000000002, 56.79143639315185
1353, 56.878341791838416
1353.5000000000002, 56.810657232524996
1354.0000000000002, 56.66248527666467
1354.5, 56.68076884979415
1355.0000000000002, 56.76236398687726
1355.5, 56.71762848022271
1356.0000000000002, 56.62361555653624
1356.5000000000002, 56.58197016474098
1357, 56.63213188828848
1357.5000000000002, 56.740183310208174
1358, 56.822804848296926
1358.5000000000002, 56.87569189469076
1359.0000000000002, 56.92456364940196
1359.5, 56.97105755640387
1360.0000000000002, 57.00640254090883
1360.5, 57.0139132450815
1361.0000000000002, 56.99266172739464
1361.5, 56.95468073741559
1362, 56.898654192270776
1362.5000000000002, 56.82747101434452
1363, 56.780624100675404
1363.5000000000002, 56.79115063853022
1364, 56.864245534422786
1364.5000000000002, 56.94829215179294
1365.0000000000002, 56.95902335921171
1365.5, 56.92871616638098
1366.0000000000002, 56.92858105105587
1366.5, 56.97769028608288
1367.0000000000002, 57.05086031204089
1367.5000000000002, 57.07026936578606
1368, 57.02605664666387
1368.5000000000002, 56.97006505238439
1369, 56.928375807246326
1369.5000000000002, 56.90866329155713
1370.0000000000002, 56.8986592726258
1370.5, 56.87305765910474
1371.0000000000002, 56.79509714876371
1371.5, 56.692857977481914
1372.0000000000002, 56.645950088332306
1372.5000000000002, 56.680000185362644
1373, 56.77819315633529
1373.5000000000002, 56.86483104698462
1374, 56.896535320793895
1374.5000000000002, 56.90615006591688
1375, 56.90466732203213
1375.5, 56.877441484752396
1376.0000000000002, 56.81350279974462
1376.5, 56.72745377899672
1377.0000000000002, 56.71479319318256
1377.5, 56.79203172662434
1378.0000000000002, 56.81668843993298
1378.5000000000002, 56.76999092955627
1379, 56.749249928783144
1379.5000000000002, 56.79266347818786
1380, 56.89185498416723
1380.5000000000002, 56.97656606376153
1381.0000000000002, 56.98539237690566
1381.5, 56.898533151101226
1382.0000000000002, 56.75928252828715
1382.5, 56.65325983977306
1383.0000000000002, 56.59009325236347
1383.5000000000002, 56.55607970895274
1384, 56.578869723302056
1384.5000000000002, 56.661703101848964
1385, 56.75136724183192
1385.5000000000002, 56.810591553484485
1386.0000000000002, 56.828358269224346
1386.5, 56.84723222386043
1387.0000000000002, 56.90357321613697
1387.5, 56.929220220466874
1388.0000000000002, 56.90366030020463
1388.5, 56.92252952830258
1389, 56.998107671093265
1389.5000000000002, 57.06699072270183
1390, 57.12970698948091
1390.5000000000002, 57.189927223819254
1391, 57.157733505234305
1391.5000000000002, 57.017868394371824
1392.0000000000002, 56.91387981574606
1392.5, 56.916668409046366
1393.0000000000002, 57.01166476327538
1393.5, 57.13127185680893
1394.0000000000002, 57.2073698756606
1394.5000000000002, 57.249301845624544
1395, 57.26891575005951
1395.5000000000002, 57.25381317500515
1396, 57.19867713057484
1396.5000000000002, 57.10913022821592
1397.0000000000002, 57.00979204402568
1397.5, 56.93752281271815
1398.0000000000002, 56.94172833669048
1398.5, 57.02627412518582
1399.0000000000002, 57.11479389820401
1399.5, 57.173498060837645
1400, 57.21026655848867
