300, 42.84543311036746
300.5, 42.82191226960217
301, 42.77015574235869
301.5, 42.87343335135029
302, 42.93867681551719
302.5, 42.96272026578492
303, 42.991173705394466
303.5, 43.043887498683766
304, 43.11129059186347
304.5, 43.16263888883113
305, 43.21061784529881
305.5, 43.277484189832094
306, 43.33404921665469
306.5, 43.3640889257367
307, 43.39964268571782
307.5, 43.450530714147526
308, 43.500760594804895
308.5, 43.547942882947964
309, 43.59601665780948
309.5, 43.64427391613599
310, 43.69218609517045
310.5, 43.74159552571153
311, 43.789895764106554
311.5, 43.83230373006201
312, 43.88539730676381
312.5, 43.965290938112005
313, 44.0432433528639
313.5, 44.10430864488366
314, 44.17951140068495
314.5, 44.26257697909918
315, 44.31124142791024
315.5, 44.335026990557175
316, 44.3639177433199
316.5, 44.40131102438077
317, 44.447399275298885
317.5, 44.50819452813527
318, 44.573980124037845
318.5, 44.623271751506934
319, 44.67256356466956
319.5, 44.747800059029956
320, 44.83483529525779
320.5, 44.916409273927094
321, 44.98848243902338
321.5, 45.05144460380328
322, 45.107563934377765
322.5, 45.15036584450471
323, 45.17228017495724
323.5, 45.179234582416676
324, 45.18942603401663
324.5, 45.236718814285986
325, 45.32328073873482
325.5, 45.42025099362314
326, 45.51614536501615
326.5, 45.605446213032465
327, 45.668829175569634
327.5, 45.71073171095305
328, 45.78495732027676
328.5, 45.88741531245954
329, 45.958011179115594
329.5, 45.99375285422569
330, 46.02110742722766
330.5, 46.06308750006104
331, 46.12766921269976
331.5, 46.1962627308248
332, 46.259675050262494
332.5, 46.321303851784805
333, 46.38756768013212
333.5, 46.46435350577098
334, 46.550398471466295
334.5, 46.6349015445349
335, 46.6937949539335
335.5, 46.73848403865914
336, 46.810230094373466
336.5, 46.89363656788481
337, 46.95761277706825
337.5, 47.02518191054227
338, 47.108850063937226
338.5, 47.17728672362321
339, 47.238810014558865
339.5, 47.335956998672145
340, 47.42773191979586
340.5, 47.46030578267739
341, 47.49909359625952
341.5, 47.584192582286505
342, 47.65354641495622
342.5, 47.69635606249467
343, 47.75917554017048
343.5, 47.849654022600284
344, 47.951388916889044
344.5, 48.036290684248
345, 48.097314050642844
345.5, 48.17116603520866
346, 48.2544238082101
346.5, 48.30703800562082
347, 48.35552257841873
347.5, 48.444126777410176
348, 48.55072269837015
348.5, 48.648660042333894
349, 48.73431753961613
349.5, 48.81337702162059
350, 48.89599015763241
350.5, 48.97404718809775
351, 49.03747171390554
351.5, 49.105188264173655
352, 49.18713410819981
352.5, 49.26305834838679
353, 49.32517575188499
353.5, 49.382342969113715
354, 49.452062408051766
354.5, 49.54680089374759
355, 49.643498845794454
355.5, 49.72428039592989
356, 49.79801763638557
356.5, 49.878777773153224
357, 49.978330548092146
357.5, 50.070512078593744
358, 50.124433415159174
358.5, 50.16606439622488
359, 50.22618239262932
359.5, 50.31657918225032
360, 50.41585153626271
360.5, 50.47897370368988
361, 50.520161550525614
361.5, 50.58178210190462
362, 50.696165698104416
362.5, 50.84039098819753
363, 50.89778910125774
363.5, 50.90009721472026
364, 51.009527250407544
364.5, 51.16727767703844
365, 51.25050319722618
365.5, 51.335633823212085
366, 51.47283712511524
366.5, 51.57254118948888
367, 51.62769161155679
367.5, 51.718227010718465
368, 51.84202271393467
368.5, 51.96044716234081
369, 52.06232995630086
369.5, 52.14489627676639
370, 52.20910333210548
370.5, 52.27215999230229
371, 52.36159929185542
371.5, 52.460304471278455
372, 52.54067000634483
372.5, 52.62346969556978
373, 52.72184139609905
373.5, 52.81257886051781
374, 52.89059691844871
374.5, 52.970651897552315
375, 53.05060601851831
375.5, 53.12047450755784
376, 53.1748467851547
376.5, 53.220023266429955
377, 53.28152946437581
377.5, 53.365386916336206
378, 53.46002417583268
378.5, 53.585293008723895
379, 53.754616369552764
379.5, 53.89290234405144
380, 53.96694276745398
380.5, 54.06083338446096
381, 54.17965693080825
381.5, 54.25119335113109
382, 54.31585533280421
382.5, 54.43546632701313
383, 54.52642604978052
383.5, 54.54900257256684
384, 54.61081804949127
384.5, 54.73432944572033
385, 54.84832488780614
385.5, 54.93423148114128
386, 55.012708970324745
386.5, 55.1452257622893
387, 55.33497201003735
387.5, 55.46056293207386
388, 55.510859171934825
388.5, 55.58583418080761
389, 55.693560557585315
389.5, 55.79771497175459
390, 55.8797186207056
390.5, 55.941370463437856
391, 56.01406544191295
391.5, 56.114261067332045
392, 56.238666039144256
392.5, 56.36839527267527
393, 56.483895554216716
393.5, 56.59220622879125
394, 56.70367375726236
394.5, 56.821841982601676
395, 56.9344316835358
395.5, 57.02183141412334
396, 57.12759623256336
396.5, 57.294259957968286
397, 57.43544076107671
397.5, 57.5081290008669
398, 57.6076443635772
398.5, 57.74427961031969
399, 57.840857853590435
399.5, 57.914364591446
400, 58.011600611039455
400.5, 58.10283102691997
401, 58.1761965231035
401.5, 58.28635272289582
402, 58.42105188149318
402.5, 58.50844519742822
403, 58.58930312061253
403.5, 58.72513996871613
404, 58.831831057141414
404.5, 58.87014971432662
405, 58.94884702967571
405.5, 59.07122796536732
406, 59.13914146710962
406.5, 59.20784005409175
407, 59.36576487273438
407.5, 59.5204638452604
408, 59.611116295989106
408.5, 59.7177380565763
409, 59.85254340143161
409.5, 59.95576804869192
410, 60.05126238904875
410.5, 60.18269047711663
411, 60.300692560848624
411.5, 60.38741491381918
412, 60.52415247965217
412.5, 60.71069256492545
413, 60.86720568893949
413.5, 61.007453551564886
414, 61.172665682302394
414.5, 61.32051947184212
415, 61.41863925726648
415.5, 61.491798246547155
416, 61.55485387628589
416.5, 61.611836142346874
417, 61.71021917502741
417.5, 61.881838738118226
418, 62.01195792760807
418.5, 62.0494130701869
419, 62.12692235302757
419.5, 62.284982730259266
420, 62.455190084160584
420.5, 62.58130491876319
421, 62.6422488816493
421.5, 62.720744654683166
422, 62.87720513328611
422.5, 63.080802440598134
423, 63.27440551807741
423.5, 63.39872215548497
424, 63.50951590634675
424.5, 63.68396696648424
425, 63.85680400399156
425.5, 63.98194374764797
426, 64.11415888987516
426.5, 64.27990317735235
427, 64.46461413537938
427.5, 64.63412785487843
428, 64.76311995179316
428.5, 64.89555825133922
429, 65.05851179044728
429.5, 65.21628366098614
430, 65.3579355377884
430.5, 65.50139618920795
431, 65.64618129118406
431.5, 65.78716498610459
432, 65.93957663336745
432.5, 66.11461975074882
433, 66.30543035702009
433.5, 66.48178156809033
434, 66.60284543912601
434.5, 66.7144611925197
435, 66.87591189615554
435.5, 67.02830573557539
436, 67.12572273694991
436.5, 67.2023819279504
437, 67.31781999296754
437.5, 67.52823674123168
438, 67.72650602567043
438.5, 67.7920112324864
439, 67.87047534336673
439.5, 68.05522427030137
440, 68.22154454352673
440.5, 68.32311565878464
441, 68.41113224210781
441.5, 68.51355382702891
442, 68.63863478642917
442.5, 68.7715076956949
443, 68.8999607847237
443.5, 69.02732249280353
444, 69.156046723596
444.5, 69.28572881748124
445, 69.41330180078711
445.5, 69.53818772905882
446, 69.67431411228533
446.5, 69.82234063090621
447, 69.95242761137439
447.5, 70.06109358042167
448, 70.1713430542714
448.5, 70.28470800314753
449, 70.39524320613452
449.5, 70.5119296238865
450, 70.63001799671218
450.5, 70.71539441731318
451, 70.80912513385636
451.5, 71.00633576238883
452, 71.21282310661206
452.5, 71.30029237604727
453, 71.38152059557093
453.5, 71.53381411360351
454, 71.6606367935201
454.5, 71.74871764708335
455, 71.86995840067055
455.5, 71.97096302493014
456, 71.97645201349219
456.5, 71.97716837836337
457, 72.04192156466665
457.5, 72.12397189565446
458, 72.22048298041021
458.5, 72.3709451774516
459, 72.5054546674654
459.5, 72.54305657930979
460, 72.57618099472654
460.5, 72.67389102491998
461, 72.78433948446336
461.5, 72.91277698911881
462, 73.112627007424
462.5, 73.26427139268498
463, 73.23918115590006
463.5, 73.21438156558723
464, 73.31458620806669
464.5, 73.4286384228888
465, 73.50220442211189
465.5, 73.55918715390936
466, 73.60135063880168
466.5, 73.62201923786785
467, 73.6313283534749
467.5, 73.6547500714502
468, 73.73676108741957
468.5, 73.8745578316206
469, 74.01903702673444
469.5, 74.13617162830518
470, 74.20981742472013
470.5, 74.26002329879633
471, 74.30768197035667
471.5, 74.35899799578938
472, 74.42470783043825
472.5, 74.51733564108976
473, 74.61400970523972
473.5, 74.68456069198076
474, 74.73962820632354
474.5, 74.81039858394911
475, 74.94456257280785
475.5, 75.11329931643915
476, 75.22629939870161
476.5, 75.31713641407043
477, 75.4555730696535
477.5, 75.60600461483376
478, 75.72396128493064
478.5, 75.79766526630044
479, 75.84059785044744
479.5, 75.88428079972581
480, 75.93500738804465
480.5, 75.9912248350656
481, 76.07120797172881
481.5, 76.17278630951361
482, 76.24885139242107
482.5, 76.30861104363163
483, 76.4105046701943
483.5, 76.52589737342853
484, 76.6000222701217
484.5, 76.64968003653087
485, 76.68751541118024
485.5, 76.68691021844776
486, 76.64858167503668
486.5, 76.60373933136177
487, 76.5810256151567
487.5, 76.60017329932965
488, 76.65351268269976
488.5, 76.68984857636615
489, 76.59661022164703
489.5, 76.43509033545358
490, 76.40406672082545
490.5, 76.38305304961257
491, 76.18855809757918
491.5, 76.0214303004853
492, 76.00379361242041
492.5, 75.94121020654183
493, 75.778742327425
493.5, 75.62053379031896
494, 75.48308774965639
494.5, 75.34677282557645
495, 75.23421895197514
495.5, 75.13457109584758
496, 74.95942738949537
496.5, 74.7220354262247
497, 74.52784299484004
497.5, 74.35798623274196
498, 74.14725704384014
498.5, 73.89912345672685
499, 73.62809009058967
499.50000000000006, 73.33862646542207
500, 73.04840206957799
500.5, 72.78395091370322
501.00000000000006, 72.52970675457534
501.5, 72.25889348228867
502, 71.98340545752089
502.5, 71.7120904168848
503, 71.4311047198502
503.5, 71.14004270158085
504, 70.85181872662224
504.5, 70.56132013597775
505.00000000000006, 70.25847253339558
505.5, 69.94989920164409
506, 69.64384633703068
506.5, 69.34339698386438
507, 69.03821118713785
507.5, 68.70916284212547
508, 68.36793492512246
508.5, 68.0330678955564
509.00000000000006, 67.68958029638114
509.5, 67.33295460624645
510, 66.99247704930292
510.50000000000006, 66.67499468525286
511, 66.36194057362644
511.5, 66.03444438882389
512, 65.68794621776094
512.5, 65.37127977559523
513, 65.10258860879372
513.5, 64.82049456933666
514, 64.50996262616601
514.5, 64.20460727102704
515, 63.89807341122798
515.5, 63.57427076487231
516, 63.260240660861754
516.5, 62.9719647043611
517, 62.68593556583654
517.5, 62.395657284128376
518, 62.11430551242535
518.5, 61.84641698341229
519, 61.58937449361853
519.5, 61.331286974346604
520, 61.07096140438064
520.5, 60.830370967330225
521, 60.60892037081888
521.5, 60.38462284184514
522, 60.16008854190483
522.5, 59.947263986382595
523, 59.745078311533604
523.5, 59.551176007744864
524, 59.36664783668284
524.5, 59.19124808367778
525, 59.023678654821104
525.5, 58.86773224591942
526, 58.72459507767669
526.5, 58.57568390520248
527, 58.41323739945622
527.5, 58.25797214628698
528, 58.1155954350701
528.5, 57.97701177120428
529, 57.85618903390769
529.5, 57.76416817623126
530, 57.655580263412816
530.5, 57.50815005210651
531, 57.36665699870261
531.5, 57.241457616109194
532, 57.10540063550072
532.5, 56.95591920305441
533, 56.805322498389906
533.5, 56.673072478011576
534, 56.58346217898143
534.5, 56.56202598244432
535, 56.53423355822044
535.5, 56.35834623674816
536, 56.140473811663426
536.5, 56.03942360812794
537, 55.937106463120756
537.5, 55.762507945537855
538, 55.65256148695899
538.5, 55.63684919260796
539, 55.627572921472854
539.5, 55.6081927472759
540, 55.58812604731037
540.5, 55.531309409834144
541, 55.440269002910405
541.5, 55.40549143567995
542, 55.41557967781876
542.5, 55.367936815839975
543, 55.29857721688918
543.5, 55.27559212242932
544, 55.218553029194396
544.5, 55.09462346431807
545, 55.022128711684175
545.5, 55.01893391337278
546, 54.99966677410532
546.5, 54.96134991353599
547, 54.93740011641451
547.5, 54.93530375425659
548, 54.95130981953742
548.5, 54.97183309143484
549, 54.96982466717156
549.5, 54.91491955948207
550, 54.84873267234371
550.5, 54.82095418928606
551, 54.775018931359824
551.5, 54.69697035263771
552, 54.69459949567318
552.5, 54.75621769864564
553, 54.757807029956254
553.5, 54.70811313700784
554, 54.67501063515794
554.5, 54.69068011232143
555, 54.74541373345622
555.5, 54.770618608737365
556, 54.76393669793301
556.5, 54.784698639789724
557, 54.82164477919555
557.5, 54.83451872690554
558, 54.811567164553324
558.5, 54.771741828478476
559, 54.77597763973197
559.5, 54.83308918756808
560, 54.90276970736001
560.5, 54.9914151750142
561, 55.11132184213534
561.5, 55.20487364192057
562, 55.23753263743654
562.5, 55.248581146742055
563, 55.26536634256346
563.5, 55.29658437819888
564, 55.356511046253296
564.5, 55.45164379813872
565, 55.546717215235105
565.5, 55.613462148856684
566, 55.65571018955949
566.5, 55.68565822108923
567, 55.720341034254105
567.5, 55.77816241827571
568, 55.8641067350502
568.5, 55.92977493833882
569, 55.94634753534427
569.5, 55.94481133681132
570, 55.94510531271759
570.5, 55.948783046270854
571, 55.94561491960072
571.5, 55.927726856089706
572, 55.91717032675808
572.5, 55.93130660599224
573, 55.96543928965987
573.5, 56.01589515590154
574, 56.080608655277636
574.5, 56.14335274156451
575, 56.1902215361563
575.5, 56.24296226790928
576, 56.29996281771516
576.5, 56.30261579806561
577, 56.24424619478519
577.5, 56.17193080110297
578, 56.1138041117213
578.5, 56.079618651372556
579, 56.04915478545759
579.5, 56.02404691728998
580, 56.05666557249107
580.5, 56.12936047191113
581, 56.162905334525774
581.5, 56.1709114805301
582, 56.199226776617735
582.5, 56.23605148846489
583, 56.257060446649106
583.5, 56.24204941710625
584, 56.20545421175244
584.5, 56.18991291029644
585, 56.19903757409714
585.5, 56.2168504142068
586, 56.228818659767285
586.5, 56.239220090729944
587, 56.28442764669063
587.5, 56.35394134994499
588, 56.39175930476712
588.5, 56.36655684714951
589, 56.28109012932074
589.5, 56.2178372207243
590, 56.24135749670532
590.5, 56.344054478594295
591, 56.44427639583945
591.5, 56.4173693733752
592, 56.30968527020803
592.5, 56.22385390002955
593, 56.150507189544875
593.5, 56.06945688775432
594, 55.99062048246816
594.5, 55.928269639832855
595, 55.89569662364479
595.5, 55.88960240837229
596, 55.89491013189829
596.5, 55.883105640869196
597, 55.847513311094296
597.5, 55.825219573031276
598, 55.79444764296726
598.5, 55.68413380174065
599, 55.5215826987632
599.5, 55.36973185328369
600, 55.237690135376475
600.5, 55.11275325260388
601, 54.96640770377984
601.5, 54.78456499456732
602, 54.57731272528853
602.5, 54.4263378654767
603, 54.40085831331723
603.5, 54.389537859042
604, 54.29856436845348
604.5, 54.14870365535802
605, 54.00208706806197
605.5, 53.93109819832269
606, 53.86363422076056
606.5, 53.70548523558969
607, 53.551018023329064
607.5, 53.46086269909451
608, 53.352758822606084
608.5, 53.21793539627917
609, 53.12284408310873
609.5, 53.048776413540125
610, 52.94651774968192
610.5, 52.81691658391891
611, 52.67230956597517
611.5, 52.523913007875805
612, 52.37981966986999
612.5, 52.244839421412806
613, 52.120463832708936
613.5, 52.005803997368936
614, 51.89687495855854
614.5, 51.78638075355327
615, 51.663055900043304
615.5, 51.53286924708019
616, 51.415613841054764
616.5, 51.30525363174252
617, 51.189817582840135
617.5, 51.084354209042274
618, 51.001957037615504
618.5, 50.93931533143619
619, 50.875947063903325
619.5, 50.78088101119461
620, 50.65837564419137
620.5, 50.52286031785555
621, 50.36064411467088
621.5, 50.17784285027279
622, 50.028537869405206
622.5, 49.941119240420136
623, 49.91059648749815
623.5, 49.90113603745203
624, 49.873922287181095
624.5, 49.83410138987805
625, 49.7777075286103
625.5, 49.667563371273864
626, 49.53266300861178
626.5, 49.45670506770933
627, 49.422885446929236
627.5, 49.372702447740124
628, 49.282239543145934
628.5, 49.16342412257836
629, 49.07622859314797
629.5, 49.018237518272684
630, 48.933640817499885
630.5, 48.860534485420544
631, 48.84913266451113
631.5, 48.81597504851539
632, 48.71455355724481
632.5, 48.62246681168374
633, 48.546870011180076
633.5, 48.42873025050551
634, 48.32608546780349
634.5, 48.305204554350944
635, 48.240062449075
635.5, 48.07956372813472
636, 47.98929352781953
636.5, 47.990825855127476
637, 47.96324691340065
637.5, 47.93348690711254
638, 47.95597934517124
638.5, 47.902897690075626
639, 47.72754861153902
639.5, 47.606980755238716
640, 47.57568218336852
640.5, 47.5226989411217
641, 47.45460959930996
641.5, 47.41364161366477
642, 47.34700370326267
642.5, 47.25060565663531
643, 47.24628565045432
643.5, 47.3271571744469
644, 47.36165822983227
644.5, 47.31350917282601
645, 47.21021795739423
645.5, 47.1332433935725
646, 47.10993843730699
646.5, 47.04892484671848
647, 46.96100285568547
647.5, 46.94984775077845
648, 46.977789622685
648.5, 46.96006428817229
649, 46.90447640526741
649.5, 46.838179867592444
650, 46.78223284926325
650.5, 46.73608122369454
651, 46.68314056716022
651.5, 46.639740751674246
652, 46.62463238575783
652.5, 46.60335281302497
653, 46.56472887437038
653.5, 46.56035011721112
654, 46.56477907364797
654.5, 46.48947655932123
655, 46.38584229862115
655.5, 46.33722397378921
656, 46.28265533056007
656.5, 46.192326284204015
657, 46.15318731231269
657.5, 46.16333090993897
658, 46.13540822620103
658.5, 46.07698579144019
659, 46.034851474627835
659.5, 46.020966701962315
660, 46.035116961778996
660.5, 46.06936594382962
661, 46.1022135546074
661.5, 46.1039558253287
662, 46.07734770850531
662.5, 46.03613033570149
663, 45.97464546754138
663.5, 45.89338389523787
664, 45.81262352090842
664.5, 45.750724546085614
665, 45.71979591412393
665.5, 45.712460693249554
666, 45.718685772866856
666.5, 45.753935752357336
667, 45.809558938419244
667.5, 45.82353916995436
668, 45.782212464171515
668.5, 45.723449925716544
669, 45.68403639792102
669.5, 45.67775373910483
670, 45.63762884338886
670.5, 45.535783026802896
671, 45.44798897068191
671.5, 45.37209610688283
672, 45.23842507342396
672.5, 45.12097279361055
673, 45.12489530817788
673.5, 45.20111868576015
674, 45.28446446685876
674.5, 45.34879912292542
675, 45.39356596857291
675.5, 45.437345271998396
676, 45.48859489993075
676.5, 45.54407230750251
677, 45.57669024662521
677.5, 45.57574425413565
678, 45.57025702091045
678.5, 45.57161485987924
679, 45.571540354769176
679.5, 45.57197103998594
680, 45.58113753955071
680.5, 45.610528306738466
681, 45.66001538965629
681.5, 45.70777107091976
682, 45.755113692484265
682.5, 45.81960778069805
683, 45.85289649931019
683.5, 45.80198191032113
684, 45.71965124696227
684.5, 45.654558968958966
685, 45.60227274233639
685.5, 45.57255023380581
686, 45.58625781081796
686.5, 45.599824890503086
687, 45.56596679494565
687.5, 45.54335064061146
688, 45.57480658978902
688.5, 45.62806719255429
689, 45.675741807420884
689.5, 45.70191887636283
690, 45.68344664648031
690.5, 45.608603355115214
691, 45.52309772527755
691.5, 45.48032662676671
692, 45.51953653982478
692.5, 45.610018158254825
693, 45.66602570043913
693.5, 45.68460976733993
694, 45.698632359343605
694.5, 45.71881944152095
695, 45.749509149410954
695.5, 45.791915963743975
696, 45.82375225789247
696.5, 45.80804684860029
697, 45.76804700478165
697.5, 45.7455989640385
698, 45.74023458653481
698.5, 45.741190779271705
699, 45.738057873812394
699.5, 45.73778963018065
700, 45.76275605892081
700.5, 45.826582181269565
701, 45.92609348730215
701.5, 46.01221756810677
702, 46.04846769020587
702.5, 46.0424042461603
703, 46.02324305769049
703.5, 46.029981206629294
704, 46.050123024017786
704.5, 46.0545725498198
705, 46.04751186965969
705.5, 46.04409520593221
706, 46.06384842281069
706.5, 46.09922901827045
707, 46.11843986700729
707.5, 46.10546185259605
708, 46.059936237182306
708.5, 46.009549227126236
709, 45.97597414327382
709.5, 45.95801548469182
710, 45.960614862425736
710.5, 45.99451057231299
711, 46.0510529957231
711.5, 46.109104982168276
712, 46.13695529258969
712.5, 46.13209398245278
713, 46.14840645499113
713.5, 46.2029845594953
714, 46.27215315718955
714.5, 46.33191687562861
715, 46.361801260314635
715.5, 46.352413270948134
716, 46.31610425111668
716.5, 46.29834318827242
717, 46.30280129210749
717.5, 46.29447762402277
718, 46.274361179004124
718.5, 46.26302788758247
719, 46.2854366576622
719.5, 46.33869131264945
720, 46.36962893779176
720.5, 46.380999307696925
721, 46.424160628572146
721.5, 46.47212375006939
722, 46.47837433035055
722.5, 46.47044581104034
723, 46.471919508225696
723.5, 46.46815318184202
724.0000000000001, 46.46762567935142
724.5, 46.50001034208396
725, 46.55710210238235
725.5, 46.61289701923318
726, 46.6458306287509
726.5000000000001, 46.65774439357141
727, 46.68950105066435
727.5, 46.74197020317595
728, 46.77703714010594
728.5, 46.78054004316054
729, 46.75980834597847
729.5, 46.75590972304223
730, 46.78908221810032
730.5, 46.82775342069028
731, 46.85834849934527
731.5, 46.89135045886176
732.0000000000001, 46.951164097222325
732.5, 47.03954847964119
733, 47.05016509703805
733.5, 46.94553886749504
734, 46.85782264578643
734.5000000000001, 46.854868511890565
735, 46.92180380786599
735.5, 47.00719065888083
736, 47.06123393390823
736.5, 47.10123757371195
737, 47.138146067506646
737.5000000000001, 47.144624030288895
738, 47.14118921878734
738.5, 47.18742230939039
739, 47.26006064078791
739.5, 47.30577801000382
740.0000000000001, 47.313151619432034
740.5, 47.294351508161256
741, 47.28649027578196
741.5, 47.32463120736815
742, 47.429493809410424
742.5, 47.54160217117609
743.0000000000001, 47.58882125403053
743.5, 47.59733302079068
744, 47.60906178697021
744.5, 47.65020330270708
745, 47.70160785083477
745.5000000000001, 47.7098975977993
746, 47.67962134635781
746.5, 47.65895229788221
747, 47.75017414519593
747.5, 47.94877260435739
748, 48.041497529633205
748.5, 48.01831675909695
749, 48.057447686115346
749.5, 48.13125848821337
750, 48.14859667273379
750.5, 48.169433943667336
751.0000000000001, 48.22631287454593
751.5, 48.23972013992836
752, 48.19746286257323
752.5, 48.154427978033794
753, 48.10057932452118
753.5000000000001, 48.03068991916021
754, 48.07971589103709
754.5, 48.275264224709325
755, 48.39656245795198
755.5, 48.38958933637508
756, 48.37312614561519
756.5000000000001, 48.38372279021649
757, 48.41329888182285
757.5, 48.44913121479022
758, 48.492366658810596
758.5, 48.57034568235918
759.0000000000001, 48.68934332839741
759.5, 48.829938522025756
760, 48.94741747693272
760.5, 49.01064125275423
761, 49.08310599715076
761.5, 49.18913435446322
762.0000000000001, 49.24574628042795
762.5, 49.269503327131545
763, 49.36352423144636
763.5, 49.48165349568511
764, 49.53252649956038
764.5000000000001, 49.533727140536165
765, 49.51771084934922
765.5, 49.49786982393071
766, 49.500086876410364
766.5, 49.55988397774842
767.0000000000001, 49.67962140542363
767.5000000000001, 49.83390401973459
768, 49.95498056824385
768.5, 50.01571663700423
769, 50.08051797458304
769.5, 50.20054483322119
770.0000000000001, 50.38842027483461
770.5, 50.520857716638446
771, 50.47710509189502
771.5, 50.39004612789075
772, 50.38287048142498
772.5000000000001, 50.451621294490344
773, 50.57246580120647
773.5, 50.71394409603365
774, 50.83108246156805
774.5, 50.889987611873
775, 50.92222750484197
775.5000000000001, 50.96608436393073
776, 51.042706551869436
776.5, 51.14365833114411
777, 51.23905880757157
777.5, 51.33758664958912
778.0000000000001, 51.44856990199046
778.5, 51.5127601332525
779, 51.51907147100993
779.5, 51.569248967471346
780, 51.676589427967684
780.5, 51.76834031581813
781.0000000000001, 51.84293866504847
781.5, 51.924853606784815
782, 52.00039977326222
782.5, 52.04151644308373
783, 52.01392957961799
783.5000000000001, 51.95855235054859
784, 51.97340143598073
784.5, 52.039498084735946
785, 52.09452108316991
785.5, 52.130644145455186
786.0000000000001, 52.15988369239548
786.5000000000001, 52.20611238196501
787, 52.274040126880564
787.5, 52.350500144352885
788, 52.433571724869395
788.5, 52.52639049000183
789.0000000000001, 52.62910027030107
789.5000000000001, 52.71960230677064
790.0000000000001, 52.740462527540465
790.5, 52.71460813690939
791, 52.73086222744783
791.5000000000001, 52.76954933770993
792.0000000000001, 52.776070113397076
792.5000000000001, 52.7667272635689
793, 52.77571606784931
793.5, 52.83661234700251
794, 52.92299229205962
794.5000000000001, 52.95989191072205
795.0000000000001, 52.936595325196166
795.5, 52.88169392590539
796, 52.8502950076744
796.5, 52.856883389201634
797.0000000000001, 52.83398966817534
797.5000000000001, 52.77905191375822
798.0000000000001, 52.75304250889075
798.5, 52.76974603232737
799, 52.804490566020085
799.5000000000001, 52.77963971949148
800.0000000000001, 52.67538617858379
800.5000000000001, 52.59679757080866
801, 52.592572806627764
801.5, 52.638856426598615
802, 52.655782056405776
802.5000000000001, 52.58509627710182
803.0000000000001, 52.54458162978088
803.5000000000001, 52.60968100357452
804, 52.70538920626858
804.5, 52.78296212257897
805.0000000000001, 52.83632370064971
805.5000000000001, 52.88261369861955
806.0000000000001, 52.92602060542432
806.5, 52.88425092655351
807, 52.73324306542981
807.5, 52.58988886829216
808.0000000000001, 52.53868761076747
808.5000000000001, 52.60647697539169
809.0000000000001, 52.714758544983646
809.5, 52.753347686386185
810, 52.68066868894565
810.5000000000001, 52.52575686987764
811.0000000000001, 52.41102821110977
811.5000000000001, 52.340762758505576
812, 52.21727786690601
812.5, 52.092232673110196
813, 52.03971163088075
813.5000000000001, 51.94188625543372
814.0000000000001, 51.7508276578504
814.5, 51.62054319889258
815, 51.57225962574228
815.5, 51.4980541840184
816.0000000000001, 51.418206185383426
816.5000000000001, 51.387140197355
817.0000000000001, 51.34678109621815
817.5, 51.262538747121575
818, 51.187836278181344
818.5000000000001, 51.12717389926103
819.0000000000001, 51.03795880007797
819.5000000000001, 50.939523643833994
820, 50.8689456302229
820.5, 50.814518262668756
821, 50.75386320414191
821.5000000000001, 50.66824006047068
822.0000000000001, 50.58654060119944
822.5000000000001, 50.56942661344308
823, 50.57584117427248
823.5, 50.53233524235738
824.0000000000001, 50.43032648612332
824.5000000000001, 50.28545172524234
825.0000000000001, 50.12865131572155
825.5, 49.967910357306636
826, 49.79161633831443
826.5, 49.61628893043102
827.0000000000001, 49.464841484205266
827.5000000000001, 49.33198924298815
828.0000000000001, 49.20493922236952
828.5, 49.07049505991988
829, 48.94181067640432
829.5000000000001, 48.847865748441784
830.0000000000001, 48.745560344702405
830.5000000000001, 48.58045388249337
831, 48.38648194441632
831.5, 48.20576834967505
832.0000000000001, 48.056715503850356
832.5000000000001, 47.93269729882935
833.0000000000001, 47.80831141330399
833.5000000000001, 47.67718501820596
834, 47.54473564273127
834.5, 47.424564600695064
835.0000000000001, 47.315550668426155
835.5000000000001, 47.188579144836915
836.0000000000001, 47.05791728965603
836.5, 46.970877570439946
837, 46.89076386721052
837.5000000000001, 46.76516466076701
838.0000000000001, 46.635945843762684
838.5000000000001, 46.52810371721585
839, 46.397739198282494
839.5, 46.23093170600535
840, 46.04671772998735
840.5000000000001, 45.84795182594623
841.0000000000001, 45.64133859443618
841.5000000000001, 45.478570565914886
842, 45.36128045181466
842.5, 45.18706395187474
843.0000000000001, 44.96779151278972
843.5000000000001, 44.81988829665989
844.0000000000001, 44.75573452038638
844.5, 44.73045234016962
845, 44.68064541586515
845.5, 44.58141825109495
846.0000000000001, 44.48293665622815
846.5000000000001, 44.388578570793264
847.0000000000001, 44.25999139171339
847.5, 44.1357038186906
848, 44.0719054773233
848.5000000000001, 44.04970814493225
849.0000000000001, 44.02572869336433
849.5000000000001, 43.946313419703564
850, 43.8076070000218
850.5, 43.65254155993851
851.0000000000001, 43.51672750188276
851.5000000000001, 43.41209996365072
852.0000000000001, 43.27993598079711
852.5000000000001, 43.12960120918943
853, 43.11567596589979
853.5, 43.237028382048784
854.0000000000001, 43.34381533363533
854.5000000000001, 43.37899471680407
855.0000000000001, 43.34330556485195
855.5, 43.27563235551905
856, 43.220659712531386
856.5000000000001, 43.21488159927781
857.0000000000001, 43.23716492216494
857.5000000000001, 43.22257769808143
858, 43.18128209152595
858.5, 43.14860481750662
859, 43.116052511335376
859.5000000000001, 43.06985531121123
860.0000000000001, 43.004607865937864
860.5000000000001, 42.90353348447754
861, 42.75223591554989
861.5, 42.64724321004319
862.0000000000001, 42.69349579558661
862.5000000000001, 42.82935579831535
863.0000000000001, 42.96684435274669
863.5, 43.04360176433118
864, 43.06559224423275
864.5, 43.09042566270571
865.0000000000001, 43.097402306360706
865.5000000000001, 43.051154938558405
866.0000000000001, 43.00479544184664
866.5, 42.99145422124305
867, 42.97242661322915
867.5000000000001, 42.93711755456978
868.0000000000001, 42.90770187619919
868.5000000000001, 42.90137938758918
869, 42.93221901353961
869.5, 43.013632153649354
870.0000000000001, 43.14229086647815
870.5000000000001, 43.283524620042385
871.0000000000001, 43.37437420297031
871.5000000000001, 43.34073200420301
872, 43.20623950064069
872.5, 43.04443544505325
873.0000000000001, 42.93819029189944
873.5000000000001, 42.9217371589894
874.0000000000001, 42.93955974373915
874.5, 42.97323738386867
875, 43.04283588461421
875.5000000000001, 43.128115565647654
876.0000000000001, 43.19762844428332
876.5000000000001, 43.252798324884104
877, 43.30106010111986
877.5, 43.34617983990022
878, 43.376759063685995
878.5000000000001, 43.369888987121946
879.0000000000001, 43.32107438896308
879.5000000000001, 43.24670079929742
880, 43.206397889346064
880.5, 43.224930294892715
881.0000000000001, 43.24812322932944
881.5000000000001, 43.26176668178609
882.0000000000001, 43.29170359531765
882.5, 43.32339973802682
883, 43.33625928427399
883.5000000000001, 43.36133759160666
884.0000000000001, 43.40189799126733
884.5000000000001, 43.392774737881744
885.0000000000001, 43.335271601204575
885.5, 43.29447812002349
886, 43.29531745327662
886.5000000000001, 43.33084450635195
887.0000000000001, 43.352438239871894
887.5000000000001, 43.34575319561964
888, 43.37301990025842
888.5, 43.445443396362904
889.0000000000001, 43.518862891976475
889.5000000000001, 43.54754396155954
890.0000000000001, 43.51265178650664
890.5000000000001, 43.49314223734824
891, 43.529877782802664
891.5, 43.55654714991619
892.0000000000001, 43.550637959387764
892.5000000000001, 43.537890874985735
893.0000000000001, 43.51894476939653
893.5, 43.4870494283405
894, 43.45599385562957
894.5000000000001, 43.449103454896694
895.0000000000001, 43.4954312896938
895.5000000000001, 43.56549382023423
896.0000000000001, 43.58611235175501
896.5, 43.57571809461629
897, 43.57868100134931
897.5000000000001, 43.57015589403147
898.0000000000001, 43.53569427928075
898.5000000000001, 43.50807762845046
899, 43.51275526719307
899.5, 43.562763217121585
900.0000000000001, 43.66358597228404
900.5000000000001, 43.795974735637046
901.0000000000001, 43.86274413474303
901.5, 43.82594338813259
902, 43.78361628373955
902.5000000000001, 43.773610298949365
903.0000000000001, 43.76349720755734
903.5000000000001, 43.714232140726345
904.0000000000001, 43.62239910794721
904.5, 43.62185202474644
905, 43.77134658663215
905.5000000000001, 43.93984616145906
906.0000000000001, 44.04235813061376
906.5000000000001, 44.06113999406102
907, 44.024370020323204
907.5, 43.97455879163462
908.0000000000001, 43.930475101138725
908.5000000000001, 43.90893283169611
909.0000000000001, 43.93145430803622
909.5000000000001, 43.985637514790426
910, 44.03307167615159
910.5, 44.083609852494554
911.0000000000001, 44.15433111641267
911.5000000000001, 44.20240199338025
912.0000000000001, 44.213207958880645
912.5, 44.244905613250346
913, 44.29806685798969
913.5000000000001, 44.319052304818776
914.0000000000001, 44.30622002606232
914.5000000000001, 44.29018036145298
915.0000000000001, 44.32461464074842
915.5, 44.43487120442946
916.0000000000001, 44.584614969507335
916.5000000000001, 44.71149127266818
917.0000000000001, 44.74778338642119
917.5000000000001, 44.72794818533304
918, 44.725659467941675
918.5, 44.778013450546986
919.0000000000001, 44.868593831149475
919.5000000000001, 44.90426189519134
920.0000000000001, 44.87625592251167
920.5, 44.85612087432038
921, 44.86994218086876
921.5000000000001, 44.914861436745625
922.0000000000001, 44.96710970194132
922.5000000000001, 45.01365193320783
923.0000000000001, 45.068739134346565
923.5, 45.13503057857543
924, 45.204727843476746
924.5000000000001, 45.29375677802018
925.0000000000001, 45.406729823750005
925.5000000000001, 45.46479991135949
926, 45.430939247913955
926.5, 45.37724958155601
927.0000000000001, 45.367011280515605
927.5000000000001, 45.430707863166816
928.0000000000001, 45.48789899667412
928.5000000000001, 45.455676022535606
929, 45.43428976501912
929.5, 45.49774183577809
930.0000000000001, 45.598401236901765
930.5000000000001, 45.71246316026977
931.0000000000001, 45.84565505715804
931.5, 45.96838105012754
932, 46.04568109776048
932.5000000000001, 46.08698644090524
933.0000000000001, 46.115976334758386
933.5000000000001, 46.16230125650088
934.0000000000001, 46.23047933799278
934.5, 46.29909699064954
935.0000000000001, 46.33097597643073
935.5000000000001, 46.308583323560036
936.0000000000001, 46.31189410331289
936.5000000000001, 46.380543704042594
937, 46.44513069732053
937.5, 46.5068041843371
938.0000000000001, 46.6281711870777
938.5000000000001, 46.75536223031343
939.0000000000001, 46.81806210785807
939.5, 46.89337362807607
940, 47.026855382945364
940.5000000000001, 47.149879118847885
941.0000000000001, 47.258202478664415
941.5000000000001, 47.40550721453319
942.0000000000001, 47.542720566676465
942.5, 47.59684291249873
943, 47.59107126493852
943.5000000000001, 47.57032524458515
944.0000000000001, 47.576860912376084
944.5000000000001, 47.61468775262485
945, 47.65685226050371
945.5, 47.710445267949694
946.0000000000001, 47.789254407889665
946.5000000000001, 47.87019182449949
947.0000000000001, 47.94583255046593
947.5000000000001, 48.050345113533986
948, 48.184358400758704
948.5000000000001, 48.314247418023335
949.0000000000001, 48.41359581392432
949.5000000000001, 48.469712656424385
950.0000000000001, 48.50547740982386
950.5, 48.560286793169496
951, 48.68480704470753
951.5000000000001, 48.85491903970732
952.0000000000001, 48.989868855208485
952.5000000000001, 49.118591954836425
953.0000000000001, 49.29469709465492
953.5, 49.466882066906855
954.0000000000001, 49.584985330566425
954.5000000000001, 49.64539706020747
955.0000000000001, 49.671156664237444
955.5000000000001, 49.710554386600656
956, 49.851663876058225
956.5, 50.13048731670539
957.0000000000001, 50.326382177909714
957.5000000000001, 50.36385335982214
958.0000000000001, 50.51846792421166
958.5, 50.78487796349965
959, 50.89947060408349
959.5000000000001, 50.88461006842307
960.0000000000001, 50.87416120264146
960.5000000000001, 50.89395370986241
961.0000000000001, 50.940963455285875
961.5, 51.006447216948715
962, 51.107270734229594
962.5000000000001, 51.27636880447069
963.0000000000001, 51.4816690903877
963.5000000000001, 51.66984331407145
964, 51.82426903928235
964.5, 51.94019069873582
965.0000000000001, 52.01817092584812
965.5000000000001, 52.04280669185482
966.0000000000001, 51.998008665153385
966.5000000000001, 51.98322161471409
967, 52.0980294817928
967.5000000000001, 52.24178210149419
968.0000000000001, 52.34698192468032
968.5000000000001, 52.48545670525543
969.0000000000001, 52.68901728654301
969.5, 52.93245538895189
970, 53.139063983221064
970.5000000000001, 53.24642700833014
971.0000000000001, 53.32991854621597
971.5000000000001, 53.44492101689328
972.0000000000001, 53.55580244356954
972.5, 53.648933733085855
973.0000000000001, 53.73953437650462
973.5000000000001, 53.84052158224369
974.0000000000001, 53.95560399410874
974.5000000000001, 54.06120500185964
975, 54.17456181581419
975.5, 54.38835532087284
976.0000000000001, 54.622634815253384
976.5000000000001, 54.676483650136426
977.0000000000001, 54.712821447270905
977.5000000000001, 54.95062378403603
978, 55.17476312722757
978.5000000000001, 55.2554527401247
979.0000000000001, 55.38410741261522
979.5000000000001, 55.57553071174214
980.0000000000001, 55.67744565710836
980.5, 55.752434895454314
981.0000000000001, 55.90647912458616
981.5000000000001, 56.02124889523734
982.0000000000001, 56.073359960103346
982.5000000000001, 56.28725913431058
983, 56.61906100011652
983.5, 56.79276244380334
984.0000000000001, 56.84714645131914
984.5000000000001, 56.92704187601763
985.0000000000001, 57.0032788566154
985.5000000000001, 57.058641397561296
986, 57.163255438102354
986.5000000000001, 57.28142430309454
987.0000000000001, 57.301951822573265
987.5000000000001, 57.355949023056894
988.0000000000001, 57.589009285944336
988.5, 57.77588027906435
989, 57.78256918358187
989.5000000000001, 57.783643842641546
990.0000000000001, 57.84317935782468
990.5000000000001, 57.90241292451827
991.0000000000001, 57.97269431926383
991.5, 58.08855284809577
992.0000000000001, 58.23949927649541
992.5000000000001, 58.40266679761228
993.0000000000001, 58.55224286208846
993.5000000000001, 58.676733782769155
994, 58.779330786284945
994.5, 58.872435450731835
995.0000000000001, 58.96848919884015
995.5000000000001, 59.06476418101999
996.0000000000001, 59.127697921816626
996.5000000000001, 59.083402710445405
997, 59.02708992293501
997.5000000000001, 59.17029018381868
998.0000000000001, 59.38012909982468
998.5000000000001, 59.45137984136587
999.0000000000001, 59.517682181549986
999.5, 59.671487306302836
1000.0000000000001, 59.79723713752378
1000.5000000000001, 59.8485960135371
1001.0000000000001, 59.86843666304562
1001.5000000000001, 59.94196169944459
1002, 60.11661348324567
1002.5, 60.236001566692764
1003.0000000000001, 60.22577224231657
1003.5000000000001, 60.23537286744045
1004.0000000000001, 60.31226746688114
1004.5000000000001, 60.397534140138646
1005, 60.504255604867296
1005.5000000000001, 60.65559434330926
1006.0000000000001, 60.78063201714657
1006.5000000000001, 60.8420289969922
1007.0000000000001, 60.8991198971214
1007.5, 60.9840626856325
1008, 61.09280055782799
1008.5000000000001, 61.206337320276404
1009.0000000000001, 61.30016357112025
1009.5000000000001, 61.35362282446119
1010.0000000000001, 61.38953067676827
1010.5, 61.4995525789421
1011.0000000000001, 61.63687285726992
1011.5000000000001, 61.652914399463015
1012.0000000000001, 61.65493973714143
1012.5000000000001, 61.79411607402634
1013, 61.934303523395386
1013.5000000000001, 61.978348492560634
1014.0000000000001, 62.01461368000137
1014.5000000000001, 62.12114498855264
1015.0000000000001, 62.32773785558819
1015.5000000000001, 62.4989191944727
1016, 62.52138213872774
1016.5000000000001, 62.6419825133934
1017.0000000000001, 62.94728676297334
1017.5000000000001, 63.10840790829824
1018.0000000000001, 63.106769352569366
1018.5, 63.20713703031638
1019.0000000000001, 63.34209470944045
1019.5000000000001, 63.35354952339338
1020.0000000000001, 63.34347999065737
1020.5000000000001, 63.39454038384654
1021, 63.451373983522856
1021.5, 63.49684416910108
1022.0000000000001, 63.5574484980744
1022.5000000000001, 63.62258842249575
1023.0000000000001, 63.67804589390799
1023.5000000000001, 63.762776020234725
1024, 63.8934275928043
1024.5, 64.02791164696315
1025, 64.17263719303637
1025.5, 64.37020592509003
1026, 64.55284060617268
1026.5, 64.64219960088117
1027, 64.71368068844723
1027.5, 64.85941047968723
1028, 65.13062869554781
1028.5, 65.41153428462182
1029, 65.48187611158102
1029.5, 65.47807601961074
1030, 65.61333609433169
1030.5, 65.76076860210733
1031, 65.80965702404936
1031.5, 65.81557649210538
1032, 65.8327896832779
1032.5, 65.89810440246339
1033, 66.044774642553
1033.5, 66.26880467717268
1034, 66.43708339348947
1034.5, 66.50374651698735
1035, 66.62386818168702
1035.5, 66.83338130532603
1036, 67.04332612542565
1036.5, 67.19467292670647
1037, 67.26137825345678
1037.5, 67.27782293817162
1038, 67.2890030592531
1038.5, 67.33464254221293
1039, 67.45840600909054
1039.5, 67.69089275450648
1040, 67.92811727360086
1040.5, 68.04378810190931
1041, 68.06092829839525
1041.5, 68.05034942287347
1042, 68.10245659754301
1042.5, 68.21014179348475
1043, 68.29233104959144
1043.5, 68.40543892369985
1044, 68.6127523431409
1044.5, 68.76363899896978
1045, 68.80739613538879
1045.5, 68.94706425812029
1046, 69.19389705466072
1046.5, 69.38225073566797
1047, 69.52983586024804
1047.5, 69.71018308355248
1048, 69.8744803873687
1048.5, 69.99739056439614
1049, 70.14224460689591
1049.5, 70.3261106629334
1050, 70.51318757227664
1050.5, 70.65230369536091
1051, 70.69336725782932
1051.5, 70.61405858261
1052, 70.47812229914193
1052.5, 70.481478958855
1053, 70.63867036861133
1053.5, 70.80271721307628
1054, 70.96421698388114
1054.5, 71.14765059956095
1055, 71.25590556503926
1055.5, 71.27188248781283
1056, 71.3615511667994
1056.5, 71.53999909861089
1057, 71.6813917304506
1057.5, 71.77655269002395
1058, 71.86196877692764
1058.5, 71.93160637488306
1059, 72.00167873259271
1059.5, 72.14048864206403
1060, 72.32747411402632
1060.5, 72.4679442629216
1061, 72.56379425852607
1061.5, 72.65065040191388
1062, 72.71700974885768
1062.5, 72.7728274656464
1063, 72.88064920394243
1063.5, 73.01623594288431
1064, 73.0842761572907
1064.5, 73.09507405496444
1065, 73.10870126828667
1065.5, 73.18049305024826
1066, 73.34764487023749
1066.5, 73.61366276663858
1067, 73.91067377382592
1067.5, 74.12325218475104
1068, 74.2511090634432
1068.5, 74.3227982776664
1069, 74.27298692984647
1069.5, 74.11265147656944
1070, 74.0204837292822
1070.5, 74.07740143076818
1071, 74.25123026622585
1071.5, 74.4502460033332
1072, 74.61254653004804
1072.5, 74.877005952711
1073, 75.29214282840661
1073.5, 75.67281672016716
1074, 75.9609094227855
1074.5, 76.22788829504933
1075, 76.47629372713985
1075.5, 76.67051405789616
1076, 76.76320462114928
1076.5, 76.76908026615136
1077, 76.81069515133832
1077.5, 76.88323857244201
1078, 76.87783311608712
1078.5, 76.86319078967169
1079, 76.95747264523703
1079.5, 77.14870604745703
1080, 77.38103040773564
1080.5, 77.57677557495511
1081, 77.72891314541556
1081.5, 77.89177879214348
1082, 78.07763891725118
1082.5, 78.26861042979252
1083, 78.41402129371217
1083.5, 78.52632123586108
1084, 78.73592133772364
1084.5, 79.04406486808192
1085, 79.33321654066008
1085.5, 79.56823461310259
1086, 79.75076042355418
1086.5, 79.86805438995088
1087, 79.91881560420211
1087.5, 79.92801333768344
1088, 79.92553413745581
1088.5, 79.95100010568872
1089, 80.10392039557094
1089.5, 80.4114790427058
1090, 80.54146190546443
1090.5, 80.33672409024683
1091, 80.09035951528628
1091.5, 80.05716588935789
1092, 80.36218143289253
1092.5, 80.72182691117725
1093, 80.81838301316503
1093.5, 80.89402597459762
1094, 81.13844879482177
1094.5, 81.42516731226424
1095, 81.62152255075716
1095.5, 81.64980151738966
1096, 81.67331185401676
1096.5, 81.86632060175866
1097, 82.03923223980199
1097.5, 82.0765682775168
1098, 82.13077702225048
1098.5, 82.20195026445512
1099, 82.15831211222545
1099.5, 82.12085530281216
1100, 82.24963333565755
1100.5, 82.41068808657707
1101, 82.53525718319638
1101.5, 82.7786293249598
1102, 83.13889351483759
1102.5, 83.46533744173698
1103, 83.73038157944698
1103.5, 83.93340005075976
1104, 83.95478581650072
1104.5, 83.78078113882694
1105, 83.625336106705
1105.5, 83.58037569345512
1106, 83.60839749039621
1106.5, 83.69793827433885
1107, 83.8344724174651
1107.5, 83.94101737171142
1108, 83.98485540476408
1108.5, 84.03421286531095
1109, 84.121006923904
1109.5, 84.2328369882123
1110, 84.34388840985021
1110.5, 84.43664964257236
1111, 84.54309460517645
1111.5, 84.67532553045214
1112, 84.79077900344966
1112.5, 84.84612501646856
1113, 84.80928599110605
1113.5, 84.70137622321762
1114, 84.57363186886661
1114.5, 84.49623598863268
1115, 84.50788888199878
1115.5, 84.5861285243533
1116, 84.74201844019859
1116.5, 85.00334452494718
1117, 85.24605072907356
1117.5, 85.33610784575218
1118, 85.36041762118919
1118.5, 85.41774856013872
1119, 85.5331010811229
1119.5, 85.59370290103718
1120, 85.41762114297724
1120.5, 85.20821914315519
1121, 85.21779048103066
1121.5, 85.22290712270207
1122, 85.08061382842092
1122.5, 84.97194509937691
1123, 84.95731458336851
1123.5, 84.96523731793154
1124, 84.98833760944645
1124.5, 85.03832924394546
1125, 85.07951643881317
1125.5, 85.07171936480441
1126, 84.98891310379106
1126.5, 84.86827364951961
1127, 84.7925534166094
1127.5, 84.76127340644705
1128, 84.72477132409004
1128.5, 84.60053142730203
1129, 84.39191055829356
1129.5, 84.25691151132958
1130, 84.17373922527828
1130.5, 83.97476320799468
1131, 83.74347044376637
1131.5, 83.65515737604608
1132, 83.78228754638208
1132.5, 84.05087554456432
1133, 84.18149675462605
1133.5, 84.11072466629267
1134, 83.98112084857352
1134.5, 83.8584691081932
1135, 83.75947071276705
1135.5, 83.66635093006089
1136, 83.56826873605475
1136.5, 83.48022030425008
1137, 83.42011996868216
1137.5, 83.39991091882018
1138, 83.38331640054362
1138.5, 83.33359837504207
1139, 83.29217448781881
1139.5, 83.24720051101949
1140, 83.07219701559579
1140.5, 82.83082444210683
1141, 82.73633026567823
1141.5, 82.7376037679889
1142, 82.71668675197081
1142.5, 82.76700786116258
1143, 82.90159757598849
1143.5, 82.91649711159072
1144, 82.75696904142835
1144.5, 82.5259411990313
1145, 82.33972141944241
1145.5, 82.25127041094605
1146, 82.07556136892043
1146.5, 81.76023925221078
1147, 81.56859376571963
1147.5, 81.55340458514173
1148, 81.5617395267196
1148.5, 81.55698076626913
1149, 81.56155124851195
1149.5, 81.6013202714716
1150, 81.62750602387536
1150.5, 81.47152147196832
1151, 81.2057667336687
1151.5, 81.08454417598689
1152, 80.98839221252638
1152.5, 80.71616970692993
1153, 80.41000279411644
1153.5, 80.21985707761407
1154, 80.16914831708107
1154.5, 80.18285648852529
1155, 80.12639638923528
1155.5, 80.00622020484212
1156, 79.89128557590132
1156.5, 79.8343351779683
1157, 79.82838311001686
1157.5, 79.77245223895115
1158, 79.64706484429657
1158.5, 79.50077682372347
1159, 79.2685136471022
1159.5, 78.9121025894794
1160, 78.68120215018911
1160.5, 78.6595638835273
1161, 78.54266096263282
1161.5, 78.3262017226511
1162, 78.25765689624178
1162.5, 78.14588080951395
1163, 77.75838635134592
1163.5, 77.45907576680217
1164, 77.43659017834494
1164.5, 77.35201816612235
1165, 77.13138413274143
1165.5, 76.97076937519815
1166, 76.91809358712534
1166.5, 76.9121284136312
1167, 76.76659536915015
1167.5, 76.44052409134855
1168, 76.18724373659384
1168.5, 76.08658036656021
1169, 76.03921893678387
1169.5, 75.98832418686449
1170, 75.92303091413257
1170.5, 75.91351179263644
1171, 75.89564300322118
1171.5, 75.5642115576053
1172, 75.11174886828526
1172.5000000000002, 75.08788020612904
1173, 75.14156349877192
1173.5, 74.7826537559385
1174, 74.53974098704197
1174.5, 74.61821062547494
1175.0000000000002, 74.2998087942114
1175.5, 73.6647826571583
1176, 73.47043076807059
1176.5, 73.45426312388372
1177, 73.11953139324595
1177.5000000000002, 72.86692602866655
1178, 72.94076937989395
1178.5, 72.97225506048548
1179, 72.82686578960237
1179.5, 72.62772186872064
1180, 72.41176278872977
1180.5, 72.17506592367987
1181, 71.92651535339635
1181.5, 71.67107273681151
1182, 71.40163107003524
1182.5, 71.10885174837851
1183, 70.78990373178402
1183.5000000000002, 70.49905396856823
1184, 70.30226414608285
1184.5, 70.21187605659428
1185, 70.15575475703159
1185.5, 69.94887041697709
1186.0000000000002, 69.67297750952936
1186.5, 69.59667651052634
1187, 69.48606631130181
1187.5, 69.06413061370165
1188, 68.74210831957194
1188.5000000000002, 68.7485188580696
1189, 68.73543559603337
1189.5, 68.57959094870972
1190, 68.40146271270228
1190.5, 68.22434612563292
1191.0000000000002, 68.0199452874124
1191.5, 67.75287261635144
1192, 67.48145308177345
1192.5, 67.41462200745741
1193, 67.45726045508275
1193.5, 67.28073861817685
1194, 66.98450618329034
1194.5000000000002, 66.79103336946856
1195, 66.63767909016084
1195.5, 66.40276325395506
1196, 65.98761834957057
1196.5, 65.57732123566936
1197.0000000000002, 65.5360278201344
1197.5, 65.64601656284727
1198, 65.5566895638811
1198.5, 65.41662150424713
1199, 65.30346618412887
1199.5000000000002, 64.98968112977468
1200, 64.50511321310302
1200.5, 64.11565350078206
1201, 63.89640552756919
1201.5, 63.77867406610041
1202.0000000000002, 63.514273580926165
1202.5, 63.08175885173797
1203, 62.89932735647411
1203.5, 62.89296267602155
1204, 62.59174161956511
1204.5000000000002, 62.205034721700756
1205, 62.09815999925592
1205.5, 62.04467128074443
1206, 61.861263457277616
1206.5, 61.66775136307966
1207, 61.533402160355664
1207.5, 61.438850277063594
1208.0000000000002, 61.247757178992245
1208.5, 60.87274539799778
1209, 60.58622570960923
1209.5, 60.49975754019973
1210, 60.314711208249264
1210.5000000000002, 59.92445737186759
1211, 59.447957185255014
1211.5, 59.115800010110476
1212, 59.072027890187925
1212.5, 58.98483038129212
1213.0000000000002, 58.70897075190386
1213.5, 58.589898525472265
1214, 58.605336197068645
1214.5, 58.41226952993144
1215, 58.09971825854519
1215.5000000000002, 57.87529179894285
1216, 57.6375594449742
1216.5, 57.32207355133556
1217, 57.045238326072514
1217.5, 56.851160243200184
1218, 56.69165386610834
1218.5, 56.43815423372628
1219, 56.0171643440555
1219.5, 55.67605651037473
1220, 55.54258994138653
1220.5, 55.42000022434804
1221, 55.267074229906235
1221.5000000000002, 55.192982044364506
1222, 55.15648880293342
1222.5, 55.0663314778224
1223, 54.91052766809338
1223.5, 54.72455516014731
1224.0000000000002, 54.58698350780407
1224.5, 54.408856968727555
1225, 54.00161946647947
1225.5, 53.60217456812157
1226, 53.478874580528164
1226.5000000000002, 53.308363412296224
1227, 52.914444520077986
1227.5, 52.59577723260895
1228, 52.45132668703009
1228.5, 52.35756421045144
1229.0000000000002, 52.19778136911904
1229.5, 51.925075042979145
1230, 51.71483432976544
1230.5, 51.66866999839385
1231, 51.672303550083754
1231.5, 51.57875430981267
1232, 51.2731201365684
1232.5000000000002, 50.96165273605435
1233, 50.848939680913965
1233.5, 50.611023323706505
1234, 50.12319241861207
1234.5, 49.793958557878824
1235.0000000000002, 49.694354186450184
1235.5, 49.57362350723048
1236, 49.417860891859256
1236.5, 49.300169862188305
1237, 49.194348434041146
1237.5000000000002, 49.04596769137099
1238, 48.79829462082886
1238.5, 48.55251190161308
1239, 48.49998362416545
1239.5, 48.43151664931688
1240.0000000000002, 48.105215077782425
1240.5, 47.82343942684544
1241, 47.771853664872054
1241.5, 47.72970953870855
1242, 47.60109180422771
1242.5000000000002, 47.443113590758294
1243, 47.341269839004205
1243.5, 47.331698241343204
1244, 47.23976545488719
1244.5, 47.010234162873374
1245, 46.866540454004756
1245.5, 46.8421055625576
1246.0000000000002, 46.79310850092562
1246.5, 46.722221474506064
1247, 46.67754475073925
1247.5, 46.6177557285149
1248, 46.485817396395646
1248.5000000000002, 46.23839441947409
1249, 45.95547208620431
1249.5, 45.800730800157154
1250, 45.738230645699346
1250.5, 45.67670162356596
1251.0000000000002, 45.6599431281534
1251.5, 45.70027422989774
1252, 45.70634713408554
1252.5, 45.64627439022473
1253, 45.55403182552527
1253.5000000000002, 45.48613629964523
1254, 45.4816534813994
1254.5, 45.485135313887575
1255, 45.453652379739296
1255.5, 45.40185876575761
1256.0000000000002, 45.33538734256454
1256.5, 45.253309123253075
1257.0000000000002, 45.20615030217263
1257.5, 45.23535656668635
1258, 45.26610868852796
1258.5, 45.23755059117467
1259, 45.15873671910904
1259.5000000000002, 45.05797589440073
1260, 44.97256537675873
1260.5, 44.92424775082959
1261, 44.918288950160715
1261.5, 44.927423161580336
1262.0000000000002, 44.906370781839584
1262.5, 44.79561393429148
1263, 44.622280869030845
1263.5, 44.48712182348939
1264, 44.44814013022697
1264.5000000000002, 44.51075508628577
1265, 44.56920299992399
1265.5, 44.56507482388831
1266, 44.563241324713715
1266.5, 44.60232147739425
1267.0000000000002, 44.67070057459116
1267.5, 44.638538791221265
1268, 44.4590630611898
1268.5, 44.563689001627104
1270, 44.644010731998726
1270.5000000000002, 44.47160714491849
1271, 44.45688878481767
1271.5, 44.32871346792225
1272, 44.244303432033796
1272.5, 44.29241423134166
1273.0000000000002, 44.286347597506264
1273.5, 44.18758944001015
1274, 44.10887460481374
1274.5, 44.11223938260606
1275, 44.1999886851147
1275.5000000000002, 44.25534769196136
1276, 44.196772962452954
1276.5, 44.05128584941363
1277, 43.88556004508078
1277.5, 43.787026866080645
1278.0000000000002, 43.80415409965323
1278.5, 43.93305070059299
1279, 44.05006231069323
1279.5, 44.05898208373066
1280, 43.9587457073014
1280.5000000000002, 43.78466096025054
1281, 43.59676365126088
1281.5, 43.45958400118948
1282, 43.41895941498066
1282.5, 43.448870421688504
1283, 43.51349738146078
1283.5, 43.588549621237846
1284.0000000000002, 43.66955265543477
1284.5, 43.76031142589009
1285, 43.80024204551959
1285.5, 43.74027437629197
1286, 43.676184925206705
1286.5000000000002, 43.65388543187165
1287, 43.58320241166518
1287.5, 43.47845109751195
1288, 43.438873548160984
1288.5, 43.404061352917765
1289.0000000000002, 43.30154843864886
1289.5, 43.278995002806944
1290, 43.40171154033355
1290.5, 43.513286601500035
1291, 43.547322072518064
1291.5000000000002, 43.532759080994545
1292, 43.458712925300375
1292.5, 43.32222772594997
1293, 43.21786999612426
1293.5, 43.21249737726823
1294.0000000000002, 43.28460648076593
1294.5, 43.3502734113694
1295.0000000000002, 43.30108289453659
1295.5, 43.20757383218005
1296, 43.17459968808059
1296.5, 43.137468197374226
1297, 43.08613606988938
1297.5000000000002, 43.16128068264093
1298, 43.343777182211376
1298.5, 43.47963310554287
1299, 43.580590266948604
1299.5, 43.68576480822497
1300.0000000000002, 43.656218761018025
1300.5, 43.46211149515073
1301.0000000000002, 43.32244117428259
1301.5, 43.31449272490724
1302.0000000000002, 43.36127568419596
1302.5000000000002, 43.34742087390042
1303, 43.220922040201614
1303.5000000000002, 43.20405079228352
1304, 43.383303346296955
1304.5000000000002, 43.516136647298296
1305.0000000000002, 43.54317221530583
1305.5, 43.57749083015617
1306.0000000000002, 43.57329353447296
1306.5, 43.45574573216309
1307.0000000000002, 43.31403341924794
1307.5000000000002, 43.21785652660314
1308, 43.143502291647366
1308.5000000000002, 43.11787207740426
1309, 43.2009368256698
1309.5000000000002, 43.29683809255603
1310, 43.29176558958566
1310.5, 43.26185315403773
1311.0000000000002, 43.265466903109086
1311.5, 43.25839523579114
1312.0000000000002, 43.20227179949699
1312.5, 43.08747535896158
1313, 43.01322762580901
1313.5000000000002, 43.06927092579926
1314, 43.138683341731436
1314.5000000000002, 43.13718910201237
1315, 43.114254378453
1315.5000000000002, 43.099796255663065
1316.0000000000002, 43.09433225798488
1316.5, 43.098305322108
1317.0000000000002, 43.10593778062054
1317.5, 43.08846032226933
1318.0000000000002, 43.049050319455155
1318.5000000000002, 43.05197499002924
1319, 43.11044095024167
1319.5000000000002, 43.181090747572696
1320, 43.17933669062041
1320.5000000000002, 43.047690866941316
1321.0000000000002, 42.886991731568216
1321.5, 42.80760038039302
1322.0000000000002, 42.870857493431636
1322.5, 43.035059393629766
1323.0000000000002, 43.1785403383168
1323.5, 43.238931532701535
1324, 43.19774029554875
1324.5000000000002, 43.090817772853114
1325, 42.98235224336458
1325.5000000000002, 42.96105649772367
1326, 43.04407712658237
1326.5, 43.17469269393085
1327.0000000000002, 43.23795118537967
1327.5, 43.17659958416166
1328.0000000000002, 43.2231508193017
1328.5, 43.45699332578806
1329.0000000000002, 43.59353838297337
1329.5000000000002, 43.52422579201095
1330, 43.33753237700543
1330.5000000000002, 43.17819060705425
1331, 43.145541784277604
1331.5000000000002, 43.10152368781404
1332.0000000000002, 42.976569299677934
1332.5, 42.902021502470255
1333.0000000000002, 42.88195951183503
1333.5, 42.811926112545386
1334.0000000000002, 42.760766041378524
1334.5, 42.82676731332434
1335, 42.92724154861607
1335.5000000000002, 42.98042415669657
1336, 42.97633836416969
1336.5000000000002, 42.937482393325965
1337, 42.90602390451217
1337.5, 42.90163262325597
1338.0000000000002, 42.9340008683379
1338.5, 43.014496885219636
1339.0000000000002, 43.108862450385644
1339.5, 43.11166477157448
1340.0000000000002, 43.06780655895879
1340.5000000000002, 43.13062943291782
1341, 43.21156893804697
1341.5000000000002, 43.18088860035214
1342, 43.157452161245686
1342.5000000000002, 43.19116147326097
1343.0000000000002, 43.126560865084166
1343.5, 42.943067127355285
1344.0000000000002, 42.75207422075696
1344.5, 42.61567542614097
1345.0000000000002, 42.572203978922595
1345.5000000000002, 42.662267821808605
1346, 42.85251118166338
1346.5000000000002, 42.98882646467075
1347, 43.05450961402112
1347.5000000000002, 43.14623801931703
1348, 43.210977602697774
1348.5, 43.15390105663886
1349.0000000000002, 42.980818480396664
1349.5, 42.78061166170639
1350.0000000000002, 42.736153076926776
1350.5, 42.82796138292893
1351, 42.875216998309504
1351.5000000000002, 42.9036789390386
1352, 42.978059568115285
1352.5000000000002, 42.96119570828671
1353, 42.80371171180977
1353.5000000000002, 42.67743357649598
1354.0000000000002, 42.647001904151296
1354.5, 42.6623625810195
1355.0000000000002, 42.676201149585786
1355.5, 42.67278252463012
1356.0000000000002, 42.735210453427946
1356.5000000000002, 42.8879537383997
1357, 43.020268021473676
1357.5000000000002, 43.070333015039836
1358, 43.039225561243626
1358.5000000000002, 42.98360580312698
1359.0000000000002, 42.962033740551625
1359.5, 42.954771614165416
1360.0000000000002, 42.961345525770874
1360.5, 43.037599495420935
1361.0000000000002, 43.12279192193368
1361.5, 43.07432776229637
1362, 42.9525127170333
1362.5000000000002, 42.88139693635771
1363, 42.87898800121839
1363.5000000000002, 42.916896462162626
1364, 42.92995614278187
1364.5000000000002, 42.90679448367004
1365.0000000000002, 42.88650568490123
1365.5, 42.90309329025321
1366.0000000000002, 42.98007630117893
1366.5, 43.11472817881098
1367.0000000000002, 43.25819804938878
1367.5000000000002, 43.29637508504828
1368, 43.190604935322796
1368.5000000000002, 42.98359998169273
1369, 42.78160399816544
1369.5000000000002, 42.68578292324821
1370.0000000000002, 42.68292186217369
1370.5, 42.754929724563745
1371.0000000000002, 42.91423145269301
1371.5, 43.09754279999825
1372.0000000000002, 43.17642671053325
1372.5000000000002, 43.05932323582403
1373, 42.75641728677566
1373.5000000000002, 42.5685231861121
1374, 42.64288511116747
1374.5000000000002, 42.762321928799025
1375, 42.85121881440229
1375.5, 42.97232296749491
1376.0000000000002, 43.041566441856894
1376.5, 42.97505241026283
1377.0000000000002, 42.92955141845395
1377.5, 42.98793354890912
1378.0000000000002, 43.022084163706374
1378.5000000000002, 43.01240982960997
1379, 43.04718873292711
1379.5000000000002, 43.16113716405323
1380, 43.33577551251593
1380.5000000000002, 43.458977078658464
1381.0000000000002, 43.473668521796505
1381.5, 43.44984313714523
1382.0000000000002, 43.416717435435956
1382.5, 43.35712767116552
1383.0000000000002, 43.26141273844475
1383.5000000000002, 43.139092264253634
1384, 43.05196640372819
1384.5000000000002, 43.05706243969683
1385, 43.17715776564412
1385.5000000000002, 43.312044387932865
1386.0000000000002, 43.28542721191404
1386.5, 43.14766514761231
1387.0000000000002, 43.02972086065032
1387.5, 42.978896001370565
1388.0000000000002, 42.9847808839056
1388.5, 42.9731199657988
1389, 42.9352639238594
1389.5000000000002, 42.92017939957498
1390, 42.92995068447013
1390.5000000000002, 42.94073126673074
1391, 42.91624019755514
1391.5000000000002, 42.849068355280714
1392.0000000000002, 42.78434195450533
1392.5, 42.739974515287216
1393.0000000000002, 42.713563750380615
1393.5, 42.765960680384936
1394.0000000000002, 42.9335501275929
1394.5000000000002, 43.06699856110011
1395, 43.06878340806734
1395.5000000000002, 42.99912531112278
1396, 42.91595880647746
1396.5000000000002, 42.850681408273225
1397.0000000000002, 42.75425261656597
1397.5, 42.59093381524022
1398.0000000000002, 42.49627690778833
1398.5, 42.54572791676731
1399.0000000000002, 42.64955117146149
1399.5, 42.744567276974905
1400, 42.81424703435434
