203.0902777777778, 0.03947722687771582
205.12847222222226, 0.03902176443202998
207.16666666666669, 0.03902176443202998
209.20486111111114, 0.03845243637492257
211.24305555555557, 0.03890789882060841
212.7717013888889, 0.03868016759776549
213.28125000000003, 0.0377692427063937
215.31944444444449, 0.03845243637492257
216.8480902777778, 0.03868016759776549
217.3576388888889, 0.03788310831781516
219.39583333333337, 0.03856630198634403
221.4340277777778, 0.0377692427063937
222.96267361111114, 0.03708604903786483
223.98177083333337, 0.0377692427063937
225.00086805555557, 0.03845243637492257
226.0199652777778, 0.0377692427063937
227.54861111111114, 0.03697218342644337
229.58680555555557, 0.03719991464928629
231.62500000000003, 0.03663058659217888
233.66319444444446, 0.03697218342644337
233.15364583333337, 0.03617512414649304
235.7013888888889, 0.03663058659217888
237.73958333333337, 0.03651672098075742
239.7777777777778, 0.03640285536933596
241.81597222222226, 0.03571966170080709
242.83506944444446, 0.03640285536933596
244.3637152777778, 0.03640285536933596
246.06221064814815, 0.03564375129319286
247.42100694444446, 0.03594739292365001
249.11950231481484, 0.03518828884750691
250.98784722222226, 0.03515033364369968
253.02604166666669, 0.03571966170080709
255.06423611111114, 0.03492260242085676
257.10243055555554, 0.03549193047796417
258.6310763888889, 0.03549193047796417
260.1597222222223, 0.0348087368094353
259.65017361111114, 0.0338978119180634
262.1979166666667, 0.03560579608938563
263.7265625, 0.03458100558659227
264.7456597222223, 0.03367008069522048
265.76475694444446, 0.03458100558659227
267.2934027777778, 0.03515033364369968
269.50144675925924, 0.03473282640182107
271.3697916666667, 0.03515033364369968
273.40798611111114, 0.034694871198013844
274.93663194444446, 0.034125543140906434
276.4652777777778, 0.034694871198013844
278.5034722222223, 0.034011677529484974
280.5416666666667, 0.0348087368094353
282.57986111111114, 0.034011677529484974
284.61805555555554, 0.03423940875232789
284.10850694444446, 0.033442349472377564
286.1467013888889, 0.03458100558659227
287.67534722222223, 0.03378394630664194
289.7135416666667, 0.03423940875232789
290.7326388888889, 0.0348087368094353
291.2421875, 0.0338978119180634
292.77083333333337, 0.033442349472377564
294.97887731481484, 0.03427736395613512
296.84722222222223, 0.033556215083799024
298.8854166666667, 0.03378394630664194
299.3949652777778, 0.03458100558659227
300.92361111111114, 0.03367008069522048
303.1316550925926, 0.03329052865714888
303.9809027777778, 0.03446713997517081
305.50954861111114, 0.03435327436374935
307.03819444444446, 0.03367008069522048
307.03819444444446, 0.032986887026691614
309.0763888888889, 0.034011677529484974
311.11458333333337, 0.033328483860956104
313.1527777777778, 0.033442349472377564
315.19097222222223, 0.033442349472377564
316.71961805555554, 0.033214618249534644
318.24826388888886, 0.03378394630664194
320.2864583333333, 0.033214618249534644
322.32465277777777, 0.0338978119180634
323.8532986111111, 0.0338978119180634
324.8723958333333, 0.033214618249534644
326.40104166666663, 0.03378394630664194
327.9296875, 0.03367008069522048
329.4583333333333, 0.032873021415270154
331.49652777777777, 0.033442349472377564
333.0251736111111, 0.033214618249534644
334.0442708333333, 0.032303693358162744
335.57291666666663, 0.03310075263811307
337.6111111111111, 0.033214618249534644
339.64930555555554, 0.032873021415270154
340.66840277777777, 0.03367008069522048
342.87644675925924, 0.03291097661907738
344.23524305555554, 0.032759155803848694
344.23524305555554, 0.032075962135319824
345.76388888888886, 0.033556215083799024
347.8020833333333, 0.032986887026691614
349.84027777777777, 0.033442349472377564
351.87847222222223, 0.032759155803848694
353.40711805555554, 0.032303693358162744
354.93576388888886, 0.03310075263811307
356.9739583333333, 0.03310075263811307
359.01215277777777, 0.033214618249534644
360.5407986111111, 0.033214618249534644
362.0694444444444, 0.032417558969584204
364.10763888888886, 0.033214618249534644
365.63628472222223, 0.033214618249534644
367.16493055555554, 0.032645290192427234
369.203125, 0.033214618249534644
370.22222222222223, 0.032303693358162744
371.75086805555554, 0.032075962135319824
373.27951388888886, 0.032986887026691614
374.80815972222223, 0.032759155803848694
376.33680555555554, 0.032189827746741284
377.35590277777777, 0.033328483860956104
378.8845486111111, 0.033442349472377564
380.4131944444444, 0.032531424581005774
381.94184027777777, 0.032303693358162744
383.4704861111111, 0.032986887026691614
385.50868055555554, 0.032531424581005774
384.9991319444444, 0.032075962135319824
387.716724537037, 0.03283506621146293
389.5850694444444, 0.032075962135319824
391.11371527777777, 0.032303693358162744
392.6423611111111, 0.03310075263811307
393.6614583333333, 0.032075962135319824
395.69965277777777, 0.032075962135319824
396.71875, 0.032873021415270154
398.2473958333333, 0.032759155803848694
398.2473958333333, 0.032075962135319824
399.26649305555554, 0.031392768466790955
400.79513888888886, 0.032303693358162744
402.8333333333333, 0.031962096523898365
404.87152777777777, 0.031734365301055334
406.9097222222222, 0.032189827746741284
408.94791666666663, 0.031620499689633874
410.9861111111111, 0.031848230912476905
412.5147569444444, 0.031848230912476905
413.53385416666663, 0.030937306021105004
415.0625, 0.031734365301055334
417.1006944444444, 0.031506634078212414
418.62934027777777, 0.030937306021105004
420.1579861111111, 0.031620499689633874
421.6866319444444, 0.031620499689633874
423.21527777777777, 0.031051171632526575
425.2534722222222, 0.031506634078212414
426.78211805555554, 0.031392768466790955
427.29166666666663, 0.030595709186840625
429.3298611111111, 0.031278902855369495
430.8585069444444, 0.031392768466790955
430.8585069444444, 0.030481843575419165
431.87760416666663, 0.029798649906890295
432.89670138888886, 0.030481843575419165
434.4253472222222, 0.031278902855369495
436.46354166666663, 0.030481843575419165
438.67158564814815, 0.031013216428719237
440.53993055555554, 0.030254112352576135
442.06857638888886, 0.030026381129733215
443.5972222222222, 0.031506634078212414
443.0876736111111, 0.030709574798262085
445.12586805555554, 0.030937306021105004
445.63541666666663, 0.030026381129733215
447.6736111111111, 0.030254112352576135
449.2022569444444, 0.030481843575419165
450.73090277777777, 0.029684784295468836
452.7690972222222, 0.030254112352576135
454.80729166666663, 0.030026381129733215
456.33593749999994, 0.029798649906890295
457.3550347222222, 0.030481843575419165
459.0535300925926, 0.029722739499276063
460.92187499999994, 0.029798649906890295
462.9600694444444, 0.030026381129733215
464.99826388888886, 0.029570918684047265
467.2063078703704, 0.029722739499276063
468.56510416666663, 0.030026381129733215
469.58420138888886, 0.029115456238361426
471.1128472222222, 0.029912515518311755
473.15104166666663, 0.029570918684047265
475.35908564814815, 0.02964682909166161
477.22743055555554, 0.029798649906890295
479.26562499999994, 0.029343187461204345
481.3038194444444, 0.029912515518311755
483.34201388888886, 0.029457053072625805
485.3802083333333, 0.029798649906890295
487.41840277777777, 0.029457053072625805
489.4565972222222, 0.029343187461204345
491.49479166666663, 0.029343187461204345
493.5329861111111, 0.029457053072625805
495.57118055555554, 0.029457053072625805
497.60937499999994, 0.029001590626939966
499.6475694444444, 0.029229321849782886
501.68576388888886, 0.028546128181254016
503.7239583333333, 0.029229321849782886
505.25260416666663, 0.029343187461204345
506.78124999999994, 0.028659993792675476
508.8194444444444, 0.029001590626939966
510.85763888888886, 0.028773859404096935
510.3480902777777, 0.027976800124146606
512.8958333333333, 0.028659993792675476
514.9340277777777, 0.028432262569832556
516.9722222222222, 0.028546128181254016
519.0104166666666, 0.028659993792675476
521.0486111111111, 0.028090665735568066
523.0868055555555, 0.028546128181254016
525.125, 0.028204531346989636
527.1631944444443, 0.028432262569832556
529.2013888888889, 0.028204531346989636
531.2395833333333, 0.028204531346989636
533.2777777777777, 0.028204531346989636
535.3159722222222, 0.028318396958411096
537.3541666666666, 0.028318396958411096
539.3923611111111, 0.028090665735568066
541.4305555555555, 0.028204531346989636
543.46875, 0.028090665735568066
545.5069444444443, 0.028204531346989636
547.5451388888889, 0.028204531346989636
549.5833333333333, 0.028090665735568066
551.6215277777777, 0.028090665735568066
553.6597222222222, 0.028204531346989636
555.6979166666666, 0.027976800124146606
557.7361111111111, 0.027976800124146606
559.7743055555554, 0.028090665735568066
561.8125, 0.027976800124146606
563.8506944444443, 0.028204531346989636
565.8888888888889, 0.028204531346989636
567.9270833333333, 0.028204531346989636
569.9652777777777, 0.028432262569832556
572.0034722222222, 0.028432262569832556
574.0416666666665, 0.029115456238361426
576.0798611111111, 0.029343187461204345
578.1180555555554, 0.029798649906890295
580.15625, 0.029798649906890295
582.1944444444443, 0.030481843575419165
584.2326388888889, 0.031506634078212414
585.7612847222222, 0.032303693358162744
585.7612847222222, 0.031620499689633874
587.2899305555554, 0.032986887026691614
588.8185763888889, 0.033214618249534644
589.8376736111111, 0.034125543140906434
591.3663194444443, 0.0348087368094353
592.3854166666665, 0.03571966170080709
593.9140625, 0.03731378026070775
593.9140625, 0.03663058659217888
594.9331597222222, 0.03822470515207954
596.4618055555554, 0.03936336126629436
597.9904513888889, 0.04141294227188097
597.9904513888889, 0.04050201738050918
599.0095486111111, 0.04232386716325276
600.0286458333333, 0.04323479205462455
601.0477430555554, 0.04460117939168229
601.0477430555554, 0.04391798572315342
602.0668402777778, 0.04596756672874003
602.0668402777778, 0.04528437306021116
603.0859375, 0.04687849162011182
604.1050347222222, 0.04870034140285551
604.1050347222222, 0.04778941651148372
605.1241319444443, 0.0505221911855992
605.1241319444443, 0.049611266294227296
606.1432291666665, 0.052344040968342775
606.1432291666665, 0.051433116076970986
607.1623263888889, 0.053254965859714565
608.1814236111111, 0.055532278088144094
608.1814236111111, 0.054621353196772304
608.1814236111111, 0.053938159528243435
609.7100694444443, 0.056557068590937454
610.2196180555554, 0.05826505276225957
610.2196180555554, 0.05735412787088778
611.2387152777778, 0.05917597765363147
612.2578125, 0.0605423649906891
612.2578125, 0.05985917132216023
613.2769097222222, 0.06327513966480458
613.2769097222222, 0.06236421477343279
613.2769097222222, 0.061453289882061
614.8055555555554, 0.06532472067039119
614.2960069444443, 0.06418606455617637
616.3342013888889, 0.06646337678460601
616.3342013888889, 0.06555245189323411
616.3342013888889, 0.06486925822470524
617.3532986111111, 0.06919615145872138
617.3532986111111, 0.06828522656734959
617.3532986111111, 0.0673743016759778
618.3723958333333, 0.07010707635009328
619.9010416666665, 0.07101800124146507
621.9392361111111, 0.07295371663563022
621.4296875, 0.07192892613283686
621.4296875, 0.07124573246430799
622.4487847222222, 0.07466170080695234
622.4487847222222, 0.07375077591558055
623.9774305555554, 0.07511716325263829
626.015625, 0.07557262569832413
626.5251736111111, 0.07648355058969603
628.0538194444443, 0.07705287864680332
629.5824652777778, 0.07693901303538186
629.5824652777778, 0.076255819366853
631.1111111111111, 0.07762220670391073
633.1493055555554, 0.0783054003724396
634.1684027777778, 0.07739447548106781
636.2065972222222, 0.0768251474239604
637.3955439814813, 0.07784993792675365
638.7543402777778, 0.07648355058969603
639.2638888888889, 0.07545876008690267
638.7543402777778, 0.07488943202979526
641.4719328703702, 0.07526898406786686
642.8307291666665, 0.07557262569832413
642.8307291666665, 0.07466170080695234
643.8498263888889, 0.07397850713842347
645.3784722222222, 0.0732953134698946
646.9071180555554, 0.0732953134698946
646.9071180555554, 0.07238438857852281
647.9262152777778, 0.07147346368715102
649.4548611111111, 0.0703348075729362
648.9453125, 0.06965161390440733
650.9835069444443, 0.07056253879577912
651.4930555555554, 0.06953774829298587
653.0217013888889, 0.06874068901303554
653.0217013888889, 0.06782976412166375
653.53125, 0.06669110800744893
655.0598958333333, 0.06646337678460601
655.5694444444443, 0.06555245189323411
656.0789930555554, 0.06486925822470524
657.0980902777778, 0.06418606455617637
657.0980902777778, 0.06327513966480458
658.6267361111111, 0.06270581160769717
660.6649305555554, 0.06190875232774684
661.1744791666665, 0.06099782743637505
662.1935763888889, 0.06008690254500326
662.703125, 0.05917597765363147
664.2317708333333, 0.05872051520794552
665.2508680555554, 0.057809590316573733
665.2508680555554, 0.057126396648044864
666.2699652777778, 0.056443202979515994
666.2699652777778, 0.055532278088144094
667.7986111111111, 0.054849084419615335
669.3272569444443, 0.055304546865301174
670.3463541666665, 0.054621353196772304
670.3463541666665, 0.053710428305400515
671.3654513888889, 0.052799503414028726
672.8940972222222, 0.052002444134078396
674.4227430555554, 0.051888578522656825
674.4227430555554, 0.051205384854127955
675.4418402777778, 0.0505221911855992
675.4418402777778, 0.049611266294227296
675.9513888888889, 0.04870034140285551
677.9895833333333, 0.04892807262569843
679.5182291666665, 0.04824487895716956
680.0277777777778, 0.04733395406579777
680.5373263888889, 0.0466507603972689
682.0659722222222, 0.04619529795158306
683.5946180555554, 0.04596756672874003
683.5946180555554, 0.04505664183736824
684.6137152777778, 0.04414571694599645
685.6328125, 0.04323479205462455
687.1614583333333, 0.04266546399751725
688.6901041666665, 0.04255159838609568
689.7092013888889, 0.04186840471756692
689.7092013888889, 0.04118521104903805
691.2378472222222, 0.04061588299193064
692.7664930555554, 0.0407297486033521
693.7855902777778, 0.04004655493482323
693.7855902777778, 0.03936336126629436
695.3142361111111, 0.03845243637492257
696.8428819444443, 0.03845243637492257
697.8619791666665, 0.0377692427063937
698.8810763888889, 0.03685831781502191
700.4097222222222, 0.03583352731222855
702.4479166666665, 0.03571966170080709
703.4670138888889, 0.034694871198013844
705.5052083333333, 0.03378394630664194
707.5434027777778, 0.032873021415270154
708.5625, 0.031848230912476905
710.6006944444443, 0.031734365301055334
710.0911458333333, 0.031165037243948035
712.1293402777778, 0.030937306021105004
712.6388888888889, 0.030026381129733215
714.6770833333333, 0.029229321849782886
716.2057291666665, 0.029115456238361426
716.7152777777778, 0.028204531346989636
718.7534722222222, 0.027521337678460767
720.2821180555554, 0.027293606455617736
721.8107638888889, 0.026496547175667406
723.8489583333333, 0.025813353507138537
723.3394097222222, 0.025244025450031127
725.8871527777778, 0.025130159838609667
726.3967013888889, 0.024333100558659337
727.4157986111111, 0.023649906890130468
728.9444444444443, 0.02319444444444463
730.4730902777778, 0.023649906890130468
732.0017361111111, 0.02251125077591576
734.0399305555554, 0.02194192271880835
736.078125, 0.02091713221601499
738.1163194444443, 0.02046166977032915
739.6449652777776, 0.02046166977032915
741.1736111111111, 0.01955074487895736
743.2118055555554, 0.01909528243327141
745.25, 0.01875368559900692
747.2881944444443, 0.01807049193047805
749.3263888888889, 0.01750116387337075
751.3645833333333, 0.01693183581626334
753.4027777777776, 0.01681797020484188
754.9314236111111, 0.01636250775915593
755.4409722222222, 0.015565448479205601
757.4791666666665, 0.01567931409062706
759.5173611111111, 0.015223851644941222
761.5555555555554, 0.014768389199255272
763.59375, 0.014426792364990781
763.0842013888889, 0.013857464307883482
765.6319444444443, 0.013971329919304942
765.1223958333333, 0.013402001862197532
767.6701388888889, 0.013629733085040452
769.7083333333333, 0.012946539416511582
771.7465277777776, 0.012832673805090122
773.7847222222222, 0.011807883302296873
775.8229166666665, 0.011580152079453843
777.8611111111111, 0.011352420856610923
779.8993055555554, 0.010896958410925084
781.9375, 0.010327630353817674
783.9756944444443, 0.009758302296710264
786.0138888888889, 0.009758302296710264
788.0520833333333, 0.009188974239602854
790.0902777777776, 0.009075108628181394
791.6189236111111, 0.009075108628181394
792.1284722222222, 0.008391914959652524
794.1666666666665, 0.008278049348231065
796.2048611111111, 0.007936452513966574
798.2430555555554, 0.007708721291123655
800.28125, 0.007708721291123655
802.3194444444443, 0.007480990068280735
804.3576388888889, 0.007480990068280735
806.3958333333333, 0.007139393234016245
805.8862847222222, 0.006570065176908946
808.4340277777776, 0.007025527622594785
810.4722222222222, 0.007139393234016245
812.0008680555554, 0.006570065176908946
813.5295138888889, 0.007025527622594785
815.5677083333333, 0.007025527622594785
817.6059027777776, 0.0072532588454377045
819.1345486111111, 0.0072532588454377045
820.6631944444443, 0.006797796399751865
822.7013888888889, 0.007367124456859164
824.7395833333333, 0.007480990068280735
826.7777777777776, 0.007708721291123655
828.8159722222222, 0.007822586902545114
830.8541666666665, 0.007936452513966574
832.8923611111111, 0.008278049348231065
834.9305555555554, 0.008391914959652524
836.4592013888889, 0.008619646182495444
837.9878472222222, 0.009302839851024314
840.0260416666665, 0.009416705462445774
842.0642361111111, 0.010327630353817674
845.1215277777776, 0.011124689633768003
847.1597222222222, 0.011807883302296873
849.1979166666665, 0.012377211359404283
850.2170138888889, 0.013402001862197532
852.2552083333333, 0.014085195530726402
853.7838541666665, 0.014540657976412352
855.3125, 0.015451582867784142
856.8411458333333, 0.01613477653631301
857.8602430555554, 0.01681797020484188
858.8793402777776, 0.01750116387337075
859.8984375, 0.01818435754189962
860.9175347222222, 0.01886755121042849
862.6160300925924, 0.019626655286571593
863.9748263888889, 0.02046166977032915
864.9939236111111, 0.02114486343885802
866.5225694444443, 0.02205578833022981
868.5607638888889, 0.02319444444444463
869.5798611111111, 0.024219234947237878
871.6180555555554, 0.024560831781502257
873.1467013888889, 0.025471756672874157
873.1467013888889, 0.024788563004345288
874.1657986111111, 0.026154950341403027
875.6944444444443, 0.026724278398510326
877.2230902777776, 0.027293606455617736
878.7517361111111, 0.028432262569832556
880.7899305555554, 0.028432262569832556
882.828125, 0.029343187461204345
882.3185763888889, 0.028432262569832556
884.8663194444443, 0.029570918684047265
886.9045138888889, 0.029684784295468836
888.9427083333333, 0.030140246741154675
890.9809027777776, 0.029798649906890295
893.0190972222222, 0.030254112352576135
895.0572916666665, 0.029684784295468836
897.0954861111111, 0.029570918684047265
899.1336805555554, 0.029912515518311755
901.171875, 0.029912515518311755
903.2100694444443, 0.030254112352576135
905.2482638888889, 0.029798649906890295
907.2864583333333, 0.030937306021105004
906.7769097222222, 0.030254112352576135
909.3246527777776, 0.030823440409683545
910.8532986111111, 0.031392768466790955
912.3819444444443, 0.031848230912476905
914.4201388888889, 0.032075962135319824
915.9487847222222, 0.032759155803848694
917.4774305555554, 0.033556215083799024
919.0060763888889, 0.03458100558659227
919.0060763888889, 0.0338978119180634
920.5347222222222, 0.03537806486654271
922.7427662037035, 0.0360992137388787
924.1015625, 0.03731378026070775
924.1015625, 0.03663058659217888
925.6302083333333, 0.03799697392923662
926.1397569444443, 0.03868016759776549
927.6684027777776, 0.03947722687771582
929.1970486111111, 0.04004655493482323
930.2161458333333, 0.04141294227188097
930.2161458333333, 0.0407297486033521
931.7447916666665, 0.0422100015518313
933.2734375, 0.04277932960893871
934.2925347222222, 0.0436902545003105
935.3116319444443, 0.04505664183736824
935.3116319444443, 0.04437344816883937
936.8402777777776, 0.04596756672874003
938.3689236111111, 0.04687849162011182
938.3689236111111, 0.04619529795158306
939.3880208333333, 0.04778941651148372
940.4071180555554, 0.04870034140285551
941.9357638888889, 0.04949740068280584
943.4644097222222, 0.0505221911855992
944.4835069444443, 0.051888578522656825
944.4835069444443, 0.051205384854127955
946.0121527777776, 0.052799503414028726
947.5407986111111, 0.053710428305400515
947.5407986111111, 0.053027234636871645
948.5598958333333, 0.055076815642458254
948.5598958333333, 0.054393621973929385
950.0885416666665, 0.055873874922408584
951.6171875, 0.05689866542520183
952.6362847222222, 0.05826505276225957
952.6362847222222, 0.0575818590937307
953.6553819444443, 0.05917597765363147
955.1840277777776, 0.06031463376784618
956.7126736111111, 0.06190875232774684
956.7126736111111, 0.06122555865921797
957.7317708333333, 0.06281967721911874
958.7508680555554, 0.06373060211049053
960.2795138888887, 0.06464152700186232
961.8081597222222, 0.06555245189323411
961.8081597222222, 0.06486925822470524
962.8272569444443, 0.0673743016759778
962.8272569444443, 0.06646337678460601
964.3559027777776, 0.06851295779019251
965.8845486111111, 0.06965161390440733
967.4131944444443, 0.07044867318435766
967.9227430555554, 0.07147346368715102
969.4513888888887, 0.07238438857852281
971.4895833333333, 0.07340917908131606
971.9991319444443, 0.07420623836126639
973.5277777777776, 0.0753448944754812
975.5659722222222, 0.07557262569832413
975.0564236111111, 0.07488943202979526
976.0755208333333, 0.07648355058969603
977.0946180555554, 0.07784993792675365
977.0946180555554, 0.07716674425822478
978.1137152777776, 0.07853313159528252
979.812210648148, 0.07792584833436811
981.1710069444443, 0.07876086281812555
982.6996527777776, 0.07933019087523285
984.7378472222222, 0.07955792209807588
984.2282986111111, 0.07876086281812555
986.9458912037035, 0.07982360852472592
988.8142361111111, 0.08069657821229059
990.8524305555554, 0.08035498137802621
992.3810763888887, 0.08103817504655508
993.9097222222222, 0.0801272501551833
995.4383680555554, 0.07967178770949734
996.9670138888887, 0.08058271260086913
998.4956597222222, 0.0801272501551833
1000.0243055555554, 0.07955792209807588
1002.0625, 0.07955792209807588
1004.2705439814813, 0.07876086281812555
1006.1388888888887, 0.07910245965238993
1007.6675347222222, 0.07967178770949734
1007.6675347222222, 0.07876086281812555
1007.6675347222222, 0.07807766914959668
1009.3660300925924, 0.07739447548106781
1010.7248263888887, 0.07853313159528252
1011.7439236111111, 0.07784993792675365
1011.7439236111111, 0.07716674425822478
1013.2725694444443, 0.076255819366853
1015.3107638888887, 0.07716674425822478
1016.8394097222222, 0.07693901303538186
1017.3489583333333, 0.07591422253258862
1019.3871527777776, 0.07557262569832413
1020.40625, 0.07511716325263829
1022.4444444444443, 0.07466170080695234
1024.4826388888887, 0.0753448944754812
1026.0112847222222, 0.07557262569832413
1026.0112847222222, 0.07466170080695234
1027.5399305555554, 0.07397850713842347
1029.578125, 0.07466170080695234
1031.1067708333333, 0.07420623836126639
1032.6354166666665, 0.0732953134698946
1034.1640625, 0.07466170080695234
1034.673611111111, 0.07397850713842347
1036.2022569444443, 0.07375077591558055
1036.7118055555554, 0.07283985102420865
1037.2213541666665, 0.07215665735567989
1038.75, 0.07352304469273752
1040.2786458333333, 0.07420623836126639
1040.2786458333333, 0.0732953134698946
1040.7881944444443, 0.07238438857852281
1042.3168402777776, 0.07283985102420865
1042.3168402777776, 0.07192892613283686
1043.845486111111, 0.07340917908131606
1044.3550347222222, 0.07261211980136573
1045.8836805555554, 0.07170119490999394
1047.921875, 0.07192892613283686
1049.4505208333333, 0.07147346368715102
1049.4505208333333, 0.07079027001862215
1050.4696180555554, 0.07010707635009328
1050.9791666666665, 0.06942388268156441
1053.017361111111, 0.07010707635009328
1054.0364583333333, 0.06931001707014295
1054.5460069444443, 0.06828522656734959
1056.0746527777776, 0.06782976412166375
1057.603298611111, 0.06851295779019251
1058.6223958333333, 0.06782976412166375
1058.6223958333333, 0.06691883923029185
1060.1510416666665, 0.06578018311607714
1060.6605902777776, 0.06486925822470524
1062.189236111111, 0.06612177995034152
1062.6987847222222, 0.06532472067039119
1063.7178819444443, 0.06464152700186232
1065.2465277777776, 0.06350287088764761
1066.775173611111, 0.06373060211049053
1067.2847222222222, 0.06304740844196166
1068.8133680555554, 0.06281967721911874
1068.8133680555554, 0.06190875232774684
1069.8324652777776, 0.06099782743637505
1070.3420138888887, 0.06008690254500326
1072.3802083333333, 0.06020076815642472
1072.8897569444443, 0.05940370887647439
1073.9088541666665, 0.05872051520794552
1073.9088541666665, 0.057809590316573733
1074.4184027777776, 0.057012531036623404
1074.9279513888887, 0.05621547175667296
1076.4565972222222, 0.057126396648044864
1077.9852430555554, 0.056443202979515994
1077.9852430555554, 0.055532278088144094
1077.9852430555554, 0.054621353196772304
1077.9852430555554, 0.053938159528243435
1079.5138888888887, 0.053141100248293105
1081.5520833333333, 0.052799503414028726
1082.0616319444443, 0.051888578522656825
1083.0807291666665, 0.050977653631285036
1083.0807291666665, 0.05006672873991325
1083.5902777777776, 0.04938353507138438
1085.6284722222222, 0.04938353507138438
1086.1380208333333, 0.04824487895716956
1087.1571180555554, 0.04733395406579777
1087.1571180555554, 0.04642302917442598
1088.1762152777778, 0.04573983550589711
1089.1953125, 0.04505664183736824
1090.2144097222222, 0.04437344816883937
1091.2335069444443, 0.0436902545003105
1091.7430555555554, 0.04277932960893871
1093.271701388889, 0.04186840471756692
1093.78125, 0.04107134543761648
1095.3098958333333, 0.04095747982619502
1095.8194444444443, 0.04016042054624469
1097.3480902777778, 0.03913563004345144
1097.3480902777778, 0.03845243637492257
1098.3671875, 0.0377692427063937
1099.8958333333333, 0.03685831781502191
1101.4244791666665, 0.03594739292365001
1101.4244791666665, 0.03503646803227822
1101.4244791666665, 0.03435327436374935
1102.953125, 0.033556215083799024
1104.4817708333333, 0.032986887026691614
1105.5008680555554, 0.032303693358162744
1106.5199652777778, 0.031392768466790955
1107.029513888889, 0.030254112352576135
1108.5581597222222, 0.029798649906890295
1109.5772569444443, 0.029115456238361426
1110.5963541666665, 0.028204531346989636
1110.5963541666665, 0.027521337678460767
1111.615451388889, 0.026838144009931897
1112.125, 0.026154950341403027
1113.6536458333333, 0.025927219118559997
1114.6727430555554, 0.025016294227188207
1116.201388888889, 0.023877638112973498
1118.2395833333333, 0.022852847610180138
1119.2586805555554, 0.02194192271880835
1120.2777777777778, 0.02080326660459353
1122.3159722222222, 0.02012007293606466
1123.8446180555554, 0.01909528243327141
1124.8637152777778, 0.01818435754189962
1126.392361111111, 0.01738729826194929
1127.9210069444443, 0.01681797020484188
1128.4305555555554, 0.01590704531346998
1130.46875, 0.015337717256362682
1132.5069444444443, 0.014540657976412352
1134.0355902777778, 0.014085195530726402
1134.545138888889, 0.013288136250776073
1136.5833333333333, 0.012604942582247203
1138.1119791666665, 0.012263345747982712
1139.640625, 0.011238555245189463
1141.1692708333333, 0.011124689633768003
1142.6979166666665, 0.010213764742396214
1144.736111111111, 0.009530571073867344
1146.7743055555554, 0.009302839851024314
1148.8125, 0.008391914959652524
1148.8125, 0.005886871508379965
1148.8125, 0.005203677839851206
1150.8506944444443, 0.008164183736809605
1150.8506944444443, 0.005886871508379965
1150.8506944444443, 0.0050898122284297465
1152.888888888889, 0.007594855679702195
1154.9270833333333, 0.007480990068280735
1156.4557291666665, 0.0072532588454377045
1157.984375, 0.006570065176908946
1160.0225694444443, 0.006570065176908946
1162.060763888889, 0.006342333954066026
1164.0989583333333, 0.006228468342644566
1166.1371527777778, 0.0061146027312228846
1168.1753472222222, 0.005886871508379965
1170.2135416666665, 0.005773005896958505
1172.251736111111, 0.005545274674115586
1174.2899305555554, 0.005659140285537045
1176.328125, 0.005545274674115586
1178.3663194444443, 0.005317543451272666
1180.404513888889, 0.005317543451272666
1182.4427083333333, 0.0050898122284297465
1184.4809027777778, 0.004975946617008287
1186.5190972222222, 0.004748215394165367
1188.5572916666665, 0.004862081005586827
1190.595486111111, 0.004748215394165367
1192.6336805555554, 0.004748215394165367
1194.671875, 0.004748215394165367
1196.7100694444443, 0.004634349782743685
1198.748263888889, 0.004975946617008287
1200.7864583333333, 0.004975946617008287
1200.7864583333333, 0.004065021725636386
1202.8246527777778, 0.0045204841713222255
1204.8628472222222, 0.004406618559900766
1206.9010416666665, 0.004292752948479306
1208.939236111111, 0.004292752948479306
1210.9774305555554, 0.004292752948479306
1213.015625, 0.004292752948479306
1215.0538194444443, 0.004292752948479306
1217.092013888889, 0.004292752948479306
1221.1684027777776, 0.004178887337057846
1223.2065972222222, 0.004065021725636386
1227.282986111111, 0.004065021725636386
1229.3211805555554, 0.004178887337057846
1231.359375, 0.0039511561142149265
1233.3975694444443, 0.0038372905027934667
1235.435763888889, 0.004065021725636386
1237.4739583333333, 0.0038372905027934667
1245.626736111111, 0.0038372905027934667
1247.6649305555554, 0.0039511561142149265
1249.703125, 0.004065021725636386
1251.7413194444443, 0.0039511561142149265
1253.779513888889, 0.0038372905027934667
1255.8177083333333, 0.0038372905027934667
1257.8559027777776, 0.0038372905027934667
1259.8940972222222, 0.0038372905027934667
1261.9322916666665, 0.003723424891372007
1263.970486111111, 0.0038372905027934667
1266.0086805555554, 0.0038372905027934667
1268.046875, 0.0038372905027934667
1270.0850694444443, 0.0038372905027934667
1272.123263888889, 0.0038372905027934667
1274.1614583333333, 0.0038372905027934667
1276.1996527777776, 0.003723424891372007
1278.2378472222222, 0.0038372905027934667
1280.2760416666665, 0.0038372905027934667
1282.314236111111, 0.0038372905027934667
1284.3524305555554, 0.0038372905027934667
1286.390625, 0.0038372905027934667
1288.4288194444443, 0.003609559279950547
1290.467013888889, 0.0038372905027934667
1292.5052083333333, 0.0038372905027934667
1294.5434027777776, 0.0038372905027934667
1296.5815972222222, 0.0038372905027934667
1298.6197916666665, 0.004065021725636386
1298.6197916666665, 0.003154096834264486
1300.1484375, 0.004065021725636386
1300.1484375, 0.003154096834264486
