202.49999999999997, 0.10865999379267555
203, 0.10865999379267555
203.5, 0.10820453134698949
204, 0.10820453134698949
204.5, 0.10957091868404722
205, 0.10957091868404722
205.5, 0.10979864990689014
206, 0.10979864990689014
206.49999999999997, 0.11002638112973318
207, 0.11002638112973318
207.5, 0.11048184357541901
208, 0.11048184357541901
208.5, 0.11412554314090628
208.99999999999997, 0.11412554314090628
209.5, 0.11480873680943515
210, 0.11480873680943515
210.5, 0.11253142458100562
211, 0.11253142458100562
211.49999999999997, 0.11389781191806336
212, 0.11389781191806336
212.5, 0.11571966170080705
213, 0.11571966170080705
213.5, 0.11685831781502176
214, 0.11685831781502176
214.5, 0.11503646803227818
215, 0.11503646803227818
215.49999999999997, 0.11435327436374931
216, 0.11435327436374931
216.5, 0.11549193047796402
217, 0.11549193047796402
217.5, 0.11184823091247675
217.99999999999997, 0.11184823091247675
218.5, 0.11412554314090628
219, 0.11412554314090628
219.5, 0.11549193047796402
220, 0.11549193047796402
220.5, 0.11139276846679091
221, 0.11139276846679091
221.5, 0.1102541123525762
221.99999999999997, 0.1102541123525762
222.5, 0.11230369335816281
223, 0.11230369335816281
223.5, 0.11070957479826204
224, 0.11070957479826204
224.49999999999997, 0.11298688702669168
225, 0.11298688702669168
225.5, 0.11298688702669168
226, 0.11275915580384865
226.5, 0.11275915580384865
227, 0.11207596213531978
227.5, 0.11207596213531978
228, 0.11139276846679091
228.49999999999997, 0.11139276846679091
229, 0.11298688702669168
229.5, 0.11298688702669168
230, 0.10979864990689014
230.5, 0.10979864990689014
230.99999999999997, 0.11298688702669168
231.5, 0.11298688702669168
232, 0.11184823091247675
232.5, 0.11184823091247675
233, 0.11093730602110508
233.49999999999997, 0.11093730602110508
234, 0.11230369335816281
234.5, 0.11230369335816281
235, 0.11139276846679091
235.5, 0.11139276846679091
236, 0.11162049968963395
236.5, 0.11162049968963395
237, 0.1102541123525762
237.49999999999997, 0.1102541123525762
238, 0.1132146182495345
238.5, 0.1132146182495345
239, 0.11298688702669168
239.5, 0.11298688702669168
239.99999999999997, 0.11093730602110508
240.5, 0.11093730602110508
241, 0.11184823091247675
241.5, 0.11184823091247675
242, 0.11275915580384865
242.5, 0.11275915580384865
243, 0.11230369335816281
243.5, 0.11230369335816281
243.99999999999997, 0.11116503724394788
244.5, 0.11116503724394788
245, 0.11389781191806336
245.5, 0.11389781191806336
246, 0.1132146182495345
246.49999999999997, 0.1132146182495345
247, 0.11162049968963395
247.5, 0.11162049968963395
248, 0.1102541123525762
248.5, 0.1102541123525762
248.99999999999997, 0.10865999379267555
249.5, 0.10865999379267555
250, 0.10888772501551836
250.49999999999997, 0.10888772501551836
251, 0.10979864990689014
251.5, 0.10979864990689014
252, 0.10979864990689014
252.5, 0.11275915580384865
252.99999999999997, 0.11275915580384865
253.5, 0.11139276846679091
254, 0.11139276846679091
254.5, 0.11048184357541901
255, 0.11048184357541901
255.49999999999997, 0.11116503724394788
256, 0.11116503724394788
256.5, 0.11298688702669168
257, 0.11298688702669168
257.5, 0.11048184357541901
258, 0.11048184357541901
258.5, 0.11002638112973318
259, 0.11002638112973318
259.5, 0.1093431874612043
260, 0.1093431874612043
260.5, 0.10979864990689014
261, 0.10979864990689014
261.5, 0.11048184357541901
262, 0.11048184357541901
262.5, 0.1093431874612043
263, 0.1093431874612043
263.5, 0.11070957479826204
264, 0.11070957479826204
264.5, 0.1093431874612043
265, 0.1093431874612043
265.5, 0.11048184357541901
266, 0.11048184357541901
266.5, 0.11116503724394788
267, 0.11116503724394788
267.5, 0.11116503724394788
268, 0.11116503724394788
268.5, 0.11116503724394788
269, 0.11116503724394788
269.5, 0.11048184357541901
270, 0.11048184357541901
270.5, 0.11070957479826204
271, 0.11070957479826204
271.5, 0.11048184357541901
272, 0.11048184357541901
272.5, 0.11162049968963395
273, 0.11162049968963395
273.5, 0.1093431874612043
274, 0.1093431874612043
274.5, 0.1102541123525762
275, 0.1102541123525762
275.5, 0.1093431874612043
276, 0.1093431874612043
276.5, 0.11139276846679091
277, 0.11139276846679091
277.5, 0.11116503724394788
278, 0.11116503724394788
278.5, 0.11116503724394788
279, 0.11116503724394788
279.5, 0.11116503724394788
280, 0.11002638112973318
280.5, 0.11002638112973318
281, 0.10865999379267555
281.5, 0.10865999379267555
282, 0.10888772501551836
282.5, 0.10888772501551836
283, 0.11070957479826204
283.5, 0.11070957479826204
284, 0.1102541123525762
284.5, 0.1102541123525762
285, 0.11139276846679091
285.5, 0.11139276846679091
286, 0.11070957479826204
286.5, 0.11070957479826204
287, 0.1093431874612043
287.5, 0.1093431874612043
288, 0.11253142458100562
288.5, 0.11253142458100562
289, 0.1132146182495345
289.5, 0.1132146182495345
290, 0.11162049968963395
290.5, 0.11162049968963395
291, 0.10911545623836127
291.5, 0.10911545623836127
292, 0.11070957479826204
292.5, 0.11070957479826204
293, 0.11116503724394788
293.5, 0.11116503724394788
294, 0.10911545623836127
294.5, 0.10911545623836127
295, 0.11048184357541901
295.5, 0.11048184357541901
296, 0.11048184357541901
296.5, 0.11048184357541901
297, 0.10774906890130365
297.5, 0.10774906890130365
298, 0.10979864990689014
298.5, 0.10979864990689014
299, 0.10843226256983252
299.5, 0.10843226256983252
300, 0.10615495034140288
300.5, 0.10615495034140288
301, 0.10478856300434514
301.5, 0.10478856300434514
302, 0.10387763811297335
302.5, 0.10387763811297335
303, 0.10706587523277478
303.5, 0.10706587523277478
304, 0.10661041278708894
304.5, 0.10661041278708894
305, 0.10661041278708894
305.5, 0.10752133767846062
306, 0.10752133767846062
306.5, 0.10797680012414668
307, 0.10797680012414668
307.5, 0.11048184357541901
308, 0.11048184357541901
308.5, 0.11002638112973318
309, 0.11002638112973318
309.5, 0.10592721911856007
310, 0.10592721911856007
310.5, 0.1093431874612043
311, 0.1093431874612043
311.5, 0.11253142458100562
312, 0.11253142458100562
312.5, 0.11048184357541901
313, 0.11048184357541901
313.5, 0.11162049968963395
314, 0.11162049968963395
314.5, 0.11207596213531978
315, 0.11207596213531978
315.5, 0.1102541123525762
316, 0.1102541123525762
316.49999999999994, 0.10865999379267555
316.99999999999994, 0.10865999379267555
317.5, 0.10820453134698949
317.99999999999994, 0.10820453134698949
318.5, 0.1102541123525762
318.99999999999994, 0.1102541123525762
319.49999999999994, 0.1102541123525762
320, 0.1102541123525762
320.49999999999994, 0.11184823091247675
320.99999999999994, 0.11184823091247675
321.5, 0.11070957479826204
322, 0.11070957479826204
322.5, 0.11139276846679091
323, 0.11139276846679091
323.5, 0.10979864990689014
324, 0.10979864990689014
324.5, 0.10797680012414668
325, 0.10797680012414668
325.5, 0.10911545623836127
326, 0.10911545623836127
326.5, 0.10979864990689014
327, 0.10979864990689014
327.49999999999994, 0.11048184357541901
328, 0.11048184357541901
328.5, 0.11093730602110508
329, 0.11093730602110508
329.5, 0.10865999379267555
329.99999999999994, 0.10865999379267555
330.5, 0.10979864990689014
331, 0.10979864990689014
331.5, 0.10979864990689014
332, 0.10979864990689014
332.49999999999994, 0.10979864990689014
333, 0.1093431874612043
333.5, 0.1093431874612043
334, 0.10865999379267555
334.5, 0.10865999379267555
334.99999999999994, 0.11162049968963395
335.5, 0.11162049968963395
336, 0.11116503724394788
336.5, 0.11116503724394788
337, 0.11070957479826204
337.5, 0.11070957479826204
338, 0.10820453134698949
338.5, 0.10820453134698949
339, 0.11162049968963395
339.5, 0.11162049968963395
340, 0.11070957479826204
340.5, 0.11070957479826204
341, 0.10888772501551836
341.5, 0.10888772501551836
342, 0.11093730602110508
342.5, 0.11093730602110508
342.99999999999994, 0.11070957479826204
343.5, 0.11070957479826204
344, 0.10979864990689014
344.5, 0.10979864990689014
345, 0.1102541123525762
345.49999999999994, 0.1102541123525762
346, 0.11367008069522044
346.5, 0.11367008069522044
347, 0.11230369335816281
347.5, 0.11230369335816281
347.99999999999994, 0.11002638112973318
348.5, 0.11002638112973318
349, 0.11139276846679091
349.5, 0.11139276846679091
350, 0.11207596213531978
350.49999999999994, 0.11207596213531978
351, 0.10979864990689014
351.5, 0.10979864990689014
352, 0.10957091868404722
352.5, 0.10957091868404722
353, 0.11207596213531978
353.5, 0.11207596213531978
354, 0.10979864990689014
354.5, 0.10979864990689014
355, 0.10888772501551836
355.5, 0.10888772501551836
356, 0.11002638112973318
356.5, 0.11002638112973318
357, 0.11139276846679091
357.5, 0.11139276846679091
358, 0.11275915580384865
358.49999999999994, 0.11275915580384865
359, 0.11275915580384865
359.5, 0.11184823091247675
360, 0.11184823091247675
360.5, 0.11116503724394788
360.99999999999994, 0.11116503724394788
361.5, 0.10979864990689014
362, 0.10979864990689014
362.5, 0.11048184357541901
363, 0.11048184357541901
363.49999999999994, 0.11184823091247675
364, 0.11184823091247675
364.5, 0.10843226256983252
365, 0.10843226256983252
365.5, 0.10729360645561781
365.99999999999994, 0.10729360645561781
366.5, 0.11002638112973318
367, 0.11002638112973318
367.5, 0.1102541123525762
368, 0.1102541123525762
368.5, 0.10979864990689014
369, 0.10979864990689014
369.5, 0.10957091868404722
370, 0.10957091868404722
370.5, 0.11002638112973318
371, 0.11002638112973318
371.49999999999994, 0.10979864990689014
372, 0.10979864990689014
372.5, 0.11116503724394788
373, 0.11116503724394788
373.5, 0.11162049968963395
373.99999999999994, 0.11162049968963395
374.5, 0.11002638112973318
375, 0.11002638112973318
375.5, 0.10865999379267555
376, 0.10865999379267555
376.49999999999994, 0.11116503724394788
377, 0.11116503724394788
377.5, 0.11139276846679091
378, 0.11139276846679091
378.5, 0.11048184357541901
378.99999999999994, 0.11048184357541901
379.5, 0.11116503724394788
380, 0.11116503724394788
380.5, 0.11093730602110508
381, 0.11093730602110508
381.5, 0.1102541123525762
382, 0.1102541123525762
382.5, 0.1132146182495345
383, 0.1132146182495345
383.5, 0.11275915580384865
384, 0.11275915580384865
384.5, 0.11070957479826204
385, 0.11070957479826204
385.5, 0.11070957479826204
386, 0.10911545623836127
386.5, 0.10911545623836127
386.99999999999994, 0.11093730602110508
387.5, 0.11093730602110508
388, 0.11093730602110508
388.5, 0.11093730602110508
389, 0.10820453134698949
389.49999999999994, 0.10820453134698949
390, 0.10615495034140288
390.5, 0.10615495034140288
391, 0.11116503724394788
391.5, 0.11116503724394788
391.99999999999994, 0.11002638112973318
392.5, 0.11002638112973318
393, 0.1093431874612043
393.5, 0.1093431874612043
394, 0.11002638112973318
394.49999999999994, 0.11002638112973318
395, 0.11116503724394788
395.5, 0.11116503724394788
396, 0.11070957479826204
396.5, 0.11070957479826204
397, 0.10979864990689014
397.5, 0.10979864990689014
398, 0.10911545623836127
398.5, 0.10911545623836127
399, 0.10911545623836127
399.5, 0.10911545623836127
400, 0.10774906890130365
400.5, 0.10774906890130365
401, 0.11207596213531978
401.5, 0.11207596213531978
402, 0.10820453134698949
402.49999999999994, 0.10820453134698949
403, 0.10865999379267555
403.5, 0.10865999379267555
404, 0.11139276846679091
404.5, 0.11139276846679091
404.99999999999994, 0.11070957479826204
405.5, 0.11070957479826204
406, 0.1093431874612043
406.5, 0.1093431874612043
407, 0.10683814400993175
407.49999999999994, 0.10683814400993175
408, 0.10911545623836127
408.5, 0.10911545623836127
409, 0.11184823091247675
409.5, 0.11184823091247675
409.99999999999994, 0.11275915580384865
410.5, 0.11275915580384865
411, 0.1102541123525762
411.5, 0.1102541123525762
412, 0.1102541123525762
412.5, 0.10843226256983252
413, 0.10843226256983252
413.5, 0.10911545623836127
414, 0.10911545623836127
414.5, 0.11162049968963395
415, 0.11162049968963395
415.49999999999994, 0.11298688702669168
416, 0.11298688702669168
416.5, 0.11139276846679091
417, 0.11139276846679091
417.5, 0.10888772501551836
417.99999999999994, 0.10888772501551836
418.5, 0.10843226256983252
419, 0.10843226256983252
419.5, 0.10979864990689014
420, 0.10979864990689014
420.49999999999994, 0.11207596213531978
421, 0.11207596213531978
421.5, 0.11253142458100562
422, 0.11253142458100562
422.5, 0.11093730602110508
422.99999999999994, 0.11093730602110508
423.5, 0.10979864990689014
424, 0.10979864990689014
424.5, 0.10979864990689014
425, 0.10979864990689014
425.49999999999994, 0.1102541123525762
426, 0.1102541123525762
426.5, 0.10957091868404722
427, 0.10957091868404722
427.5, 0.10797680012414668
428, 0.10797680012414668
428.5, 0.10865999379267555
429, 0.10865999379267555
429.5, 0.1102541123525762
430, 0.1102541123525762
430.5, 0.1102541123525762
430.99999999999994, 0.1102541123525762
431.5, 0.10774906890130365
432, 0.10774906890130365
432.5, 0.10957091868404722
433, 0.10957091868404722
433.49999999999994, 0.10843226256983252
434, 0.10843226256983252
434.5, 0.11162049968963395
435, 0.11162049968963395
435.5, 0.1093431874612043
435.99999999999994, 0.1093431874612043
436.5, 0.1102541123525762
437, 0.1102541123525762
437.5, 0.11116503724394788
438, 0.11116503724394788
438.49999999999994, 0.11116503724394788
439, 0.11048184357541901
439.5, 0.11048184357541901
440, 0.11093730602110508
440.5, 0.11093730602110508
440.99999999999994, 0.10729360645561781
441.5, 0.10729360645561781
442, 0.10797680012414668
442.5, 0.10797680012414668
443, 0.11070957479826204
443.5, 0.11070957479826204
444, 0.10843226256983252
444.5, 0.10843226256983252
445, 0.10683814400993175
445.5, 0.10683814400993175
446, 0.10865999379267555
446.49999999999994, 0.10865999379267555
447, 0.11162049968963395
447.5, 0.11162049968963395
448, 0.10911545623836127
448.5, 0.10911545623836127
448.99999999999994, 0.10820453134698949
449.5, 0.10820453134698949
450, 0.11002638112973318
450.5, 0.11002638112973318
451, 0.1093431874612043
451.49999999999994, 0.1093431874612043
452, 0.10843226256983252
452.5, 0.10843226256983252
453, 0.10888772501551836
453.5, 0.10888772501551836
453.99999999999994, 0.10706587523277478
454.5, 0.10706587523277478
455, 0.10615495034140288
455.5, 0.10615495034140288
456, 0.10661041278708894
456.5, 0.10661041278708894
457, 0.10979864990689014
457.5, 0.10979864990689014
458, 0.11002638112973318
458.5, 0.11002638112973318
459, 0.10957091868404722
459.49999999999994, 0.10957091868404722
460, 0.11093730602110508
460.5, 0.11093730602110508
461, 0.10888772501551836
461.5, 0.10888772501551836
461.99999999999994, 0.1063826815642459
462.5, 0.1063826815642459
463, 0.10774906890130365
463.5, 0.10774906890130365
464, 0.10774906890130365
464.49999999999994, 0.10774906890130365
465, 0.11070957479826204
465.5, 0.11070957479826204
466, 0.11070957479826204
466.5, 0.1093431874612043
466.99999999999994, 0.1093431874612043
467.5, 0.10797680012414668
468, 0.10797680012414668
468.5, 0.10865999379267555
469, 0.10865999379267555
469.49999999999994, 0.10661041278708894
470, 0.10661041278708894
470.5, 0.10957091868404722
471, 0.10957091868404722
471.5, 0.1093431874612043
472, 0.1093431874612043
472.5, 0.10729360645561781
473, 0.10729360645561781
473.5, 0.10501629422718817
474, 0.10501629422718817
474.5, 0.10569948789571704
474.99999999999994, 0.10569948789571704
475.5, 0.10729360645561781
476, 0.10729360645561781
476.5, 0.10957091868404722
477, 0.10957091868404722
477.49999999999994, 0.10865999379267555
478, 0.10865999379267555
478.5, 0.10615495034140288
479, 0.10615495034140288
479.5, 0.10752133767846062
479.99999999999994, 0.10752133767846062
480.5, 0.10865999379267555
481, 0.10865999379267555
481.5, 0.10752133767846062
482, 0.10752133767846062
482.49999999999994, 0.10729360645561781
483, 0.10729360645561781
483.5, 0.10797680012414668
484, 0.10797680012414668
484.5, 0.10683814400993175
484.99999999999994, 0.10683814400993175
485.5, 0.1102541123525762
486, 0.1102541123525762
486.5, 0.10843226256983252
487, 0.10843226256983252
487.5, 0.10706587523277478
488, 0.10706587523277478
488.5, 0.10888772501551836
489, 0.10888772501551836
489.5, 0.11048184357541901
490, 0.11048184357541901
490.49999999999994, 0.10957091868404722
491, 0.10957091868404722
491.5, 0.10752133767846062
492, 0.10752133767846062
492.5, 0.10752133767846062
492.99999999999994, 0.10615495034140288
493.5, 0.10615495034140288
494, 0.10911545623836127
494.5, 0.10911545623836127
495, 0.10683814400993175
495.49999999999994, 0.10683814400993175
496, 0.10410536933581638
496.5, 0.10410536933581638
497, 0.105471756672874
497.5, 0.105471756672874
497.99999999999994, 0.10820453134698949
498.5, 0.10820453134698949
499, 0.10797680012414668
499.5, 0.10797680012414668
500, 0.10706587523277478
500.49999999999994, 0.10706587523277478
501, 0.10661041278708894
501.5, 0.10661041278708894
502, 0.10843226256983252
502.5, 0.10843226256983252
503, 0.10569948789571704
503.49999999999994, 0.10569948789571704
504, 0.105471756672874
504.5, 0.105471756672874
505, 0.10683814400993175
505.5, 0.10683814400993175
505.99999999999994, 0.10683814400993175
506.5, 0.10683814400993175
507, 0.10478856300434514
507.5, 0.10478856300434514
508, 0.10569948789571704
508.49999999999994, 0.10569948789571704
509, 0.10706587523277478
509.5, 0.10706587523277478
510, 0.10524402545003109
510.5, 0.10524402545003109
510.99999999999994, 0.10410536933581638
511.5, 0.10410536933581638
512, 0.10569948789571704
512.5, 0.10569948789571704
513, 0.10797680012414668
513.5, 0.10797680012414668
514, 0.10592721911856007
514.5, 0.10592721911856007
515, 0.10661041278708894
515.5, 0.10661041278708894
516, 0.10683814400993175
516.5, 0.10683814400993175
517, 0.10865999379267555
517.5, 0.10865999379267555
518, 0.10661041278708894
518.5, 0.10661041278708894
519, 0.10661041278708894
519.5, 0.10478856300434514
520, 0.10478856300434514
520.5, 0.10387763811297335
521, 0.10387763811297335
521.5, 0.10774906890130365
522, 0.10774906890130365
522.5, 0.10615495034140288
523, 0.10615495034140288
523.5, 0.10342217566728751
524, 0.10342217566728751
524.5, 0.10319444444444448
525, 0.10319444444444448
525.5, 0.1022835195530728
526, 0.1022835195530728
526.5, 0.10319444444444448
527, 0.10319444444444448
527.5, 0.10615495034140288
528, 0.10615495034140288
528.5, 0.10615495034140288
529, 0.10615495034140288
529.5, 0.1022835195530728
530, 0.1022835195530728
530.5, 0.10251125077591561
531, 0.10251125077591561
531.5, 0.10569948789571704
532, 0.10569948789571704
532.5, 0.10524402545003109
533, 0.10524402545003109
533.5, 0.10524402545003109
534, 0.10524402545003109
534.5, 0.10478856300434514
535, 0.10478856300434514
535.5, 0.10592721911856007
536, 0.10592721911856007
536.5, 0.10456083178150222
537, 0.10456083178150222
537.5, 0.10456083178150222
538, 0.10456083178150222
538.5, 0.10501629422718817
539, 0.10501629422718817
539.5, 0.10478856300434514
540, 0.10478856300434514
540.5, 0.10501629422718817
541, 0.10501629422718817
541.5, 0.10615495034140288
542, 0.10615495034140288
542.5, 0.10387763811297335
543, 0.10387763811297335
543.5, 0.10456083178150222
544, 0.10456083178150222
544.5, 0.10661041278708894
545, 0.10661041278708894
545.5, 0.10661041278708894
546, 0.10501629422718817
546.5, 0.10501629422718817
547, 0.10296671322160167
547.5, 0.10296671322160167
548, 0.10273898199875864
548.5, 0.10273898199875864
549, 0.10615495034140288
549.5, 0.10615495034140288
550, 0.10456083178150222
550.5, 0.10456083178150222
551, 0.10456083178150222
551.5, 0.10456083178150222
552, 0.105471756672874
552.5, 0.105471756672874
553, 0.10661041278708894
553.5, 0.10661041278708894
554, 0.10865999379267555
554.5, 0.10865999379267555
555, 0.10752133767846062
555.5, 0.10752133767846062
556, 0.1063826815642459
556.5, 0.1063826815642459
557, 0.1063826815642459
557.5, 0.1063826815642459
558, 0.10569948789571704
558.5, 0.10569948789571704
559, 0.10774906890130365
559.5, 0.10774906890130365
560, 0.10797680012414668
560.5, 0.10797680012414668
561, 0.10820453134698949
561.5, 0.10820453134698949
562, 0.10957091868404722
562.5, 0.10957091868404722
563, 0.10865999379267555
563.5, 0.10865999379267555
564, 0.10661041278708894
564.5, 0.10661041278708894
565, 0.10706587523277478
565.5, 0.10706587523277478
566, 0.1102541123525762
566.5, 0.1102541123525762
567, 0.1102541123525762
567.5, 0.1102541123525762
568, 0.1063826815642459
568.5, 0.1063826815642459
569, 0.10888772501551836
569.5, 0.10888772501551836
570, 0.11139276846679091
570.5, 0.11139276846679091
571, 0.10774906890130365
571.5, 0.10774906890130365
572, 0.10774906890130365
572.5, 0.10957091868404722
573, 0.10957091868404722
573.5, 0.10957091868404722
574, 0.10957091868404722
574.5, 0.11184823091247675
575, 0.11184823091247675
575.5, 0.11002638112973318
576, 0.11002638112973318
576.5, 0.11207596213531978
577, 0.11207596213531978
577.5, 0.11708604903786479
578, 0.11708604903786479
578.5, 0.11731378026070782
579, 0.11731378026070782
579.5, 0.11526419925512121
580, 0.11526419925512121
580.5, 0.11890789882060848
581, 0.11890789882060848
581.5, 0.1182247051520795
582, 0.1182247051520795
582.5, 0.12004655493482319
583, 0.12004655493482319
583.5, 0.12255159838609564
584, 0.12255159838609564
584.5, 0.1250566418373682
584.9999999999998, 0.1250566418373682
585.5, 0.12323479205462462
586, 0.12323479205462462
586.5, 0.12551210428305404
587, 0.12551210428305404
587.5, 0.12870034140285547
588, 0.12870034140285547
588.5, 0.1330272346368716
589, 0.1330272346368716
589.5, 0.12983899751707018
589.9999999999998, 0.12983899751707018
590.5, 0.12938353507138434
591, 0.12938353507138434
591.5, 0.1330272346368716
592, 0.1330272346368716
592.5, 0.13780959031657358
593, 0.13780959031657358
593.5, 0.1389482464307885
594, 0.1389482464307885
594.5, 0.13667093420235887
594.9999999999998, 0.13667093420235887
595.5, 0.14259194599627578
596, 0.14259194599627578
596.5, 0.14851295779019247
597, 0.14851295779019247
597.5, 0.14714657045313473
598, 0.14714657045313473
598.5, 0.1505625387957792
599, 0.1505625387957792
599.5, 0.1505625387957792
600, 0.15238438857852277
600.4999999999998, 0.15238438857852277
601, 0.150790270018622
601.5, 0.150790270018622
602, 0.1567112818125389
602.5, 0.1567112818125389
603, 0.15625581936685307
603.5, 0.15625581936685307
604, 0.1605827126008692
604.5, 0.1605827126008692
605, 0.1605827126008692
605.4999999999998, 0.1605827126008692
606, 0.15944405648665427
606.5, 0.15944405648665427
607, 0.16240456238361267
607.5, 0.16240456238361267
608, 0.16604826194909994
608.5, 0.16604826194909994
609, 0.16490960583488534
609.5, 0.16490960583488534
610, 0.16627599317194308
610.4999999999998, 0.16627599317194308
610.9999999999998, 0.16878103662321542
611.5, 0.16878103662321542
612, 0.17083061762880203
612.5, 0.17083061762880203
613, 0.17265246741154572
613.5, 0.17265246741154572
614, 0.17288019863438875
614.5, 0.17288019863438875
615, 0.17219700496585988
615.5, 0.17219700496585988
615.9999999999998, 0.17538524208566109
616.5, 0.17538524208566109
617, 0.17265246741154572
617.5, 0.17265246741154572
618, 0.17561297330850412
618.5, 0.17561297330850412
619, 0.17401885474860346
619.5, 0.17401885474860346
620, 0.17356339230291762
620.5, 0.17356339230291762
620.9999999999998, 0.17584070453134715
621.5, 0.17584070453134715
622, 0.17310792985723156
622.5, 0.17310792985723156
623, 0.17401885474860346
623.5, 0.17401885474860346
624, 0.17515751086281817
624.5, 0.17515751086281817
625, 0.17288019863438875
625.5, 0.17288019863438875
625.9999999999998, 0.17288019863438875
626.4999999999998, 0.17356339230291762
627, 0.17356339230291762
627.5, 0.17196927374301685
628, 0.17196927374301685
628.5, 0.17356339230291762
629, 0.17356339230291762
629.5, 0.17219700496585988
630, 0.17219700496585988
630.5, 0.17105834885164495
631, 0.17105834885164495
631.4999999999998, 0.171513811297331
632, 0.171513811297331
632.5, 0.1694642302917443
633, 0.1694642302917443
633.5, 0.16809784295468655
634, 0.16809784295468655
634.5, 0.1667314556176288
635, 0.1667314556176288
635.5, 0.16490960583488534
636, 0.16490960583488534
636.4999999999998, 0.1626322936064557
637, 0.1626322936064557
637.5, 0.1635432184978276
638, 0.1635432184978276
638.5, 0.16513733705772815
639, 0.16513733705772815
639.5, 0.1635432184978276
640, 0.1635432184978276
640.5, 0.16126590626939807
641, 0.16126590626939807
641.4999999999998, 0.15944405648665427
641.9999999999998, 0.15944405648665427
642.5, 0.15739447548106766
643, 0.15739447548106766
643.5, 0.15739447548106766
644, 0.15739447548106766
644.5, 0.15648355058969587
645, 0.15648355058969587
645.5, 0.15238438857852277
646, 0.15238438857852277
646.5, 0.15124573246430806
646.9999999999998, 0.15124573246430806
647.5, 0.1505625387957792
648, 0.1505625387957792
648.5, 0.15033480757293616
649, 0.15033480757293616
649.5, 0.15010707635009313
650, 0.15010707635009313
650.5, 0.14805749534450663
651, 0.14805749534450663
651.5, 0.14509698944754812
651.9999999999998, 0.14509698944754812
652.5, 0.14509698944754812
653, 0.14509698944754812
653.5, 0.14509698944754812
654, 0.14418606455617633
654.5, 0.14418606455617633
655, 0.14509698944754812
655.5, 0.14509698944754812
656, 0.14327513966480465
656.5, 0.14327513966480465
656.9999999999998, 0.14145328988206085
657.4999999999998, 0.14145328988206085
658, 0.13963144009931738
658.5, 0.13963144009931738
659, 0.13917597765363132
659.5, 0.13917597765363132
660, 0.13735412787088774
660.5, 0.13735412787088774
661, 0.13598774053383
661.5, 0.13598774053383
662, 0.13439362197392934
662.4999999999998, 0.13439362197392934
663, 0.13576000931098697
663.5, 0.13576000931098697
664, 0.13257177219118577
664.5, 0.13257177219118577
665, 0.13143311607697084
665.5, 0.13143311607697084
666, 0.13279950341402857
666.5, 0.13279950341402857
667, 0.13279950341402857
667.4999999999998, 0.13279950341402857
668, 0.1300667287399132
668.5, 0.1300667287399132
669, 0.12983899751707018
669.5, 0.12983899751707018
670, 0.12778941651148357
670.5, 0.12778941651148357
671, 0.12551210428305404
671.5, 0.12551210428305404
672, 0.12687849162011178
672.4999999999998, 0.12687849162011178
672.9999999999998, 0.1271062228429547
673.5, 0.1271062228429547
674, 0.12460117939168236
674.5, 0.12460117939168236
675, 0.12164067349472396
675.5, 0.12164067349472396
676, 0.12209613594040969
676.5, 0.12209613594040969
677, 0.12277932960893856
677.5, 0.12277932960893856
677.9999999999998, 0.12095747982619509
678.5, 0.12095747982619509
679, 0.12095747982619509
679.5, 0.11981882371198016
680, 0.11981882371198016
680.5, 0.12050201738050903
681, 0.12050201738050903
681.5, 0.11913563004345129
682, 0.11913563004345129
682.5, 0.11845243637492242
682.9999999999998, 0.11845243637492242
683.5, 0.11708604903786479
684, 0.11708604903786479
684.5, 0.11571966170080705
685, 0.11571966170080705
685.5, 0.11503646803227818
686, 0.11503646803227818
686.5, 0.11526419925512121
687, 0.11526419925512121
687.5, 0.11298688702669168
687.9999999999998, 0.11298688702669168
688.4999999999998, 0.11367008069522044
689, 0.11367008069522044
689.5, 0.11367008069522044
690, 0.11367008069522044
690.5, 0.11275915580384865
691, 0.11275915580384865
691.5, 0.11162049968963395
692, 0.11162049968963395
692.5, 0.11093730602110508
693, 0.11093730602110508
693.4999999999998, 0.11070957479826204
694, 0.11070957479826204
694.5, 0.11070957479826204
695, 0.11070957479826204
695.5, 0.11116503724394788
696, 0.11116503724394788
696.5, 0.11070957479826204
697, 0.11070957479826204
697.5, 0.10797680012414668
698, 0.10797680012414668
698.4999999999998, 0.10319444444444448
698.9999999999998, 0.10319444444444448
699.5, 0.10433310055865941
700, 0.10433310055865941
700.5, 0.1022835195530728
701, 0.1022835195530728
701.5, 0.10501629422718817
702, 0.10501629422718817
702.5, 0.10569948789571704
703, 0.10569948789571704
703.4999999999998, 0.10706587523277478
703.9999999999998, 0.10706587523277478
704.5, 0.10683814400993175
705, 0.10683814400993175
705.5, 0.10683814400993175
706, 0.10501629422718817
706.5, 0.10501629422718817
707, 0.10342217566728751
707.5, 0.10342217566728751
708, 0.10091713221601495
708.5, 0.10091713221601495
708.9999999999998, 0.10068940099317203
709.5, 0.10068940099317203
710, 0.10273898199875864
710.5, 0.10273898199875864
711, 0.10205578833022977
711.5, 0.10205578833022977
712, 0.10160032588454393
712.5, 0.10160032588454393
713, 0.09909528243327137
713.5, 0.09909528243327137
713.9999999999998, 0.100461669770329
714.4999999999998, 0.100461669770329
715, 0.0993230136561144
715.5, 0.0993230136561144
716, 0.0984120887647425
716.5, 0.0984120887647425
717, 0.09863981998758553
717.5, 0.09863981998758553
718, 0.0993230136561144
718.5, 0.0993230136561144
719, 0.0993230136561144
719.4999999999998, 0.0993230136561144
720, 0.0993230136561144
720.5, 0.0993230136561144
721, 0.09886755121042834
721.5, 0.09886755121042834
722, 0.09727343265052779
722.5, 0.09727343265052779
723, 0.0954515828677841
723.5, 0.0954515828677841
724, 0.0975011638733706
724.4999999999998, 0.0975011638733706
725, 0.09704570142768476
725.5, 0.09704570142768476
726, 0.09499612042209826
726.5, 0.09499612042209826
727, 0.0945406579764122
727.5, 0.0945406579764122
728, 0.09180788330229672
728.5, 0.09180788330229672
729, 0.09203561452513975
729.4999999999998, 0.09203561452513975
729.9999999999998, 0.09340200186219749
730.5, 0.09340200186219749
731, 0.09271880819366862
731.5, 0.09271880819366862
732, 0.09271880819366862
732.5, 0.09089695841092493
733, 0.09089695841092493
733.5, 0.09249107697082559
734, 0.09249107697082559
734.5, 0.09340200186219749
734.9999999999998, 0.09340200186219749
735.5, 0.09021376474239606
736, 0.09021376474239606
736.5, 0.08998603351955325
737, 0.08998603351955325
737.5, 0.08998603351955325
738, 0.08998603351955325
738.5, 0.09089695841092493
739, 0.09089695841092493
739.5, 0.09021376474239606
739.9999999999998, 0.09021376474239606
740.5, 0.0895305710738672
741, 0.0895305710738672
741.5, 0.08793645251396665
742, 0.08793645251396665
742.5, 0.08861964618249552
743, 0.08861964618249552
743.5, 0.08930283985102438
744, 0.08930283985102438
744.5, 0.08611460273122296
744.9999999999998, 0.08611460273122296
745.4999999999998, 0.08679779639975183
746, 0.08679779639975183
746.5, 0.08679779639975183
747, 0.08679779639975183
747.5, 0.08839191495965248
748, 0.08839191495965248
748.5, 0.08748099006828058
749, 0.08748099006828058
749.5, 0.08793645251396665
750, 0.08793645251396665
750.4999999999998, 0.08702552762259486
751, 0.08702552762259486
751.5, 0.08634233395406599
752, 0.08634233395406599
752.5, 0.0865700651769088
753, 0.0865700651769088
753.5, 0.08543140906269409
754, 0.08543140906269409
754.5, 0.08725325884543766
755, 0.08725325884543766
755.4999999999998, 0.08588687150837993
756, 0.08588687150837993
756.5, 0.08793645251396665
757, 0.08793645251396665
757.5, 0.08634233395406599
758, 0.08634233395406599
758.5, 0.08520367783985106
759, 0.08520367783985106
759.5, 0.08520367783985106
760, 0.08383729050279332
760.4999999999998, 0.08383729050279332
760.9999999999998, 0.08247090316573569
761.5, 0.08247090316573569
762, 0.08315409683426445
762.5, 0.08315409683426445
763, 0.08383729050279332
763.5, 0.08383729050279332
764, 0.08360955927995051
764.5, 0.08360955927995051
765, 0.08429275294847938
765.5, 0.08429275294847938
765.9999999999998, 0.08543140906269409
766.5, 0.08543140906269409
767, 0.08247090316573569
767.5, 0.08247090316573569
768, 0.08201544072004985
768.5, 0.08201544072004985
769, 0.08338182805710748
769.5, 0.08338182805710748
770, 0.0826986343885786
770.5, 0.0826986343885786
770.9999999999998, 0.08155997827436379
771.4999999999998, 0.08155997827436379
772, 0.0826986343885786
772.5, 0.0826986343885786
773, 0.08087678460583492
773.5, 0.08087678460583492
774, 0.08155997827436379
774.5, 0.08155997827436379
775, 0.08133224705152098
775.5, 0.08133224705152098
775.9999999999998, 0.08110451582867795
776.4999999999998, 0.08110451582867795
777, 0.08110451582867795
777.5, 0.08110451582867795
778, 0.08133224705152098
778.5, 0.08133224705152098
779, 0.08019359093730605
779.5, 0.08019359093730605
780, 0.08110451582867795
780.5, 0.08110451582867795
781, 0.07905493482309134
781.4999999999998, 0.07905493482309134
782, 0.07951039726877718
782.5, 0.07951039726877718
783, 0.07768854748603371
783.5, 0.07768854748603371
784, 0.07951039726877718
784.5, 0.07951039726877718
785, 0.07882720360024831
785.5, 0.07882720360024831
786, 0.07882720360024831
786.4999999999998, 0.07746081626319068
786.9999999999998, 0.07746081626319068
787.5, 0.07654989137181878
788, 0.07654989137181878
788.5, 0.07700535381750484
789, 0.07700535381750484
789.5, 0.07632216014897597
790, 0.07632216014897597
790.5, 0.07586669770328991
791, 0.07586669770328991
791.4999999999998, 0.07609442892613294
791.9999999999998, 0.07609442892613294
792.5, 0.07586669770328991
793, 0.07586669770328991
793.5, 0.0756389664804471
794, 0.0756389664804471
794.5, 0.07609442892613294
795, 0.07609442892613294
795.5, 0.07700535381750484
796, 0.07700535381750484
796.5, 0.07654989137181878
796.9999999999998, 0.07654989137181878
797.5, 0.07427257914338936
798, 0.07427257914338936
798.5, 0.07450031036623228
799, 0.07450031036623228
799.5, 0.07381711669770341
800, 0.07381711669770341
800.5, 0.07336165425201757
801, 0.07336165425201757
801.5, 0.07404484792054622
801.9999999999998, 0.07404484792054622
802.4999999999998, 0.07495577281191823
803, 0.07495577281191823
803.5, 0.07518350403476104
804, 0.07518350403476104
804.5, 0.07450031036623228
805, 0.07450031036623228
805.5, 0.07427257914338936
806, 0.07427257914338936
806.5, 0.07404484792054622
806.9999999999998, 0.07404484792054622
807.4999999999998, 0.07586669770328991
808, 0.07586669770328991
808.5, 0.07404484792054622
809, 0.07404484792054622
809.5, 0.0747280415890752
810, 0.0747280415890752
810.5, 0.07381711669770341
811, 0.07381711669770341
811.5, 0.07518350403476104
812, 0.07518350403476104
812.4999999999998, 0.07518350403476104
813, 0.07313392302917465
813.5, 0.07313392302917465
814, 0.07222299813780275
814.5, 0.07222299813780275
815, 0.07313392302917465
815.5, 0.07313392302917465
816, 0.0726784605834887
816.5, 0.0726784605834887
817, 0.07199526691495983
817.4999999999998, 0.07199526691495983
817.9999999999998, 0.07336165425201757
818.5, 0.07336165425201757
819, 0.07336165425201757
819.5, 0.07336165425201757
820, 0.07245072936064556
820.5, 0.07245072936064556
821, 0.07313392302917465
821.5, 0.07313392302917465
822, 0.07427257914338936
822.4999999999998, 0.07427257914338936
822.9999999999998, 0.07336165425201757
823.5, 0.07336165425201757
824, 0.07313392302917465
824.5, 0.07313392302917465
825, 0.07290619180633162
825.5, 0.07290619180633162
826, 0.07313392302917465
826.5, 0.07313392302917465
827, 0.07313392302917465
827.5, 0.07313392302917465
827.9999999999998, 0.07313392302917465
828.5, 0.07313392302917465
829, 0.07427257914338936
829.5, 0.07427257914338936
830, 0.0747280415890752
830.5, 0.0747280415890752
831, 0.07450031036623228
831.5, 0.07450031036623228
832, 0.07358938547486049
832.5, 0.07358938547486049
832.9999999999998, 0.07336165425201757
833.4999999999998, 0.07336165425201757
834, 0.07358938547486049
834.5, 0.07358938547486049
835, 0.07245072936064556
835.5, 0.07245072936064556
836, 0.07245072936064556
836.5, 0.07245072936064556
837, 0.07427257914338936
837.5, 0.07427257914338936
837.9999999999998, 0.07609442892613294
838.4999999999998, 0.07609442892613294
839, 0.07609442892613294
839.5, 0.07700535381750484
840, 0.07700535381750484
840.5, 0.07632216014897597
841, 0.07632216014897597
841.5, 0.07768854748603371
842, 0.07768854748603371
842.5, 0.07654989137181878
843, 0.07654989137181878
843.4999999999998, 0.07723308504034765
844, 0.07723308504034765
844.5, 0.07723308504034765
845, 0.07723308504034765
845.5, 0.07654989137181878
846, 0.07654989137181878
846.5, 0.07859947237740539
847, 0.07859947237740539
847.5, 0.07791627870887652
848, 0.07791627870887652
848.4999999999998, 0.07723308504034765
848.9999999999998, 0.07723308504034765
849.5, 0.07882720360024831
850, 0.07882720360024831
850.5, 0.07905493482309134
851, 0.07905493482309134
851.5, 0.08042132216014908
852, 0.08042132216014908
852.5, 0.08042132216014908
853, 0.08042132216014908
853.4999999999998, 0.08042132216014908
853.9999999999998, 0.08042132216014908
854.5, 0.07996585971446324
855, 0.07996585971446324
855.5, 0.08019359093730605
856, 0.08019359093730605
856.5, 0.08087678460583492
857, 0.08087678460583492
857.5, 0.08247090316573569
858, 0.08247090316573569
858.5, 0.08247090316573569
858.9999999999998, 0.08247090316573569
859.4999999999998, 0.08406502172563635
860, 0.08406502172563635
860.5, 0.08497594661700825
861, 0.08497594661700825
861.5, 0.08588687150837993
862, 0.08588687150837993
862.5, 0.08565914028553712
863, 0.08565914028553712
863.5, 0.08497594661700825
863.9999999999998, 0.08497594661700825
864.4999999999998, 0.0865700651769088
865, 0.0865700651769088
865.5, 0.0865700651769088
866, 0.08725325884543766
866.5, 0.08725325884543766
867, 0.08770872129112361
867.5, 0.08770872129112361
868, 0.08930283985102438
868.5, 0.08930283985102438
868.9999999999998, 0.08975830229671022
869.4999999999998, 0.08975830229671022
870, 0.0895305710738672
870.5, 0.0895305710738672
871, 0.08930283985102438
871.5, 0.08930283985102438
872, 0.08998603351955325
872.5, 0.08998603351955325
873, 0.091352420856611
873.5, 0.091352420856611
874, 0.09249107697082559
874.4999999999998, 0.09249107697082559
874.9999999999998, 0.09408519553072636
875.5, 0.09408519553072636
876, 0.09294653941651165
876.5, 0.09294653941651165
877, 0.0945406579764122
877.5, 0.0945406579764122
878, 0.09681797020484173
878.5, 0.09681797020484173
879, 0.09408519553072636
879.4999999999998, 0.09408519553072636
879.9999999999998, 0.09408519553072636
880.5, 0.09408519553072636
881, 0.09613477653631286
881.5, 0.09613477653631286
882, 0.09362973308504052
882.5, 0.09362973308504052
883, 0.09499612042209826
883.5, 0.09499612042209826
884, 0.09294653941651165
884.5, 0.09294653941651165
884.9999999999998, 0.09408519553072636
885.5, 0.09408519553072636
886, 0.09431292675356939
886.5, 0.09431292675356939
887, 0.09613477653631286
887.5, 0.09613477653631286
888, 0.0975011638733706
888.5, 0.0975011638733706
889, 0.0954515828677841
889.5, 0.0954515828677841
889.9999999999998, 0.0954515828677841
890.4999999999998, 0.0954515828677841
891, 0.09727343265052779
891.5, 0.09727343265052779
892, 0.09704570142768476
892.5, 0.09704570142768476
893, 0.09704570142768476
893.5, 0.09727343265052779
894, 0.09727343265052779
894.5, 0.09636250775915589
894.9999999999998, 0.09636250775915589
895.4999999999998, 0.09795662631905666
896, 0.09795662631905666
896.5, 0.09704570142768476
897, 0.09704570142768476
897.5, 0.0975011638733706
898, 0.0975011638733706
898.5, 0.09659023898199881
899, 0.09659023898199881
899.5, 0.09431292675356939
900, 0.09431292675356939
900.4999999999998, 0.09636250775915589
901, 0.09636250775915589
901.5, 0.100461669770329
902, 0.100461669770329
902.5, 0.10023393854748608
903, 0.10023393854748608
903.5, 0.10000620732464327
904, 0.10000620732464327
904.5, 0.09795662631905666
905, 0.09795662631905666
905.4999999999998, 0.09909528243327137
905.9999999999998, 0.09909528243327137
906.5, 0.09704570142768476
907, 0.09704570142768476
907.5, 0.10000620732464327
908, 0.10000620732464327
908.5, 0.100461669770329
909, 0.100461669770329
909.5, 0.100461669770329
910, 0.100461669770329
910.4999999999998, 0.09886755121042834
910.9999999999998, 0.09886755121042834
911.5, 0.10251125077591561
912, 0.10251125077591561
912.5, 0.10251125077591561
913, 0.10251125077591561
913.5, 0.10068940099317203
914, 0.10068940099317203
914.5, 0.10251125077591561
915, 0.10251125077591561
915.5, 0.10410536933581638
915.9999999999998, 0.10410536933581638
916.5, 0.10865999379267555
917, 0.10865999379267555
917.5, 0.10615495034140288
918, 0.10615495034140288
918.5, 0.10456083178150222
919, 0.10456083178150222
919.5, 0.10456083178150222
920, 0.10843226256983252
920.5, 0.10843226256983252
920.9999999999998, 0.10843226256983252
921.4999999999998, 0.10843226256983252
922, 0.10820453134698949
922.5, 0.10820453134698949
923, 0.11002638112973318
923.5, 0.11002638112973318
924, 0.1102541123525762
924.5, 0.1102541123525762
925, 0.11389781191806336
925.5, 0.11389781191806336
925.9999999999998, 0.11435327436374931
926.4999999999998, 0.11435327436374931
927, 0.11367008069522044
927.5, 0.11367008069522044
928, 0.11458100558659234
928.5, 0.11458100558659234
929, 0.11549193047796402
929.5, 0.11549193047796402
930, 0.11685831781502176
930.5, 0.11685831781502176
931, 0.11458100558659234
931.4999999999998, 0.11458100558659234
932, 0.11890789882060848
932.5, 0.11890789882060848
933, 0.12232386716325283
933.5, 0.12232386716325283
934, 0.12300706083178159
934.5, 0.12300706083178159
935, 0.12095747982619509
935.5, 0.12095747982619509
936, 0.12186840471756677
936.4999999999998, 0.12186840471756677
936.9999999999998, 0.12528437306021123
937.5, 0.12528437306021123
938, 0.12551210428305404
938.5, 0.12551210428305404
939, 0.12733395406579773
939.5, 0.12733395406579773
940, 0.1271062228429547
940.5, 0.1271062228429547
941, 0.12733395406579773
941.4999999999998, 0.12733395406579773
941.9999999999998, 0.12778941651148357
942.5, 0.12778941651148357
943, 0.1309776536312851
943.5, 0.1309776536312851
944, 0.13166084729981387
944.5, 0.13166084729981387
945, 0.13325496585971464
945.5, 0.13325496585971464
946, 0.13325496585971464
946.5, 0.1321163097454997
946.9999999999998, 0.1321163097454997
947.4999999999998, 0.1339381595282435
948, 0.1339381595282435
948.5, 0.13576000931098697
949, 0.13576000931098697
949.5, 0.13416589075108631
950, 0.13416589075108631
950.5, 0.13758185909373077
951, 0.13758185909373077
951.5, 0.13530454686530125
951.9999999999998, 0.13530454686530125
952.4999999999998, 0.1380373215394166
953, 0.1380373215394166
953.5, 0.14077009621353198
954, 0.14077009621353198
954.5, 0.1400869025450031
955, 0.1400869025450031
955.5, 0.14304740844196162
956, 0.14304740844196162
956.5, 0.14441379577901925
956.9999999999998, 0.14441379577901925
957.4999999999998, 0.14532472067039115
958, 0.14532472067039115
958.5, 0.1448692582247052
959, 0.1448692582247052
959.5, 0.14646337678460586
960, 0.14646337678460586
960.5, 0.14805749534450663
961, 0.14805749534450663
961.5, 0.1487406890130354
962, 0.1487406890130354
962.4999999999998, 0.15010707635009313
962.9999999999998, 0.15010707635009313
963.5, 0.1496516139044073
964, 0.1496516139044073
964.5, 0.15101800124146503
965, 0.15101800124146503
965.5, 0.15420623836126646
966, 0.15420623836126646
966.5, 0.15511716325263813
967, 0.15511716325263813
967.4999999999998, 0.15534489447548117
967.9999999999998, 0.15534489447548117
968.5, 0.1528398510242086
969, 0.1528398510242086
969.5, 0.1546617008069523
970, 0.1546617008069523
970.5, 0.15443396958410927
971, 0.15443396958410927
971.5, 0.15397850713842343
972, 0.15397850713842343
972.4999999999998, 0.15397850713842343
972.9999999999998, 0.15716674425822474
973.5, 0.15716674425822474
974, 0.1555726256983242
974.5, 0.1555726256983242
975, 0.15511716325263813
975.5, 0.15511716325263813
976, 0.1567112818125389
976.5, 0.1567112818125389
977, 0.15739447548106766
977.5, 0.15739447548106766
977.9999999999998, 0.15784993792675361
978.4999999999998, 0.15784993792675361
979, 0.15602808814401004
979.5, 0.15602808814401004
980, 0.15192892613283693
980.5, 0.15192892613283693
981, 0.15921632526381146
981.5, 0.15921632526381146
982, 0.15944405648665427
982.5, 0.15944405648665427
982.9999999999998, 0.15716674425822474
983.4999999999998, 0.15716674425822474
984, 0.1546617008069523
984.5, 0.1546617008069523
985, 0.155800356921167
985.5, 0.155800356921167
986, 0.15648355058969587
986.5, 0.15648355058969587
987, 0.1555726256983242
987.5, 0.1555726256983242
987.9999999999998, 0.1555726256983242
988.4999999999998, 0.1555726256983242
989, 0.15807766914959653
989.5, 0.15807766914959653
990, 0.15648355058969587
990.5, 0.15648355058969587
991, 0.1567112818125389
991.5, 0.1567112818125389
992, 0.15192892613283693
992.5, 0.15192892613283693
993, 0.15420623836126646
993.4999999999998, 0.15420623836126646
993.9999999999998, 0.15352304469273748
994.5, 0.15352304469273748
995, 0.1517011949099939
995.5, 0.1517011949099939
996, 0.15443396958410927
996.5, 0.15443396958410927
997, 0.15238438857852277
997.5, 0.15238438857852277
998, 0.155800356921167
998.4999999999998, 0.155800356921167
998.9999999999998, 0.155800356921167
999.5, 0.15443396958410927
1000, 0.15443396958410927
1000.5, 0.15329531346989467
1001, 0.15329531346989467
1001.5, 0.15511716325263813
1002, 0.15511716325263813
1002.5, 0.15488943202979533
1003, 0.15488943202979533
1003.4999999999998, 0.15397850713842343
1003.9999999999998, 0.15397850713842343
1004.5, 0.15352304469273748
1005, 0.15352304469273748
1005.5, 0.1546617008069523
1006, 0.1546617008069523
1006.5, 0.15306758224705153
1007, 0.15306758224705153
1007.5, 0.15238438857852277
1008, 0.15238438857852277
1008.5, 0.15124573246430806
1008.9999999999998, 0.15124573246430806
1009.4999999999998, 0.1546617008069523
1010, 0.1546617008069523
1010.5, 0.15329531346989467
1011, 0.15329531346989467
1011.5, 0.1528398510242086
1012, 0.1528398510242086
1012.5, 0.15124573246430806
1013, 0.15124573246430806
1013.5, 0.1517011949099939
1013.9999999999998, 0.1517011949099939
1014.4999999999998, 0.15648355058969587
1015, 0.15648355058969587
1015.5, 0.15306758224705153
1016, 0.15306758224705153
1016.5, 0.15124573246430806
1017, 0.15124573246430806
1017.5, 0.15192892613283693
1018, 0.15192892613283693
1018.5, 0.15147346368715087
1018.9999999999998, 0.15147346368715087
1019.4999999999998, 0.15397850713842343
1020, 0.15397850713842343
1020.5, 0.15488943202979533
1021, 0.15488943202979533
1021.5, 0.15648355058969587
1022, 0.15648355058969587
1022.5, 0.16126590626939807
1023, 0.16126590626939807
1023.5, 0.15830540037243956
1024, 0.15830540037243956
1024.4999999999998, 0.15648355058969587
1024.9999999999998, 0.15648355058969587
1025.5, 0.15648355058969587
1026, 0.15329531346989467
1026.5, 0.15329531346989467
1027, 0.15511716325263813
1027.5, 0.15511716325263813
1028, 0.15648355058969587
1028.5, 0.15648355058969587
1029, 0.15716674425822474
1029.4999999999998, 0.15716674425822474
1029.9999999999998, 0.15716674425822474
1030.5, 0.15716674425822474
1031, 0.15739447548106766
1031.5, 0.15739447548106766
1032, 0.15989951893234033
1032.5, 0.15989951893234033
1033, 0.15898859404096843
1033.5, 0.15898859404096843
1034, 0.1587608628181254
1034.4999999999998, 0.1587608628181254
1034.9999999999998, 0.15716674425822474
1035.4999999999998, 0.15716674425822474
1036, 0.15648355058969587
1036.5, 0.15648355058969587
1037, 0.16035498137802617
1037.5, 0.16035498137802617
1038, 0.1596717877094973
1038.5, 0.1596717877094973
1039, 0.1585331315952826
1039.5, 0.1585331315952826
1039.9999999999998, 0.1576222067039108
1040.4999999999998, 0.1576222067039108
1041, 0.16194909993792694
1041.5, 0.16194909993792694
1042, 0.15944405648665427
1042.5, 0.15944405648665427
1043, 0.1596717877094973
1043.5, 0.1596717877094973
1044, 0.1596717877094973
1044.5, 0.1596717877094973
1044.9999999999998, 0.1596717877094973
1045.4999999999998, 0.1596717877094973
1046, 0.1596717877094973
1046.5, 0.1596717877094973
1047, 0.16012725015518314
1047.5, 0.16012725015518314
1048, 0.15898859404096843
1048.5, 0.15898859404096843
1049, 0.15716674425822474
1049.5, 0.15716674425822474
1050, 0.1605827126008692
1050.4999999999998, 0.1605827126008692
1050.9999999999998, 0.1576222067039108
1051.5, 0.1576222067039108
1052, 0.155800356921167
1052.5, 0.155800356921167
1053, 0.155800356921167
1053.5, 0.1587608628181254
1054, 0.1587608628181254
1054.5, 0.15944405648665427
1055, 0.15944405648665427
1055.4999999999998, 0.1585331315952826
1055.9999999999998, 0.1585331315952826
1056.5, 0.16012725015518314
1057, 0.16012725015518314
1057.5, 0.15989951893234033
1058, 0.15989951893234033
1058.5, 0.16194909993792694
1059, 0.16194909993792694
1059.5, 0.15807766914959653
1060, 0.15807766914959653
1060.4999999999998, 0.1617213687150838
1060.9999999999998, 0.1617213687150838
1061.5, 0.16035498137802617
1062, 0.16035498137802617
1062.5, 0.16149363749224088
1063, 0.16149363749224088
1063.5, 0.1605827126008692
1064, 0.1605827126008692
1064.5, 0.16103817504655504
1065, 0.16103817504655504
1065.5, 0.1596717877094973
1065.9999999999998, 0.1596717877094973
1066.4999999999998, 0.1585331315952826
1067, 0.1585331315952826
1067.5, 0.15739447548106766
1068, 0.15739447548106766
1068.5, 0.15784993792675361
1069, 0.15784993792675361
1069.5, 0.16012725015518314
1070, 0.16012725015518314
1070.5, 0.15784993792675361
1070.9999999999998, 0.15784993792675361
1071.4999999999998, 0.15306758224705153
1072, 0.15306758224705153
1072.5, 0.15397850713842343
1073, 0.15397850713842343
1073.5, 0.1546617008069523
1074, 0.1546617008069523
1074.5, 0.15716674425822474
1075, 0.15716674425822474
1075.5, 0.15329531346989467
1075.9999999999998, 0.15329531346989467
1076.4999999999998, 0.15124573246430806
1077, 0.15124573246430806
1077.5, 0.150790270018622
1078, 0.150790270018622
1078.5, 0.15329531346989467
1079, 0.15329531346989467
1079.5, 0.15329531346989467
1080, 0.15147346368715087
1080.5, 0.15147346368715087
1081, 0.14828522656734966
1081.4999999999998, 0.14828522656734966
1081.9999999999998, 0.14851295779019247
1082.5, 0.14851295779019247
1083, 0.14714657045313473
1083.5, 0.14714657045313473
1084, 0.14896842023587853
1084.5, 0.14896842023587853
1085, 0.14623564556176305
1085.5, 0.14623564556176305
1086, 0.14600791433892002
1086.5, 0.14600791433892002
1087, 0.14509698944754812
1087.5, 0.14509698944754812
1088, 0.14441379577901925
1088.5, 0.14441379577901925
1089, 0.1419087523277469
1089.5, 0.1419087523277469
1090, 0.14054236499068906
1090.5, 0.14054236499068906
1091, 0.13780959031657358
1091.5, 0.13780959031657358
1092, 0.13826505276225964
1092.5, 0.13826505276225964
1093, 0.13644320297951584
1093.5, 0.13644320297951584
1094, 0.13439362197392934
1094.5, 0.13439362197392934
1095, 0.13052219118559905
1095.5, 0.13052219118559905
1096, 0.12938353507138434
1096.5, 0.12938353507138434
1097, 0.13234404096834274
1097.5, 0.13234404096834274
1098, 0.13029445996275624
1098.5, 0.13029445996275624
1099, 0.12961126629422737
1099.5, 0.12961126629422737
1100, 0.12778941651148357
1100.5, 0.12778941651148357
1101, 0.12528437306021123
1101.5, 0.12528437306021123
1102, 0.12323479205462462
1102.5, 0.12323479205462462
1103, 0.12186840471756677
1103.5, 0.12186840471756677
1104, 0.12095747982619509
1104.5, 0.12095747982619509
1104.9999999999998, 0.11890789882060848
1105.5, 0.11890789882060848
1106, 0.11890789882060848
1106.5, 0.11799697392923669
1107, 0.11799697392923669
1107.5, 0.1182247051520795
1108, 0.1182247051520795
1108.5, 0.11663058659217895
1109, 0.11663058659217895
1109.4999999999998, 0.11526419925512121
1110, 0.11526419925512121
1110.4999999999998, 0.11503646803227818
1111, 0.11503646803227818
1111.5, 0.11367008069522044
1112, 0.11367008069522044
1112.5, 0.11230369335816281
1113, 0.11230369335816281
1113.5, 0.10911545623836127
1114, 0.10911545623836127
1114.5, 0.10729360645561781
1114.9999999999998, 0.10729360645561781
1115.5, 0.10524402545003109
1116, 0.10524402545003109
1116.5, 0.10501629422718817
1117, 0.10501629422718817
1117.5, 0.10456083178150222
1118, 0.10456083178150222
1118.5, 0.10433310055865941
1119, 0.10433310055865941
1119.5, 0.1022835195530728
1120, 0.1022835195530728
1120.4999999999998, 0.09955074487895721
1121, 0.09955074487895721
1121.5, 0.10000620732464327
1122, 0.10000620732464327
1122.5, 0.09909528243327137
1123, 0.09909528243327137
1123.5, 0.09909528243327137
1124, 0.09909528243327137
1124.5, 0.0984120887647425
1124.9999999999998, 0.0984120887647425
1125.5, 0.09636250775915589
1125.9999999999998, 0.09636250775915589
1126.5, 0.0954515828677841
1127, 0.0954515828677841
1127.5, 0.09271880819366862
1128, 0.09271880819366862
1128.5, 0.09089695841092493
1129, 0.09089695841092493
1129.5, 0.09294653941651165
1130, 0.09294653941651165
1130.4999999999998, 0.09340200186219749
1131, 0.09340200186219749
1131.5, 0.09089695841092493
1132, 0.09089695841092493
1132.5, 0.09089695841092493
1133, 0.08975830229671022
1133.5, 0.08975830229671022
1134, 0.08884737740533832
1134.5, 0.08884737740533832
1135, 0.08748099006828058
1135.5, 0.08748099006828058
1135.9999999999998, 0.08770872129112361
1136.5, 0.08770872129112361
1137, 0.08770872129112361
1137.5, 0.08770872129112361
1138, 0.08634233395406599
1138.5, 0.08634233395406599
1139, 0.08520367783985106
1139.5, 0.08520367783985106
1140, 0.08588687150837993
1140.5, 0.08588687150837993
1141, 0.08383729050279332
1141.4999999999998, 0.08383729050279332
1142, 0.08247090316573569
1142.5, 0.08247090316573569
1143, 0.08133224705152098
1143.5, 0.08133224705152098
1144, 0.08383729050279332
1144.5, 0.08383729050279332
1145, 0.08247090316573569
1145.5, 0.08247090316573569
1145.9999999999998, 0.08155997827436379
1146.5, 0.08155997827436379
1147, 0.08019359093730605
1147.5, 0.08019359093730605
1148, 0.07996585971446324
1148.5, 0.07996585971446324
1149, 0.07814400993171955
1149.5, 0.07814400993171955
1150, 0.07996585971446324
1150.5, 0.07996585971446324
1151, 0.07837174115456247
1151.4999999999998, 0.07837174115456247
1152, 0.07723308504034765
1152.5, 0.07723308504034765
1153, 0.07746081626319068
1153.5, 0.07746081626319068
1154, 0.07746081626319068
1154.5, 0.07746081626319068
1155, 0.07859947237740539
1155.5, 0.07859947237740539
1156, 0.07768854748603371
1156.5, 0.07768854748603371
1156.9999999999998, 0.07677762259466181
1157.5, 0.07677762259466181
1158, 0.07609442892613294
1158.5, 0.07609442892613294
1159, 0.07609442892613294
1159.5, 0.07677762259466181
1160, 0.07677762259466181
1160.5, 0.07632216014897597
1161, 0.07632216014897597
1161.4999999999998, 0.07450031036623228
1162, 0.07450031036623228
1162.5, 0.07450031036623228
1163, 0.07450031036623228
1163.5, 0.07541123525760407
1164, 0.07541123525760407
1164.5, 0.07518350403476104
1165, 0.07518350403476104
1165.5, 0.07518350403476104
1166, 0.07518350403476104
1166.5, 0.0726784605834887
1166.9999999999998, 0.0726784605834887
1167.5, 0.07313392302917465
1168, 0.07313392302917465
1168.5, 0.07404484792054622
1169, 0.07404484792054622
1169.5, 0.07358938547486049
1170, 0.07358938547486049
1170.5, 0.07336165425201757
1171, 0.07336165425201757
1171.5, 0.07427257914338936
1172, 0.07427257914338936
1172.4999999999998, 0.07313392302917465
1173, 0.07313392302917465
1173.5, 0.0726784605834887
1174, 0.0726784605834887
1174.5, 0.07176753569211669
1175, 0.07176753569211669
1175.5, 0.07153980446927388
1176, 0.07153980446927388
1176.5, 0.07290619180633162
1176.9999999999998, 0.07290619180633162
1177.5, 0.07153980446927388
1178, 0.07153980446927388
1178.5, 0.07222299813780275
1179, 0.07222299813780275
1179.5, 0.0726784605834887
1180, 0.0726784605834887
1180.5, 0.0726784605834887
1181, 0.0726784605834887
1181.5, 0.07176753569211669
1182, 0.07176753569211669
1182.4999999999998, 0.07153980446927388
1183, 0.07153980446927388
1183.5, 0.07131207324643096
1184, 0.07131207324643096
1184.5, 0.07245072936064556
1185, 0.07245072936064556
1185.5, 0.07199526691495983
1186, 0.07199526691495983
1186.5, 0.07199526691495983
1187, 0.07222299813780275
1187.5, 0.07222299813780275
1187.9999999999998, 0.07381711669770341
1188.5, 0.07381711669770341
1189, 0.07131207324643096
1189.5, 0.07131207324643096
1190, 0.07199526691495983
1190.5, 0.07199526691495983
1191, 0.07176753569211669
1191.5, 0.07176753569211669
1192, 0.07131207324643096
1192.4999999999998, 0.07131207324643096
1193, 0.07017341713221614
1193.5, 0.07017341713221614
1194, 0.07222299813780275
1194.5, 0.07222299813780275
1195, 0.07222299813780275
1195.5, 0.07222299813780275
1196, 0.07085661080074501
1196.5, 0.07085661080074501
1197, 0.07336165425201757
1197.5, 0.07336165425201757
1197.9999999999998, 0.07245072936064556
1198.5, 0.07245072936064556
1199, 0.07153980446927388
1199.5, 0.07153980446927388
1200, 0.07199526691495983
1200.5, 0.07199526691495983
1201, 0.0726784605834887
1201.5, 0.0726784605834887
1202, 0.07176753569211669
1202.5, 0.07176753569211669
1203, 0.07131207324643096
1203.4999999999998, 0.07131207324643096
1204, 0.07085661080074501
1204.5, 0.07085661080074501
1205, 0.07108434202358782
1205.5, 0.07108434202358782
1206, 0.07062887957790209
1206.5, 0.07062887957790209
1207, 0.07085661080074501
1207.5, 0.07085661080074501
1207.9999999999998, 0.07085661080074501
1208.5, 0.07085661080074501
1208.9999999999998, 0.07222299813780275
1209.5, 0.07222299813780275
1210, 0.07176753569211669
1210.5, 0.07176753569211669
1211, 0.07062887957790209
1211.5, 0.07062887957790209
1212, 0.07062887957790209
1212.5, 0.07062887957790209
1213, 0.07062887957790209
1213.4999999999998, 0.07017341713221614
1214, 0.07017341713221614
1214.5, 0.07040114835505895
1215, 0.07040114835505895
1215.5, 0.06971795468653008
1216, 0.06971795468653008
1216.5, 0.06971795468653008
1217, 0.06971795468653008
1217.5, 0.07131207324643096
1218, 0.07131207324643096
1218.5, 0.07245072936064556
1218.9999999999998, 0.07245072936064556
1219.5, 0.07108434202358782
1220, 0.07108434202358782
1220.5, 0.07153980446927388
1221, 0.07153980446927388
1221.5, 0.07153980446927388
1222, 0.07153980446927388
1222.5, 0.07085661080074501
1223, 0.07085661080074501
1223.4999999999998, 0.07040114835505895
1224, 0.07040114835505895
1224.4999999999998, 0.07108434202358782
1225, 0.07108434202358782
1225.5, 0.07040114835505895
1226, 0.07040114835505895
1226.5, 0.07108434202358782
1227, 0.07108434202358782
1227.5, 0.06971795468653008
1228, 0.06971795468653008
1228.5, 0.07062887957790209
1228.9999999999998, 0.07062887957790209
1229.5, 0.07085661080074501
1230, 0.07085661080074501
1230.5, 0.07313392302917465
1231, 0.07313392302917465
1231.5, 0.06994568590937322
1232, 0.06994568590937322
1232.5, 0.07040114835505895
1233, 0.07040114835505895
1233.5, 0.07153980446927388
1234, 0.07153980446927388
1234.4999999999998, 0.07199526691495983
1235, 0.07199526691495983
1235.5, 0.07131207324643096
1236, 0.07131207324643096
1236.5, 0.07131207324643096
1237, 0.07131207324643096
1237.5, 0.07290619180633162
1238, 0.07290619180633162
1238.5, 0.07062887957790209
1238.9999999999998, 0.07062887957790209
1239.5, 0.07062887957790209
1239.9999999999998, 0.07062887957790209
1240.5, 0.07062887957790209
1241, 0.07062887957790209
1241.5, 0.07062887957790209
1242, 0.07199526691495983
1242.5, 0.07199526691495983
1243, 0.07131207324643096
1243.5, 0.07131207324643096
1244, 0.07108434202358782
1244.4999999999998, 0.07108434202358782
1245, 0.07062887957790209
1245.5, 0.07062887957790209
1246, 0.07017341713221614
1246.5, 0.07017341713221614
1247, 0.07017341713221614
1247.5, 0.07017341713221614
1248, 0.07085661080074501
1248.5, 0.07085661080074501
1249, 0.06949022346368727
1249.5, 0.06949022346368727
1249.9999999999998, 0.06971795468653008
1250.5, 0.06971795468653008
1251, 0.0726784605834887
1251.5, 0.0726784605834887
1252, 0.07062887957790209
1252.5, 0.07062887957790209
1253, 0.07040114835505895
1253.5, 0.07040114835505895
1254, 0.07245072936064556
1254.4999999999998, 0.07245072936064556
1255, 0.07040114835505895
1255.4999999999998, 0.07040114835505895
1256, 0.07040114835505895
1256.5, 0.07040114835505895
1257, 0.07176753569211669
1257.5, 0.07176753569211669
1258, 0.07062887957790209
1258.5, 0.07062887957790209
1259, 0.07040114835505895
1259.5, 0.07040114835505895
1259.9999999999998, 0.07040114835505895
1260.5, 0.07040114835505895
1261, 0.07199526691495983
1261.5, 0.07199526691495983
1262, 0.07153980446927388
1262.5, 0.07153980446927388
1263, 0.07017341713221614
1263.5, 0.07017341713221614
1264, 0.07131207324643096
1264.5, 0.07131207324643096
1265, 0.07245072936064556
1265.4999999999998, 0.07245072936064556
1266, 0.07245072936064556
1266.5, 0.07176753569211669
1267, 0.07176753569211669
1267.5, 0.07131207324643096
1268, 0.07131207324643096
1268.5, 0.07040114835505895
1269, 0.07040114835505895
1269.5, 0.07017341713221614
1269.9999999999998, 0.07017341713221614
1270.5, 0.06949022346368727
1270.9999999999998, 0.06949022346368727
1271.5, 0.06994568590937322
1272, 0.06994568590937322
1272.5, 0.06926249224084435
1273, 0.06926249224084435
1273.5, 0.07085661080074501
1274, 0.07085661080074501
1274.5, 0.07245072936064556
1275, 0.07245072936064556
1275.4999999999998, 0.07062887957790209
1276, 0.07062887957790209
1276.5, 0.07062887957790209
1277, 0.07062887957790209
1277.5, 0.07245072936064556
1278, 0.07245072936064556
1278.5, 0.07108434202358782
1279, 0.07108434202358782
1279.5, 0.07017341713221614
1280, 0.07017341713221614
1280.5, 0.07222299813780275
1280.9999999999998, 0.07222299813780275
1281.5, 0.07313392302917465
1282, 0.07313392302917465
1282.5, 0.06971795468653008
1283, 0.06971795468653008
1283.5, 0.07017341713221614
1284, 0.07017341713221614
1284.5, 0.07199526691495983
1285, 0.07199526691495983
1285.4999999999998, 0.07245072936064556
1286, 0.07245072936064556
1286.4999999999998, 0.07108434202358782
1287, 0.07108434202358782
1287.5, 0.06971795468653008
1288, 0.06971795468653008
1288.5, 0.07085661080074501
1289, 0.07085661080074501
1289.5, 0.0726784605834887
1290, 0.0726784605834887
1290.5, 0.07222299813780275
1290.9999999999998, 0.07222299813780275
1291.5, 0.07040114835505895
1292, 0.07040114835505895
1292.5, 0.07040114835505895
1293, 0.07131207324643096
1293.5, 0.07131207324643096
1294, 0.0726784605834887
1294.5, 0.0726784605834887
1295, 0.07153980446927388
1295.5, 0.07153980446927388
1296, 0.06926249224084435
1296.4999999999998, 0.06926249224084435
1297, 0.06903476101800143
1297.5, 0.06903476101800143
1298, 0.06903476101800143
1298.5, 0.06903476101800143
1299, 0.06903476101800143
1299.5, 0.06903476101800143
1300, 0.06903476101800143
