199.99999999999997, 0.4857828988206083
200.5, 0.4857828988206083
201, 0.4857828988206083
201.5, 0.4841887802607078
202, 0.4841887802607078
202.49999999999997, 0.4835055865921789
203, 0.4835055865921789
203.5, 0.4837333178150217
204, 0.4837333178150217
204.5, 0.48487197392923664
205, 0.48487197392923664
205.5, 0.48396104903786474
206, 0.48396104903786474
206.49999999999997, 0.4825946617008071
207, 0.4825946617008071
207.5, 0.4835055865921789
208, 0.4835055865921789
208.5, 0.4837333178150217
208.99999999999997, 0.4837333178150217
209.5, 0.4825946617008071
210, 0.4825946617008071
210.5, 0.4816837368094351
211, 0.4816837368094351
211.49999999999997, 0.4814560055865922
212, 0.4814560055865922
212.5, 0.4825946617008071
213, 0.4825946617008071
213.5, 0.4835055865921789
214, 0.4835055865921789
214.5, 0.48213919925512105
215, 0.48213919925512105
219.5, 0.4807728119180633
220, 0.4807728119180633
220.5, 0.48008961824953444
221, 0.48008961824953444
226, 0.4807728119180633
226.5, 0.4807728119180633
227.5, 0.48191146803227825
228, 0.48100054314090623
228.49999999999997, 0.48100054314090623
229, 0.4803173494723775
229.5, 0.4803173494723775
230, 0.48008961824953444
230.5, 0.48008961824953444
230.99999999999997, 0.48008961824953444
231.5, 0.48008961824953444
232, 0.4814560055865922
232.5, 0.4814560055865922
233, 0.4803173494723775
233.49999999999997, 0.4803173494723775
234, 0.4794064245810056
234.5, 0.4794064245810056
235, 0.47986188702669164
235.5, 0.47986188702669164
236, 0.4805450806952205
236.5, 0.4805450806952205
237, 0.48100054314090623
237.49999999999997, 0.48100054314090623
238, 0.4794064245810056
238.5, 0.4794064245810056
239, 0.47895096213531974
239.5, 0.47895096213531974
239.99999999999997, 0.47917869335816277
240.5, 0.47917869335816277
241, 0.4794064245810056
241.5, 0.4794064245810056
242, 0.4803173494723775
242.5, 0.4803173494723775
243, 0.47895096213531974
243.5, 0.47895096213531974
243.99999999999997, 0.4784954996896338
244.5, 0.4784954996896338
245, 0.4794064245810056
245.5, 0.4794064245810056
246, 0.4803173494723775
246.49999999999997, 0.4803173494723775
247, 0.47895096213531974
247.5, 0.47895096213531974
248, 0.47712911235257605
248.5, 0.47712911235257605
248.99999999999997, 0.47895096213531974
249.5, 0.47895096213531974
250, 0.4803173494723775
250.49999999999997, 0.4803173494723775
251, 0.47986188702669164
251.5, 0.47986188702669164
252, 0.47986188702669164
252.5, 0.47895096213531974
252.99999999999997, 0.47895096213531974
253.5, 0.4784954996896338
254, 0.4784954996896338
254.5, 0.4796341558038486
255, 0.4796341558038486
255.49999999999997, 0.4796341558038486
256, 0.4796341558038486
256.5, 0.4796341558038486
257, 0.4796341558038486
257.5, 0.4787232309124767
258, 0.4787232309124767
258.5, 0.4794064245810056
259, 0.4794064245810056
259.5, 0.4796341558038486
260, 0.4796341558038486
260.5, 0.47986188702669164
261, 0.47986188702669164
261.5, 0.47895096213531974
262, 0.47895096213531974
262.5, 0.47804003724394784
263, 0.47804003724394784
263.5, 0.4784954996896338
264, 0.4784954996896338
264.5, 0.47804003724394784
265, 0.47804003724394784
265.5, 0.478267768466791
266, 0.478267768466791
266.5, 0.47690138112973324
267, 0.47690138112973324
267.5, 0.4778123060211049
268, 0.4778123060211049
268.5, 0.47895096213531974
269, 0.47895096213531974
269.5, 0.478267768466791
270, 0.478267768466791
270.5, 0.47735684357541897
271, 0.47735684357541897
271.5, 0.47735684357541897
272, 0.47735684357541897
272.5, 0.4784954996896338
273, 0.4784954996896338
273.5, 0.47917869335816277
274, 0.47917869335816277
274.5, 0.4784954996896338
275, 0.4784954996896338
275.5, 0.47735684357541897
276, 0.47735684357541897
276.5, 0.47735684357541897
277, 0.47735684357541897
277.5, 0.4775845747982621
278, 0.4775845747982621
278.5, 0.4775845747982621
279, 0.4787232309124767
279.5, 0.4787232309124767
280, 0.4784954996896338
280.5, 0.4784954996896338
281, 0.4775845747982621
281.5, 0.4775845747982621
282, 0.4787232309124767
282.5, 0.4787232309124767
283, 0.4794064245810056
283.5, 0.4794064245810056
284, 0.4784954996896338
284.5, 0.4784954996896338
285, 0.47735684357541897
285.5, 0.47735684357541897
286, 0.47690138112973324
286.5, 0.47690138112973324
287, 0.4784954996896338
287.5, 0.4784954996896338
288, 0.478267768466791
288.5, 0.478267768466791
289, 0.4778123060211049
289.5, 0.4778123060211049
290, 0.4775845747982621
290.5, 0.4775845747982621
291, 0.47690138112973324
291.5, 0.47690138112973324
292, 0.47895096213531974
292.5, 0.47895096213531974
293, 0.4778123060211049
293.5, 0.4778123060211049
294, 0.4766736499068901
294.5, 0.4766736499068901
295, 0.4778123060211049
295.5, 0.4778123060211049
296, 0.4784954996896338
296.5, 0.4784954996896338
297, 0.47917869335816277
297.5, 0.47917869335816277
298, 0.4784954996896338
298.5, 0.4784954996896338
299, 0.4766736499068901
299.5, 0.4766736499068901
300, 0.478267768466791
300.5, 0.478267768466791
301, 0.4794064245810056
301.5, 0.4794064245810056
302, 0.4787232309124767
302.5, 0.4787232309124767
303, 0.47712911235257605
303.5, 0.47712911235257605
304, 0.47735684357541897
304.5, 0.47735684357541897
305, 0.47735684357541897
305.5, 0.4778123060211049
306, 0.4778123060211049
306.5, 0.47804003724394784
307, 0.47804003724394784
307.5, 0.47712911235257605
308, 0.47712911235257605
308.5, 0.4764459186840472
309, 0.4764459186840472
309.5, 0.4775845747982621
310, 0.4775845747982621
310.5, 0.47804003724394784
311, 0.47804003724394784
311.5, 0.4775845747982621
312, 0.4775845747982621
312.5, 0.4764459186840472
313, 0.4764459186840472
313.5, 0.47621818746120437
314, 0.47621818746120437
314.5, 0.47735684357541897
315, 0.47735684357541897
315.5, 0.478267768466791
316, 0.478267768466791
316.49999999999994, 0.47735684357541897
316.99999999999994, 0.47735684357541897
317.5, 0.47621818746120437
317.99999999999994, 0.47621818746120437
318.5, 0.47690138112973324
318.99999999999994, 0.47690138112973324
319.49999999999994, 0.478267768466791
320, 0.478267768466791
320.49999999999994, 0.4784954996896338
320.99999999999994, 0.4784954996896338
321.5, 0.4775845747982621
322, 0.4775845747982621
322.5, 0.47712911235257605
323, 0.47712911235257605
323.5, 0.47690138112973324
324, 0.47690138112973324
324.5, 0.47804003724394784
325, 0.47804003724394784
325.5, 0.478267768466791
326, 0.478267768466791
326.5, 0.47712911235257605
327, 0.47712911235257605
327.49999999999994, 0.4766736499068901
328, 0.4766736499068901
328.5, 0.478267768466791
329, 0.478267768466791
329.5, 0.4794064245810056
329.99999999999994, 0.4794064245810056
330.5, 0.478267768466791
331, 0.478267768466791
331.5, 0.47690138112973324
332, 0.47690138112973324
332.49999999999994, 0.47690138112973324
333, 0.47690138112973324
333.5, 0.47690138112973324
334, 0.4787232309124767
334.5, 0.4787232309124767
334.99999999999994, 0.478267768466791
335.5, 0.478267768466791
336, 0.4778123060211049
336.5, 0.4778123060211049
337, 0.47712911235257605
337.5, 0.47712911235257605
338, 0.4787232309124767
338.5, 0.4787232309124767
339, 0.47895096213531974
339.5, 0.47895096213531974
340, 0.47804003724394784
340.5, 0.47804003724394784
341, 0.4764459186840472
341.5, 0.4764459186840472
342, 0.4755349937926755
342.5, 0.4755349937926755
342.99999999999994, 0.4778123060211049
343.5, 0.4778123060211049
344, 0.47917869335816277
344.5, 0.47917869335816277
345, 0.47735684357541897
345.49999999999994, 0.47735684357541897
346, 0.47690138112973324
346.5, 0.47690138112973324
347, 0.47735684357541897
347.5, 0.47735684357541897
347.99999999999994, 0.4787232309124767
348.5, 0.4787232309124767
349, 0.4787232309124767
349.5, 0.4787232309124767
350, 0.47735684357541897
350.49999999999994, 0.47735684357541897
351, 0.4775845747982621
351.5, 0.4775845747982621
352, 0.47895096213531974
352.5, 0.47895096213531974
353, 0.4796341558038486
353.5, 0.4796341558038486
354, 0.478267768466791
354.5, 0.478267768466791
355, 0.47735684357541897
355.5, 0.47735684357541897
356, 0.478267768466791
356.5, 0.478267768466791
357, 0.47895096213531974
357.5, 0.47895096213531974
358, 0.478267768466791
358.49999999999994, 0.478267768466791
359, 0.478267768466791
359.5, 0.47735684357541897
360, 0.47735684357541897
360.5, 0.47690138112973324
360.99999999999994, 0.47690138112973324
361.5, 0.47895096213531974
362, 0.47895096213531974
362.5, 0.47917869335816277
363, 0.47917869335816277
363.49999999999994, 0.478267768466791
364, 0.478267768466791
364.5, 0.4775845747982621
365, 0.4775845747982621
365.5, 0.478267768466791
365.99999999999994, 0.478267768466791
366.5, 0.4796341558038486
367, 0.4796341558038486
367.5, 0.47917869335816277
368, 0.47917869335816277
368.5, 0.4775845747982621
369, 0.4775845747982621
369.5, 0.4778123060211049
370, 0.4778123060211049
370.5, 0.4784954996896338
371, 0.4784954996896338
371.49999999999994, 0.47917869335816277
372, 0.47917869335816277
372.5, 0.478267768466791
373, 0.478267768466791
373.5, 0.47712911235257605
373.99999999999994, 0.47712911235257605
374.5, 0.4778123060211049
375, 0.4778123060211049
375.5, 0.478267768466791
376, 0.478267768466791
376.49999999999994, 0.47895096213531974
377, 0.47895096213531974
377.5, 0.4778123060211049
378, 0.4778123060211049
378.5, 0.4775845747982621
378.99999999999994, 0.4775845747982621
379.5, 0.4778123060211049
380, 0.4778123060211049
380.5, 0.4796341558038486
381, 0.4796341558038486
381.5, 0.47895096213531974
382, 0.47895096213531974
382.5, 0.4775845747982621
383, 0.4775845747982621
383.5, 0.478267768466791
384, 0.478267768466791
384.5, 0.47895096213531974
385, 0.47895096213531974
385.5, 0.47895096213531974
386, 0.4803173494723775
386.5, 0.4803173494723775
386.99999999999994, 0.47895096213531974
387.5, 0.47895096213531974
388, 0.4775845747982621
388.5, 0.4775845747982621
389, 0.4778123060211049
389.49999999999994, 0.4778123060211049
390, 0.47917869335816277
390.5, 0.47917869335816277
391, 0.4784954996896338
391.5, 0.4784954996896338
391.99999999999994, 0.4775845747982621
392.5, 0.4775845747982621
393, 0.47712911235257605
393.5, 0.47712911235257605
394, 0.4784954996896338
394.49999999999994, 0.4784954996896338
395, 0.478267768466791
395.5, 0.478267768466791
396, 0.47804003724394784
396.5, 0.47804003724394784
397, 0.4778123060211049
397.5, 0.4778123060211049
398, 0.47804003724394784
398.5, 0.47804003724394784
399, 0.4794064245810056
399.5, 0.4794064245810056
400, 0.47895096213531974
400.5, 0.47895096213531974
401, 0.4775845747982621
401.5, 0.4775845747982621
402, 0.47735684357541897
402.49999999999994, 0.47735684357541897
403, 0.47895096213531974
403.5, 0.47895096213531974
404, 0.4796341558038486
404.5, 0.4796341558038486
404.99999999999994, 0.4794064245810056
405.5, 0.4794064245810056
406, 0.47804003724394784
406.5, 0.47804003724394784
407, 0.47804003724394784
407.49999999999994, 0.47804003724394784
408, 0.4787232309124767
408.5, 0.4787232309124767
409, 0.4775845747982621
409.5, 0.4775845747982621
409.99999999999994, 0.4775845747982621
410.5, 0.4775845747982621
411, 0.4766736499068901
411.5, 0.4766736499068901
412, 0.4766736499068901
412.5, 0.47735684357541897
413, 0.47735684357541897
413.5, 0.478267768466791
414, 0.478267768466791
414.5, 0.4784954996896338
415, 0.4784954996896338
415.49999999999994, 0.47690138112973324
416, 0.47690138112973324
416.5, 0.4775845747982621
417, 0.4775845747982621
417.5, 0.478267768466791
417.99999999999994, 0.478267768466791
418.5, 0.47895096213531974
419, 0.47895096213531974
419.5, 0.4778123060211049
420, 0.4778123060211049
420.49999999999994, 0.47712911235257605
421, 0.47712911235257605
421.5, 0.4784954996896338
422, 0.4784954996896338
422.5, 0.4794064245810056
422.99999999999994, 0.4794064245810056
423.5, 0.47917869335816277
424, 0.47917869335816277
424.5, 0.4778123060211049
425, 0.4778123060211049
425.49999999999994, 0.47712911235257605
426, 0.47712911235257605
426.5, 0.4787232309124767
427, 0.4787232309124767
427.5, 0.47986188702669164
428, 0.47986188702669164
428.5, 0.4784954996896338
429, 0.4784954996896338
429.5, 0.47712911235257605
430, 0.47712911235257605
430.5, 0.4775845747982621
430.99999999999994, 0.4775845747982621
431.5, 0.47917869335816277
432, 0.47917869335816277
432.5, 0.47895096213531974
433, 0.47895096213531974
433.49999999999994, 0.47712911235257605
434, 0.47712911235257605
434.5, 0.4766736499068901
435, 0.4766736499068901
435.5, 0.4775845747982621
435.99999999999994, 0.4775845747982621
436.5, 0.478267768466791
437, 0.478267768466791
437.5, 0.47804003724394784
438, 0.47804003724394784
438.49999999999994, 0.47804003724394784
439, 0.47735684357541897
439.5, 0.47735684357541897
440, 0.47735684357541897
440.5, 0.47735684357541897
440.99999999999994, 0.4784954996896338
441.5, 0.4784954996896338
442, 0.4787232309124767
442.5, 0.4787232309124767
443, 0.47712911235257605
443.5, 0.47712911235257605
444, 0.47735684357541897
444.5, 0.47735684357541897
445, 0.4775845747982621
445.5, 0.4775845747982621
446, 0.47917869335816277
446.49999999999994, 0.47917869335816277
447, 0.4787232309124767
447.5, 0.4787232309124767
448, 0.47735684357541897
448.5, 0.47735684357541897
448.99999999999994, 0.47712911235257605
449.5, 0.47712911235257605
450, 0.4784954996896338
450.5, 0.4784954996896338
451, 0.4796341558038486
451.49999999999994, 0.4796341558038486
452, 0.4787232309124767
452.5, 0.4787232309124767
453, 0.47735684357541897
453.5, 0.47735684357541897
453.99999999999994, 0.478267768466791
454.5, 0.478267768466791
455, 0.47917869335816277
455.5, 0.47917869335816277
456, 0.4787232309124767
456.5, 0.4787232309124767
457, 0.4778123060211049
457.5, 0.4778123060211049
458, 0.47712911235257605
458.5, 0.47712911235257605
459, 0.4787232309124767
459.49999999999994, 0.4787232309124767
460, 0.4796341558038486
460.5, 0.4796341558038486
461, 0.478267768466791
461.5, 0.478267768466791
461.99999999999994, 0.47690138112973324
462.5, 0.47690138112973324
463, 0.4784954996896338
463.5, 0.4784954996896338
464, 0.47986188702669164
464.49999999999994, 0.47986188702669164
465, 0.47895096213531974
465.5, 0.47895096213531974
466, 0.47895096213531974
466.5, 0.47804003724394784
466.99999999999994, 0.47804003724394784
467.5, 0.47712911235257605
468, 0.47712911235257605
468.5, 0.47804003724394784
469, 0.47804003724394784
469.49999999999994, 0.47895096213531974
470, 0.47895096213531974
470.5, 0.47804003724394784
471, 0.47804003724394784
471.5, 0.47690138112973324
472, 0.47690138112973324
472.5, 0.47804003724394784
473, 0.47804003724394784
473.5, 0.4787232309124767
474, 0.4787232309124767
474.5, 0.4787232309124767
474.99999999999994, 0.4787232309124767
475.5, 0.47735684357541897
476, 0.47735684357541897
476.5, 0.4766736499068901
477, 0.4766736499068901
477.49999999999994, 0.47735684357541897
478, 0.47735684357541897
478.5, 0.4784954996896338
479, 0.4784954996896338
479.5, 0.4775845747982621
479.99999999999994, 0.4775845747982621
480.5, 0.4766736499068901
481, 0.4766736499068901
481.5, 0.4766736499068901
482, 0.4766736499068901
482.49999999999994, 0.47712911235257605
483, 0.47712911235257605
483.5, 0.47804003724394784
484, 0.47804003724394784
484.5, 0.47690138112973324
484.99999999999994, 0.47690138112973324
485.5, 0.4757627250155183
486, 0.4757627250155183
486.5, 0.4766736499068901
487, 0.4766736499068901
487.5, 0.47735684357541897
488, 0.47735684357541897
488.5, 0.47621818746120437
489, 0.47621818746120437
489.5, 0.47599045623836134
490, 0.47599045623836134
490.49999999999994, 0.4764459186840472
491, 0.4764459186840472
491.5, 0.47690138112973324
492, 0.47690138112973324
492.5, 0.47690138112973324
492.99999999999994, 0.4764459186840472
493.5, 0.4764459186840472
494, 0.4755349937926755
494.5, 0.4755349937926755
495, 0.4746240689013036
495.49999999999994, 0.4746240689013036
496, 0.47599045623836134
496.5, 0.47599045623836134
497, 0.47690138112973324
497.5, 0.47690138112973324
497.99999999999994, 0.47621818746120437
498.5, 0.47621818746120437
499, 0.47530726256983247
499.5, 0.47530726256983247
500, 0.47439633767846057
500.49999999999994, 0.47439633767846057
501, 0.4755349937926755
501.5, 0.4755349937926755
502, 0.4764459186840472
502.5, 0.4764459186840472
503, 0.47507953134698944
503.49999999999994, 0.47507953134698944
504, 0.47416860645561765
504.5, 0.47416860645561765
505, 0.4737131440099317
505.5, 0.4737131440099317
505.99999999999994, 0.4746240689013036
506.5, 0.4746240689013036
507, 0.47485180012414663
507.5, 0.47485180012414663
508, 0.4737131440099317
508.49999999999994, 0.4737131440099317
509, 0.47439633767846057
509.5, 0.47439633767846057
510, 0.47439633767846057
510.5, 0.47439633767846057
510.99999999999994, 0.47507953134698944
511.5, 0.47507953134698944
512, 0.47439633767846057
512.5, 0.47439633767846057
513, 0.47416860645561765
513.5, 0.47416860645561765
514, 0.4737131440099317
514.5, 0.4737131440099317
515, 0.47416860645561765
515.5, 0.47416860645561765
516, 0.47439633767846057
516.5, 0.47439633767846057
517, 0.47416860645561765
517.5, 0.47416860645561765
518, 0.4746240689013036
518.5, 0.4746240689013036
519, 0.4746240689013036
519.5, 0.47394087523277484
520, 0.47394087523277484
520.5, 0.47485180012414663
521, 0.47485180012414663
521.5, 0.47485180012414663
522, 0.47485180012414663
522.5, 0.47416860645561765
523, 0.47416860645561765
523.5, 0.47439633767846057
524, 0.47439633767846057
524.5, 0.47530726256983247
525, 0.47530726256983247
525.5, 0.4746240689013036
526, 0.4746240689013036
526.5, 0.4746240689013036
527, 0.4746240689013036
527.5, 0.4746240689013036
528, 0.4746240689013036
528.5, 0.47416860645561765
529, 0.47416860645561765
529.5, 0.47530726256983247
530, 0.47530726256983247
530.5, 0.47530726256983247
531, 0.47530726256983247
531.5, 0.47485180012414663
532, 0.47485180012414663
532.5, 0.4757627250155183
533, 0.4757627250155183
533.5, 0.4764459186840472
534, 0.4764459186840472
534.5, 0.4766736499068901
535, 0.4766736499068901
535.5, 0.47599045623836134
536, 0.47599045623836134
536.5, 0.47621818746120437
537, 0.47621818746120437
537.5, 0.4764459186840472
538, 0.4764459186840472
538.5, 0.47690138112973324
539, 0.47690138112973324
539.5, 0.47712911235257605
540, 0.47712911235257605
540.5, 0.4775845747982621
541, 0.4775845747982621
541.5, 0.4778123060211049
542, 0.4778123060211049
542.5, 0.47895096213531974
543, 0.47895096213531974
543.5, 0.4787232309124767
544, 0.4787232309124767
544.5, 0.4784954996896338
545, 0.4784954996896338
545.5, 0.4784954996896338
546, 0.47917869335816277
546.5, 0.47917869335816277
547, 0.4794064245810056
547.5, 0.4794064245810056
548, 0.4805450806952205
548.5, 0.4805450806952205
549, 0.4812282743637494
549.5, 0.4812282743637494
550, 0.48191146803227825
550.5, 0.48191146803227825
551, 0.4825946617008071
551.5, 0.4825946617008071
552, 0.4837333178150217
552.5, 0.4837333178150217
553, 0.48396104903786474
553.5, 0.48396104903786474
554, 0.48487197392923664
554.5, 0.48487197392923664
555, 0.48532743637492237
555.5, 0.48532743637492237
556, 0.4862383612662944
556.5, 0.4862383612662944
557, 0.48783247982619504
557.5, 0.48783247982619504
558, 0.4887434047175667
558.5, 0.4887434047175667
559, 0.48897113594040975
559.5, 0.48897113594040975
560, 0.49102071694599625
560.5, 0.49102071694599625
561, 0.492387104283054
561.5, 0.492387104283054
562, 0.4932980291744259
562.5, 0.4932980291744259
563, 0.4944366852886406
563.5, 0.4944366852886406
564, 0.49603080384854126
564.5, 0.49603080384854126
565, 0.497397191185599
565.5, 0.497397191185599
566, 0.49876357852265674
566.5, 0.49876357852265674
567, 0.5003576970825574
567.5, 0.5003576970825574
568, 0.502407278088144
568.5, 0.502407278088144
569, 0.5044568590937306
569.5, 0.5044568590937306
570, 0.5058232464307885
570.5, 0.5058232464307885
571, 0.5069619025450032
571.5, 0.5069619025450032
572, 0.5069619025450032
572.5, 0.5090114835505897
573, 0.5090114835505897
573.5, 0.5115165270018622
574, 0.5115165270018622
574.5, 0.512655183116077
575, 0.512655183116077
575.5, 0.5142493016759777
576, 0.5142493016759777
576.5, 0.5169820763500932
577, 0.5169820763500932
577.5, 0.5197148510242086
578, 0.5197148510242086
578.5, 0.5213089695841093
579, 0.5213089695841093
579.5, 0.522447625698324
580, 0.522447625698324
580.5, 0.5244972067039106
581, 0.5244972067039106
581.5, 0.5256358628181255
582, 0.5256358628181255
582.5, 0.527685443823712
583, 0.527685443823712
583.5, 0.5299627560521416
584, 0.5299627560521416
584.5, 0.5306459497206704
584.9999999999998, 0.5306459497206704
585.5, 0.5320123370577281
586, 0.5320123370577281
586.5, 0.5331509931719429
587, 0.5331509931719429
587.5, 0.5354283054003725
588, 0.5354283054003725
588.5, 0.538161080074488
589, 0.538161080074488
589.5, 0.5392997361887026
589.9999999999998, 0.5392997361887026
590.5, 0.5392997361887026
591, 0.5392997361887026
591.5, 0.5404383923029175
592, 0.5404383923029175
592.5, 0.54294343575419
593, 0.54294343575419
593.5, 0.5443098230912478
594, 0.5443098230912478
594.5, 0.5436266294227188
594.9999999999998, 0.5436266294227188
595.5, 0.5447652855369336
596, 0.5447652855369336
596.5, 0.5459039416511484
597, 0.5459039416511484
597.5, 0.5461316728739913
598, 0.5461316728739913
598.5, 0.5465871353196772
599, 0.5465871353196772
599.5, 0.5465871353196772
600, 0.5452207479826194
600.4999999999998, 0.5452207479826194
601, 0.5461316728739913
601.5, 0.5461316728739913
602, 0.5481812538795778
602.5, 0.5481812538795778
603, 0.5472703289882062
603.5, 0.5472703289882062
604, 0.5461316728739913
604.5, 0.5461316728739913
605, 0.5452207479826194
605.4999999999998, 0.5452207479826194
606, 0.5463594040968343
606.5, 0.5463594040968343
607, 0.5463594040968343
607.5, 0.5463594040968343
608, 0.5447652855369336
608.5, 0.5447652855369336
609, 0.54294343575419
609.5, 0.54294343575419
610, 0.5436266294227188
610.4999999999998, 0.5436266294227188
610.9999999999998, 0.5447652855369336
611.5, 0.5447652855369336
612, 0.5436266294227188
612.5, 0.5436266294227188
613, 0.5406661235257604
613.5, 0.5406661235257604
614, 0.5390720049658597
614.5, 0.5390720049658597
615, 0.5392997361887026
615.5, 0.5392997361887026
615.9999999999998, 0.5386165425201739
616.5, 0.5386165425201739
617, 0.5367946927374303
617.5, 0.5367946927374303
618, 0.5338341868404719
618.5, 0.5338341868404719
619, 0.5340619180633147
619.5, 0.5340619180633147
620, 0.5349728429546865
620.5, 0.5349728429546865
620.9999999999998, 0.5340619180633147
621.5, 0.5340619180633147
622, 0.5301904872749845
622.5, 0.5301904872749845
623, 0.5283686374922408
623.5, 0.5283686374922408
624, 0.5288240999379268
624.5, 0.5288240999379268
625, 0.5274577126008692
625.5, 0.5274577126008692
625.9999999999998, 0.5274577126008692
626.4999999999998, 0.5247249379267536
627, 0.5247249379267536
627.5, 0.5235862818125387
628, 0.5235862818125387
628.5, 0.5240417442582247
629, 0.5240417442582247
629.5, 0.5244972067039106
630, 0.5244972067039106
630.5, 0.523130819366853
631, 0.523130819366853
631.4999999999998, 0.5208535071384235
632, 0.5208535071384235
632.5, 0.5183484636871509
633, 0.5183484636871509
633.5, 0.517665270018622
634, 0.517665270018622
634.5, 0.517665270018622
635, 0.517665270018622
635.5, 0.5181207324643079
636, 0.5181207324643079
636.4999999999998, 0.5151602265673496
637, 0.5151602265673496
637.5, 0.512427451893234
638, 0.512427451893234
638.5, 0.51288291433892
639, 0.51288291433892
639.5, 0.5121997206703912
640, 0.5121997206703912
640.5, 0.5121997206703912
641, 0.5121997206703912
641.4999999999998, 0.5094669459962756
641.9999999999998, 0.5094669459962756
642.5, 0.5071896337678462
643, 0.5071896337678462
643.5, 0.5081005586592179
644, 0.5081005586592179
644.5, 0.5081005586592179
645, 0.5081005586592179
645.5, 0.5051400527622595
646, 0.5051400527622595
646.5, 0.5028627405338301
646.9999999999998, 0.5028627405338301
647.5, 0.502635009310987
648, 0.502635009310987
648.5, 0.5028627405338301
649, 0.5028627405338301
649.5, 0.5008131595282433
650, 0.5008131595282433
650.5, 0.49785265363128506
651, 0.49785265363128506
651.5, 0.497397191185599
651.9999999999998, 0.497397191185599
652.5, 0.497397191185599
653, 0.4983081160769708
653.5, 0.4983081160769708
654, 0.4967139975170701
654.5, 0.4967139975170701
655, 0.49284256672874005
655.5, 0.49284256672874005
656, 0.492614835505897
656.5, 0.492614835505897
656.9999999999998, 0.49215937306021107
657.4999999999998, 0.49215937306021107
658, 0.49284256672874005
658.5, 0.49284256672874005
659, 0.4914761793916822
659.5, 0.4914761793916822
660, 0.4891988671632528
660.5, 0.4891988671632528
661, 0.4882879422718809
661.5, 0.4882879422718809
662, 0.4896543296089385
662.4999999999998, 0.4896543296089385
663, 0.487604748603352
663.5, 0.487604748603352
664, 0.4857828988206083
664.5, 0.4857828988206083
665, 0.4841887802607078
665.5, 0.4841887802607078
666, 0.48509970515207945
666.5, 0.48509970515207945
667, 0.4846442427063936
667.4999999999998, 0.4846442427063936
668, 0.4835055865921789
668.5, 0.4835055865921789
669, 0.4814560055865922
669.5, 0.4814560055865922
670, 0.4803173494723775
670.5, 0.4803173494723775
671, 0.4814560055865922
671.5, 0.4814560055865922
672, 0.48100054314090623
672.4999999999998, 0.48100054314090623
672.9999999999998, 0.4784954996896338
673.5, 0.4784954996896338
674, 0.47621818746120437
674.5, 0.47621818746120437
675, 0.47690138112973324
675.5, 0.47690138112973324
676, 0.47735684357541897
676.5, 0.47735684357541897
677, 0.47621818746120437
677.5, 0.47621818746120437
677.9999999999998, 0.47507953134698944
678.5, 0.47507953134698944
679, 0.47507953134698944
679.5, 0.47394087523277484
680, 0.47394087523277484
680.5, 0.47416860645561765
681, 0.47416860645561765
681.5, 0.47394087523277484
682, 0.47394087523277484
682.5, 0.4716635630043452
682.9999999999998, 0.4716635630043452
683.5, 0.47029717566728746
684, 0.47029717566728746
684.5, 0.4698417132216015
685, 0.4698417132216015
685.5, 0.4707526381129733
686, 0.4707526381129733
686.5, 0.4698417132216015
687, 0.4698417132216015
687.5, 0.4680198634388578
687.9999999999998, 0.4680198634388578
688.4999999999998, 0.46710893854748603
689, 0.46710893854748603
689.5, 0.4675644009931721
690, 0.4675644009931721
690.5, 0.4677921322160149
691, 0.4677921322160149
691.5, 0.4659702824332713
692, 0.4659702824332713
692.5, 0.4646038950962137
693, 0.4646038950962137
693.4999999999998, 0.4639207014276848
694, 0.4639207014276848
694.5, 0.46619801365611435
695, 0.46619801365611435
695.5, 0.4646038950962137
696, 0.4646038950962137
696.5, 0.46323750775915595
697, 0.46323750775915595
697.5, 0.4625543140906271
698, 0.4625543140906271
698.4999999999998, 0.462098851644941
698.9999999999998, 0.462098851644941
699.5, 0.46232658286778405
700, 0.46232658286778405
700.5, 0.4616433891992552
701, 0.4616433891992552
701.5, 0.46050473308504036
702, 0.46050473308504036
702.5, 0.4598215394165115
703, 0.4598215394165115
703.4999999999998, 0.4609601955307264
703.9999999999998, 0.4609601955307264
704.5, 0.4600492706393544
705, 0.4600492706393544
705.5, 0.4600492706393544
706, 0.45845515207945375
706.5, 0.45845515207945375
707, 0.457088764742396
707.5, 0.457088764742396
708, 0.4575442271880821
708.5, 0.4575442271880821
708.9999999999998, 0.45822742085661095
709.5, 0.45822742085661095
710, 0.457088764742396
710.5, 0.457088764742396
711, 0.4559501086281814
711.5, 0.4559501086281814
712, 0.4557223774053383
712.5, 0.4557223774053383
713, 0.4561778398510242
713.5, 0.4561778398510242
713.9999999999998, 0.4557223774053383
714.4999999999998, 0.4557223774053383
715, 0.4548114525139665
715.5, 0.4548114525139665
716, 0.4539005276225948
716.5, 0.4539005276225948
717, 0.4536727963997518
717.5, 0.4536727963997518
718, 0.45435599006828054
718.5, 0.45435599006828054
719, 0.45435599006828054
719.4999999999998, 0.45435599006828054
720, 0.45253414028553696
720.5, 0.45253414028553696
721, 0.4518509466170081
721.5, 0.4518509466170081
722, 0.45230640906269415
722.5, 0.45230640906269415
723, 0.45253414028553696
723.5, 0.45253414028553696
724, 0.4509400217256364
724.4999999999998, 0.4509400217256364
725, 0.45048455927995035
725.5, 0.45048455927995035
726, 0.45025682805710754
726.5, 0.45025682805710754
727, 0.45048455927995035
727.5, 0.45048455927995035
728, 0.4500290968342644
728.5, 0.4500290968342644
729, 0.4500290968342644
729.4999999999998, 0.4500290968342644
729.9999999999998, 0.4491181719428926
730.5, 0.4491181719428926
731, 0.44957363438857867
731.5, 0.44957363438857867
732, 0.44957363438857867
732.5, 0.4500290968342644
733, 0.4500290968342644
733.5, 0.44843497827436374
734, 0.44843497827436374
734.5, 0.447979515828678
734.9999999999998, 0.447979515828678
735.5, 0.44729632216014914
736, 0.44729632216014914
736.5, 0.44843497827436374
737, 0.44843497827436374
737.5, 0.44752405338299195
738, 0.44752405338299195
738.5, 0.44752405338299195
739, 0.44752405338299195
739.5, 0.44638539726877713
739.9999999999998, 0.44638539726877713
740.5, 0.44661312849162027
741, 0.44661312849162027
741.5, 0.44729632216014914
742, 0.44729632216014914
742.5, 0.44661312849162027
743, 0.44661312849162027
743.5, 0.44524674115456253
744, 0.44524674115456253
744.5, 0.44547447237740534
744.9999999999998, 0.44547447237740534
745.4999999999998, 0.44638539726877713
746, 0.44638539726877713
746.5, 0.4459299348230914
747, 0.4459299348230914
747.5, 0.44570220360024826
748, 0.44570220360024826
748.5, 0.44479127870887647
749, 0.44479127870887647
749.5, 0.44547447237740534
750, 0.44547447237740534
750.4999999999998, 0.44547447237740534
751, 0.44547447237740534
751.5, 0.44547447237740534
752, 0.44547447237740534
752.5, 0.44456354748603366
753, 0.44456354748603366
753.5, 0.44479127870887647
754, 0.44479127870887647
754.5, 0.44456354748603366
755, 0.44456354748603366
755.4999999999998, 0.44524674115456253
756, 0.44524674115456253
756.5, 0.4450190099317195
757, 0.4450190099317195
757.5, 0.4441080850403476
758, 0.4441080850403476
758.5, 0.44456354748603366
759, 0.44456354748603366
759.5, 0.44456354748603366
760, 0.4450190099317195
760.4999999999998, 0.4450190099317195
760.9999999999998, 0.4450190099317195
761.5, 0.4450190099317195
762, 0.4438803538175048
762.5, 0.4438803538175048
763, 0.44365262259466187
763.5, 0.44365262259466187
764, 0.44479127870887647
764.5, 0.44479127870887647
765, 0.44433581626319063
765.5, 0.44433581626319063
765.9999999999998, 0.44479127870887647
766.5, 0.44479127870887647
767, 0.44479127870887647
767.5, 0.44479127870887647
768, 0.44365262259466187
768.5, 0.44365262259466187
769, 0.4441080850403476
769.5, 0.4441080850403476
770, 0.44479127870887647
770.5, 0.44479127870887647
770.9999999999998, 0.4438803538175048
771.4999999999998, 0.4438803538175048
772, 0.44365262259466187
772.5, 0.44365262259466187
773, 0.4431971601489758
773.5, 0.4431971601489758
774, 0.4438803538175048
774.5, 0.4438803538175048
775, 0.4438803538175048
775.5, 0.4438803538175048
775.9999999999998, 0.44274169770328986
776.4999999999998, 0.44274169770328986
777, 0.44251396648044694
777.5, 0.44251396648044694
778, 0.44342489137181873
778.5, 0.44342489137181873
779, 0.4441080850403476
779.5, 0.4441080850403476
780, 0.44274169770328986
780.5, 0.44274169770328986
781, 0.442058504034761
781.4999999999998, 0.442058504034761
782, 0.44274169770328986
782.5, 0.44274169770328986
783, 0.44228623525760413
783.5, 0.44228623525760413
784, 0.442058504034761
784.5, 0.442058504034761
785, 0.44183077281191807
785.5, 0.44183077281191807
786, 0.44183077281191807
786.4999999999998, 0.44183077281191807
786.9999999999998, 0.44183077281191807
787.5, 0.44228623525760413
788, 0.44228623525760413
788.5, 0.44228623525760413
789, 0.44228623525760413
789.5, 0.4413753103662321
790, 0.4413753103662321
790.5, 0.4409198479205464
791, 0.4409198479205464
791.4999999999998, 0.44046438547486033
791.9999999999998, 0.44046438547486033
792.5, 0.44046438547486033
793, 0.44046438547486033
793.5, 0.4413753103662321
794, 0.4413753103662321
794.5, 0.4402366542520175
795, 0.4402366542520175
795.5, 0.43978119180633146
796, 0.43978119180633146
796.5, 0.43955346058348865
796.9999999999998, 0.43955346058348865
797.5, 0.43978119180633146
798, 0.43978119180633146
798.5, 0.43932572936064573
799, 0.43932572936064573
799.5, 0.4384148044692737
800, 0.4384148044692737
800.5, 0.4381870732464308
801, 0.4381870732464308
801.5, 0.437959342023588
801.9999999999998, 0.437959342023588
802.4999999999998, 0.437048417132216
803, 0.437048417132216
803.5, 0.437048417132216
804, 0.437048417132216
804.5, 0.43659295468653025
805, 0.43659295468653025
805.5, 0.4372761483550591
806, 0.4372761483550591
806.5, 0.4372761483550591
806.9999999999998, 0.4372761483550591
807.4999999999998, 0.4363652234636871
808, 0.4363652234636871
808.5, 0.43568202979515835
809, 0.43568202979515835
809.5, 0.4354542985723153
810, 0.4354542985723153
810.5, 0.43568202979515835
811, 0.43568202979515835
811.5, 0.4352265673494725
812, 0.4352265673494725
812.4999999999998, 0.4352265673494725
813, 0.4343156424581007
813.5, 0.4343156424581007
814, 0.4343156424581007
814.5, 0.4343156424581007
815, 0.4334047175667287
815.5, 0.4334047175667287
816, 0.432949255121043
816.5, 0.432949255121043
817, 0.43386018001241466
817.4999999999998, 0.43386018001241466
817.9999999999998, 0.43272152389819984
818.5, 0.43272152389819984
819, 0.4322660614525141
819.5, 0.4322660614525141
820, 0.432038330229671
820.5, 0.432038330229671
821, 0.4324937926753569
821.5, 0.4324937926753569
822, 0.43181059900682806
822.4999999999998, 0.43181059900682806
822.9999999999998, 0.4311274053382992
823.5, 0.4311274053382992
824, 0.4313551365611422
824.5, 0.4313551365611422
825, 0.4313551365611422
825.5, 0.4313551365611422
826, 0.4313551365611422
826.5, 0.4313551365611422
827, 0.4304442116697703
827.5, 0.4304442116697703
827.9999999999998, 0.4299887492240846
828.5, 0.4299887492240846
829, 0.4304442116697703
829.5, 0.4304442116697703
830, 0.4299887492240846
830.5, 0.4299887492240846
831, 0.42976101800124145
831.5, 0.42976101800124145
832, 0.42885009310986966
832.5, 0.42885009310986966
832.9999999999998, 0.4295332867783985
833.4999999999998, 0.4295332867783985
834, 0.4295332867783985
834.5, 0.4295332867783985
835, 0.4295332867783985
835.5, 0.4295332867783985
836, 0.4295332867783985
836.5, 0.4295332867783985
837, 0.4295332867783985
837.5, 0.4295332867783985
837.9999999999998, 0.4293055555555557
838.4999999999998, 0.4293055555555557
839, 0.4293055555555557
839.5, 0.4299887492240846
840, 0.4299887492240846
840.5, 0.4293055555555557
841, 0.4293055555555557
841.5, 0.4293055555555557
842, 0.4293055555555557
842.5, 0.42862236188702685
843, 0.42862236188702685
843.4999999999998, 0.42862236188702685
844, 0.42862236188702685
844.5, 0.4295332867783985
845, 0.4295332867783985
845.5, 0.4293055555555557
846, 0.4293055555555557
846.5, 0.4290778243327126
847, 0.4290778243327126
847.5, 0.4295332867783985
848, 0.4295332867783985
848.4999999999998, 0.42976101800124145
848.9999999999998, 0.42976101800124145
849.5, 0.4293055555555557
850, 0.4293055555555557
850.5, 0.4290778243327126
851, 0.4290778243327126
851.5, 0.4293055555555557
852, 0.4293055555555557
852.5, 0.4299887492240846
853, 0.4299887492240846
853.4999999999998, 0.42976101800124145
853.9999999999998, 0.42976101800124145
854.5, 0.4302164804469274
855, 0.4302164804469274
855.5, 0.4304442116697703
856, 0.4304442116697703
856.5, 0.4299887492240846
857, 0.4299887492240846
857.5, 0.4304442116697703
858, 0.4304442116697703
858.5, 0.43067194289261346
858.9999999999998, 0.43067194289261346
859.4999999999998, 0.4304442116697703
860, 0.4304442116697703
860.5, 0.4304442116697703
861, 0.4304442116697703
861.5, 0.4302164804469274
862, 0.4302164804469274
862.5, 0.43067194289261346
863, 0.43067194289261346
863.5, 0.4311274053382992
863.9999999999998, 0.4311274053382992
864.4999999999998, 0.43158286778398525
865, 0.43158286778398525
865.5, 0.43158286778398525
866, 0.43158286778398525
866.5, 0.43158286778398525
867, 0.43158286778398525
867.5, 0.43158286778398525
868, 0.4322660614525141
868.5, 0.4322660614525141
868.9999999999998, 0.43181059900682806
869.4999999999998, 0.43181059900682806
870, 0.4322660614525141
870.5, 0.4322660614525141
871, 0.4322660614525141
871.5, 0.4322660614525141
872, 0.4322660614525141
872.5, 0.4322660614525141
873, 0.432949255121043
873.5, 0.432949255121043
874, 0.432949255121043
874.4999999999998, 0.432949255121043
874.9999999999998, 0.432949255121043
875.5, 0.432949255121043
876, 0.43363244878957186
876.5, 0.43363244878957186
877, 0.43386018001241466
877.5, 0.43386018001241466
878, 0.43363244878957186
878.5, 0.43363244878957186
879, 0.43386018001241466
879.4999999999998, 0.43386018001241466
879.9999999999998, 0.4340879112352576
880.5, 0.4340879112352576
881, 0.4343156424581007
881.5, 0.4343156424581007
882, 0.43477110490378645
882.5, 0.43477110490378645
883, 0.43477110490378645
883.5, 0.43477110490378645
884, 0.43454337368094353
884.5, 0.43454337368094353
884.9999999999998, 0.4349988361266296
885.5, 0.4349988361266296
886, 0.4354542985723153
886.5, 0.4354542985723153
887, 0.43568202979515835
887.5, 0.43568202979515835
888, 0.4352265673494725
888.5, 0.4352265673494725
889, 0.4359097610180014
889.5, 0.4359097610180014
889.9999999999998, 0.43659295468653025
890.4999999999998, 0.43659295468653025
891, 0.43682068590937306
891.5, 0.43682068590937306
892, 0.4363652234636871
892.5, 0.4363652234636871
893, 0.4363652234636871
893.5, 0.4361374922408442
894, 0.4361374922408442
894.5, 0.43659295468653025
894.9999999999998, 0.43659295468653025
895.4999999999998, 0.43750387957790193
896, 0.43750387957790193
896.5, 0.43773161080074485
897, 0.43773161080074485
897.5, 0.43750387957790193
898, 0.43750387957790193
898.5, 0.43750387957790193
899, 0.43750387957790193
899.5, 0.4384148044692737
900, 0.4384148044692737
900.4999999999998, 0.43864253569211686
901, 0.43864253569211686
901.5, 0.4384148044692737
902, 0.4384148044692737
902.5, 0.4384148044692737
903, 0.4384148044692737
903.5, 0.43932572936064573
904, 0.43932572936064573
904.5, 0.4400089230291745
905, 0.4400089230291745
905.4999999999998, 0.4402366542520175
905.9999999999998, 0.4402366542520175
906.5, 0.4402366542520175
907, 0.4402366542520175
907.5, 0.4409198479205464
908, 0.4409198479205464
908.5, 0.4413753103662321
909, 0.4413753103662321
909.5, 0.44160304158907526
910, 0.44160304158907526
910.4999999999998, 0.442058504034761
910.9999999999998, 0.442058504034761
911.5, 0.442058504034761
912, 0.442058504034761
912.5, 0.442969428926133
913, 0.442969428926133
913.5, 0.4438803538175048
914, 0.4438803538175048
914.5, 0.44456354748603366
915, 0.44456354748603366
915.5, 0.44456354748603366
915.9999999999998, 0.44456354748603366
916.5, 0.44479127870887647
917, 0.44479127870887647
917.5, 0.44570220360024826
918, 0.44570220360024826
918.5, 0.4468408597144631
919, 0.4468408597144631
919.5, 0.4468408597144631
920, 0.44729632216014914
920.5, 0.44729632216014914
920.9999999999998, 0.44752405338299195
921.4999999999998, 0.44752405338299195
922, 0.44843497827436374
922.5, 0.44843497827436374
923, 0.4498013656114215
923.5, 0.4498013656114215
924, 0.45071229050279327
924.5, 0.45071229050279327
925, 0.4509400217256364
925.5, 0.4509400217256364
925.9999999999998, 0.4518509466170081
926.4999999999998, 0.4518509466170081
927, 0.4527618715083799
927.5, 0.4527618715083799
928, 0.45435599006828054
928.5, 0.45435599006828054
929, 0.45549464618249536
929.5, 0.45549464618249536
930, 0.4559501086281814
930.5, 0.4559501086281814
931, 0.4566333022967103
931.4999999999998, 0.4566333022967103
932, 0.4579996896337679
932.5, 0.4579996896337679
933, 0.45936607697082554
933.5, 0.45936607697082554
934, 0.46027700186219755
934.5, 0.46027700186219755
935, 0.46027700186219755
935.5, 0.46027700186219755
936, 0.46141565797641215
936.4999999999998, 0.46141565797641215
936.9999999999998, 0.46346523898199876
937.5, 0.46346523898199876
938, 0.46437616387337055
938.5, 0.46437616387337055
939, 0.46437616387337055
939.5, 0.46437616387337055
940, 0.4648316263190565
940.5, 0.4648316263190565
941, 0.46642574487895716
941.4999999999998, 0.46642574487895716
941.9999999999998, 0.46824759466170096
942.5, 0.46824759466170096
943, 0.4687030571073867
943.5, 0.4687030571073867
944, 0.46915851955307264
944.5, 0.46915851955307264
945, 0.4698417132216015
945.5, 0.4698417132216015
946, 0.4698417132216015
946.5, 0.47098036933581633
946.9999999999998, 0.47098036933581633
947.4999999999998, 0.4725744878957171
948, 0.4725744878957171
948.5, 0.4734854127870888
949, 0.4734854127870888
949.5, 0.4730299503414028
950, 0.4730299503414028
950.5, 0.47416860645561765
951, 0.47416860645561765
951.5, 0.4755349937926755
951.9999999999998, 0.4755349937926755
952.4999999999998, 0.47690138112973324
953, 0.47690138112973324
953.5, 0.4764459186840472
954, 0.4764459186840472
954.5, 0.47712911235257605
955, 0.47712911235257605
955.5, 0.4784954996896338
956, 0.4784954996896338
956.5, 0.4794064245810056
956.9999999999998, 0.4794064245810056
957.4999999999998, 0.47986188702669164
958, 0.47986188702669164
958.5, 0.4794064245810056
959, 0.4794064245810056
959.5, 0.4803173494723775
960, 0.4803173494723775
960.5, 0.4812282743637494
961, 0.4812282743637494
961.5, 0.48191146803227825
962, 0.48191146803227825
962.4999999999998, 0.48213919925512105
962.9999999999998, 0.48213919925512105
963.5, 0.4814560055865922
964, 0.4814560055865922
964.5, 0.482366930477964
965, 0.482366930477964
965.5, 0.48396104903786474
966, 0.48396104903786474
966.5, 0.4828223929236499
967, 0.4828223929236499
967.4999999999998, 0.48191146803227825
967.9999999999998, 0.48191146803227825
968.5, 0.482366930477964
969, 0.482366930477964
969.5, 0.482366930477964
970, 0.482366930477964
970.5, 0.4835055865921789
971, 0.4835055865921789
971.5, 0.4832778553693359
972, 0.4832778553693359
972.4999999999998, 0.4832778553693359
972.9999999999998, 0.4825946617008071
973.5, 0.4825946617008071
974, 0.48213919925512105
974.5, 0.48213919925512105
975, 0.48213919925512105
975.5, 0.48213919925512105
976, 0.482366930477964
976.5, 0.482366930477964
977, 0.48213919925512105
977.5, 0.48213919925512105
977.9999999999998, 0.4814560055865922
978.4999999999998, 0.4814560055865922
979, 0.4812282743637494
979.5, 0.4812282743637494
980, 0.4812282743637494
980.5, 0.4812282743637494
981, 0.4803173494723775
981.5, 0.4803173494723775
982, 0.4796341558038486
982.5, 0.4796341558038486
982.9999999999998, 0.47895096213531974
983.4999999999998, 0.47895096213531974
984, 0.47895096213531974
984.5, 0.47895096213531974
985, 0.4796341558038486
985.5, 0.4796341558038486
986, 0.47917869335816277
986.5, 0.47917869335816277
987, 0.4787232309124767
987.5, 0.4787232309124767
987.9999999999998, 0.47735684357541897
988.4999999999998, 0.47735684357541897
989, 0.4775845747982621
989.5, 0.4775845747982621
990, 0.4775845747982621
990.5, 0.4775845747982621
991, 0.4766736499068901
991.5, 0.4766736499068901
992, 0.4757627250155183
992.5, 0.4757627250155183
993, 0.4755349937926755
993.4999999999998, 0.4755349937926755
993.9999999999998, 0.47530726256983247
994.5, 0.47530726256983247
995, 0.47621818746120437
995.5, 0.47621818746120437
996, 0.47507953134698944
996.5, 0.47507953134698944
997, 0.47439633767846057
997.5, 0.47439633767846057
998, 0.47530726256983247
998.4999999999998, 0.47530726256983247
998.9999999999998, 0.47530726256983247
999.5, 0.4757627250155183
1000, 0.4757627250155183
1000.5, 0.47599045623836134
1001, 0.47599045623836134
1001.5, 0.4755349937926755
1002, 0.4755349937926755
1002.5, 0.47507953134698944
1003, 0.47507953134698944
1003.4999999999998, 0.47599045623836134
1003.9999999999998, 0.47599045623836134
1004.5, 0.47712911235257605
1005, 0.47712911235257605
1005.5, 0.47621818746120437
1006, 0.47621818746120437
1006.5, 0.4755349937926755
1007, 0.4755349937926755
1007.5, 0.47621818746120437
1008, 0.47621818746120437
1008.5, 0.47804003724394784
1008.9999999999998, 0.47804003724394784
1009.4999999999998, 0.47735684357541897
1010, 0.47735684357541897
1010.5, 0.47712911235257605
1011, 0.47712911235257605
1011.5, 0.47712911235257605
1012, 0.47712911235257605
1012.5, 0.4787232309124767
1013, 0.4787232309124767
1013.5, 0.48008961824953444
1013.9999999999998, 0.48008961824953444
1014.4999999999998, 0.4794064245810056
1015, 0.4794064245810056
1015.5, 0.47917869335816277
1016, 0.47917869335816277
1016.5, 0.47986188702669164
1017, 0.47986188702669164
1017.5, 0.4814560055865922
1018, 0.4814560055865922
1018.5, 0.4825946617008071
1018.9999999999998, 0.4825946617008071
1019.4999999999998, 0.482366930477964
1020, 0.482366930477964
1020.5, 0.48191146803227825
1021, 0.48191146803227825
1021.5, 0.48305012414649284
1022, 0.48305012414649284
1022.5, 0.4844165114835506
1023, 0.4844165114835506
1023.5, 0.48532743637492237
1024, 0.48532743637492237
1024.4999999999998, 0.48532743637492237
1024.9999999999998, 0.48532743637492237
1025.5, 0.48532743637492237
1026, 0.4855551675977655
1026.5, 0.4855551675977655
1027, 0.48692155493482325
1027.5, 0.48692155493482325
1028, 0.48806021104903785
1028.5, 0.48806021104903785
1029, 0.4882879422718809
1029.4999999999998, 0.4882879422718809
1029.9999999999998, 0.487604748603352
1030.5, 0.487604748603352
1031, 0.4894265983860956
1031.5, 0.4894265983860956
1032, 0.49079298572315333
1032.5, 0.49079298572315333
1033, 0.49193164183736815
1033.5, 0.49193164183736815
1034, 0.49215937306021107
1034.4999999999998, 0.49215937306021107
1034.9999999999998, 0.492387104283054
1035.4999999999998, 0.492387104283054
1036, 0.4935257603972689
1036.5, 0.4935257603972689
1037, 0.49557534140285553
1037.5, 0.49557534140285553
1038, 0.4962585350713843
1038.5, 0.4962585350713843
1039, 0.49557534140285553
1039.5, 0.49557534140285553
1039.9999999999998, 0.49694172873991316
1040.4999999999998, 0.49694172873991316
1041, 0.4992190409683428
1041.5, 0.4992190409683428
1042, 0.5005854283054004
1042.5, 0.5005854283054004
1043, 0.5003576970825574
1043.5, 0.5003576970825574
1044, 0.5003576970825574
1044.5, 0.5003576970825574
1044.9999999999998, 0.5021795468653012
1045.4999999999998, 0.5021795468653012
1046, 0.5042291278708878
1046.5, 0.5042291278708878
1047, 0.5049123215394166
1047.5, 0.5049123215394166
1048, 0.5037736654252017
1048.5, 0.5037736654252017
1049, 0.5053677839851025
1049.5, 0.5053677839851025
1050, 0.5071896337678462
1050.4999999999998, 0.5071896337678462
1050.9999999999998, 0.5085560211049038
1051.5, 0.5085560211049038
1052, 0.5094669459962756
1052.5, 0.5094669459962756
1053, 0.5094669459962756
1053.5, 0.5087837523277468
1054, 0.5087837523277468
1054.5, 0.5115165270018622
1055, 0.5115165270018622
1055.4999999999998, 0.5140215704531348
1055.9999999999998, 0.5140215704531348
1056.5, 0.5131106455617629
1057, 0.5131106455617629
1057.5, 0.5121997206703912
1058, 0.5121997206703912
1058.5, 0.5137938392302918
1059, 0.5137938392302918
1059.5, 0.5160711514587213
1060, 0.5160711514587213
1060.4999999999998, 0.5183484636871509
1060.9999999999998, 0.5183484636871509
1061.5, 0.517665270018622
1062, 0.517665270018622
1062.5, 0.5178930012414649
1063, 0.5178930012414649
1063.5, 0.5194871198013657
1064, 0.5194871198013657
1064.5, 0.5215367008069522
1065, 0.5215367008069522
1065.5, 0.5226753569211671
1065.9999999999998, 0.5226753569211671
1066.4999999999998, 0.5213089695841093
1067, 0.5213089695841093
1067.5, 0.5210812383612663
1068, 0.5210812383612663
1068.5, 0.5226753569211671
1069, 0.5226753569211671
1069.5, 0.5256358628181255
1070, 0.5256358628181255
1070.5, 0.5265467877094971
1070.9999999999998, 0.5265467877094971
1071.4999999999998, 0.5256358628181255
1072, 0.5256358628181255
1072.5, 0.5249526691495965
1073, 0.5249526691495965
1073.5, 0.528140906269398
1074, 0.528140906269398
1074.5, 0.5317846058348853
1075, 0.5317846058348853
1075.5, 0.5292795623836126
1075.9999999999998, 0.5292795623836126
1076.4999999999998, 0.5292795623836126
1077, 0.5292795623836126
1077.5, 0.5308736809435133
1078, 0.5308736809435133
1078.5, 0.5336064556176288
1079, 0.5336064556176288
1079.5, 0.5336064556176288
1080, 0.5352005741775294
1080.5, 0.5352005741775294
1081, 0.5331509931719429
1081.4999999999998, 0.5331509931719429
1081.9999999999998, 0.5315568746120423
1082.5, 0.5315568746120423
1083, 0.5352005741775294
1083.5, 0.5352005741775294
1084, 0.537705617628802
1084.5, 0.537705617628802
1085, 0.5370224239602731
1085.5, 0.5370224239602731
1086, 0.5349728429546865
1086.5, 0.5349728429546865
1087, 0.538161080074488
1087.5, 0.538161080074488
1088, 0.5413493171942892
1088.5, 0.5413493171942892
1089, 0.5390720049658597
1089.5, 0.5390720049658597
1090, 0.5361114990689013
1090.5, 0.5361114990689013
1091, 0.5370224239602731
1091.5, 0.5370224239602731
1092, 0.5388442737430168
1092.5, 0.5388442737430168
1093, 0.5420325108628181
1093.5, 0.5420325108628181
1094, 0.5411215859714464
1094.5, 0.5411215859714464
1095, 0.5379333488516449
1095.5, 0.5379333488516449
1096, 0.5374778864059591
1096.5, 0.5374778864059591
1097, 0.5397551986343886
1097.5, 0.5397551986343886
1098, 0.5404383923029175
1098.5, 0.5404383923029175
1099, 0.5370224239602731
1099.5, 0.5370224239602731
1100, 0.5352005741775294
1100.5, 0.5352005741775294
1101, 0.5372501551831161
1101.5, 0.5372501551831161
1102, 0.5395274674115456
1102.5, 0.5395274674115456
1103, 0.5379333488516449
1103.5, 0.5379333488516449
1104, 0.5342896492861577
1104.5, 0.5342896492861577
1104.9999999999998, 0.532240068280571
1105.5, 0.532240068280571
1106, 0.532240068280571
1106.5, 0.5340619180633147
1107, 0.5340619180633147
1107.5, 0.5352005741775294
1108, 0.5352005741775294
1108.5, 0.532240068280571
1109, 0.532240068280571
1109.4999999999998, 0.5288240999379268
1110, 0.5288240999379268
1110.4999999999998, 0.528140906269398
1111, 0.528140906269398
1111.5, 0.5295072936064558
1112, 0.5295072936064558
1112.5, 0.5283686374922408
1113, 0.5283686374922408
1113.5, 0.5256358628181255
1114, 0.5256358628181255
1114.5, 0.522447625698324
1114.9999999999998, 0.522447625698324
1115.5, 0.5226753569211671
1116, 0.5226753569211671
1116.5, 0.523130819366853
1117, 0.523130819366853
1117.5, 0.5199425822470516
1118, 0.5199425822470516
1118.5, 0.5156156890130354
1119, 0.5156156890130354
1119.5, 0.5147047641216635
1120, 0.5147047641216635
1120.4999999999998, 0.5144770328988207
1121, 0.5144770328988207
1121.5, 0.5135661080074487
1122, 0.5135661080074487
1122.5, 0.5096946772191187
1123, 0.5096946772191187
1123.5, 0.5060509776536313
1124, 0.5060509776536313
1124.5, 0.5055955152079454
1124.9999999999998, 0.5055955152079454
1125.5, 0.5055955152079454
1125.9999999999998, 0.5055955152079454
1126.5, 0.5028627405338301
1127, 0.5028627405338301
1127.5, 0.49808038485412787
1128, 0.49808038485412787
1128.5, 0.49603080384854126
1129, 0.49603080384854126
1129.5, 0.4962585350713843
1130, 0.4962585350713843
1130.4999999999998, 0.4944366852886406
1131, 0.4944366852886406
1131.5, 0.4912484481688394
1132, 0.4912484481688394
1132.5, 0.4912484481688394
1133, 0.4887434047175667
1133.5, 0.4887434047175667
1134, 0.487377017380509
1134.5, 0.487377017380509
1135, 0.4866938237119801
1135.5, 0.4866938237119801
1135.9999999999998, 0.4832778553693359
1136.5, 0.4832778553693359
1137, 0.4807728119180633
1137.5, 0.4807728119180633
1138, 0.4794064245810056
1138.5, 0.4794064245810056
1139, 0.47895096213531974
1139.5, 0.47895096213531974
1140, 0.4775845747982621
1140.5, 0.4775845747982621
1141, 0.4757627250155183
1141.4999999999998, 0.4757627250155183
1142, 0.4728022191185599
1142.5, 0.4728022191185599
1143, 0.47189129422718823
1143.5, 0.47189129422718823
1144, 0.47098036933581633
1144.5, 0.47098036933581633
1145, 0.46938625077591556
1145.5, 0.46938625077591556
1145.9999999999998, 0.4668812073246432
1146.5, 0.4668812073246432
1147, 0.46414843265052763
1147.5, 0.46414843265052763
1148, 0.4636929702048417
1148.5, 0.4636929702048417
1149, 0.4627820453134699
1149.5, 0.4627820453134699
1150, 0.46141565797641215
1150.5, 0.46141565797641215
1151, 0.4589106145251398
1151.4999999999998, 0.4589106145251398
1152, 0.4577719584109249
1152.5, 0.4577719584109249
1153, 0.4577719584109249
1153.5, 0.4577719584109249
1154, 0.4566333022967103
1154.5, 0.4566333022967103
1155, 0.4539005276225948
1155.5, 0.4539005276225948
1156, 0.4516232153941653
1156.5, 0.4516232153941653
1156.9999999999998, 0.4511677529484792
1157.5, 0.4511677529484792
1158, 0.4516232153941653
1158.5, 0.4516232153941653
1159, 0.4516232153941653
1159.5, 0.4491181719428926
1160, 0.4491181719428926
1160.5, 0.44638539726877713
1161, 0.44638539726877713
1161.4999999999998, 0.447068590937306
1162, 0.447068590937306
1162.5, 0.44752405338299195
1163, 0.44752405338299195
1163.5, 0.4461576660459342
1164, 0.4461576660459342
1164.5, 0.4441080850403476
1165, 0.4441080850403476
1165.5, 0.4431971601489758
1166, 0.4431971601489758
1166.5, 0.442969428926133
1166.9999999999998, 0.442969428926133
1167.5, 0.44251396648044694
1168, 0.44251396648044694
1168.5, 0.44160304158907526
1169, 0.44160304158907526
1169.5, 0.4402366542520175
1170, 0.4402366542520175
1170.5, 0.43932572936064573
1171, 0.43932572936064573
1171.5, 0.43978119180633146
1172, 0.43978119180633146
1172.4999999999998, 0.43864253569211686
1173, 0.43864253569211686
1173.5, 0.43773161080074485
1174, 0.43773161080074485
1174.5, 0.4372761483550591
1175, 0.4372761483550591
1175.5, 0.4363652234636871
1176, 0.4363652234636871
1176.5, 0.4359097610180014
1176.9999999999998, 0.4359097610180014
1177.5, 0.4354542985723153
1178, 0.4354542985723153
1178.5, 0.4349988361266296
1179, 0.4349988361266296
1179.5, 0.4340879112352576
1180, 0.4340879112352576
1180.5, 0.4340879112352576
1181, 0.4340879112352576
1181.5, 0.4340879112352576
1182, 0.4340879112352576
1182.4999999999998, 0.4331769863438858
1183, 0.4331769863438858
1183.5, 0.4324937926753569
1184, 0.4324937926753569
1184.5, 0.43181059900682806
1185, 0.43181059900682806
1185.5, 0.4322660614525141
1186, 0.4322660614525141
1186.5, 0.4322660614525141
1187, 0.43181059900682806
1187.5, 0.43181059900682806
1187.9999999999998, 0.43067194289261346
1188.5, 0.43067194289261346
1189, 0.4299887492240846
1189.5, 0.4299887492240846
1190, 0.4302164804469274
1190.5, 0.4302164804469274
1191, 0.43067194289261346
1191.5, 0.43067194289261346
1192, 0.4302164804469274
1192.4999999999998, 0.4302164804469274
1193, 0.4293055555555557
1193.5, 0.4293055555555557
1194, 0.4290778243327126
1194.5, 0.4290778243327126
1195, 0.4290778243327126
1195.5, 0.4290778243327126
1196, 0.42885009310986966
1196.5, 0.42885009310986966
1197, 0.4281668994413408
1197.5, 0.4281668994413408
1197.9999999999998, 0.4281668994413408
1198.5, 0.4281668994413408
1199, 0.4281668994413408
1199.5, 0.4281668994413408
1200, 0.42771143699565484
1200.5, 0.42771143699565484
1201, 0.42771143699565484
1201.5, 0.42771143699565484
1202, 0.42680051210428305
1202.5, 0.42680051210428305
1203, 0.4270282433271261
1203.4999999999998, 0.4270282433271261
1204, 0.4270282433271261
1204.5, 0.4270282433271261
1205, 0.4270282433271261
1205.5, 0.4270282433271261
1206, 0.42680051210428305
1206.5, 0.42680051210428305
1207, 0.42657278088144024
1207.5, 0.42657278088144024
1207.9999999999998, 0.4261173184357542
1208.5, 0.4261173184357542
1208.9999999999998, 0.4263450496585972
1209.5, 0.4263450496585972
1210, 0.42680051210428305
1210.5, 0.42680051210428305
1211, 0.4261173184357542
1211.5, 0.4261173184357542
1212, 0.42588958721291126
1212.5, 0.42588958721291126
1213, 0.42588958721291126
1213.4999999999998, 0.42566185599006845
1214, 0.42566185599006845
1214.5, 0.4263450496585972
1215, 0.4263450496585972
1215.5, 0.42566185599006845
1216, 0.42566185599006845
1216.5, 0.4252063935443824
1217, 0.4252063935443824
1217.5, 0.4252063935443824
1218, 0.4252063935443824
1218.5, 0.42588958721291126
1218.9999999999998, 0.42588958721291126
1219.5, 0.4254341247672253
1220, 0.4254341247672253
1220.5, 0.4252063935443824
1221, 0.4252063935443824
1221.5, 0.4249786623215396
1222, 0.4249786623215396
1222.5, 0.4254341247672253
1223, 0.4254341247672253
1223.4999999999998, 0.4252063935443824
1224, 0.4252063935443824
1224.4999999999998, 0.4249786623215396
1225, 0.4249786623215396
1225.5, 0.4249786623215396
1226, 0.4249786623215396
1226.5, 0.4245231998758535
1227, 0.4245231998758535
1227.5, 0.4249786623215396
1228, 0.4249786623215396
1228.5, 0.4252063935443824
1228.9999999999998, 0.4252063935443824
1229.5, 0.4252063935443824
1230, 0.4252063935443824
1230.5, 0.4245231998758535
1231, 0.4245231998758535
1231.5, 0.4245231998758535
1232, 0.4245231998758535
1232.5, 0.42475093109869644
1233, 0.42475093109869644
1233.5, 0.4249786623215396
1234, 0.4249786623215396
1234.4999999999998, 0.4249786623215396
1235, 0.4249786623215396
1235.5, 0.42475093109869644
1236, 0.42475093109869644
1236.5, 0.42475093109869644
1237, 0.42475093109869644
1237.5, 0.4249786623215396
1238, 0.4249786623215396
1238.5, 0.4249786623215396
1238.9999999999998, 0.4249786623215396
1239.5, 0.4249786623215396
1239.9999999999998, 0.42475093109869644
1240.5, 0.42475093109869644
1241, 0.4245231998758535
1241.5, 0.4245231998758535
1242, 0.42475093109869644
1242.5, 0.42475093109869644
1243, 0.4245231998758535
1243.5, 0.4245231998758535
1244, 0.4245231998758535
1244.4999999999998, 0.4245231998758535
1245, 0.42384000620732465
1245.5, 0.42384000620732465
1246, 0.4245231998758535
1246.5, 0.4245231998758535
1247, 0.4245231998758535
1247.5, 0.4245231998758535
1248, 0.4245231998758535
1248.5, 0.4245231998758535
1249, 0.42406773743016757
1249.5, 0.42406773743016757
1249.9999999999998, 0.42384000620732465
1250.5, 0.42384000620732465
1251, 0.4245231998758535
1251.5, 0.4245231998758535
1252, 0.4242954686530107
1252.5, 0.4242954686530107
1253, 0.42406773743016757
1253.5, 0.42406773743016757
1254, 0.42361227498448184
1254.4999999999998, 0.42361227498448184
1255, 0.42406773743016757
1255.4999999999998, 0.42406773743016757
1256, 0.4245231998758535
1256.5, 0.4245231998758535
1257, 0.4242954686530107
1257.5, 0.4242954686530107
1258, 0.42361227498448184
1258.5, 0.42361227498448184
1259, 0.42406773743016757
1259.5, 0.42406773743016757
1259.9999999999998, 0.42361227498448184
1260.5, 0.42361227498448184
1261, 0.42361227498448184
1261.5, 0.42361227498448184
1262, 0.42361227498448184
1262.5, 0.42361227498448184
1263, 0.42361227498448184
1263.5, 0.42361227498448184
1264, 0.42361227498448184
1264.5, 0.42361227498448184
1265, 0.4245231998758535
1265.4999999999998, 0.4245231998758535
1266, 0.4245231998758535
1266.5, 0.42406773743016757
1267, 0.42406773743016757
1267.5, 0.4231568125387958
1268, 0.4231568125387958
1268.5, 0.42361227498448184
1269, 0.42361227498448184
1269.5, 0.4242954686530107
1269.9999999999998, 0.4242954686530107
1270.5, 0.4242954686530107
1270.9999999999998, 0.4242954686530107
1271.5, 0.42361227498448184
1272, 0.42361227498448184
1272.5, 0.42361227498448184
1273, 0.42361227498448184
1273.5, 0.42361227498448184
1274, 0.42361227498448184
1274.5, 0.42361227498448184
1275, 0.42361227498448184
1275.4999999999998, 0.42361227498448184
1276, 0.42361227498448184
1276.5, 0.42361227498448184
1277, 0.42361227498448184
1277.5, 0.4233845437616387
1278, 0.4233845437616387
1278.5, 0.42361227498448184
1279, 0.42361227498448184
1279.5, 0.42361227498448184
1280, 0.42361227498448184
1280.5, 0.42361227498448184
1280.9999999999998, 0.42361227498448184
1281.5, 0.4233845437616387
1282, 0.4233845437616387
1282.5, 0.42361227498448184
1283, 0.42361227498448184
1283.5, 0.42361227498448184
1284, 0.42361227498448184
1284.5, 0.42361227498448184
1285, 0.42361227498448184
1285.4999999999998, 0.4242954686530107
1286, 0.4242954686530107
1286.4999999999998, 0.4233845437616387
1287, 0.4233845437616387
1287.5, 0.42384000620732465
1288, 0.42384000620732465
1288.5, 0.4233845437616387
1289, 0.4233845437616387
1289.5, 0.42361227498448184
1290, 0.42361227498448184
1290.5, 0.42361227498448184
1290.9999999999998, 0.42361227498448184
1291.5, 0.42361227498448184
1292, 0.42361227498448184
1292.5, 0.42361227498448184
1293, 0.42406773743016757
1294, 0.42361227498448184
1294.5, 0.42361227498448184
1295, 0.4231568125387958
1295.5, 0.4231568125387958
1296, 0.4231568125387958
1296.4999999999998, 0.4231568125387958
1297, 0.4231568125387958
1297.5, 0.4231568125387958
