202.49999999999997, 0.7759124767225326
203, 0.7759124767225326
203.5, 0.7768234016139044
204, 0.7768234016139044
204.5, 0.7775065952824333
205, 0.7775065952824333
205.5, 0.7765956703910615
206, 0.7765956703910615
206.5, 0.7765956703910615
207, 0.7765956703910615
207.5, 0.7756847454996896
208, 0.7756847454996896
208.5, 0.7770511328367473
208.99999999999997, 0.7770511328367473
209.5, 0.7770511328367473
210, 0.7770511328367473
210.5, 0.7763679391682186
211, 0.7763679391682186
211.49999999999997, 0.7765956703910615
212, 0.7765956703910615
212.5, 0.7768234016139044
213, 0.7768234016139044
213.5, 0.7761402079453755
214, 0.7761402079453755
214.5, 0.7763679391682186
215, 0.7763679391682186
215.49999999999997, 0.7754570142768467
216, 0.7754570142768467
216.5, 0.7761402079453755
217, 0.7761402079453755
217.5, 0.7765956703910615
217.99999999999997, 0.7765956703910615
218.5, 0.7761402079453755
219, 0.7761402079453755
219.5, 0.7761402079453755
220, 0.7761402079453755
220.5, 0.7750015518311608
221, 0.7750015518311608
221.5, 0.7761402079453755
221.99999999999997, 0.7761402079453755
222.5, 0.7759124767225326
223, 0.7759124767225326
223.5, 0.7768234016139044
224, 0.7768234016139044
224.49999999999997, 0.7756847454996896
225, 0.7756847454996896
225.5, 0.7756847454996896
226, 0.7745460893854749
226.5, 0.7745460893854749
227, 0.7747738206083178
227.5, 0.7747738206083178
228, 0.7747738206083178
228.5, 0.7747738206083178
229, 0.7745460893854749
229.5, 0.7745460893854749
230, 0.7747738206083178
230.5, 0.7747738206083178
230.99999999999997, 0.7756847454996896
231.5, 0.7756847454996896
232, 0.7754570142768467
232.5, 0.7754570142768467
233, 0.7754570142768467
233.49999999999997, 0.7754570142768467
234, 0.7756847454996896
234.5, 0.7756847454996896
235, 0.7759124767225326
235.5, 0.7759124767225326
236, 0.7765956703910615
236.5, 0.7765956703910615
237, 0.7777343265052763
237.49999999999997, 0.7777343265052763
238, 0.7765956703910615
238.5, 0.7765956703910615
239, 0.7768234016139044
239.5, 0.7768234016139044
239.99999999999997, 0.7759124767225326
240.5, 0.7759124767225326
241, 0.7763679391682186
241.5, 0.7763679391682186
242, 0.7770511328367473
242.5, 0.7770511328367473
243, 0.7770511328367473
243.5, 0.7770511328367473
243.99999999999997, 0.7765956703910615
244.5, 0.7765956703910615
245, 0.7775065952824333
245.5, 0.7775065952824333
246, 0.7765956703910615
246.49999999999997, 0.7765956703910615
247, 0.7761402079453755
247.5, 0.7761402079453755
248, 0.7763679391682186
248.5, 0.7763679391682186
248.99999999999997, 0.7759124767225326
249.5, 0.7759124767225326
250, 0.7775065952824333
250.5, 0.7775065952824333
251, 0.7772788640595903
251.5, 0.7772788640595903
252, 0.7772788640595903
252.5, 0.7770511328367473
252.99999999999997, 0.7770511328367473
253.5, 0.7770511328367473
254, 0.7770511328367473
254.5, 0.778417520173805
255, 0.778417520173805
255.49999999999997, 0.7775065952824333
256, 0.7775065952824333
256.5, 0.7786452513966481
257, 0.7786452513966481
257.5, 0.778417520173805
258, 0.778417520173805
258.5, 0.7775065952824333
259, 0.7775065952824333
259.5, 0.7786452513966481
260, 0.7786452513966481
260.5, 0.7777343265052763
261, 0.7777343265052763
261.5, 0.778872982619491
262, 0.778872982619491
262.5, 0.7781897889509621
263, 0.7781897889509621
263.5, 0.7779620577281192
264, 0.7779620577281192
264.5, 0.7779620577281192
265, 0.7779620577281192
265.5, 0.779328445065177
266, 0.779328445065177
266.5, 0.779328445065177
267, 0.779328445065177
267.5, 0.7795561762880199
268, 0.7795561762880199
268.5, 0.7791007138423339
269, 0.7791007138423339
269.5, 0.7797839075108628
270, 0.7797839075108628
270.5, 0.7800116387337057
271, 0.7800116387337057
271.5, 0.7809225636250776
272, 0.7809225636250776
272.5, 0.7804671011793917
273, 0.7804671011793917
273.5, 0.7800116387337057
274, 0.7800116387337057
274.5, 0.7806948324022347
275, 0.7806948324022347
275.5, 0.7809225636250776
276, 0.7809225636250776
276.5, 0.7813780260707635
277, 0.7813780260707635
277.5, 0.7806948324022347
278, 0.7806948324022347
278.5, 0.7806948324022347
279, 0.7816057572936065
279.5, 0.7816057572936065
280, 0.7811502948479205
280.5, 0.7811502948479205
281, 0.7818334885164494
281.5, 0.7818334885164494
282, 0.7806948324022347
282.5, 0.7806948324022347
283, 0.7825166821849783
283.5, 0.7825166821849783
284, 0.7820612197392924
284.5, 0.7820612197392924
285, 0.7811502948479205
285.5, 0.7811502948479205
286, 0.7818334885164494
286.5, 0.7818334885164494
287, 0.7816057572936065
287.5, 0.7816057572936065
288, 0.7816057572936065
288.5, 0.7816057572936065
289, 0.7813780260707635
289.5, 0.7813780260707635
290, 0.7804671011793917
290.5, 0.7804671011793917
291, 0.7820612197392924
291.5, 0.7820612197392924
292, 0.7831998758535071
292.5, 0.7831998758535071
293, 0.7827444134078212
293.5, 0.7827444134078212
294, 0.7834276070763501
294.5, 0.7834276070763501
295, 0.7827444134078212
295.5, 0.7827444134078212
296, 0.7836553382991931
296.5, 0.7836553382991931
297, 0.7841108007448789
297.5, 0.7841108007448789
298, 0.7841108007448789
298.5, 0.7841108007448789
299, 0.7843385319677219
299.5, 0.7843385319677219
300, 0.7847939944134078
300.5, 0.7847939944134078
301, 0.7847939944134078
301.5, 0.7847939944134078
302, 0.7852494568590938
302.5, 0.7852494568590938
303, 0.7854771880819367
303.5, 0.7854771880819367
304, 0.7850217256362508
304.5, 0.7850217256362508
305, 0.7866158441961515
305.5, 0.7866158441961515
306, 0.7866158441961515
306.5, 0.7863881129733086
307, 0.7863881129733086
307.5, 0.7875267690875233
308, 0.7875267690875233
308.5, 0.7866158441961515
309, 0.7866158441961515
309.5, 0.7857049193047796
310, 0.7857049193047796
310.5, 0.7868435754189944
311, 0.7868435754189944
311.5, 0.7870713066418373
312, 0.7870713066418373
312.5, 0.7866158441961515
313, 0.7866158441961515
313.5, 0.7868435754189944
314, 0.7868435754189944
314.5, 0.7877545003103662
315, 0.7877545003103662
315.5, 0.7875267690875233
316, 0.7875267690875233
316.5, 0.788665425201738
317, 0.788665425201738
317.5, 0.7884376939788951
318, 0.7884376939788951
318.5, 0.7877545003103662
319, 0.7877545003103662
319.5, 0.7875267690875233
320, 0.7875267690875233
320.5, 0.788893156424581
321, 0.788893156424581
321.5, 0.789348618870267
322, 0.789348618870267
322.5, 0.7895763500931099
323, 0.7895763500931099
323.5, 0.7909427374301676
324, 0.7909427374301676
324.5, 0.7902595437616388
325, 0.7902595437616388
325.5, 0.7900318125387957
326, 0.7900318125387957
326.5, 0.7911704686530106
327, 0.7911704686530106
327.49999999999994, 0.7911704686530106
328, 0.7911704686530106
328.5, 0.7920813935443823
329, 0.7920813935443823
329.5, 0.7909427374301676
329.99999999999994, 0.7909427374301676
330.5, 0.7916259310986965
331, 0.7916259310986965
331.5, 0.7925368559900683
332, 0.7925368559900683
332.49999999999994, 0.7925368559900683
333, 0.7918536623215394
333.5, 0.7918536623215394
334, 0.7913981998758535
334.5, 0.7913981998758535
334.99999999999994, 0.7911704686530106
335.5, 0.7911704686530106
336, 0.7927645872129112
336.5, 0.7927645872129112
337, 0.7918536623215394
337.5, 0.7918536623215394
338, 0.7934477808814401
338.5, 0.7934477808814401
339, 0.7932200496585972
339.5, 0.7932200496585972
340, 0.793903243327126
340.5, 0.793903243327126
341, 0.7943587057728119
341.5, 0.7943587057728119
342, 0.7943587057728119
342.5, 0.7943587057728119
342.99999999999994, 0.7952696306641838
343.5, 0.7952696306641838
344, 0.7957250931098696
344.5, 0.7957250931098696
345, 0.7966360180012415
345.49999999999994, 0.7966360180012415
346, 0.7945864369956549
346.5, 0.7945864369956549
347, 0.7957250931098696
347.5, 0.7957250931098696
347.99999999999994, 0.7968637492240844
348.5, 0.7968637492240844
349, 0.7982301365611422
349.5, 0.7982301365611422
350, 0.7984578677839851
350.49999999999994, 0.7984578677839851
351, 0.7984578677839851
351.5, 0.7984578677839851
352, 0.7982301365611422
352.5, 0.7982301365611422
353, 0.7984578677839851
353.5, 0.7984578677839851
354, 0.7973192116697703
354.5, 0.7973192116697703
355, 0.7952696306641838
355.5, 0.7952696306641838
356, 0.7945864369956549
356.5, 0.7945864369956549
357, 0.7964082867783985
357.5, 0.7964082867783985
358, 0.7977746741154562
358.49999999999994, 0.7977746741154562
359, 0.7977746741154562
359.5, 0.798913330229671
360, 0.798913330229671
360.5, 0.8009629112352576
360.99999999999994, 0.8009629112352576
361.5, 0.7998242551210428
362, 0.7998242551210428
362.5, 0.8018738361266294
363, 0.8018738361266294
363.49999999999994, 0.8032402234636872
364, 0.8032402234636872
364.5, 0.8030124922408441
365, 0.8030124922408441
365.5, 0.8023292985723154
365.99999999999994, 0.8023292985723154
366.5, 0.8032402234636872
367, 0.8032402234636872
367.5, 0.803923417132216
368, 0.803923417132216
368.5, 0.804151148355059
369, 0.804151148355059
369.5, 0.8048343420235878
370, 0.8048343420235878
370.5, 0.8043788795779019
371, 0.8043788795779019
371.49999999999994, 0.8048343420235878
372, 0.8048343420235878
372.5, 0.8057452669149596
373, 0.8057452669149596
373.5, 0.8048343420235878
373.99999999999994, 0.8048343420235878
374.5, 0.8055175356921167
375, 0.8055175356921167
375.5, 0.8057452669149596
376, 0.8057452669149596
376.49999999999994, 0.8073393854748603
377, 0.8073393854748603
377.5, 0.8073393854748603
378, 0.8073393854748603
378.5, 0.8066561918063315
378.99999999999994, 0.8066561918063315
379.5, 0.8071116542520174
380, 0.8071116542520174
380.5, 0.8066561918063315
381, 0.8066561918063315
381.5, 0.8084780415890751
382, 0.8084780415890751
382.5, 0.808933504034761
383, 0.808933504034761
383.5, 0.8075671166977033
384, 0.8075671166977033
384.5, 0.8080225791433893
385, 0.8080225791433893
385.5, 0.8080225791433893
386, 0.8096166977032899
386.5, 0.8096166977032899
386.99999999999994, 0.8100721601489758
387.5, 0.8100721601489758
388, 0.8109830850403477
388.5, 0.8109830850403477
389, 0.8102998913718188
389.49999999999994, 0.8102998913718188
390, 0.8100721601489758
390.5, 0.8100721601489758
391, 0.8096166977032899
391.5, 0.8096166977032899
391.99999999999994, 0.8105276225946617
392.5, 0.8105276225946617
393, 0.8109830850403477
393.5, 0.8109830850403477
394, 0.8105276225946617
394.49999999999994, 0.8105276225946617
395, 0.8114385474860335
395.5, 0.8114385474860335
396, 0.8123494723774054
396.5, 0.8123494723774054
397, 0.8118940099317195
397.5, 0.8118940099317195
398, 0.8125772036002483
398.5, 0.8125772036002483
399, 0.8132603972687772
399.5, 0.8132603972687772
400, 0.8137158597144631
400.5, 0.8137158597144631
401, 0.8134881284916201
401.5, 0.8134881284916201
402, 0.8139435909373061
402.49999999999994, 0.8139435909373061
403, 0.8137158597144631
403.5, 0.8137158597144631
404, 0.8132603972687772
404.5, 0.8132603972687772
404.99999999999994, 0.8148545158286779
405.5, 0.8148545158286779
406, 0.8153099782743638
406.5, 0.8153099782743638
407, 0.814171322160149
407.49999999999994, 0.814171322160149
408, 0.8153099782743638
408.5, 0.8153099782743638
409, 0.8162209031657356
409.5, 0.8162209031657356
409.99999999999994, 0.8157654407200496
410.5, 0.8157654407200496
411, 0.8155377094972067
411.5, 0.8155377094972067
412, 0.8155377094972067
412.5, 0.8157654407200496
413, 0.8157654407200496
413.5, 0.8169040968342645
414, 0.8169040968342645
414.5, 0.8171318280571074
415, 0.8171318280571074
415.49999999999994, 0.8175872905027933
416, 0.8175872905027933
416.5, 0.8169040968342645
417, 0.8169040968342645
417.5, 0.8173595592799503
417.99999999999994, 0.8173595592799503
418.5, 0.8180427529484793
419, 0.8180427529484793
419.5, 0.8184982153941651
420, 0.8184982153941651
420.49999999999994, 0.8189536778398511
421, 0.8189536778398511
421.5, 0.818725946617008
422, 0.818725946617008
422.5, 0.819181409062694
422.99999999999994, 0.819181409062694
423.5, 0.8194091402855369
424, 0.8194091402855369
424.5, 0.8198646027312229
425, 0.8198646027312229
425.49999999999994, 0.8207755276225946
426, 0.8207755276225946
426.5, 0.819181409062694
427, 0.819181409062694
427.5, 0.8194091402855369
428, 0.8194091402855369
428.5, 0.8196368715083799
429, 0.8196368715083799
429.5, 0.8210032588454377
430, 0.8210032588454377
430.5, 0.8207755276225946
430.99999999999994, 0.8207755276225946
431.5, 0.8221419149596524
432, 0.8221419149596524
432.5, 0.8212309900682806
433, 0.8212309900682806
433.49999999999994, 0.8223696461824954
434, 0.8223696461824954
434.5, 0.8210032588454377
435, 0.8210032588454377
435.5, 0.8210032588454377
435.99999999999994, 0.8210032588454377
436.5, 0.8219141837368095
437, 0.8219141837368095
437.5, 0.8221419149596524
438, 0.8221419149596524
438.49999999999994, 0.8221419149596524
439, 0.8230528398510242
439.5, 0.8230528398510242
440, 0.8225973774053383
440.5, 0.8225973774053383
440.99999999999994, 0.823736033519553
441.5, 0.823736033519553
442, 0.8239637647423961
442.5, 0.8239637647423961
443, 0.8244192271880819
443.5, 0.8244192271880819
444, 0.8228251086281813
444.5, 0.8228251086281813
445, 0.8230528398510242
445.5, 0.8230528398510242
446, 0.8230528398510242
446.49999999999994, 0.8230528398510242
447, 0.823736033519553
447.5, 0.823736033519553
448, 0.8239637647423961
448.5, 0.8239637647423961
448.99999999999994, 0.8228251086281813
449.5, 0.8228251086281813
450, 0.8230528398510242
450.5, 0.8230528398510242
451, 0.8225973774053383
451.49999999999994, 0.8225973774053383
452, 0.824191495965239
452.5, 0.824191495965239
453, 0.823736033519553
453.5, 0.823736033519553
453.99999999999994, 0.8232805710738672
454.5, 0.8232805710738672
455, 0.8230528398510242
455.5, 0.8230528398510242
456, 0.8230528398510242
456.5, 0.8230528398510242
457, 0.8230528398510242
457.5, 0.8230528398510242
458, 0.8235083022967101
458.5, 0.8235083022967101
459, 0.8225973774053383
459.49999999999994, 0.8225973774053383
460, 0.8214587212911235
460.5, 0.8214587212911235
461, 0.8216864525139664
461.5, 0.8216864525139664
461.99999999999994, 0.8235083022967101
462.5, 0.8235083022967101
463, 0.8228251086281813
463.5, 0.8228251086281813
464, 0.8219141837368095
464.49999999999994, 0.8219141837368095
465, 0.8210032588454377
465.5, 0.8210032588454377
466, 0.8210032588454377
466.5, 0.8203200651769087
466.99999999999994, 0.8203200651769087
467.5, 0.8212309900682806
468, 0.8212309900682806
468.5, 0.8214587212911235
469, 0.8214587212911235
469.49999999999994, 0.8203200651769087
470, 0.8203200651769087
470.5, 0.8214587212911235
471, 0.8214587212911235
471.5, 0.8196368715083799
472, 0.8196368715083799
472.5, 0.8203200651769087
473, 0.8203200651769087
473.5, 0.818725946617008
474, 0.818725946617008
474.5, 0.818725946617008
474.99999999999994, 0.818725946617008
475.5, 0.818725946617008
476, 0.818725946617008
476.5, 0.8194091402855369
477, 0.8194091402855369
477.49999999999994, 0.8184982153941651
478, 0.8184982153941651
478.5, 0.8180427529484793
479, 0.8180427529484793
479.5, 0.8189536778398511
479.99999999999994, 0.8189536778398511
480.5, 0.8171318280571074
481, 0.8171318280571074
481.5, 0.8178150217256362
482, 0.8178150217256362
482.49999999999994, 0.8180427529484793
483, 0.8180427529484793
483.5, 0.8153099782743638
484, 0.8153099782743638
484.5, 0.8153099782743638
484.99999999999994, 0.8153099782743638
485.5, 0.8166763656114215
486, 0.8166763656114215
486.5, 0.8157654407200496
487, 0.8157654407200496
487.5, 0.8162209031657356
488, 0.8162209031657356
488.5, 0.8175872905027933
489, 0.8175872905027933
489.5, 0.8171318280571074
490, 0.8171318280571074
490.49999999999994, 0.8173595592799503
491, 0.8173595592799503
491.5, 0.8182704841713222
492, 0.8182704841713222
492.5, 0.8182704841713222
492.99999999999994, 0.8173595592799503
493.5, 0.8173595592799503
494, 0.8171318280571074
494.5, 0.8171318280571074
495, 0.8175872905027933
495.49999999999994, 0.8175872905027933
496, 0.8169040968342645
496.5, 0.8169040968342645
497, 0.8164486343885785
497.5, 0.8164486343885785
497.99999999999994, 0.8162209031657356
498.5, 0.8162209031657356
499, 0.8169040968342645
499.5, 0.8169040968342645
500, 0.8169040968342645
500.49999999999994, 0.8169040968342645
501, 0.8164486343885785
501.5, 0.8164486343885785
502, 0.8175872905027933
502.5, 0.8175872905027933
503, 0.8159931719428926
503.49999999999994, 0.8159931719428926
504, 0.8162209031657356
504.5, 0.8162209031657356
505, 0.8173595592799503
505.5, 0.8173595592799503
505.99999999999994, 0.8157654407200496
506.5, 0.8157654407200496
507, 0.8150822470515208
507.5, 0.8150822470515208
508, 0.8159931719428926
508.49999999999994, 0.8159931719428926
509, 0.8169040968342645
509.5, 0.8169040968342645
510, 0.8169040968342645
510.5, 0.8169040968342645
510.99999999999994, 0.8153099782743638
511.5, 0.8153099782743638
512, 0.8182704841713222
512.5, 0.8182704841713222
513, 0.8171318280571074
513.5, 0.8171318280571074
514, 0.8173595592799503
514.5, 0.8173595592799503
515, 0.8166763656114215
515.5, 0.8166763656114215
516, 0.8173595592799503
516.5, 0.8173595592799503
517, 0.8178150217256362
517.5, 0.8178150217256362
518, 0.8175872905027933
518.5, 0.8175872905027933
519, 0.8175872905027933
519.5, 0.8159931719428926
520, 0.8159931719428926
520.5, 0.8162209031657356
521, 0.8162209031657356
521.5, 0.8173595592799503
522, 0.8173595592799503
522.5, 0.8166763656114215
523, 0.8166763656114215
523.5, 0.8171318280571074
524, 0.8171318280571074
524.5, 0.8173595592799503
525, 0.8173595592799503
525.5, 0.8169040968342645
526, 0.8169040968342645
526.5, 0.8157654407200496
527, 0.8157654407200496
527.5, 0.8157654407200496
528, 0.8157654407200496
528.5, 0.814171322160149
529, 0.814171322160149
529.5, 0.8130326660459342
530, 0.8130326660459342
530.5, 0.8134881284916201
531, 0.8134881284916201
531.5, 0.8139435909373061
532, 0.8139435909373061
532.5, 0.8123494723774054
533, 0.8123494723774054
533.5, 0.8109830850403477
534, 0.8109830850403477
534.5, 0.8109830850403477
535, 0.8109830850403477
535.5, 0.8102998913718188
536, 0.8102998913718188
536.5, 0.8084780415890751
537, 0.8084780415890751
537.5, 0.8073393854748603
538, 0.8073393854748603
538.5, 0.8066561918063315
539, 0.8066561918063315
539.5, 0.8048343420235878
540, 0.8048343420235878
540.5, 0.8046066108007449
541, 0.8046066108007449
541.5, 0.8036956859093731
542, 0.8036956859093731
542.5, 0.8027847610180012
543, 0.8027847610180012
543.5, 0.8009629112352576
544, 0.8009629112352576
544.5, 0.799141061452514
545, 0.799141061452514
545.5, 0.799141061452514
546, 0.7984578677839851
546.5, 0.7984578677839851
547, 0.7977746741154562
547.5, 0.7977746741154562
548, 0.7959528243327126
548.5, 0.7959528243327126
549, 0.7957250931098696
549.5, 0.7957250931098696
550, 0.7954973618870267
550.5, 0.7954973618870267
551, 0.793903243327126
551.5, 0.793903243327126
552, 0.7925368559900683
552.5, 0.7925368559900683
553, 0.7911704686530106
553.5, 0.7911704686530106
554, 0.7900318125387957
554.5, 0.7900318125387957
555, 0.789348618870267
555.5, 0.789348618870267
556, 0.788893156424581
556.5, 0.788893156424581
557, 0.7875267690875233
557.5, 0.7875267690875233
558, 0.7861603817504655
558.5, 0.7861603817504655
559, 0.7852494568590938
559.5, 0.7852494568590938
560, 0.7841108007448789
560.5, 0.7841108007448789
561, 0.7822889509621354
561.5, 0.7822889509621354
562, 0.7804671011793917
562.5, 0.7804671011793917
563, 0.7791007138423339
563.5, 0.7791007138423339
564, 0.7779620577281192
564.5, 0.7779620577281192
565, 0.778417520173805
565.5, 0.778417520173805
566, 0.7779620577281192
566.5, 0.7779620577281192
567, 0.7779620577281192
567.5, 0.7779620577281192
568, 0.7770511328367473
568.5, 0.7770511328367473
569, 0.7761402079453755
569.5, 0.7761402079453755
570, 0.7750015518311608
570.5, 0.7750015518311608
571, 0.7745460893854749
571.5, 0.7745460893854749
572, 0.7745460893854749
572.5, 0.7734074332712602
573, 0.7734074332712602
573.5, 0.7724965083798883
574, 0.7724965083798883
574.5, 0.7729519708255742
575, 0.7729519708255742
575.5, 0.7724965083798883
576, 0.7724965083798883
576.5, 0.7718133147113594
577, 0.7718133147113594
577.5, 0.7706746585971447
578, 0.7706746585971447
578.5, 0.7704469273743016
579, 0.7704469273743016
579.5, 0.7709023898199876
580, 0.7709023898199876
580.5, 0.7695360024829299
581, 0.7695360024829299
581.5, 0.7695360024829299
582, 0.7695360024829299
582.5, 0.7693082712600869
583, 0.7693082712600869
583.5, 0.768852808814401
584, 0.768852808814401
584.5, 0.7679418839230292
584.9999999999998, 0.7679418839230292
585.5, 0.7672586902545003
586, 0.7672586902545003
586.5, 0.7668032278088144
587, 0.7668032278088144
587.5, 0.7665754965859715
588, 0.7665754965859715
588.5, 0.7668032278088144
589, 0.7668032278088144
589.5, 0.7663477653631285
589.9999999999998, 0.7663477653631285
590.5, 0.7658923029174426
591, 0.7658923029174426
591.5, 0.7656645716945997
592, 0.7656645716945997
592.5, 0.7661200341402856
593, 0.7661200341402856
593.5, 0.7658923029174426
594, 0.7658923029174426
594.5, 0.7656645716945997
594.9999999999998, 0.7656645716945997
595.5, 0.7647536468032279
596, 0.7647536468032279
596.5, 0.7647536468032279
597, 0.7647536468032279
597.5, 0.7640704531346989
598, 0.7640704531346989
598.5, 0.7633872594661701
599, 0.7633872594661701
599.5, 0.7633872594661701
600, 0.7629317970204842
600.4999999999998, 0.7629317970204842
601, 0.7624763345747982
601.5, 0.7624763345747982
602, 0.7624763345747982
602.5, 0.7624763345747982
603, 0.7622486033519553
603.5, 0.7622486033519553
604, 0.7608822160148976
604.5, 0.7608822160148976
605, 0.7597435599006828
605.4999999999998, 0.7597435599006828
606, 0.758604903786468
606.5, 0.758604903786468
607, 0.7579217101179392
607.5, 0.7579217101179392
608, 0.7570107852265674
608.5, 0.7570107852265674
609, 0.7556443978895098
609.5, 0.7556443978895098
610, 0.7542780105524519
610.4999999999998, 0.7542780105524519
610.9999999999998, 0.7547334729981379
611.5, 0.7547334729981379
612, 0.7533670856610801
612.5, 0.7533670856610801
613, 0.7531393544382372
613.5, 0.7531393544382372
614, 0.7517729671011795
614.5, 0.7517729671011795
615, 0.7508620422098076
615.5, 0.7508620422098076
615.9999999999998, 0.7499511173184358
616.5, 0.7499511173184358
617, 0.7497233860955927
617.5, 0.7497233860955927
618, 0.7481292675356921
618.5, 0.7481292675356921
619, 0.7469906114214773
619.5, 0.7469906114214773
620, 0.7463074177529485
620.5, 0.7463074177529485
620.9999999999998, 0.7451687616387337
621.5, 0.7451687616387337
622, 0.7447132991930479
622.5, 0.7447132991930479
623, 0.7453964928615766
623.5, 0.7453964928615766
624, 0.7449410304158908
624.5, 0.7449410304158908
625, 0.7440301055245189
625.5, 0.7440301055245189
625.9999999999998, 0.7440301055245189
626.4999999999998, 0.7433469118559901
627, 0.7433469118559901
627.5, 0.7419805245189324
628, 0.7419805245189324
628.5, 0.7410695996275605
629, 0.7410695996275605
629.5, 0.7408418684047176
630, 0.7408418684047176
630.5, 0.7401586747361888
631, 0.7401586747361888
631.4999999999998, 0.7397032122905027
632, 0.7397032122905027
632.5, 0.739020018621974
633, 0.739020018621974
633.5, 0.7381090937306021
634, 0.7381090937306021
634.5, 0.7374259000620733
635, 0.7374259000620733
635.5, 0.7378813625077592
636, 0.7378813625077592
636.4999999999998, 0.7376536312849162
637, 0.7376536312849162
637.5, 0.7371981688392304
638, 0.7371981688392304
638.5, 0.7369704376163874
639, 0.7369704376163874
639.5, 0.7367427063935443
640, 0.7367427063935443
640.5, 0.7358317815021727
641, 0.7358317815021727
641.4999999999998, 0.7353763190564866
641.9999999999998, 0.7353763190564866
642.5, 0.7358317815021727
643, 0.7358317815021727
643.5, 0.7349208566108008
644, 0.7349208566108008
644.5, 0.7346931253879578
645, 0.7346931253879578
645.5, 0.7342376629422719
646, 0.7342376629422719
646.5, 0.7340099317194289
646.9999999999998, 0.7340099317194289
647.5, 0.7333267380509001
648, 0.7333267380509001
648.5, 0.7333267380509001
649, 0.7333267380509001
649.5, 0.7328712756052143
650, 0.7328712756052143
650.5, 0.7328712756052143
651, 0.7328712756052143
651.5, 0.7324158131595282
651.9999999999998, 0.7324158131595282
652.5, 0.7324158131595282
653, 0.7328712756052143
653.5, 0.7328712756052143
654, 0.7324158131595282
654.5, 0.7324158131595282
655, 0.7317326194909994
655.5, 0.7317326194909994
656, 0.7310494258224705
656.5, 0.7310494258224705
656.9999999999998, 0.7312771570453135
657.4999999999998, 0.7312771570453135
658, 0.7310494258224705
658.5, 0.7310494258224705
659, 0.7305939633767846
659.5, 0.7305939633767846
660, 0.7308216945996275
660.5, 0.7308216945996275
661, 0.7299107697082557
661.5, 0.7299107697082557
662, 0.7299107697082557
662.4999999999998, 0.7299107697082557
663, 0.728999844816884
663.5, 0.728999844816884
664, 0.7292275760397269
664.5, 0.7292275760397269
665, 0.7292275760397269
665.5, 0.7292275760397269
666, 0.7283166511483552
666.5, 0.7283166511483552
667, 0.7278611887026691
667.4999999999998, 0.7278611887026691
668, 0.7278611887026691
668.5, 0.7278611887026691
669, 0.7283166511483552
669.5, 0.7283166511483552
670, 0.7278611887026691
670.5, 0.7278611887026691
671, 0.7274057262569833
671.5, 0.7274057262569833
672, 0.7274057262569833
672.4999999999998, 0.7274057262569833
672.9999999999998, 0.7271779950341404
673.5, 0.7271779950341404
674, 0.7260393389199256
674.5, 0.7260393389199256
675, 0.7260393389199256
675.5, 0.7260393389199256
676, 0.7255838764742396
676.5, 0.7255838764742396
677, 0.7253561452513966
677.5, 0.7253561452513966
677.9999999999998, 0.7253561452513966
678.5, 0.7253561452513966
679, 0.7253561452513966
679.5, 0.7253561452513966
680, 0.7253561452513966
680.5, 0.7253561452513966
681, 0.7253561452513966
681.5, 0.7246729515828678
682, 0.7246729515828678
682.5, 0.724217489137182
682.9999999999998, 0.724217489137182
683.5, 0.724217489137182
684, 0.724217489137182
684.5, 0.7233065642458101
685, 0.7233065642458101
685.5, 0.7230788330229672
686, 0.7230788330229672
686.5, 0.723534295468653
687, 0.723534295468653
687.5, 0.7233065642458101
687.9999999999998, 0.7233065642458101
688.4999999999998, 0.7237620266914959
689, 0.7237620266914959
689.5, 0.723534295468653
690, 0.723534295468653
690.5, 0.7226233705772812
691, 0.7226233705772812
691.5, 0.7223956393544382
692, 0.7223956393544382
692.5, 0.7219401769087523
693, 0.7219401769087523
693.4999999999998, 0.7219401769087523
694, 0.7219401769087523
694.5, 0.7212569832402235
695, 0.7212569832402235
695.5, 0.7205737895716946
696, 0.7205737895716946
696.5, 0.7212569832402235
697, 0.7212569832402235
697.5, 0.7208015207945375
698, 0.7208015207945375
698.4999999999998, 0.7208015207945375
698.9999999999998, 0.7208015207945375
699.5, 0.7196628646803229
700, 0.7196628646803229
700.5, 0.7201183271260088
701, 0.7201183271260088
701.5, 0.7203460583488517
702, 0.7203460583488517
702.5, 0.7196628646803229
703, 0.7196628646803229
703.4999999999998, 0.7194351334574798
703.9999999999998, 0.7194351334574798
704.5, 0.7198905959031657
705, 0.7198905959031657
705.5, 0.7198905959031657
706, 0.7192074022346369
706.5, 0.7192074022346369
707, 0.7194351334574798
707.5, 0.7194351334574798
708, 0.718751939788951
708.5, 0.718751939788951
708.9999999999998, 0.7182964773432651
709.5, 0.7182964773432651
710, 0.7185242085661081
710.5, 0.7185242085661081
711, 0.718068746120422
711.5, 0.718068746120422
712, 0.7182964773432651
712.5, 0.7182964773432651
713, 0.718068746120422
713.5, 0.718068746120422
713.9999999999998, 0.7171578212290504
714.4999999999998, 0.7171578212290504
715, 0.7176132836747362
715.5, 0.7176132836747362
716, 0.7176132836747362
716.5, 0.7176132836747362
717, 0.7176132836747362
717.5, 0.7176132836747362
718, 0.7169300900062073
718.5, 0.7169300900062073
719, 0.7167023587833643
719.4999999999998, 0.7167023587833643
720, 0.7167023587833643
720.5, 0.7167023587833643
721, 0.7164746275605214
721.5, 0.7164746275605214
722, 0.7162468963376785
722.5, 0.7162468963376785
723, 0.7162468963376785
723.5, 0.7162468963376785
724, 0.7160191651148355
724.4999999999998, 0.7160191651148355
725, 0.7160191651148355
725.5, 0.7160191651148355
726, 0.7153359714463068
726.5, 0.7153359714463068
727, 0.7160191651148355
727.5, 0.7160191651148355
728, 0.7151082402234636
728.5, 0.7151082402234636
729, 0.7151082402234636
729.4999999999998, 0.7151082402234636
729.9999999999998, 0.7155637026691496
730.5, 0.7155637026691496
731, 0.7151082402234636
731.5, 0.7151082402234636
732, 0.7151082402234636
732.5, 0.7148805090006207
733, 0.7148805090006207
733.5, 0.7139695841092489
734, 0.7139695841092489
734.5, 0.714197315332092
734.9999999999998, 0.714197315332092
735.5, 0.7146527777777778
736, 0.7146527777777778
736.5, 0.7144250465549349
737, 0.7144250465549349
737.5, 0.714197315332092
738, 0.714197315332092
738.5, 0.7144250465549349
739, 0.7144250465549349
739.5, 0.7146527777777778
739.9999999999998, 0.7146527777777778
740.5, 0.7148805090006207
741, 0.7148805090006207
741.5, 0.7151082402234636
742, 0.7151082402234636
742.5, 0.7146527777777778
743, 0.7146527777777778
743.5, 0.7151082402234636
744, 0.7151082402234636
744.5, 0.7146527777777778
744.9999999999998, 0.7146527777777778
745.4999999999998, 0.7146527777777778
746, 0.7146527777777778
746.5, 0.7148805090006207
747, 0.7148805090006207
747.5, 0.7148805090006207
748, 0.7148805090006207
748.5, 0.7151082402234636
749, 0.7151082402234636
749.5, 0.7151082402234636
750, 0.7151082402234636
750.4999999999998, 0.7148805090006207
751, 0.7148805090006207
751.5, 0.7153359714463068
752, 0.7153359714463068
752.5, 0.7157914338919926
753, 0.7157914338919926
753.5, 0.7151082402234636
754, 0.7151082402234636
754.5, 0.7153359714463068
755, 0.7153359714463068
755.4999999999998, 0.7162468963376785
756, 0.7162468963376785
756.5, 0.7164746275605214
757, 0.7164746275605214
757.5, 0.7169300900062073
758, 0.7169300900062073
758.5, 0.7169300900062073
759, 0.7169300900062073
759.5, 0.7169300900062073
760, 0.7164746275605214
760.4999999999998, 0.7164746275605214
760.9999999999998, 0.7173855524518933
761.5, 0.7173855524518933
762, 0.7173855524518933
762.5, 0.7173855524518933
763, 0.7178410148975791
763.5, 0.7178410148975791
764, 0.718068746120422
764.5, 0.718068746120422
765, 0.7182964773432651
765.5, 0.7182964773432651
765.9999999999998, 0.7185242085661081
766.5, 0.7185242085661081
767, 0.7194351334574798
767.5, 0.7194351334574798
768, 0.7192074022346369
768.5, 0.7192074022346369
769, 0.7198905959031657
769.5, 0.7198905959031657
770, 0.7205737895716946
770.5, 0.7205737895716946
770.9999999999998, 0.7201183271260088
771.4999999999998, 0.7201183271260088
772, 0.7214847144630665
772.5, 0.7214847144630665
773, 0.7212569832402235
773.5, 0.7212569832402235
774, 0.7214847144630665
774.5, 0.7214847144630665
775, 0.7217124456859094
775.5, 0.7217124456859094
775.9999999999998, 0.7212569832402235
776.4999999999998, 0.7212569832402235
777, 0.7217124456859094
777.5, 0.7217124456859094
778, 0.7210292520173804
778.5, 0.7210292520173804
779, 0.7226233705772812
779.5, 0.7226233705772812
780, 0.7226233705772812
780.5, 0.7226233705772812
781, 0.723534295468653
781.4999999999998, 0.723534295468653
782, 0.7226233705772812
782.5, 0.7226233705772812
783, 0.723534295468653
783.5, 0.723534295468653
784, 0.7233065642458101
784.5, 0.7233065642458101
785, 0.7233065642458101
785.5, 0.7233065642458101
786, 0.7233065642458101
786.4999999999998, 0.7233065642458101
786.9999999999998, 0.7233065642458101
787.5, 0.7230788330229672
788, 0.7230788330229672
788.5, 0.7237620266914959
789, 0.7237620266914959
789.5, 0.723534295468653
790, 0.723534295468653
790.5, 0.723534295468653
791, 0.723534295468653
791.4999999999998, 0.7237620266914959
791.9999999999998, 0.7237620266914959
792.5, 0.7237620266914959
793, 0.7237620266914959
793.5, 0.7230788330229672
794, 0.7230788330229672
794.5, 0.7223956393544382
795, 0.7223956393544382
795.5, 0.7223956393544382
796, 0.7223956393544382
796.5, 0.7219401769087523
796.9999999999998, 0.7219401769087523
797.5, 0.7212569832402235
798, 0.7212569832402235
798.5, 0.7217124456859094
799, 0.7217124456859094
799.5, 0.7219401769087523
800, 0.7219401769087523
800.5, 0.7221679081315953
801, 0.7221679081315953
801.5, 0.7228511018001242
801.9999999999998, 0.7228511018001242
802.4999999999998, 0.7223956393544382
803, 0.7223956393544382
803.5, 0.7221679081315953
804, 0.7221679081315953
804.5, 0.7221679081315953
805, 0.7221679081315953
805.5, 0.7221679081315953
806, 0.7221679081315953
806.5, 0.7212569832402235
806.9999999999998, 0.7212569832402235
807.4999999999998, 0.7208015207945375
808, 0.7208015207945375
808.5, 0.7214847144630665
809, 0.7214847144630665
809.5, 0.7212569832402235
810, 0.7212569832402235
810.5, 0.7205737895716946
811, 0.7205737895716946
811.5, 0.7198905959031657
812, 0.7198905959031657
812.4999999999998, 0.7198905959031657
813, 0.7196628646803229
813.5, 0.7196628646803229
814, 0.7203460583488517
814.5, 0.7203460583488517
815, 0.7196628646803229
815.5, 0.7196628646803229
816, 0.7196628646803229
816.5, 0.7196628646803229
817, 0.7189796710117939
817.4999999999998, 0.7189796710117939
817.9999999999998, 0.718751939788951
818.5, 0.718751939788951
819, 0.7176132836747362
819.5, 0.7176132836747362
820, 0.718068746120422
820.5, 0.718068746120422
821, 0.7176132836747362
821.5, 0.7176132836747362
822, 0.7178410148975791
822.4999999999998, 0.7178410148975791
822.9999999999998, 0.7176132836747362
823.5, 0.7176132836747362
824, 0.7169300900062073
824.5, 0.7169300900062073
825, 0.7164746275605214
825.5, 0.7164746275605214
826, 0.7155637026691496
826.5, 0.7155637026691496
827, 0.7162468963376785
827.5, 0.7162468963376785
827.9999999999998, 0.7153359714463068
828.5, 0.7153359714463068
829, 0.7144250465549349
829.5, 0.7144250465549349
830, 0.7144250465549349
830.5, 0.7144250465549349
831, 0.7139695841092489
831.5, 0.7139695841092489
832, 0.7130586592178771
832.5, 0.7130586592178771
832.9999999999998, 0.7126031967721912
833.4999999999998, 0.7126031967721912
834, 0.7116922718808194
834.5, 0.7116922718808194
835, 0.7116922718808194
835.5, 0.7116922718808194
836, 0.7119200031036623
836.5, 0.7119200031036623
837, 0.7110090782122906
837.5, 0.7110090782122906
837.9999999999998, 0.7107813469894475
838.4999999999998, 0.7107813469894475
839, 0.7107813469894475
839.5, 0.7100981533209187
840, 0.7100981533209187
840.5, 0.7098704220980758
841, 0.7098704220980758
841.5, 0.7089594972067039
842, 0.7089594972067039
842.5, 0.708731765983861
843, 0.708731765983861
843.4999999999998, 0.708731765983861
844, 0.708731765983861
844.5, 0.7085040347610181
845, 0.7085040347610181
845.5, 0.7075931098696462
846, 0.7075931098696462
846.5, 0.7075931098696462
847, 0.7075931098696462
847.5, 0.7069099162011173
848, 0.7069099162011173
848.4999999999998, 0.7071376474239603
848.9999999999998, 0.7071376474239603
849.5, 0.7059989913097455
850, 0.7059989913097455
850.5, 0.7055435288640597
851, 0.7055435288640597
851.5, 0.7057712600869026
852, 0.7057712600869026
852.5, 0.7053157976412167
853, 0.7053157976412167
853.4999999999998, 0.7059989913097455
853.9999999999998, 0.7059989913097455
854.5, 0.7053157976412167
855, 0.7053157976412167
855.5, 0.7050880664183736
856, 0.7050880664183736
856.5, 0.7050880664183736
857, 0.7050880664183736
857.5, 0.7050880664183736
858, 0.7050880664183736
858.5, 0.7050880664183736
858.9999999999998, 0.7050880664183736
859.4999999999998, 0.7046326039726878
860, 0.7046326039726878
860.5, 0.7044048727498449
861, 0.7044048727498449
861.5, 0.7048603351955307
862, 0.7048603351955307
862.5, 0.703493947858473
863, 0.703493947858473
863.5, 0.704177141527002
863.9999999999998, 0.704177141527002
864.4999999999998, 0.7048603351955307
865, 0.7048603351955307
865.5, 0.7048603351955307
866, 0.7039494103041589
866.5, 0.7039494103041589
867, 0.704177141527002
867.5, 0.704177141527002
868, 0.7046326039726878
868.5, 0.7046326039726878
868.9999999999998, 0.704177141527002
869.4999999999998, 0.704177141527002
870, 0.7037216790813159
870.5, 0.7037216790813159
871, 0.7037216790813159
871.5, 0.7037216790813159
872, 0.704177141527002
872.5, 0.704177141527002
873, 0.704177141527002
873.5, 0.704177141527002
874, 0.7039494103041589
874.4999999999998, 0.7039494103041589
874.9999999999998, 0.7039494103041589
875.5, 0.7039494103041589
876, 0.703493947858473
876.5, 0.703493947858473
877, 0.704177141527002
877.5, 0.704177141527002
878, 0.704177141527002
878.5, 0.704177141527002
879, 0.704177141527002
879.4999999999998, 0.704177141527002
879.9999999999998, 0.7039494103041589
880.5, 0.7039494103041589
881, 0.704177141527002
881.5, 0.704177141527002
882, 0.704177141527002
882.5, 0.704177141527002
883, 0.704177141527002
883.5, 0.704177141527002
884, 0.704177141527002
884.5, 0.704177141527002
884.9999999999998, 0.7039494103041589
885.5, 0.7039494103041589
886, 0.704177141527002
886.5, 0.704177141527002
887, 0.704177141527002
887.5, 0.704177141527002
888, 0.7048603351955307
888.5, 0.7048603351955307
889, 0.704177141527002
889.5, 0.704177141527002
889.9999999999998, 0.704177141527002
890.4999999999998, 0.704177141527002
891, 0.7039494103041589
891.5, 0.7039494103041589
892, 0.7037216790813159
892.5, 0.7037216790813159
893, 0.7037216790813159
893.5, 0.7039494103041589
894, 0.7039494103041589
894.5, 0.7044048727498449
894.9999999999998, 0.7044048727498449
895.4999999999998, 0.704177141527002
896, 0.704177141527002
896.5, 0.7039494103041589
897, 0.7039494103041589
897.5, 0.7048603351955307
898, 0.7048603351955307
898.5, 0.7050880664183736
899, 0.7050880664183736
899.5, 0.7048603351955307
900, 0.7048603351955307
900.4999999999998, 0.7044048727498449
901, 0.7044048727498449
901.5, 0.7046326039726878
902, 0.7046326039726878
902.5, 0.7046326039726878
903, 0.7046326039726878
903.5, 0.7048603351955307
904, 0.7048603351955307
904.5, 0.7044048727498449
905, 0.7044048727498449
905.4999999999998, 0.7050880664183736
905.9999999999998, 0.7050880664183736
906.5, 0.7053157976412167
907, 0.7053157976412167
907.5, 0.7050880664183736
908, 0.7050880664183736
908.5, 0.7050880664183736
909, 0.7050880664183736
909.5, 0.7050880664183736
910, 0.7050880664183736
910.4999999999998, 0.7053157976412167
910.9999999999998, 0.7053157976412167
911.5, 0.7053157976412167
912, 0.7053157976412167
912.5, 0.7055435288640597
913, 0.7055435288640597
913.5, 0.7055435288640597
914, 0.7055435288640597
914.5, 0.7048603351955307
915, 0.7048603351955307
915.5, 0.7057712600869026
915.9999999999998, 0.7057712600869026
916.5, 0.7055435288640597
917, 0.7055435288640597
917.5, 0.7050880664183736
918, 0.7050880664183736
918.5, 0.7053157976412167
919, 0.7053157976412167
919.5, 0.7053157976412167
920, 0.7059989913097455
920.5, 0.7059989913097455
920.9999999999998, 0.7055435288640597
921.4999999999998, 0.7055435288640597
922, 0.7057712600869026
922.5, 0.7057712600869026
923, 0.7064544537554314
923.5, 0.7064544537554314
924, 0.7069099162011173
924.5, 0.7069099162011173
925, 0.7069099162011173
925.5, 0.7069099162011173
925.9999999999998, 0.7064544537554314
926.4999999999998, 0.7064544537554314
927, 0.7071376474239603
927.5, 0.7071376474239603
928, 0.7075931098696462
928.5, 0.7075931098696462
929, 0.708048572315332
929.5, 0.708048572315332
930, 0.7078208410924891
930.5, 0.7078208410924891
931, 0.7082763035381751
931.4999999999998, 0.7082763035381751
932, 0.708048572315332
932.5, 0.708048572315332
933, 0.708731765983861
933.5, 0.708731765983861
934, 0.708731765983861
934.5, 0.708731765983861
935, 0.7089594972067039
935.5, 0.7089594972067039
936, 0.7096426908752328
936.4999999999998, 0.7096426908752328
936.9999999999998, 0.7096426908752328
937.5, 0.7096426908752328
938, 0.7094149596523898
938.5, 0.7094149596523898
939, 0.7100981533209187
939.5, 0.7100981533209187
940, 0.7096426908752328
940.5, 0.7096426908752328
941, 0.7103258845437617
941.4999999999998, 0.7103258845437617
941.9999999999998, 0.7100981533209187
942.5, 0.7100981533209187
943, 0.7107813469894475
943.5, 0.7107813469894475
944, 0.7107813469894475
944.5, 0.7107813469894475
945, 0.7114645406579765
945.5, 0.7114645406579765
946, 0.7114645406579765
946.5, 0.7116922718808194
946.9999999999998, 0.7116922718808194
947.4999999999998, 0.7119200031036623
948, 0.7119200031036623
948.5, 0.7121477343265052
949, 0.7121477343265052
949.5, 0.7121477343265052
950, 0.7121477343265052
950.5, 0.7126031967721912
951, 0.7126031967721912
951.5, 0.7123754655493482
951.9999999999998, 0.7123754655493482
952.4999999999998, 0.7126031967721912
953, 0.7126031967721912
953.5, 0.7128309279950342
954, 0.7128309279950342
954.5, 0.7126031967721912
955, 0.7126031967721912
955.5, 0.7130586592178771
956, 0.7130586592178771
956.5, 0.7130586592178771
956.9999999999998, 0.7130586592178771
957.4999999999998, 0.7132863904407201
958, 0.7132863904407201
958.5, 0.7130586592178771
959, 0.7130586592178771
959.5, 0.713514121663563
960, 0.713514121663563
960.5, 0.713514121663563
961, 0.713514121663563
961.5, 0.7132863904407201
962, 0.7132863904407201
962.4999999999998, 0.713514121663563
962.9999999999998, 0.713514121663563
963.5, 0.714197315332092
964, 0.714197315332092
964.5, 0.713514121663563
965, 0.713514121663563
965.5, 0.714197315332092
966, 0.714197315332092
966.5, 0.7144250465549349
967, 0.7144250465549349
967.4999999999998, 0.7144250465549349
967.9999999999998, 0.7144250465549349
968.5, 0.714197315332092
969, 0.714197315332092
969.5, 0.714197315332092
970, 0.714197315332092
970.5, 0.714197315332092
971, 0.714197315332092
971.5, 0.7139695841092489
972, 0.7139695841092489
972.4999999999998, 0.7139695841092489
972.9999999999998, 0.714197315332092
973.5, 0.714197315332092
974, 0.714197315332092
974.5, 0.714197315332092
975, 0.7144250465549349
975.5, 0.7144250465549349
976, 0.714197315332092
976.5, 0.714197315332092
977, 0.7144250465549349
977.5, 0.7144250465549349
977.9999999999998, 0.7146527777777778
978.4999999999998, 0.7146527777777778
979, 0.7144250465549349
979.5, 0.7144250465549349
980, 0.7146527777777778
980.5, 0.7146527777777778
981, 0.7144250465549349
981.5, 0.7144250465549349
982, 0.7151082402234636
982.5, 0.7151082402234636
982.9999999999998, 0.7148805090006207
983.4999999999998, 0.7148805090006207
984, 0.7146527777777778
984.5, 0.7146527777777778
985, 0.714197315332092
985.5, 0.714197315332092
986, 0.7148805090006207
986.5, 0.7148805090006207
987, 0.7153359714463068
987.5, 0.7153359714463068
987.9999999999998, 0.7157914338919926
988.4999999999998, 0.7157914338919926
989, 0.7153359714463068
989.5, 0.7153359714463068
990, 0.7160191651148355
990.5, 0.7160191651148355
991, 0.7157914338919926
991.5, 0.7157914338919926
992, 0.7153359714463068
992.5, 0.7153359714463068
993, 0.7160191651148355
993.4999999999998, 0.7160191651148355
993.9999999999998, 0.7160191651148355
994.5, 0.7160191651148355
995, 0.7164746275605214
995.5, 0.7164746275605214
996, 0.7167023587833643
996.5, 0.7167023587833643
997, 0.7167023587833643
997.5, 0.7167023587833643
998, 0.7173855524518933
998.4999999999998, 0.7173855524518933
998.9999999999998, 0.7173855524518933
999.5, 0.7178410148975791
1000, 0.7178410148975791
1000.5, 0.7182964773432651
1001, 0.7182964773432651
1001.5, 0.718751939788951
1002, 0.718751939788951
1002.5, 0.7182964773432651
1003, 0.7182964773432651
1003.4999999999998, 0.7189796710117939
1003.9999999999998, 0.7189796710117939
1004.5, 0.7194351334574798
1005, 0.7194351334574798
1005.5, 0.7201183271260088
1006, 0.7201183271260088
1006.5, 0.7201183271260088
1007, 0.7201183271260088
1007.5, 0.7203460583488517
1008, 0.7203460583488517
1008.5, 0.7205737895716946
1008.9999999999998, 0.7205737895716946
1009.4999999999998, 0.7214847144630665
1010, 0.7214847144630665
1010.5, 0.7219401769087523
1011, 0.7219401769087523
1011.5, 0.7221679081315953
1012, 0.7221679081315953
1012.5, 0.7223956393544382
1013, 0.7223956393544382
1013.5, 0.7230788330229672
1013.9999999999998, 0.7230788330229672
1014.4999999999998, 0.7237620266914959
1015, 0.7237620266914959
1015.5, 0.7237620266914959
1016, 0.7237620266914959
1016.5, 0.7249006828057107
1017, 0.7249006828057107
1017.5, 0.7253561452513966
1018, 0.7253561452513966
1018.5, 0.7255838764742396
1018.9999999999998, 0.7255838764742396
1019.4999999999998, 0.7260393389199256
1020, 0.7260393389199256
1020.5, 0.7269502638112973
1021, 0.7269502638112973
1021.5, 0.7271779950341404
1022, 0.7271779950341404
1022.5, 0.7278611887026691
1023, 0.7278611887026691
1023.5, 0.7283166511483552
1024, 0.7283166511483552
1024.4999999999998, 0.7294553072625698
1024.9999999999998, 0.7294553072625698
1025.5, 0.7294553072625698
1026, 0.7299107697082557
1026.5, 0.7299107697082557
1027, 0.7305939633767846
1027.5, 0.7305939633767846
1028, 0.7310494258224705
1028.5, 0.7310494258224705
1029, 0.7319603507138424
1029.4999999999998, 0.7319603507138424
1029.9999999999998, 0.7319603507138424
1030.5, 0.7319603507138424
1031, 0.7328712756052143
1031.5, 0.7328712756052143
1032, 0.7333267380509001
1032.5, 0.7333267380509001
1033, 0.7337822004965859
1033.5, 0.7337822004965859
1034, 0.7346931253879578
1034.4999999999998, 0.7346931253879578
1034.9999999999998, 0.7351485878336437
1035.4999999999998, 0.7351485878336437
1036, 0.7353763190564866
1036.5, 0.7353763190564866
1037, 0.7358317815021727
1037.5, 0.7358317815021727
1038, 0.7371981688392304
1038.5, 0.7371981688392304
1039, 0.7371981688392304
1039.5, 0.7371981688392304
1039.9999999999998, 0.738336824953445
1040.4999999999998, 0.738336824953445
1041, 0.7392477498448169
1041.5, 0.7392477498448169
1042, 0.7401586747361888
1042.5, 0.7401586747361888
1043, 0.7408418684047176
1043.5, 0.7408418684047176
1044, 0.7417527932960895
1044.5, 0.7417527932960895
1044.9999999999998, 0.7424359869646182
1045.4999999999998, 0.7424359869646182
1046, 0.743574643078833
1046.5, 0.743574643078833
1047, 0.7442578367473619
1047.5, 0.7442578367473619
1048, 0.7444855679702049
1048.5, 0.7444855679702049
1049, 0.7453964928615766
1049.5, 0.7453964928615766
1050, 0.7463074177529485
1050.4999999999998, 0.7463074177529485
1050.9999999999998, 0.7472183426443203
1051.5, 0.7472183426443203
1052, 0.7481292675356921
1052.5, 0.7481292675356921
1053, 0.7481292675356921
1053.5, 0.749040192427064
1054, 0.749040192427064
1054.5, 0.7492679236499069
1055, 0.7492679236499069
1055.4999999999998, 0.7499511173184358
1055.9999999999998, 0.7499511173184358
1056.5, 0.7504065797641217
1057, 0.7504065797641217
1057.5, 0.7515452358783364
1058, 0.7515452358783364
1058.5, 0.7531393544382372
1059, 0.7531393544382372
1059.5, 0.7540502793296089
1060, 0.7540502793296089
1060.4999999999998, 0.753822548106766
1060.9999999999998, 0.753822548106766
1061.5, 0.7547334729981379
1062, 0.7547334729981379
1062.5, 0.7563275915580385
1063, 0.7563275915580385
1063.5, 0.7576939788950963
1064, 0.7576939788950963
1064.5, 0.7579217101179392
1065, 0.7579217101179392
1065.5, 0.758832635009311
1065.9999999999998, 0.758832635009311
1066.4999999999998, 0.7599712911235258
1067, 0.7599712911235258
1067.5, 0.7604267535692117
1068, 0.7604267535692117
1068.5, 0.7620208721291124
1069, 0.7620208721291124
1069.5, 0.7627040657976412
1070, 0.7627040657976412
1070.5, 0.763842721911856
1070.9999999999998, 0.763842721911856
1071.4999999999998, 0.7656645716945997
1072, 0.7656645716945997
1072.5, 0.7661200341402856
1073, 0.7661200341402856
1073.5, 0.7677141527001863
1074, 0.7677141527001863
1074.5, 0.768397346368715
1075, 0.768397346368715
1075.5, 0.7695360024829299
1075.9999999999998, 0.7695360024829299
1076.4999999999998, 0.7706746585971447
1077, 0.7706746585971447
1077.5, 0.7715855834885165
1078, 0.7715855834885165
1078.5, 0.7727242396027312
1079, 0.7727242396027312
1079.5, 0.7727242396027312
1080, 0.7740906269397889
1080.5, 0.7740906269397889
1081, 0.7747738206083178
1081.4999999999998, 0.7747738206083178
1081.9999999999998, 0.7763679391682186
1082.5, 0.7763679391682186
1083, 0.7775065952824333
1083.5, 0.7775065952824333
1084, 0.7781897889509621
1084.5, 0.7781897889509621
1085, 0.778417520173805
1085.5, 0.778417520173805
1086, 0.7797839075108628
1086.5, 0.7797839075108628
1087, 0.7811502948479205
1087.5, 0.7811502948479205
1088, 0.7820612197392924
1088.5, 0.7820612197392924
1089, 0.7820612197392924
1089.5, 0.7820612197392924
1090, 0.7825166821849783
1090.5, 0.7825166821849783
1091, 0.7827444134078212
1091.5, 0.7827444134078212
1092, 0.7834276070763501
1092.5, 0.7834276070763501
1093, 0.7836553382991931
1093.5, 0.7836553382991931
1094, 0.783883069522036
1094.5, 0.783883069522036
1095, 0.7852494568590938
1095.5, 0.7852494568590938
1096, 0.7847939944134078
1096.5, 0.7847939944134078
1097, 0.7845662631905649
1097.5, 0.7845662631905649
1098, 0.7845662631905649
1098.5, 0.7845662631905649
1099, 0.7854771880819367
1099.5, 0.7854771880819367
1100, 0.7868435754189944
1100.5, 0.7868435754189944
1101, 0.7859326505276226
1101.5, 0.7859326505276226
1102, 0.7850217256362508
1102.5, 0.7850217256362508
1103, 0.7843385319677219
1103.5, 0.7843385319677219
1104, 0.7850217256362508
1104.5, 0.7850217256362508
1104.9999999999998, 0.783883069522036
1105.5, 0.783883069522036
1106, 0.783883069522036
1106.5, 0.7836553382991931
1107, 0.7836553382991931
1107.5, 0.7820612197392924
1108, 0.7820612197392924
1108.5, 0.7813780260707635
1109, 0.7813780260707635
1109.4999999999998, 0.7811502948479205
1110, 0.7811502948479205
1110.4999999999998, 0.7800116387337057
1111, 0.7800116387337057
1111.5, 0.778872982619491
1112, 0.778872982619491
1112.5, 0.778417520173805
1113, 0.778417520173805
1113.5, 0.7768234016139044
1114, 0.7768234016139044
1114.5, 0.7756847454996896
1114.9999999999998, 0.7756847454996896
1115.5, 0.7752292830540037
1116, 0.7752292830540037
1116.5, 0.773862895716946
1117, 0.773862895716946
1117.5, 0.7727242396027312
1118, 0.7727242396027312
1118.5, 0.7720410459342024
1119, 0.7720410459342024
1119.5, 0.7718133147113594
1120, 0.7718133147113594
1120.4999999999998, 0.7702191961514587
1121, 0.7702191961514587
1121.5, 0.7695360024829299
1122, 0.7695360024829299
1122.5, 0.7686250775915581
1123, 0.7686250775915581
1123.5, 0.7672586902545003
1124, 0.7672586902545003
1124.5, 0.7672586902545003
1124.9999999999998, 0.7672586902545003
1125.5, 0.7654368404717566
1125.9999999999998, 0.7654368404717566
1126.5, 0.7647536468032279
1127, 0.7647536468032279
1127.5, 0.763842721911856
1128, 0.763842721911856
1128.5, 0.7642981843575419
1129, 0.7642981843575419
1129.5, 0.7636149906890131
1130, 0.7636149906890131
1130.4999999999998, 0.7613376784605835
1131, 0.7613376784605835
1131.5, 0.7599712911235258
1132, 0.7599712911235258
1132.5, 0.7599712911235258
1133, 0.758604903786468
1133.5, 0.758604903786468
1134, 0.758377172563625
1134.5, 0.758377172563625
1135, 0.7574662476722533
1135.5, 0.7574662476722533
1135.9999999999998, 0.7556443978895098
1136.5, 0.7556443978895098
1137, 0.7556443978895098
1137.5, 0.7556443978895098
1138, 0.7558721291123526
1138.5, 0.7558721291123526
1139, 0.7558721291123526
1139.5, 0.7558721291123526
1140, 0.7542780105524519
1140.5, 0.7542780105524519
1141, 0.7531393544382372
1141.4999999999998, 0.7531393544382372
1142, 0.7531393544382372
1142.5, 0.7531393544382372
1143, 0.7526838919925513
1143.5, 0.7526838919925513
1144, 0.7515452358783364
1144.5, 0.7515452358783364
1145, 0.7508620422098076
1145.5, 0.7508620422098076
1145.9999999999998, 0.7501788485412788
1146.5, 0.7501788485412788
1147, 0.7506343109869646
1147.5, 0.7506343109869646
1148, 0.749040192427064
1148.5, 0.749040192427064
1149, 0.7476738050900062
1149.5, 0.7476738050900062
1150, 0.7469906114214773
1150.5, 0.7469906114214773
1151, 0.7460796865301056
1151.4999999999998, 0.7460796865301056
1152, 0.743802374301676
1152.5, 0.743802374301676
1153, 0.743574643078833
1153.5, 0.743574643078833
1154, 0.7426637181874611
1154.5, 0.7426637181874611
1155, 0.7433469118559901
1155.5, 0.7433469118559901
1156, 0.7440301055245189
1156.5, 0.7440301055245189
1156.9999999999998, 0.7442578367473619
1157.5, 0.7442578367473619
1158, 0.7428914494103042
1158.5, 0.7428914494103042
1159, 0.7428914494103042
1159.5, 0.7431191806331472
1160, 0.7431191806331472
1160.5, 0.7422082557417753
1161, 0.7422082557417753
1161.4999999999998, 0.7415250620732465
1162, 0.7415250620732465
1162.5, 0.7410695996275605
1163, 0.7410695996275605
1163.5, 0.7406141371818746
1164, 0.7406141371818746
1164.5, 0.7399309435133458
1165, 0.7399309435133458
1165.5, 0.739020018621974
1166, 0.739020018621974
1166.5, 0.738336824953445
1166.9999999999998, 0.738336824953445
1167.5, 0.7376536312849162
1168, 0.7376536312849162
1168.5, 0.7376536312849162
1169, 0.7376536312849162
1169.5, 0.7374259000620733
1170, 0.7374259000620733
1170.5, 0.7362872439478585
1171, 0.7362872439478585
1171.5, 0.7360595127250156
1172, 0.7360595127250156
1172.4999999999998, 0.7358317815021727
1173, 0.7358317815021727
1173.5, 0.7351485878336437
1174, 0.7351485878336437
1174.5, 0.7356040502793296
1175, 0.7356040502793296
1175.5, 0.7346931253879578
1176, 0.7346931253879578
1176.5, 0.7337822004965859
1176.9999999999998, 0.7337822004965859
1177.5, 0.733554469273743
1178, 0.733554469273743
1178.5, 0.7328712756052143
1179, 0.7328712756052143
1179.5, 0.7321880819366853
1180, 0.7321880819366853
1180.5, 0.7312771570453135
1181, 0.7312771570453135
1181.5, 0.7310494258224705
1182, 0.7310494258224705
1182.4999999999998, 0.7305939633767846
1183, 0.7305939633767846
1183.5, 0.7301385009310988
1184, 0.7301385009310988
1184.5, 0.7296830384854127
1185, 0.7296830384854127
1185.5, 0.7283166511483552
1186, 0.7283166511483552
1186.5, 0.7283166511483552
1187, 0.7285443823711981
1187.5, 0.7285443823711981
1187.9999999999998, 0.7278611887026691
1188.5, 0.7278611887026691
1189, 0.7276334574798262
1189.5, 0.7276334574798262
1190, 0.7274057262569833
1190.5, 0.7274057262569833
1191, 0.7267225325884543
1191.5, 0.7267225325884543
1192, 0.7260393389199256
1192.4999999999998, 0.7260393389199256
1193, 0.7251284140285537
1193.5, 0.7251284140285537
1194, 0.7246729515828678
1194.5, 0.7246729515828678
1195, 0.7244452203600249
1195.5, 0.7244452203600249
1196, 0.7239897579143391
1196.5, 0.7239897579143391
1197, 0.7230788330229672
1197.5, 0.7230788330229672
1197.9999999999998, 0.7223956393544382
1198.5, 0.7223956393544382
1199, 0.7223956393544382
1199.5, 0.7223956393544382
1200, 0.7217124456859094
1200.5, 0.7217124456859094
1201, 0.7210292520173804
1201.5, 0.7210292520173804
1202, 0.7210292520173804
1202.5, 0.7210292520173804
1203, 0.7198905959031657
1203.4999999999998, 0.7198905959031657
1204, 0.7194351334574798
1204.5, 0.7194351334574798
1205, 0.718751939788951
1205.5, 0.718751939788951
1206, 0.718068746120422
1206.5, 0.718068746120422
1207, 0.718068746120422
1207.5, 0.718068746120422
1207.9999999999998, 0.7173855524518933
1208.5, 0.7173855524518933
1208.9999999999998, 0.7169300900062073
1209.5, 0.7169300900062073
1210, 0.7167023587833643
1210.5, 0.7167023587833643
1211, 0.7160191651148355
1211.5, 0.7160191651148355
1212, 0.7160191651148355
1212.5, 0.7160191651148355
1213, 0.7160191651148355
1213.4999999999998, 0.7153359714463068
1214, 0.7153359714463068
1214.5, 0.7148805090006207
1215, 0.7148805090006207
1215.5, 0.714197315332092
1216, 0.714197315332092
1216.5, 0.7137418528864059
1217, 0.7137418528864059
1217.5, 0.7132863904407201
1218, 0.7132863904407201
1218.5, 0.7128309279950342
1218.9999999999998, 0.7128309279950342
1219.5, 0.7126031967721912
1220, 0.7126031967721912
1220.5, 0.7119200031036623
1221, 0.7119200031036623
1221.5, 0.7107813469894475
1222, 0.7107813469894475
1222.5, 0.7100981533209187
1223, 0.7100981533209187
1223.4999999999998, 0.7098704220980758
1224, 0.7098704220980758
1224.4999999999998, 0.7100981533209187
1225, 0.7100981533209187
1225.5, 0.7091872284295468
1226, 0.7091872284295468
1226.5, 0.7091872284295468
1227, 0.7091872284295468
1227.5, 0.7091872284295468
1228, 0.7091872284295468
1228.5, 0.7082763035381751
1228.9999999999998, 0.7082763035381751
1229.5, 0.708048572315332
1230, 0.708048572315332
1230.5, 0.7071376474239603
1231, 0.7071376474239603
1231.5, 0.7066821849782745
1232, 0.7066821849782745
1232.5, 0.7069099162011173
1233, 0.7069099162011173
1233.5, 0.7064544537554314
1234, 0.7064544537554314
1234.4999999999998, 0.7055435288640597
1235, 0.7055435288640597
1235.5, 0.7059989913097455
1236, 0.7059989913097455
1236.5, 0.7057712600869026
1237, 0.7057712600869026
1237.5, 0.7050880664183736
1238, 0.7050880664183736
1238.5, 0.7048603351955307
1238.9999999999998, 0.7048603351955307
1239.5, 0.7048603351955307
1239.9999999999998, 0.7044048727498449
1240.5, 0.7044048727498449
1241, 0.7046326039726878
1241.5, 0.7046326039726878
1242, 0.7039494103041589
1242.5, 0.7039494103041589
1243, 0.7037216790813159
1243.5, 0.7037216790813159
1244, 0.703493947858473
1244.4999999999998, 0.703493947858473
1245, 0.70326621663563
1245.5, 0.70326621663563
1246, 0.7030384854127871
1246.5, 0.7030384854127871
1247, 0.7023552917442584
1247.5, 0.7023552917442584
1248, 0.7021275605214152
1248.5, 0.7021275605214152
1249, 0.7023552917442584
1249.5, 0.7023552917442584
1249.9999999999998, 0.7021275605214152
1250.5, 0.7021275605214152
1251, 0.7023552917442584
1251.5, 0.7023552917442584
1252, 0.7021275605214152
1252.5, 0.7021275605214152
1253, 0.7018998292985723
1253.5, 0.7018998292985723
1254, 0.7014443668528865
1254.4999999999998, 0.7014443668528865
1255, 0.7014443668528865
1255.4999999999998, 0.7014443668528865
1256, 0.7016720980757294
1256.5, 0.7016720980757294
1257, 0.7012166356300435
1257.5, 0.7012166356300435
1258, 0.7009889044072005
1258.5, 0.7009889044072005
1259, 0.7014443668528865
1259.5, 0.7014443668528865
1259.9999999999998, 0.7009889044072005
1260.5, 0.7009889044072005
1261, 0.7005334419615146
1261.5, 0.7005334419615146
1262, 0.7007611731843575
1262.5, 0.7007611731843575
1263, 0.7000779795158287
1263.5, 0.7000779795158287
1264, 0.7003057107386716
1264.5, 0.7003057107386716
1265, 0.7003057107386716
1265.4999999999998, 0.7003057107386716
1266, 0.7003057107386716
1266.5, 0.7000779795158287
1267, 0.7000779795158287
1267.5, 0.7000779795158287
1268, 0.7000779795158287
1268.5, 0.7000779795158287
1269, 0.7000779795158287
1269.5, 0.6996225170701428
1269.9999999999998, 0.6996225170701428
1270.5, 0.7000779795158287
1270.9999999999998, 0.7000779795158287
1271.5, 0.6996225170701428
1272, 0.6996225170701428
1272.5, 0.7000779795158287
1273, 0.7000779795158287
1273.5, 0.7000779795158287
1274, 0.7000779795158287
1274.5, 0.7000779795158287
1275, 0.7000779795158287
1275.4999999999998, 0.6996225170701428
1276, 0.6996225170701428
1276.5, 0.6996225170701428
1277, 0.6996225170701428
1277.5, 0.6998502482929858
1278, 0.6998502482929858
1278.5, 0.6998502482929858
1279, 0.6998502482929858
1279.5, 0.6996225170701428
1280, 0.6996225170701428
1280.5, 0.6996225170701428
1280.9999999999998, 0.6996225170701428
1281.5, 0.6998502482929858
1282, 0.6998502482929858
1282.5, 0.6996225170701428
1283, 0.6996225170701428
1283.5, 0.7000779795158287
1284, 0.7000779795158287
1284.5, 0.6998502482929858
1285, 0.6998502482929858
1285.4999999999998, 0.6998502482929858
1286, 0.6998502482929858
1286.4999999999998, 0.6996225170701428
1287, 0.6996225170701428
1287.5, 0.6996225170701428
1288, 0.6996225170701428
1288.5, 0.6996225170701428
1289, 0.6996225170701428
1289.5, 0.6998502482929858
1290, 0.6998502482929858
1290.5, 0.6996225170701428
1290.9999999999998, 0.6996225170701428
1291.5, 0.7003057107386716
1292, 0.7003057107386716
1292.5, 0.7003057107386716
1293, 0.6993947858472997
1293.5, 0.6993947858472997
1294, 0.7000779795158287
1294.5, 0.7000779795158287
1295, 0.6991670546244568
1295.5, 0.6991670546244568
