 1440.51, 7554.00
 1438.80,  529.00
 1437.09,  540.00
 1435.38,  541.00
 1433.66,  540.00
 1431.95,  538.00
 1430.24,  542.00
 1428.52,  544.00
 1426.81,  552.00
 1425.09,  551.00
 1423.38,  549.00
 1421.66,  536.00
 1419.95,  550.00
 1418.23,  563.00
 1416.52,  538.00
 1414.80,  550.00
 1413.08,  545.00
 1411.37,  537.00
 1409.65,  549.00
 1407.93,  542.00
 1406.21,  535.00
 1404.49,  543.00
 1402.77,  541.00
 1401.05,  543.00
 1399.33,  540.00
 1397.61,  538.00
 1395.89,  551.00
 1394.17,  545.00
 1392.45,  537.00
 1390.73,  549.00
 1389.01,  553.00
 1387.28,  541.00
 1385.56,  555.00
 1383.84,  546.00
 1382.11,  537.00
 1380.39,  540.00
 1378.66,  529.00
 1376.94,  534.00
 1375.21,  551.00
 1373.49,  551.00
 1371.76,  547.00
 1370.04,  551.00
 1368.31,  545.00
 1366.58,  546.00
 1364.85,  542.00
 1363.13,  543.00
 1361.40,  547.00
 1359.67,  553.00
 1357.94,  546.00
 1356.21,  547.00
 1354.48,  542.00
 1352.75,  534.00
 1351.02,  547.00
 1349.29,  553.00
 1347.56,  545.00
 1345.83,  554.00
 1344.09,  555.00
 1342.36,  553.00
 1340.63,  542.00
 1338.90,  547.00
 1337.16,  563.00
 1335.43,  571.00
 1333.69,  557.00
 1331.96,  555.00
 1330.22,  555.00
 1328.49,  535.00
 1326.75,  555.00
 1325.02,  549.00
 1323.28,  547.00
 1321.54,  548.00
 1319.80,  561.00
 1318.07,  553.00
 1316.33,  552.00
 1314.59,  561.00
 1312.85,  554.00
 1311.11,  559.00
 1309.37,  575.00
 1307.63,  562.00
 1305.89,  562.00
 1304.15,  572.00
 1302.41,  571.00
 1300.67,  559.00
 1298.93,  565.00
 1297.18,  569.00
 1295.44,  563.00
 1293.70,  563.00
 1291.95,  575.00
 1290.21,  582.00
 1288.46,  591.00
 1286.72,  589.00
 1284.98,  575.00
 1283.23,  574.00
 1281.48,  572.00
 1279.74,  582.00
 1277.99,  583.00
 1276.24,  598.00
 1274.50,  583.00
 1272.75,  587.00
 1271.00,  594.00
 1269.25,  603.00
 1267.50,  601.00
 1265.75,  585.00
 1264.00,  612.00
 1262.25,  607.00
 1260.50,  625.00
 1258.75,  615.00
 1257.00,  617.00
 1255.25,  632.00
 1253.50,  632.00
 1251.75,  625.00
 1249.99,  629.00
 1248.24,  636.00
 1246.49,  639.00
 1244.73,  656.00
 1242.98,  657.00
 1241.22,  654.00
 1239.47,  683.00
 1237.71,  695.00
 1235.96,  691.00
 1234.20,  712.00
 1232.44,  718.00
 1230.69,  722.00
 1228.93,  742.00
 1227.17,  751.00
 1225.41,  772.00
 1223.66,  789.00
 1221.90,  810.00
 1220.14,  845.00
 1218.38,  873.00
 1216.62,  887.00
 1214.86,  927.00
 1213.10,  945.00
 1211.33,  977.00
 1209.57, 1023.00
 1207.81, 1059.00
 1206.05, 1120.00
 1204.29, 1140.00
 1202.52, 1173.00
 1200.76, 1227.00
 1199.00, 1285.00
 1197.23, 1327.00
 1195.47, 1368.00
 1193.70, 1453.00
 1191.94, 1515.00
 1190.17, 1566.00
 1188.40, 1645.00
 1186.64, 1693.00
 1184.87, 1756.00
 1183.10, 1829.00
 1181.33, 1905.00
 1179.57, 1999.00
 1177.80, 2039.00
 1176.03, 2136.00
 1174.26, 2247.00
 1172.49, 2319.00
 1170.72, 2422.00
 1168.95, 2516.00
 1167.18, 2590.00
 1165.41, 2698.00
 1163.64, 2812.00
 1161.86, 2897.00
 1160.09, 3013.00
 1158.32, 3121.00
 1156.54, 3247.00
 1154.77, 3365.00
 1153.00, 3467.00
 1151.22, 3549.00
 1149.45, 3723.00
 1147.67, 3823.00
 1145.90, 3853.00
 1144.12, 4038.00
 1142.35, 4148.00
 1140.57, 4304.00
 1138.79, 4380.00
 1137.01, 4497.00
 1135.24, 4620.00
 1133.46, 4769.00
 1131.68, 4857.00
 1129.90, 4989.00
 1128.12, 5142.00
 1126.34, 5303.00
 1124.56, 5388.00
 1122.78, 5549.00
 1121.00, 5694.00
 1119.22, 5779.00
 1117.44, 5957.00
 1115.65, 6115.00
 1113.87, 6251.00
 1112.09, 6404.00
 1110.31, 6536.00
 1108.52, 6673.00
 1106.74, 6801.00
 1104.95, 6862.00
 1103.17, 7037.00
 1101.38, 7119.00
 1099.60, 7274.00
 1097.81, 7354.00
 1096.02, 7317.00
 1094.24, 7450.00
 1092.45, 7498.00
 1090.66, 7520.00
 1088.87, 7549.00
 1087.09, 7554.00
 1085.30, 7462.00
 1083.51, 7415.00
 1081.72, 7381.00
 1079.93, 7287.00
 1078.14, 7159.00
 1076.35, 7024.00
 1074.56, 6916.00
 1072.76, 6741.00
 1070.97, 6567.00
 1069.18, 6427.00
 1067.39, 6251.00
 1065.59, 6114.00
 1063.80, 5918.00
 1062.01, 5744.00
 1060.21, 5554.00
 1058.42, 5359.00
 1056.62, 5209.00
 1054.83, 5035.00
 1053.03, 4836.00
 1051.24, 4703.00
 1049.44, 4384.00
 1047.64, 4410.00
 1045.84, 4239.00
 1044.05, 4083.00
 1042.25, 3917.00
 1040.45, 3766.00
 1038.65, 3625.00
 1036.85, 3484.00
 1035.05, 3355.00
 1033.25, 3233.00
 1031.45, 3107.00
 1029.65, 3005.00
 1027.85, 2870.00
 1026.05, 2770.00
 1024.24, 2690.00
 1022.44, 2589.00
 1020.64, 2471.00
 1018.84, 2401.00
 1017.03, 2292.00
 1015.23, 2205.00
 1013.42, 2161.00
 1011.62, 2104.00
 1009.81, 2049.00
 1008.01, 1977.00
 1006.20, 1903.00
 1004.39, 1861.00
 1002.59, 1811.00
 1000.78, 1789.00
  998.97, 1742.00
  997.16, 1699.00
  995.36, 1671.00
  993.55, 1648.00
  991.74, 1616.00
  989.93, 1585.00
  988.12, 1582.00
  986.31, 1556.00
  984.50, 1515.00
  982.69, 1509.00
  980.87, 1395.00
  979.06, 1475.00
  977.25, 1473.00
  975.44, 1445.00
  973.62, 1440.00
  971.81, 1439.00
  970.00, 1439.00
  968.18, 1398.00
  966.37, 1407.00
  964.55, 1397.00
  962.74, 1400.00
  960.92, 1391.00
  959.10, 1397.00
  957.29, 1395.00
  955.47, 1401.00
  953.65, 1396.00
  951.83, 1395.00
  950.01, 1408.00
  948.20, 1398.00
  946.38, 1393.00
  944.56, 1390.00
  942.74, 1371.00
  940.92, 1370.00
  939.10, 1351.00
  937.27, 1331.00
  935.45, 1306.00
  933.63, 1311.00
  931.81, 1263.00
  929.99, 1239.00
  928.16, 1227.00
  926.34, 1171.00
  924.52, 1178.00
  922.69, 1132.00
  920.87, 1102.00
  919.04, 1098.00
  917.22, 1059.00
  915.39, 1023.00
  913.56, 1023.00
  911.74,  993.00
  909.91,  969.00
  908.08,  951.00
  906.25,  926.00
  904.43,  934.00
  902.60,  943.00
  900.77,  901.00
  898.94,  897.00
  897.11,  886.00
  895.28,  883.00
  893.45,  868.00
  891.62,  859.00
  889.78,  859.00
  887.95,  853.00
  886.12,  851.00
  884.29,  854.00
  882.45,  856.00
  880.62,  837.00
  878.79,  837.00
  876.95,  852.00
  875.12,  841.00
  873.28,  829.00
  871.45,  830.00
  869.61,  825.00
  867.77,  825.00
  865.94,  826.00
  864.10,  829.00
  862.26,  819.00
  860.42,  809.00
  858.59,  812.28
  856.75,  790.76
  854.91,  793.72
  853.07,  812.40
  851.23,  797.44
  849.39,  782.28
  847.55,  775.48
  845.71,  769.24
  843.87,  789.20
  842.02,  775.76
  840.18,  801.28
  838.34,  807.76
  836.49,  808.48
  834.65,  820.60
  832.81,  822.08
  830.96,  846.04
  829.12,  869.12
  827.27,  880.44
  825.43,  902.20
  823.58,  929.80
  821.73,  963.44
  819.89,  977.36
  818.04, 1001.48
  818.58, 1057.00
  816.74, 1084.00
  814.90, 1086.00
  813.06, 1130.00
  811.22, 1157.00
  809.38, 1188.00
  807.54, 1201.00
  805.70, 1223.00
  803.86, 1258.00
  802.02, 1261.00
  800.18, 1294.00
  798.34, 1309.00
  796.50, 1311.00
  794.65, 1329.00
  792.81, 1351.00
  790.96, 1370.00
  789.12, 1362.00
  787.28, 1385.00
  785.43, 1390.00
  783.59, 1398.00
  781.74, 1403.00
  779.89, 1393.00
  778.05, 1395.00
  776.20, 1431.00
  774.35, 1420.00
  772.50, 1401.00
  770.66, 1397.00
  768.81, 1385.00
  766.96, 1428.00
  765.11, 1407.00
  763.26, 1399.00
  761.41, 1384.00
  759.56, 1358.00
  757.71, 1342.00
  755.85, 1361.00
  754.00, 1343.00
  752.15, 1335.00
  750.30, 1317.00
  748.44, 1328.00
  746.59, 1302.00
  744.74, 1273.00
  742.88, 1283.00
  741.03, 1259.00
  739.17, 1241.00
  737.31, 1268.00
  735.46, 1264.00
  733.60, 1249.00
  731.74, 1222.00
  729.89, 1249.00
  728.03, 1249.00
  726.17, 1243.00
  724.31, 1235.00
  722.45, 1251.00
  720.59, 1268.00
  718.73, 1261.00
  716.87, 1282.00
  715.01, 1287.00
  713.15, 1285.00
  711.29, 1305.00
  709.43, 1333.00
  707.56, 1345.00
  705.70, 1338.00
  703.84, 1358.00
  701.97, 1390.00
  700.11, 1415.00
  698.25, 1405.00
  696.38, 1429.00
  694.51, 1433.00
  692.65, 1457.00
  690.78, 1491.00
  688.92, 1523.00
  687.05, 1549.00
  685.18, 1560.00
  683.31, 1571.00
  681.45, 1600.00
  679.58, 1617.00
  677.71, 1636.00
  675.84, 1677.00
  673.97, 1706.00
  672.10, 1749.00
  670.23, 1766.00
  668.36, 1767.00
  666.48, 1833.00
  664.61, 1874.00
  662.74, 1869.00
  660.87, 1942.00
  658.99, 1954.00
  657.12, 2018.00
  655.24, 2024.00
  653.37, 2089.00
  651.49, 2109.00
  649.62, 2175.00
  647.74, 2213.00
  645.87, 2261.00
  643.99, 2278.00
  642.11, 2358.00
  640.24, 2378.00
  638.36, 2425.00
  636.48, 2477.00
  634.60, 2549.00
  632.72, 2578.00
  630.84, 2664.00
  628.96, 2707.00
  627.08, 2764.00
  625.20, 2802.00
  623.32, 2856.00
  621.44, 2927.00
  619.55, 2998.00
  617.67, 3098.00
  615.79, 3126.00
  613.91, 3197.00
  612.02, 3273.00
  610.14, 3376.00
  608.25, 3454.00
  606.37, 3511.00
  604.48, 3583.00
  602.60, 3707.00
  600.71, 3750.00
  598.82, 3839.00
  596.93, 3899.00
  595.05, 3983.00
  593.16, 4004.00
  591.27, 4069.00
  589.38, 4156.00
  587.49, 4145.00
  585.60, 4145.00
  583.71, 4134.00
  581.82, 4205.00
  579.93, 4211.00
  578.04, 4225.00
  576.15, 4241.00
  574.25, 4326.00
  572.36, 4406.00
  570.47, 4507.00
  568.57, 4724.00
  566.68, 4703.00
  564.79, 4654.00
  562.89, 4715.00
  561.00, 4749.00
  559.10, 4819.00
  557.20, 4840.00
  555.31, 4963.00
  553.41, 4947.00
  551.51, 5077.00
  549.62, 5145.00
  547.72, 5243.00
  545.82, 5264.00
  543.92, 5377.00
  542.02, 5506.00
  540.12, 5543.00
  538.22, 5573.00
  536.32, 5694.00
  534.42, 5656.00
  532.51, 5724.00
  530.61, 5785.00
  528.71, 5796.00
  526.81, 5805.00
  524.90, 5809.00
  523.00, 5791.00
  521.10, 5744.00
  519.19, 5755.00
  517.29, 5731.00
  515.38, 5737.00
  513.47, 5650.00
  511.57, 5659.00
  509.66, 5638.00
  507.75, 5573.00
  505.85, 5515.00
  503.94, 5468.00
  502.03, 5435.00
  500.12, 5402.00
  498.21, 5356.00
  496.30, 5314.00
  494.39, 5256.00
  492.48, 5231.00
  490.57, 5161.00
  488.66, 5128.00
  486.74, 5110.00
  484.83, 5067.00
  482.92, 5021.00
  481.01, 5000.00
  479.09, 4899.00
  477.18, 4935.00
  475.26, 4867.00
  473.35, 4812.00
  471.43, 4798.00
  469.52, 4762.00
  467.60, 4735.00
  465.69, 4769.00
  463.77, 4705.00
  461.85, 4692.00
  459.93, 4666.00
  458.01, 4615.00
  456.10, 4618.00
  454.18, 4543.00
  452.26, 4531.00
  450.34, 4529.00
  448.42, 4466.00
  446.49, 4327.00
  444.57, 4429.00
  442.65, 4415.00
  440.73, 4377.00
  438.81, 4339.00
  436.88, 4351.00
  434.96, 4273.00
  433.04, 4259.00
  431.11, 4207.00
  429.19, 4188.00
  427.26, 4205.00
  425.34, 4175.00
  423.41, 4167.00
  421.48, 4158.00
  419.56, 4095.00
  417.63, 4067.00
  415.70, 4047.00
  413.77, 4066.00
  411.84, 4001.00
  409.91, 3955.00
  407.98, 3998.00
  406.05, 3910.00
  404.12, 3931.00
  402.19, 3871.00
  400.26, 3870.00
  398.33, 3845.00
  396.40, 3807.00
  394.46, 3808.00
  392.53, 3786.00
  390.60, 3791.00
  388.66, 3769.00
  386.73, 3723.00
  384.79, 3729.00
  382.86, 3719.00
  380.92, 3693.00
  378.99, 3686.00
  377.05, 3663.00
  375.11, 3607.00
  373.18, 3531.00
  371.24, 3626.00
  369.30, 3606.00
  367.36, 3589.00
  365.42, 3560.00
  363.48, 3539.00
  361.54, 3519.00
  359.60, 3523.00
  357.66, 3475.00
  355.72, 3499.00
  353.78, 3500.00
  351.84, 3462.00
  349.89, 3419.00
  347.95, 3396.00
  346.01, 3409.00
  344.06, 3357.00
  342.12, 3367.00
  340.17, 3347.00
  338.23, 3359.00
  336.28, 3306.00
  334.34, 3315.00
  332.39, 3277.00
  330.44, 3255.00
  328.50, 3284.00
  326.55, 3275.00
  324.60, 3251.00
  322.65, 3239.00
  320.70, 3232.00
  318.75, 3246.00
  316.80, 3231.00
  314.85, 3226.00
  312.90, 3250.00
  310.95, 3201.00
  309.00, 3159.00
  307.05, 3195.00
  305.09, 3161.00
  303.14, 3097.00
  301.19, 3092.00
  299.23, 3103.00
  297.28, 3081.00
  295.32, 3044.00
  293.37, 3033.00
  291.41, 3050.00
  289.46, 3051.00
  287.50, 3055.00
  285.54, 3005.00
  283.59, 3018.00
  281.63, 3018.00
  279.67, 3019.00
  277.71, 3058.00
  275.75, 3035.00
  273.79, 2982.00
  271.83, 2979.00
  269.87, 2974.00
  267.91, 2996.00
  265.95, 2999.00
  263.99, 3007.00
  262.02, 2987.00
  260.06, 2977.00
  258.10, 2950.00
  256.14, 3016.00
  254.17, 2975.00
  252.21, 2973.00
  250.24, 2979.00
  248.28, 3004.00
  246.31, 2995.00
  244.34, 2986.00
  242.38, 3013.00
  240.41, 2993.00
  238.44, 3023.00
  236.48, 3056.00
  234.51, 3036.00
  232.54, 3027.00
  230.57, 3038.00
  228.60, 3032.00
  226.63, 3086.00
  224.66, 3067.00
  222.69, 3080.00
  220.72, 3082.00
  218.74, 3093.00
  216.77, 3135.00
  214.80, 3071.00
  212.82, 3115.00
  210.85, 3155.00
  208.88, 3158.00
  206.90, 3162.00
  204.93, 3161.00
  202.95, 3208.00
  200.98, 3155.00
  199.00, 3156.00
