 1467.21,   908.0
 1466.61,   906.0
 1466.02,   889.0
 1465.43,   883.0
 1464.84,   905.0
 1464.25,   895.0
 1463.65,   877.0
 1463.06,   872.0
 1462.47,   881.0
 1461.87,   877.0
 1461.28,   896.0
 1460.69,   891.0
 1460.10,   909.0
 1459.50,   903.0
 1458.91,   872.0
 1458.32,   908.0
 1457.72,   897.0
 1457.13,   889.0
 1456.54,   861.0
 1455.95,   864.0
 1455.35,   901.0
 1454.76,   874.0
 1454.17,   879.0
 1453.57,   894.0
 1452.98,   873.0
 1452.39,   892.0
 1451.79,   872.0
 1451.20,   859.0
 1450.60,   878.0
 1450.01,   886.0
 1449.42,   881.0
 1448.82,   872.0
 1448.23,   909.0
 1447.64,   877.0
 1447.04,   840.0
 1446.45,   906.0
 1445.85,   889.0
 1445.26,   871.0
 1444.67,   889.0
 1444.07,   851.0
 1443.48,   885.0
 1442.88,   872.0
 1442.29,   867.0
 1441.70,   868.0
 1441.10,   869.0
 1440.51,   881.0
 1439.91,   877.0
 1439.32,   857.0
 1438.72,   844.0
 1438.13,   856.0
 1437.53,   883.0
 1436.94,   865.0
 1436.35,   883.0
 1435.75,   891.0
 1435.16,   862.0
 1434.56,   859.0
 1433.97,   872.0
 1433.37,   851.0
 1432.78,   855.0
 1432.18,   852.0
 1431.59,   844.0
 1430.99,   860.0
 1430.40,   892.0
 1429.80,   879.0
 1429.21,   859.0
 1428.61,   866.0
 1428.02,   842.0
 1427.42,   825.0
 1426.83,   866.0
 1426.23,   866.0
 1425.63,   850.0
 1425.04,   857.0
 1424.44,   842.0
 1423.85,   836.0
 1423.25,   852.0
 1422.66,   870.0
 1422.06,   852.0
 1421.46,   861.0
 1420.87,   874.0
 1420.27,   852.0
 1419.68,   828.0
 1419.08,   872.0
 1418.48,   839.0
 1417.89,   856.0
 1417.29,   852.0
 1416.70,   867.0
 1416.10,   854.0
 1415.50,   821.0
 1414.91,   844.0
 1414.31,   844.0
 1413.71,   850.0
 1413.12,   820.0
 1412.52,   834.0
 1411.93,   840.0
 1411.33,   828.0
 1410.73,   870.0
 1410.14,   834.0
 1409.54,   847.0
 1408.94,   859.0
 1408.35,   845.0
 1407.75,   872.0
 1407.15,   824.0
 1406.55,   830.0
 1405.96,   832.0
 1405.36,   842.0
 1404.76,   852.0
 1404.17,   856.0
 1403.57,   840.0
 1402.97,   823.0
 1402.37,   860.0
 1401.78,   823.0
 1401.18,   846.0
 1400.58,   814.0
 1399.98,   834.0
 1399.39,   838.0
 1398.79,   836.0
 1398.19,   826.0
 1397.60,   870.0
 1397.00,   841.0
 1396.40,   817.0
 1395.80,   856.0
 1395.20,   823.0
 1394.61,   810.0
 1394.01,   819.0
 1393.41,   843.0
 1392.81,   816.0
 1392.21,   803.0
 1391.62,   850.0
 1391.02,   813.0
 1390.42,   784.0
 1389.82,   818.0
 1389.22,   816.0
 1388.62,   830.0
 1388.03,   815.0
 1387.43,   808.0
 1386.83,   823.0
 1386.23,   813.0
 1385.63,   829.0
 1385.03,   817.0
 1384.44,   834.0
 1383.84,   825.0
 1383.24,   826.0
 1382.64,   837.0
 1382.04,   831.0
 1381.44,   815.0
 1380.84,   827.0
 1380.24,   824.0
 1379.65,   827.0
 1379.05,   836.0
 1378.45,   832.0
 1377.85,   825.0
 1377.25,   820.0
 1376.65,   828.0
 1376.05,   799.0
 1375.45,   805.0
 1374.85,   797.0
 1374.25,   819.0
 1373.65,   829.0
 1373.05,   810.0
 1372.45,   827.0
 1371.85,   816.0
 1371.25,   813.0
 1370.65,   805.0
 1370.05,   793.0
 1369.45,   801.0
 1368.86,   802.0
 1368.26,   834.0
 1367.66,   808.0
 1367.06,   798.0
 1366.46,   830.0
 1365.86,   821.0
 1365.26,   844.0
 1364.66,   852.0
 1364.05,   814.0
 1363.45,   813.0
 1362.85,   817.0
 1362.25,   780.0
 1361.65,   819.0
 1361.05,   814.0
 1360.45,   803.0
 1359.85,   844.0
 1359.25,   774.0
 1358.65,   830.0
 1358.05,   787.0
 1357.45,   808.0
 1356.85,   823.0
 1356.25,   793.0
 1355.65,   795.0
 1355.05,   823.0
 1354.45,   794.0
 1353.84,   827.0
 1353.24,   793.0
 1352.64,   800.0
 1352.04,   793.0
 1351.44,   793.0
 1350.84,   804.0
 1350.24,   829.0
 1349.64,   803.0
 1349.04,   823.0
 1348.43,   825.0
 1347.83,   825.0
 1347.23,   820.0
 1346.63,   795.0
 1346.03,   786.0
 1345.43,   809.0
 1344.82,   818.0
 1344.22,   829.0
 1343.62,   829.0
 1343.02,   818.0
 1342.42,   823.0
 1341.82,   806.0
 1341.21,   803.0
 1340.61,   826.0
 1340.01,   791.0
 1339.41,   819.0
 1338.81,   839.0
 1338.20,   810.0
 1337.60,   824.0
 1337.00,   788.0
 1336.40,   825.0
 1335.79,   780.0
 1335.19,   813.0
 1334.59,   820.0
 1333.99,   844.0
 1333.38,   793.0
 1332.78,   813.0
 1332.18,   814.0
 1331.58,   825.0
 1330.97,   818.0
 1330.37,   815.0
 1329.77,   839.0
 1329.16,   795.0
 1328.56,   799.0
 1327.96,   800.0
 1327.36,   823.0
 1326.75,   813.0
 1326.15,   820.0
 1325.55,   809.0
 1324.94,   801.0
 1324.34,   793.0
 1323.74,   810.0
 1323.13,   787.0
 1322.53,   827.0
 1321.93,   787.0
 1321.32,   785.0
 1320.72,   801.0
 1320.12,   801.0
 1319.51,   820.0
 1318.91,   808.0
 1318.31,   805.0
 1317.70,   808.0
 1317.10,   846.0
 1316.49,   821.0
 1315.89,   783.0
 1315.29,   810.0
 1314.68,   785.0
 1314.08,   807.0
 1313.47,   805.0
 1312.87,   834.0
 1312.27,   793.0
 1311.66,   801.0
 1311.06,   803.0
 1310.45,   840.0
 1309.85,   805.0
 1309.24,   823.0
 1308.64,   814.0
 1308.04,   807.0
 1307.43,   830.0
 1306.83,   812.0
 1306.22,   844.0
 1305.62,   834.0
 1305.01,   843.0
 1304.41,   818.0
 1303.80,   814.0
 1303.20,   856.0
 1302.59,   834.0
 1301.99,   829.0
 1301.38,   839.0
 1300.78,   816.0
 1300.17,   813.0
 1299.57,   834.0
 1298.96,   810.0
 1298.36,   837.0
 1297.75,   800.0
 1297.15,   798.0
 1296.54,   840.0
 1295.94,   793.0
 1295.33,   810.0
 1294.73,   842.0
 1294.12,   836.0
 1293.51,   828.0
 1292.91,   861.0
 1292.30,   840.0
 1291.70,   825.0
 1291.09,   846.0
 1290.49,   827.0
 1289.88,   826.0
 1289.27,   846.0
 1288.67,   835.0
 1288.06,   834.0
 1287.46,   842.0
 1286.85,   852.0
 1286.24,   832.0
 1285.64,   838.0
 1285.03,   839.0
 1284.43,   851.0
 1283.82,   827.0
 1283.21,   861.0
 1282.61,   866.0
 1282.00,   859.0
 1281.39,   881.0
 1280.79,   879.0
 1280.18,   857.0
 1279.57,   841.0
 1278.97,   859.0
 1278.36,   840.0
 1277.75,   867.0
 1277.15,   845.0
 1276.54,   867.0
 1275.93,   870.0
 1275.33,   867.0
 1274.72,   886.0
 1274.11,   900.0
 1273.50,   874.0
 1272.90,   851.0
 1272.29,   875.0
 1271.68,   846.0
 1271.07,   877.0
 1270.47,   887.0
 1269.86,   882.0
 1269.25,   881.0
 1268.65,   919.0
 1268.04,   884.0
 1267.43,   903.0
 1266.82,   936.0
 1266.22,   902.0
 1265.61,   903.0
 1265.00,   914.0
 1264.39,   890.0
 1263.78,   907.0
 1263.18,   934.0
 1262.57,   919.0
 1261.96,   940.0
 1261.35,   914.0
 1260.74,   921.0
 1260.14,   925.0
 1259.53,   924.0
 1258.92,   963.0
 1258.31,   939.0
 1257.70,   924.0
 1257.09,   936.0
 1256.49,   924.0
 1255.88,   938.0
 1255.27,   955.0
 1254.66,   956.0
 1254.05,   959.0
 1253.44,   968.0
 1252.83,   958.0
 1252.23,   985.0
 1251.62,   977.0
 1251.01,   989.0
 1250.40,   989.0
 1249.79,   982.0
 1249.18,  1007.0
 1248.57,  1015.0
 1247.96,  1009.0
 1247.35,  1031.0
 1246.74,  1028.0
 1246.14,  1018.0
 1245.53,  1023.0
 1244.92,  1046.0
 1244.31,  1039.0
 1243.70,  1098.0
 1243.09,  1034.0
 1242.48,  1075.0
 1241.87,  1062.0
 1241.26,  1113.0
 1240.65,  1117.0
 1240.04,  1106.0
 1239.43,  1134.0
 1238.82,  1140.0
 1238.21,  1147.0
 1237.60,  1133.0
 1236.99,  1152.0
 1236.38,  1177.0
 1235.77,  1180.0
 1235.16,  1200.0
 1234.55,  1181.0
 1233.94,  1188.0
 1233.33,  1233.0
 1232.72,  1243.0
 1232.11,  1309.0
 1231.50,  1260.0
 1230.89,  1279.0
 1230.28,  1314.0
 1229.67,  1328.0
 1229.06,  1347.0
 1228.45,  1334.0
 1227.84,  1375.0
 1227.23,  1381.0
 1226.62,  1394.0
 1226.01,  1420.0
 1225.39,  1459.0
 1224.78,  1509.0
 1224.17,  1519.0
 1223.56,  1523.0
 1222.95,  1523.0
 1222.34,  1575.0
 1221.73,  1605.0
 1221.12,  1682.0
 1220.51,  1689.0
 1219.89,  1742.0
 1219.28,  1753.0
 1218.67,  1761.0
 1218.06,  1797.0
 1217.45,  1858.0
 1216.84,  1873.0
 1216.23,  1929.0
 1215.62,  1926.0
 1215.00,  1985.0
 1214.39,  2050.0
 1213.78,  2071.0
 1213.17,  2107.0
 1212.56,  2167.0
 1211.94,  2237.0
 1211.33,  2282.0
 1210.72,  2294.0
 1210.11,  2362.0
 1209.50,  2384.0
 1208.88,  2460.0
 1208.27,  2520.0
 1207.66,  2582.0
 1207.05,  2626.0
 1206.44,  2707.0
 1205.82,  2786.0
 1205.21,  2797.0
 1204.60,  2846.0
 1203.99,  2935.0
 1203.37,  3016.0
 1202.76,  3069.0
 1202.15,  3216.0
 1201.54,  3287.0
 1200.92,  3287.0
 1200.31,  3378.0
 1199.70,  3521.0
 1199.09,  3598.0
 1198.47,  3633.0
 1197.86,  3705.0
 1197.25,  3869.0
 1196.63,  3907.0
 1196.02,  3953.0
 1195.41,  4063.0
 1194.79,  4119.0
 1194.18,  4316.0
 1193.57,  4384.0
 1192.95,  4461.0
 1192.34,  4592.0
 1191.73,  4619.0
 1191.11,  4763.0
 1190.50,  4901.0
 1189.89,  4929.0
 1189.27,  5109.0
 1188.66,  5138.0
 1188.05,  5324.0
 1187.43,  5374.0
 1186.82,  5455.0
 1186.21,  5587.0
 1185.59,  5701.0
 1184.98,  5828.0
 1184.36,  6097.0
 1183.75,  6097.0
 1183.14,  6218.0
 1182.52,  6274.0
 1181.91,  6454.0
 1181.29,  6545.0
 1180.68,  6753.0
 1180.07,  6835.0
 1179.45,  6930.0
 1178.84,  7025.0
 1178.22,  7170.0
 1177.61,  7316.0
 1176.99,  7415.0
 1176.38,  7614.0
 1175.76,  7639.0
 1175.15,  7804.0
 1174.53,  8009.0
 1173.92,  8074.0
 1173.30,  8152.0
 1172.69,  8322.0
 1172.08,  8468.0
 1171.46,  8642.0
 1170.85,  8669.0
 1170.23,  8858.0
 1169.62,  8926.0
 1169.00,  9050.0
 1168.38,  9299.0
 1167.77,  9411.0
 1167.15,  9552.0
 1166.54,  9665.0
 1165.92,  9908.0
 1165.31,  9851.0
 1164.69,  9980.0
 1164.08, 10096.0
 1163.46, 10271.0
 1162.85, 10168.0
 1162.23, 10447.0
 1161.62, 10550.0
 1161.00, 10609.0
 1160.38, 10683.0
 1159.77, 10877.0
 1159.15, 11043.0
 1158.54, 11043.0
 1157.92, 11164.0
 1157.30, 11240.0
 1156.69, 11407.0
 1156.07, 11407.0
 1155.46, 11530.0
 1154.84, 11653.0
 1154.22, 11746.0
 1153.61, 11807.0
 1152.99, 11901.0
 1152.37, 11916.0
 1151.76, 12166.0
 1151.14, 12182.0
 1150.53, 12198.0
 1149.91, 12402.0
 1149.29, 12529.0
 1148.68, 12529.0
 1148.06, 12497.0
 1147.44, 12545.0
 1146.82, 12672.0
 1146.21, 12704.0
 1145.59, 12704.0
 1144.97, 12880.0
 1144.36, 12928.0
 1143.74, 12960.0
 1143.12, 13089.0
 1142.51, 13057.0
 1141.89, 13219.0
 1141.27, 13267.0
 1140.65, 13316.0
 1140.04, 13381.0
 1139.42, 13430.0
 1138.80, 13479.0
 1138.18, 13479.0
 1137.57, 13560.0
 1136.95, 13576.0
 1136.33, 13707.0
 1135.71, 13773.0
 1135.10, 13839.0
 1134.48, 13905.0
 1133.86, 13987.0
 1133.24, 14087.0
 1132.63, 14037.0
 1132.01, 14087.0
 1131.39, 14004.0
 1130.77, 14352.0
 1130.15, 14352.0
 1129.54, 14352.0
 1128.92, 14486.0
 1128.30, 14519.0
 1127.68, 14586.0
 1127.06, 14620.0
 1126.44, 14805.0
 1125.82, 15041.0
 1125.21, 14889.0
 1124.59, 15075.0
 1123.97, 15143.0
 1123.35, 15024.0
 1122.73, 15296.0
 1122.11, 15347.0
 1121.49, 15449.0
 1120.88, 15449.0
 1120.26, 15621.0
 1119.64, 15861.0
 1119.02, 15861.0
 1118.40, 15965.0
 1117.78, 16120.0
 1117.16, 16120.0
 1116.54, 16137.0
 1115.92, 16207.0
 1115.30, 16398.0
 1114.69, 16502.0
 1114.07, 16694.0
 1113.45, 16677.0
 1112.83, 16677.0
 1112.21, 16817.0
 1111.59, 16958.0
 1110.97, 17010.0
 1110.35, 17275.0
 1109.73, 17239.0
 1109.11, 17292.0
 1108.49, 17239.0
 1107.87, 17346.0
 1107.25, 17576.0
 1106.63, 17558.0
 1106.01, 17523.0
 1105.39, 17612.0
 1104.77, 17700.0
 1104.15, 17807.0
 1103.53, 17718.0
 1102.91, 17825.0
 1102.29, 17807.0
 1101.67, 17968.0
 1101.05, 17807.0
 1100.43, 17861.0
 1099.81, 17807.0
 1099.19, 17825.0
 1098.57, 17665.0
 1097.95, 17576.0
 1097.33, 17540.0
 1096.71, 17363.0
 1096.09, 17381.0
 1095.46, 17416.0
 1094.84, 17292.0
 1094.22, 17151.0
 1093.60, 17239.0
 1092.98, 16905.0
 1092.36, 16747.0
 1091.74, 16677.0
 1091.12, 16294.0
 1090.50, 16328.0
 1089.88, 15982.0
 1089.26, 15947.0
 1088.63, 15792.0
 1088.01, 15586.0
 1087.39, 15432.0
 1086.77, 15211.0
 1086.15, 14940.0
 1085.53, 14822.0
 1084.91, 14620.0
 1084.28, 14486.0
 1083.66, 14203.0
 1083.04, 13971.0
 1082.42, 13839.0
 1081.80, 13609.0
 1081.17, 13462.0
 1080.55, 13186.0
 1079.93, 13041.0
 1079.31, 12816.0
 1078.69, 12482.0
 1078.07, 12198.0
 1077.44, 12041.0
 1076.82, 11823.0
 1076.20, 11668.0
 1075.58, 11407.0
 1074.95, 11255.0
 1074.33, 11043.0
 1073.71, 10788.0
 1073.09, 10698.0
 1072.46, 10491.0
 1071.84, 10227.0
 1071.22, 10009.0
 1070.60,  9765.0
 1069.97,  9651.0
 1069.35,  9369.0
 1068.73,  9299.0
 1068.11,  9036.0
 1067.48,  8926.0
 1066.86,  8695.0
 1066.24,  8548.0
 1065.61,  8322.0
 1064.99,  8230.0
 1064.37,  7919.0
 1063.74,  7804.0
 1063.12,  7702.0
 1062.50,  7502.0
 1061.87,  7267.0
 1061.25,  7146.0
 1060.63,  6918.0
 1060.00,  6847.0
 1059.38,  6695.0
 1058.76,  6545.0
 1058.13,  6352.0
 1057.51,  6307.0
 1056.89,  6152.0
 1056.26,  6010.0
 1055.64,  5860.0
 1055.02,  5701.0
 1054.39,  5587.0
 1053.77,  5485.0
 1053.14,  5344.0
 1052.52,  5265.0
 1051.90,  5187.0
 1051.27,  5033.0
 1050.65,  4910.0
 1050.02,  4882.0
 1049.40,  4717.0
 1048.77,  4610.0
 1048.15,  4522.0
 1047.53,  4461.0
 1046.90,  4392.0
 1046.28,  4200.0
 1045.65,  4184.0
 1045.03,  4095.0
 1044.40,  3992.0
 1043.78,  3824.0
 1043.15,  3846.0
 1042.53,  3713.0
 1041.90,  3655.0
 1041.28,  3598.0
 1040.65,  3534.0
 1040.03,  3479.0
 1039.40,  3378.0
 1038.78,  3345.0
 1038.15,  3280.0
 1037.53,  3255.0
 1036.90,  3185.0
 1036.28,  3105.0
 1035.65,  3069.0
 1035.03,  2975.0
 1034.40,  2969.0
 1033.78,  2924.0
 1033.15,  2901.0
 1032.53,  2802.0
 1031.90,  2846.0
 1031.27,  2808.0
 1030.65,  2713.0
 1030.02,  2677.0
 1029.40,  2597.0
 1028.77,  2622.0
 1028.15,  2597.0
 1027.52,  2506.0
 1026.89,  2474.0
 1026.27,  2506.0
 1025.64,  2433.0
 1025.02,  2446.0
 1024.39,  2349.0
 1023.76,  2397.0
 1023.14,  2384.0
 1022.51,  2307.0
 1021.88,  2311.0
 1021.26,  2282.0
 1020.63,  2245.0
 1020.01,  2186.0
 1019.38,  2144.0
 1018.75,  2222.0
 1018.13,  2152.0
 1017.50,  2167.0
 1016.87,  2148.0
 1016.25,  2111.0
 1015.62,  2107.0
 1014.99,  2085.0
 1014.36,  2078.0
 1013.74,  2078.0
 1013.11,  2050.0
 1012.48,  1995.0
 1011.86,  1978.0
 1011.23,  1958.0
 1010.60,  1968.0
 1009.97,  1972.0
 1009.35,  1952.0
 1008.72,  1926.0
 1008.09,  1942.0
 1007.47,  1920.0
 1006.84,  1923.0
 1006.21,  1892.0
 1005.58,  1882.0
 1004.96,  1920.0
 1004.33,  1876.0
 1003.70,  1855.0
 1003.07,  1843.0
 1002.44,  1834.0
 1001.82,  1805.0
 1001.19,  1797.0
 1000.56,  1811.0
  999.93,  1832.0
  999.30,  1797.0
  998.68,  1777.0
  998.05,  1797.0
  997.42,  1805.0
  996.79,  1791.0
  996.16,  1758.0
  995.53,  1742.0
  994.91,  1753.0
  994.28,  1734.0
  993.65,  1753.0
  993.02,  1736.0
  992.39,  1723.0
  991.76,  1731.0
  991.13,  1761.0
  990.51,  1689.0
  989.88,  1710.0
  989.25,  1705.0
  988.62,  1702.0
  987.99,  1669.0
  987.36,  1659.0
  986.73,  1684.0
  986.10,  1700.0
  985.47,  1630.0
  984.85,  1662.0
  984.22,  1577.0
  983.59,  1640.0
  982.96,  1614.0
  982.33,  1630.0
  981.70,  1593.0
  981.07,  1635.0
  980.44,  1623.0
  979.81,  1593.0
  979.18,  1568.0
  978.55,  1577.0
  977.92,  1555.0
  977.29,  1557.0
  976.66,  1593.0
  976.03,  1568.0
  975.40,  1529.0
  974.77,  1540.0
  974.14,  1507.0
  973.51,  1511.0
  972.88,  1540.0
  972.25,  1529.0
  971.62,  1509.0
  970.99,  1444.0
  970.36,  1474.0
  969.73,  1490.0
  969.10,  1444.0
  968.47,  1465.0
  967.84,  1459.0
  967.21,  1438.0
  966.58,  1440.0
  965.95,  1459.0
  965.32,  1459.0
  964.69,  1459.0
  964.06,  1446.0
  963.42,  1459.0
  962.79,  1407.0
  962.16,  1436.0
  961.53,  1444.0
  960.90,  1425.0
  960.27,  1444.0
  959.64,  1402.0
  959.01,  1414.0
  958.38,  1432.0
  957.74,  1431.0
  957.11,  1400.0
  956.48,  1391.0
  955.85,  1409.0
  955.22,  1403.0
  954.59,  1372.0
  953.96,  1410.0
  953.33,  1393.0
  952.69,  1429.0
  952.06,  1365.0
  951.43,  1389.0
  950.80,  1394.0
  950.17,  1394.0
  949.53,  1375.0
  948.90,  1379.0
  948.27,  1360.0
  947.64,  1386.0
  947.01,  1400.0
  946.37,  1377.0
  945.74,  1388.0
  945.11,  1359.0
  944.48,  1367.0
  943.85,  1359.0
  943.21,  1367.0
  942.58,  1345.0
  941.95,  1359.0
  941.32,  1347.0
  940.68,  1345.0
  940.05,  1306.0
  939.42,  1278.0
  938.79,  1283.0
  938.15,  1272.0
  937.52,  1286.0
  936.89,  1273.0
  936.25,  1280.0
  935.62,  1231.0
  934.99,  1269.0
  934.35,  1276.0
  933.72,  1234.0
  933.09,  1249.0
  932.46,  1217.0
  931.82,  1198.0
  931.19,  1238.0
  930.56,  1202.0
  929.92,  1196.0
  929.29,  1186.0
  928.66,  1178.0
  928.02,  1147.0
  927.39,  1174.0
  926.75,  1163.0
  926.12,  1169.0
  925.49,  1157.0
  924.85,  1159.0
  924.22,  1108.0
  923.59,  1119.0
  922.95,  1116.0
  922.32,  1106.0
  921.68,  1090.0
  921.05,  1115.0
  920.42,  1119.0
  919.78,  1081.0
  919.15,  1099.0
  918.51,  1066.0
  917.88,  1085.0
  917.24,  1068.0
  916.61,  1070.0
  915.98,  1053.0
  915.34,  1054.0
  914.71,  1078.0
  914.07,  1060.0
  913.44,  1055.0
  912.80,  1050.0
  912.17,  1066.0
  911.53,  1031.0
  910.90,  1042.0
  910.26,  1065.0
  909.63,  1028.0
  908.99,  1018.0
  908.36,  1046.0
  907.72,  1046.0
  907.09,  1029.0
  906.45,  1039.0
  905.82,  1031.0
  905.18,  1011.0
  904.55,  1031.0
  903.91,  1009.0
  903.28,  1033.0
  902.64,  1014.0
  902.01,   975.0
  901.37,   998.0
  900.74,  1031.0
  900.10,  1021.0
  899.46,  1017.0
  898.83,  1047.0
  898.19,  1006.0
  897.56,  1020.0
  896.92,   996.0
  896.28,  1014.0
  895.65,   983.0
  895.01,  1007.0
  894.38,  1033.0
  893.74,   977.0
  893.10,   995.0
  892.47,   991.0
  891.83,   975.0
  891.20,   999.0
  890.56,   990.0
  889.92,   983.0
  889.29,   963.0
  888.65,   976.0
  888.01,  1005.0
  887.38,   996.0
  886.74,   976.0
  886.10,   995.0
  885.47,  1000.0
  884.83,   989.0
  884.19,   999.0
  883.56,   983.0
  882.92,   998.0
  882.28,   990.0
  881.64,   978.0
  881.01,   968.0
  880.37,  1009.0
  879.73,   975.0
  879.10,   936.0
  878.46,   975.0
  877.82,   989.0
  877.18,   992.0
  876.55,  1003.0
  875.91,   967.0
  875.27,   956.0
  874.63,   994.0
  874.00,   969.0
  873.36,   963.0
  872.72,   972.0
  872.08,   955.0
  871.45,   972.0
  870.81,   977.0
  870.17,  1007.7
  869.53,   974.8
  868.89,  1021.9
  868.26,   984.4
  867.62,   976.5
  866.98,   984.7
  866.34,  1002.2
  865.70,  1043.9
  865.06,  1021.8
  864.43,  1044.4
  863.79,  1008.6
  863.15,  1047.0
  862.51,  1018.2
  861.87,  1047.5
  861.23,  1055.4
  860.59,  1051.1
  859.96,  1054.7
  859.32,  1073.2
  858.68,  1087.8
  858.04,  1114.6
  857.40,  1093.3
  856.76,  1073.6
  856.12,  1096.4
  855.48,  1112.1
  854.84,  1109.5
  854.21,  1129.9
  853.57,  1125.1
  852.93,  1133.6
  852.29,  1145.2
  851.65,  1162.8
  851.01,  1164.4
  850.37,  1175.4
  849.73,  1158.9
  849.09,  1178.0
  848.45,  1170.2
  847.81,  1190.3
  847.17,  1235.2
  846.53,  1222.4
  845.89,  1212.9
  845.25,  1222.0
  844.61,  1237.1
  843.97,  1265.6
  843.33,  1283.9
  842.69,  1270.4
  842.05,  1271.5
  841.41,  1304.0
  840.77,  1324.4
  840.13,  1293.6
  839.49,  1319.7
  840.22,  1325.0
  839.59,  1372.0
  838.95,  1345.0
  838.31,  1381.0
  837.68,  1389.0
  837.04,  1420.0
  836.40,  1420.0
  835.77,  1405.0
  835.13,  1431.0
  834.49,  1438.0
  833.86,  1478.0
  833.22,  1447.0
  832.58,  1459.0
  831.94,  1507.0
  831.31,  1480.0
  830.67,  1517.0
  830.03,  1534.0
  829.39,  1519.0
  828.76,  1546.0
  828.12,  1551.0
  827.48,  1635.0
  826.84,  1630.0
  826.21,  1689.0
  825.57,  1659.0
  824.93,  1679.0
  824.29,  1657.0
  823.65,  1695.0
  823.02,  1692.0
  822.38,  1726.0
  821.74,  1718.0
  821.10,  1826.0
  820.46,  1775.0
  819.83,  1805.0
  819.19,  1817.0
  818.55,  1849.0
  817.91,  1917.0
  817.27,  1846.0
  816.63,  1904.0
  816.00,  1923.0
  815.36,  1995.0
  814.72,  1988.0
  814.08,  1998.0
  813.44,  2002.0
  812.80,  2019.0
  812.16,  2050.0
  811.52,  2057.0
  810.88,  2053.0
  810.25,  2144.0
  809.61,  2167.0
  808.97,  2148.0
  808.33,  2186.0
  807.69,  2233.0
  807.05,  2171.0
  806.41,  2214.0
  805.77,  2186.0
  805.13,  2250.0
  804.49,  2262.0
  803.85,  2311.0
  803.21,  2278.0
  802.57,  2311.0
  801.94,  2328.0
  801.30,  2371.0
  800.66,  2341.0
  800.02,  2371.0
  799.38,  2371.0
  798.74,  2384.0
  798.10,  2410.0
  797.46,  2437.0
  796.82,  2406.0
  796.18,  2433.0
  795.54,  2483.0
  794.90,  2497.0
  794.26,  2520.0
  793.62,  2530.0
  792.97,  2520.0
  792.33,  2478.0
  791.69,  2520.0
  791.05,  2597.0
  790.41,  2530.0
  789.77,  2597.0
  789.13,  2582.0
  788.49,  2622.0
  787.85,  2612.0
  787.21,  2592.0
  786.57,  2607.0
  785.93,  2662.0
  785.29,  2677.0
  784.65,  2607.0
  784.00,  2713.0
  783.36,  2662.0
  782.72,  2687.0
  782.08,  2662.0
  781.44,  2646.0
  780.80,  2744.0
  780.16,  2702.0
  779.52,  2723.0
  778.87,  2728.0
  778.23,  2702.0
  777.59,  2718.0
  776.95,  2702.0
  776.31,  2687.0
  775.67,  2760.0
  775.03,  2770.0
  774.38,  2770.0
  773.74,  2749.0
  773.10,  2713.0
  772.46,  2723.0
  771.82,  2702.0
  771.17,  2765.0
  770.53,  2754.0
  769.89,  2702.0
  769.25,  2776.0
  768.60,  2707.0
  767.96,  2770.0
  767.32,  2754.0
  766.68,  2718.0
  766.04,  2687.0
  765.39,  2662.0
  764.75,  2677.0
  764.11,  2667.0
  763.46,  2728.0
  762.82,  2662.0
  762.18,  2677.0
  761.54,  2677.0
  760.89,  2646.0
  760.25,  2636.0
  759.61,  2682.0
  758.96,  2687.0
  758.32,  2622.0
  757.68,  2662.0
  757.04,  2602.0
  756.39,  2607.0
  755.75,  2587.0
  755.11,  2582.0
  754.46,  2549.0
  753.82,  2587.0
  753.18,  2544.0
  752.53,  2515.0
  751.89,  2582.0
  751.24,  2530.0
  750.60,  2446.0
  749.96,  2446.0
  749.31,  2446.0
  748.67,  2446.0
  748.03,  2464.0
  747.38,  2437.0
  746.74,  2433.0
  746.09,  2437.0
  745.45,  2406.0
  744.81,  2397.0
  744.16,  2433.0
  743.52,  2397.0
  742.87,  2328.0
  742.23,  2367.0
  741.58,  2362.0
  740.94,  2362.0
  740.30,  2332.0
  739.65,  2362.0
  739.01,  2286.0
  738.36,  2324.0
  737.72,  2278.0
  737.07,  2266.0
  736.43,  2254.0
  735.78,  2307.0
  735.14,  2307.0
  734.49,  2262.0
  733.85,  2274.0
  733.20,  2262.0
  732.56,  2241.0
  731.91,  2270.0
  731.27,  2229.0
  730.62,  2241.0
  729.98,  2299.0
  729.33,  2274.0
  728.69,  2254.0
  728.04,  2270.0
  727.40,  2294.0
  726.75,  2266.0
  726.10,  2262.0
  725.46,  2274.0
  724.81,  2341.0
  724.17,  2266.0
  723.52,  2311.0
  722.88,  2294.0
  722.23,  2299.0
  721.58,  2307.0
  720.94,  2294.0
  720.29,  2315.0
  719.65,  2299.0
  719.00,  2294.0
  718.35,  2332.0
  717.71,  2332.0
  717.06,  2345.0
  716.42,  2362.0
  715.77,  2362.0
  715.12,  2367.0
  714.48,  2362.0
  713.83,  2406.0
  713.18,  2362.0
  712.54,  2406.0
  711.89,  2388.0
  711.24,  2397.0
  710.60,  2442.0
  709.95,  2410.0
  709.30,  2433.0
  708.66,  2406.0
  708.01,  2460.0
  707.36,  2506.0
  706.71,  2410.0
  706.07,  2451.0
  705.42,  2506.0
  704.77,  2520.0
  704.13,  2506.0
  703.48,  2511.0
  702.83,  2520.0
  702.18,  2492.0
  701.54,  2520.0
  700.89,  2534.0
  700.24,  2549.0
  699.59,  2587.0
  698.94,  2622.0
  698.30,  2549.0
  697.65,  2617.0
  697.00,  2622.0
  696.35,  2582.0
  695.71,  2612.0
  695.06,  2662.0
  694.41,  2636.0
  693.76,  2718.0
  693.11,  2702.0
  692.47,  2744.0
  691.82,  2723.0
  691.17,  2687.0
  690.52,  2754.0
  689.87,  2749.0
  689.22,  2792.0
  688.58,  2776.0
  687.93,  2792.0
  687.28,  2802.0
  686.63,  2862.0
  685.98,  2846.0
  685.33,  2884.0
  684.68,  2846.0
  684.03,  2890.0
  683.39,  2879.0
  682.74,  2918.0
  682.09,  2935.0
  681.44,  2901.0
  680.79,  2918.0
  680.14,  2993.0
  679.49,  2969.0
  678.84,  2929.0
  678.19,  3010.0
  677.54,  3034.0
  676.89,  3057.0
  676.24,  3111.0
  675.59,  3028.0
  674.94,  3075.0
  674.29,  3069.0
  673.65,  3167.0
  673.00,  3142.0
  672.35,  3148.0
  671.70,  3173.0
  671.05,  3160.0
  670.40,  3204.0
  669.75,  3255.0
  669.10,  3204.0
  668.45,  3261.0
  667.80,  3267.0
  667.15,  3255.0
  666.50,  3312.0
  665.84,  3267.0
  665.19,  3267.0
  664.54,  3358.0
  663.89,  3372.0
  663.24,  3339.0
  662.59,  3378.0
  661.94,  3352.0
  661.29,  3412.0
  660.64,  3391.0
  659.99,  3466.0
  659.34,  3486.0
  658.69,  3541.0
  658.04,  3541.0
  657.39,  3569.0
  656.74,  3583.0
  656.08,  3576.0
  655.43,  3655.0
  654.78,  3655.0
  654.13,  3647.0
  653.48,  3727.0
  652.83,  3713.0
  652.18,  3698.0
  651.53,  3764.0
  650.87,  3786.0
  650.22,  3771.0
  649.57,  3794.0
  648.92,  3809.0
  648.27,  3831.0
  647.62,  3892.0
  646.96,  3930.0
  646.31,  3938.0
  645.66,  3930.0
  645.01,  4008.0
  644.36,  3992.0
  643.70,  4168.0
  643.05,  4055.0
  642.40,  4103.0
  641.75,  4209.0
  641.10,  4209.0
  640.44,  4168.0
  639.79,  4250.0
  639.14,  4275.0
  638.49,  4392.0
  637.83,  4461.0
  637.18,  4452.0
  636.53,  4539.0
  635.88,  4478.0
  635.22,  4522.0
  634.57,  4619.0
  633.92,  4636.0
  633.26,  4681.0
  632.61,  4753.0
  631.96,  4744.0
  631.31,  4753.0
  630.65,  4845.0
  630.00,  4910.0
  629.35,  4901.0
  628.69,  4957.0
  628.04,  5042.0
  627.39,  5138.0
  626.73,  5206.0
  626.08,  5324.0
  625.43,  5275.0
  624.77,  5324.0
  624.12,  5424.0
  623.47,  5374.0
  622.81,  5546.0
  622.16,  5536.0
  621.51,  5629.0
  620.85,  5691.0
  620.20,  5817.0
  619.54,  5870.0
  618.89,  5924.0
  618.24,  6021.0
  617.58,  5977.0
  616.93,  6097.0
  616.27,  6274.0
  615.62,  6285.0
  614.96,  6454.0
  614.31,  6533.0
  613.66,  6579.0
  613.00,  6672.0
  612.35,  6777.0
  611.69,  6847.0
  611.04,  6918.0
  610.38,  7061.0
  609.73,  7206.0
  609.07,  7243.0
  608.42,  7341.0
  607.76,  7440.0
  607.11,  7527.0
  606.45,  7652.0
  605.80,  7677.0
  605.14,  7766.0
  604.49,  7919.0
  603.83,  8009.0
  603.18,  8152.0
  602.52,  8191.0
  601.87,  8283.0
  601.21,  8468.0
  600.56,  8601.0
  599.90,  8575.0
  599.25,  8709.0
  598.59,  8763.0
  597.93,  8763.0
  597.28,  8858.0
  596.62,  8885.0
  595.97,  8981.0
  595.31,  9009.0
  594.66,  9009.0
  594.00,  8926.0
  593.34,  9009.0
  592.69,  9009.0
  592.03,  8981.0
  591.38,  9091.0
  590.72,  9077.0
  590.06,  8926.0
  589.41,  8981.0
  588.75,  8872.0
  588.09,  8642.0
  587.44,  8750.0
  586.78,  8682.0
  586.13,  8642.0
  585.47,  8575.0
  584.81,  8468.0
  584.16,  8348.0
  583.50,  8283.0
  582.84,  8335.0
  582.18,  8322.0
  581.53,  8217.0
  580.87,  8178.0
  580.21,  8100.0
  579.56,  8074.0
  578.90,  7919.0
  578.24,  7906.0
  577.59,  7932.0
  576.93,  8009.0
  576.27,  7893.0
  575.61,  7868.0
  574.96,  7868.0
  574.30,  7919.0
  573.64,  7817.0
  572.98,  7932.0
  572.33,  7919.0
  571.67,  7855.0
  571.01,  8009.0
  570.35,  7932.0
  569.70,  7944.0
  569.04,  7906.0
  568.38,  8048.0
  567.72,  7970.0
  567.06,  8009.0
  566.40,  8100.0
  565.75,  8048.0
  565.09,  8074.0
  564.43,  8100.0
  563.77,  8217.0
  563.11,  8296.0
  562.46,  8256.0
  561.80,  8243.0
  561.14,  8322.0
  560.48,  8322.0
  559.82,  8494.0
  559.16,  8494.0
  558.50,  8575.0
  557.85,  8642.0
  557.19,  8655.0
  556.53,  8804.0
  555.87,  8899.0
  555.21,  8995.0
  554.55,  9077.0
  553.89,  9036.0
  553.23,  9341.0
  552.57,  9299.0
  551.91,  9411.0
  551.25,  9566.0
  550.60,  9594.0
  549.94,  9751.0
  549.28,  9865.0
  548.62,  9908.0
  547.96, 10023.0
  547.30, 10256.0
  546.64, 10227.0
  545.98, 10565.0
  545.32, 10520.0
  544.66, 10594.0
  544.00, 10922.0
  543.34, 10877.0
  542.68, 11164.0
  542.02, 11346.0
  541.36, 11468.0
  540.70, 11576.0
  540.04, 11777.0
  539.38, 11947.0
  538.72, 12198.0
  538.06, 12324.0
  537.40, 12466.0
  536.74, 12688.0
  536.08, 12832.0
  535.42, 12912.0
  534.76, 13219.0
  534.10, 13446.0
  533.44, 13560.0
  532.77, 13691.0
  532.11, 13987.0
  531.45, 14186.0
  530.79, 14336.0
  530.13, 14586.0
  529.47, 14788.0
  528.81, 14805.0
  528.15, 15160.0
  527.49, 15432.0
  526.83, 15484.0
  526.16, 15758.0
  525.50, 15706.0
  524.84, 15999.0
  524.18, 16207.0
  523.52, 16276.0
  522.86, 16572.0
  522.20, 16625.0
  521.53, 16677.0
  520.87, 16870.0
  520.21, 16870.0
  519.55, 16870.0
  518.89, 16993.0
  518.23, 16993.0
  517.56, 17098.0
  516.90, 16975.0
  516.24, 17028.0
  515.58, 16958.0
  514.92, 16764.0
  514.25, 16694.0
  513.59, 16590.0
  512.93, 16415.0
  512.27, 16346.0
  511.60, 16259.0
  510.94, 16034.0
  510.28, 15792.0
  509.62, 15655.0
  508.95, 15467.0
  508.29, 15415.0
  507.63, 15126.0
  506.97, 14940.0
  506.30, 14687.0
  505.64, 14503.0
  504.98, 14386.0
  504.31, 14236.0
  503.65, 14103.0
  502.99, 14037.0
  502.33, 13740.0
  501.66, 13724.0
  501.00, 13527.0
  500.34, 13430.0
  499.67, 13186.0
  499.01, 13202.0
  498.35, 13025.0
  497.68, 12784.0
  497.02, 12736.0
  496.36, 12656.0
  495.69, 12561.0
  495.03, 12482.0
  494.36, 12276.0
  493.70, 12151.0
  493.04, 12041.0
  492.37, 11994.0
  491.71, 11823.0
  491.04, 11699.0
  490.38, 11730.0
  489.72, 11653.0
  489.05, 11422.0
  488.39, 11438.0
  487.72, 11285.0
  487.06, 11179.0
  486.40, 11088.0
  485.73, 11073.0
  485.07, 11028.0
  484.40, 10922.0
  483.74, 10922.0
  483.07, 10817.0
  482.41, 10683.0
  481.74, 10758.0
  481.08, 10550.0
  480.41, 10594.0
  479.75, 10447.0
  479.08, 10447.0
  478.42, 10344.0
  477.75, 10358.0
  477.09, 10271.0
  476.42, 10344.0
  475.76, 10212.0
  475.09, 10096.0
  474.43, 10096.0
  473.76, 10023.0
  473.10,  9980.0
  472.43,  9908.0
  471.77,  9894.0
  471.10,  9779.0
  470.44,  9808.0
  469.77,  9822.0
  469.10,  9694.0
  468.44,  9751.0
  467.77,  9566.0
  467.11,  9679.0
  466.44,  9608.0
  465.77,  9538.0
  465.11,  9538.0
  464.44,  9524.0
  463.78,  9524.0
  463.11,  9453.0
  462.44,  9439.0
  461.78,  9369.0
  461.11,  9425.0
  460.45,  9299.0
  459.78,  9453.0
  459.11,  9369.0
  458.45,  9230.0
  457.78,  9313.0
  457.11,  9243.0
  456.45,  9230.0
  455.78,  9160.0
  455.11,  9133.0
  454.45,  9146.0
  453.78,  9119.0
  453.11,  9119.0
  452.44,  9077.0
  451.78,  9077.0
  451.11,  8967.0
  450.44,  9077.0
  449.78,  8940.0
  449.11,  8899.0
  448.44,  8940.0
  447.77,  8899.0
  447.11,  8885.0
  446.44,  8926.0
  445.77,  8804.0
  445.10,  8899.0
  444.44,  8777.0
  443.77,  8750.0
  443.10,  8736.0
  442.43,  8750.0
  441.77,  8682.0
  441.10,  8763.0
  440.43,  8750.0
  439.76,  8750.0
  439.09,  8642.0
  438.43,  8561.0
  437.76,  8642.0
  437.09,  8601.0
  436.42,  8468.0
  435.75,  8561.0
  435.08,  8428.0
  434.42,  8481.0
  433.75,  8468.0
  433.08,  8534.0
  432.41,  8561.0
  431.74,  8362.0
  431.07,  8348.0
  430.40,  8428.0
  429.74,  8335.0
  429.07,  8388.0
  428.40,  8230.0
  427.73,  8283.0
  427.06,  8256.0
  426.39,  8217.0
  425.72,  8230.0
  425.05,  8269.0
  424.38,  8217.0
  423.71,  8191.0
  423.04,  8126.0
  422.38,  8113.0
  421.71,  8139.0
  421.04,  8152.0
  420.37,  8100.0
  419.70,  8113.0
  419.03,  8022.0
  418.36,  8009.0
  417.69,  8009.0
  417.02,  8009.0
  416.35,  7944.0
  415.68,  7855.0
  415.01,  7842.0
  414.34,  7906.0
  413.67,  7855.0
  413.00,  7855.0
  412.33,  7868.0
  411.66,  7868.0
  410.99,  7804.0
  410.32,  7829.0
  409.65,  7842.0
  408.98,  7906.0
  408.31,  7842.0
  407.64,  7740.0
  406.97,  7804.0
  406.30,  7766.0
  405.62,  7702.0
  404.95,  7715.0
  404.28,  7702.0
  403.61,  7639.0
  402.94,  7702.0
  402.27,  7639.0
  401.60,  7564.0
  400.93,  7639.0
  400.26,  7602.0
  399.59,  7514.0
  398.92,  7514.0
  398.24,  7514.0
  397.57,  7464.0
  396.90,  7539.0
  396.23,  7502.0
  395.56,  7415.0
  394.89,  7427.0
  394.22,  7402.0
  393.54,  7477.0
  392.87,  7415.0
  392.20,  7477.0
  391.53,  7464.0
  390.86,  7353.0
  390.18,  7415.0
  389.51,  7402.0
  388.84,  7329.0
  388.17,  7402.0
  387.50,  7329.0
  386.82,  7267.0
  386.15,  7304.0
  385.48,  7402.0
  384.81,  7206.0
  384.14,  7316.0
  383.46,  7243.0
  382.79,  7231.0
  382.12,  7292.0
  381.45,  7231.0
  380.77,  7122.0
  380.10,  7206.0
  379.43,  7243.0
  378.75,  7146.0
  378.08,  7097.0
  377.41,  7206.0
  376.74,  7146.0
  376.06,  7109.0
  375.39,  7122.0
  374.72,  7013.0
  374.04,  7025.0
  373.37,  6942.0
  372.70,  7025.0
  372.02,  7073.0
  371.35,  6954.0
  370.68,  7049.0
  370.00,  6978.0
  369.33,  6978.0
  368.66,  6930.0
  367.98,  6918.0
  367.31,  6954.0
  366.64,  6918.0
  365.96,  6859.0
  365.29,  6824.0
  364.61,  6859.0
  363.94,  6788.0
  363.27,  6824.0
  362.59,  6824.0
  361.92,  6871.0
  361.24,  6824.0
  360.57,  6824.0
  359.90,  6918.0
  359.22,  6800.0
  358.55,  6812.0
  357.87,  6730.0
  357.20,  6742.0
  356.52,  6730.0
  355.85,  6637.0
  355.17,  6672.0
  354.50,  6683.0
  353.83,  6649.0
  353.15,  6765.0
  352.48,  6695.0
  351.80,  6602.0
  351.13,  6660.0
  350.45,  6672.0
  349.78,  6637.0
  349.10,  6614.0
  348.43,  6649.0
  347.75,  6579.0
  347.08,  6579.0
  346.40,  6568.0
  345.72,  6465.0
  345.05,  6579.0
  344.37,  6522.0
  343.70,  6522.0
  343.02,  6465.0
  342.35,  6533.0
  341.67,  6488.0
  341.00,  6420.0
  340.32,  6454.0
  339.64,  6454.0
  338.97,  6454.0
  338.29,  6683.0
  337.62,  6397.0
  336.94,  6375.0
  336.26,  6386.0
  335.59,  6375.0
  334.91,  6375.0
  334.24,  6363.0
  333.56,  6363.0
  332.88,  6307.0
  332.21,  6330.0
  331.53,  6352.0
  330.85,  6454.0
  330.18,  6363.0
  329.50,  6397.0
  328.82,  6397.0
  328.15,  6375.0
  327.47,  6307.0
  326.79,  6274.0
  326.12,  6296.0
  325.44,  6251.0
  324.76,  6240.0
  324.09,  6307.0
  323.41,  6196.0
  322.73,  6274.0
  322.05,  6218.0
  321.38,  6218.0
  320.70,  6207.0
  320.02,  6307.0
  319.34,  6274.0
  318.67,  6274.0
  317.99,  6196.0
  317.31,  6130.0
  316.63,  6185.0
  315.96,  6152.0
  315.28,  6185.0
  314.60,  6207.0
  313.92,  6130.0
  313.25,  6196.0
  312.57,  6185.0
  311.89,  6185.0
  311.21,  6174.0
  310.53,  6097.0
  309.86,  6185.0
  309.18,  6130.0
  308.50,  6141.0
  307.82,  6130.0
  307.14,  6064.0
  306.46,  6152.0
  305.79,  6097.0
  305.11,  6097.0
  304.43,  6108.0
  303.75,  6097.0
  303.07,  6097.0
  302.39,  6097.0
  301.71,  6097.0
  301.03,  6130.0
  300.36,  6064.0
  299.68,  6075.0
  299.00,  6152.0
  298.32,  6010.0
  297.64,  6108.0
  296.96,  6032.0
  296.28,  6097.0
  295.60,  6021.0
  294.92,  6097.0
  294.24,  5977.0
  293.56,  5967.0
  292.88,  5934.0
  292.20,  5956.0
  291.52,  5934.0
  290.85,  5945.0
  290.17,  6032.0
  289.49,  5977.0
  288.81,  6010.0
  288.13,  5934.0
  287.45,  5849.0
  286.77,  5924.0
  286.09,  5892.0
  285.41,  5956.0
  284.73,  5924.0
  284.05,  5956.0
  283.37,  5838.0
  282.69,  5870.0
  282.01,  5956.0
  281.32,  5754.0
  280.64,  5924.0
  279.96,  5881.0
  279.28,  5849.0
  278.60,  5838.0
  277.92,  5934.0
  277.24,  5860.0
  276.56,  5838.0
  275.88,  5785.0
  275.20,  5754.0
  274.52,  5807.0
  273.84,  5796.0
  273.16,  5764.0
  272.47,  5785.0
  271.79,  5838.0
  271.11,  5754.0
  270.43,  5764.0
  269.75,  5764.0
  269.07,  5754.0
  268.39,  5764.0
  267.71,  5754.0
  267.02,  5754.0
  266.34,  5722.0
  265.66,  5754.0
  264.98,  5764.0
  264.30,  5681.0
  263.62,  5701.0
  262.93,  5701.0
  262.25,  5701.0
  261.57,  5660.0
  260.89,  5681.0
  260.21,  5722.0
  259.52,  5701.0
  258.84,  5701.0
  258.16,  5701.0
  257.48,  5764.0
  256.79,  5722.0
  256.11,  5754.0
  255.43,  5712.0
  254.75,  5608.0
  254.07,  5670.0
  253.38,  5670.0
  252.70,  5618.0
  252.02,  5618.0
  251.33,  5649.0
  250.65,  5649.0
  249.97,  5754.0
  249.29,  5691.0
  248.60,  5618.0
  247.92,  5701.0
  247.24,  5649.0
  246.55,  5557.0
  245.87,  5629.0
  245.19,  5681.0
  244.50,  5722.0
  243.82,  5608.0
  243.14,  5701.0
  242.45,  5670.0
  241.77,  5618.0
  241.09,  5701.0
  240.40,  5681.0
  239.72,  5629.0
  239.04,  5754.0
  238.35,  5660.0
  237.67,  5754.0
  236.98,  5649.0
  236.30,  5670.0
  235.62,  5670.0
  234.93,  5608.0
  234.25,  5670.0
  233.57,  5691.0
  232.88,  5598.0
  232.20,  5701.0
  231.51,  5691.0
  230.83,  5670.0
  230.14,  5712.0
  229.46,  5701.0
  228.77,  5670.0
  228.09,  5701.0
  227.41,  5701.0
  226.72,  5701.0
  226.04,  5681.0
  225.35,  5754.0
  224.67,  5722.0
  223.98,  5691.0
  223.30,  5754.0
  222.61,  5608.0
  221.93,  5639.0
  221.24,  5764.0
  220.56,  5754.0
  219.87,  5722.0
  219.19,  5681.0
  218.50,  5639.0
  217.82,  5712.0
  217.13,  5807.0
  216.44,  5681.0
  215.76,  5701.0
  215.07,  5785.0
  214.39,  5701.0
  213.70,  5807.0
  213.02,  5722.0
  212.33,  5817.0
  211.64,  5754.0
  210.96,  5754.0
  210.27,  5785.0
  209.59,  5817.0
  208.90,  5754.0
  208.21,  5754.0
  207.53,  5807.0
  206.84,  5785.0
  206.16,  5775.0
  205.47,  5785.0
  204.78,  5775.0
  204.10,  5881.0
  203.41,  5807.0
  202.72,  5838.0
  202.04,  5785.0
  201.35,  5870.0
  200.66,  5849.0
  199.98,  5817.0
  199.29,  5849.0
