19.3994	8655.77
20.0758	8787.27
20.7522	9095.27
21.4285	9569.27
22.1048	9847.27
22.7811	9385.27
23.4573	10521.3
24.1334	10748.3
24.8095	11038.8
25.4855	11186.3
26.1615	11622.3
26.8375	11884.3
27.5134	11983.3
28.1893	12140.3
28.8651	12136.3
29.5408	12511.8
30.2166	12781.3
30.8922	13162.3
31.5679	13283.3
32.2434	13409.3
32.919	13675.3
33.5945	13925.3
34.2699	14166.3
34.9453	14437.3
35.6206	14721.3
36.2959	14604.3
36.9712	14788.3
37.6464	14865.3
38.3192	14964.3
38.9943	14733.3
39.6694	15333.8
40.3444	15529.3
41.0194	15619.3
41.6943	15682.3
42.3692	15879.3
43.0417	15829.3
43.7165	15756.3
44.3912	16103.3
45.0659	16255.8
45.7405	16553.8
46.4128	16622.3
47.0874	16375.3
47.7619	16596.3
48.4363	16553.3
49.1084	16539.3
49.7828	16623.3
50.4571	16558.3
51.1314	16562.3
51.8033	16407.3
52.4775	16550.8
53.1516	16402.3
53.8234	16568.3
54.4974	16699.3
55.1714	16803.3
55.843	16954.3
56.5169	17015.3
57.1908	16820.3
57.8623	17002.8
58.536	17010.8
59.2074	16999.3
59.8811	16954.3
60.5547	17029.3
61.2259	17343.3
61.8995	17383.3
62.5706	17097.8
63.2441	17134.3
63.9174	16971.3
64.5885	17051.8
65.2618	16592.3
65.9327	16710.3
66.6059	16560.8
67.2767	16580.3
67.9498	16548.3
68.6206	16731.8
69.2936	16602.3
69.9643	16546.3
70.6372	16372.3
71.3077	16527.8
71.9783	16595.3
72.651	16782.4
73.3215	16746.9
73.9941	16558.4
74.6645	16476.3
75.3371	16460.2
76.0073	16978.8
76.6775	16524.3
77.3499	16254.3
78.02	16378.8
78.6901	16362.3
79.3624	16331.8
80.0324	16097.3
80.7023	16304.3
81.3745	16121.3
82.0443	16106.3
82.7141	16083.3
83.3861	15933.8
84.0558	15980.3
84.7254	15783.3
85.3973	15489.3
86.0668	15657.3
86.7364	15814.8
87.4058	15814.8
88.0775	15770.3
88.7469	15605.8
89.4162	15728.3
90.0855	15736.3
90.7547	15477.3
91.4261	15654.3
92.0953	15735.3
92.7644	15746.3
93.4334	15502.3
94.1024	15607.8
94.7713	15335.3
95.4425	15371.3
96.1114	15423.3
96.7802	15353.8
97.449	15381.8
98.1177	15315.3
98.7863	14994.3
99.455	14935.8
100.124	14896.8
100.792	14930.3
101.461	15116.8
102.131	15191.3
102.8	14945.8
103.468	14869.3
104.136	15078.3
104.805	14939.3
105.473	14816.8
106.141	14715.3
106.809	14767.3
107.477	14605.3
108.145	14557.8
108.813	14289.3
109.481	14425.3
110.147	14471.3
110.814	14613.8
111.482	15173.3
112.15	14407.3
112.818	15036.3
113.485	14729.3
114.153	14683.3
114.821	14487.3
115.488	14313.8
116.156	13989.8
116.821	13935.3
117.488	13948.3
118.155	13694.8
118.823	13752.8
119.49	13675.3
120.157	13770.8
120.822	13621.8
121.489	13497.3
122.156	13552.8
122.823	13266.8
123.49	13507.3
124.155	13691.3
124.822	13651.8
125.488	13781.8
126.155	13672.3
126.82	13489.8
127.486	13272.3
128.153	13509.3
128.817	13422.8
129.484	13489.3
130.15	13393.3
130.817	13386.8
131.481	13346.8
132.147	13286.3
132.811	13239.3
133.478	13253.8
134.144	13337.3
134.808	13286.3
135.474	13130.3
136.14	12999.8
136.804	12913.8
137.47	12931.3
138.133	12887.3
138.799	12879.3
139.463	13092.3
140.129	12666.8
140.795	12712.3
141.458	12512.3
142.124	12418.8
142.787	12419.3
143.453	12636.3
144.116	12638.3
144.781	12558.3
145.445	12606.8
146.11	12439.3
146.773	12491.8
147.436	12484.3
148.101	12561.3
148.764	12700.3
149.429	12382.3
150.092	12152.3
150.757	12206.8
151.42	11787.3
152.083	12270.3
152.748	12257.3
153.41	12266.3
154.075	12146.8
154.738	12210.3
155.4	12152.3
156.065	12046.3
156.727	11903.3
157.39	12066.3
158.054	12003.8
158.717	11915.8
159.379	12042.8
160.041	11803.3
160.705	11785.3
161.367	11747.8
162.03	12044.3
162.692	11728.3
163.356	11737.8
164.018	11671.3
164.679	11447.8
165.341	11557.8
166.005	11543.3
166.667	11511.8
167.329	11757.3
167.99	11695.3
168.652	11721.8
169.313	11647.3
169.977	11575.3
170.639	11518.8
171.3	11760.3
171.961	11564.3
172.623	11705.8
173.284	11587.3
173.945	11497.3
174.606	11485.3
175.267	11202.3
175.931	11419.3
176.592	11642.3
177.253	11437.3
177.914	11319.8
178.575	11412.8
179.236	11292.8
179.896	11467.3
180.557	11579.3
181.218	11359.3
181.879	11448.8
182.539	11511.8
183.2	11289.8
183.86	11475.8
184.521	11031.3
185.181	11272.3
185.839	11331.8
186.5	11336.8
187.16	11066.8
187.82	11241.3
188.48	10910.3
189.141	11376.8
189.801	11310.3
190.461	11449.8
191.121	11479.3
191.779	11421.8
192.439	11406.3
193.098	11291.8
193.758	11435.3
194.418	11507.3
195.078	11560.8
195.735	11555.3
196.395	11493.8
197.055	11374.3
197.714	11501.8
198.374	11404.8
199.031	11363.3
199.691	11574.8
200.35	11540.8
201.009	11261.3
201.666	11131.3
202.326	11201.8
202.985	11315.8
203.642	11370.8
204.301	11546.3
204.96	11466.8
205.617	11368.3
206.276	11439.3
206.935	11415.8
207.591	11453.8
208.25	11594.8
208.909	11455.3
209.566	11565.8
210.224	11476.3
210.881	11538.3
211.539	11442.3
212.196	11467.8
212.854	11691.3
213.513	11553.3
214.169	11699.3
214.827	11635.3
215.483	11593.3
216.142	11637.8
216.798	11492.3
217.456	11585.3
218.112	11518.3
218.77	11694.8
219.426	11663.3
220.084	11616.3
220.74	11630.8
221.398	11646.3
222.053	11629.8
222.709	11885.8
223.367	11888.3
224.022	11847.8
224.68	11801.3
225.336	11658.3
225.991	11686.3
226.649	11647.8
227.304	11583.8
227.961	11801.8
228.617	11639.3
229.272	11679.3
229.929	11807.3
230.584	11785.8
231.239	11740.8
231.897	11814.3
232.551	11917.8
233.206	11700.3
233.861	11972.3
234.518	12088.8
235.173	12052.8
235.828	12256.8
236.482	12151.3
237.139	12219.3
237.794	12285.8
238.449	12238.3
239.103	12267.3
239.757	12206.8
240.414	12103.3
241.069	12078.3
241.723	12391.3
242.377	12332.3
243.031	12289.3
243.686	12335.3
244.342	12300.3
244.996	12208.3
245.65	12173.3
246.304	12492.8
246.958	12476.3
247.612	12653.3
248.266	12622.8
248.92	12542.3
249.573	12537.3
250.227	12614.3
250.881	12547.3
251.535	12683.3
252.188	12689.3
252.842	12800.3
253.495	12616.8
254.149	12787.8
254.802	12887.8
255.456	12954.3
256.109	12834.3
256.762	12849.3
257.415	12906.8
258.069	13034.3
258.722	12748.3
259.375	12880.8
260.028	12933.8
260.681	13013.3
261.334	13091.3
261.987	13076.8
262.64	13117.8
263.29	13063.3
263.943	13035.3
264.596	13154.3
265.249	13437.3
265.901	13376.3
266.554	13284.3
267.204	13099.8
267.857	13084.3
268.509	13017.3
269.162	13026.3
269.814	13476.8
270.464	13096.3
271.117	13482.8
271.769	13369.3
272.421	13265.8
273.071	13138.3
273.723	13389.8
274.375	13544.3
275.025	13491.3
275.677	13574.8
276.329	13424.3
276.979	13529.3
277.631	13492.3
278.283	13551.8
278.932	13694.3
279.584	13879.8
280.236	13815.3
280.885	13818.3
281.537	13767.8
282.188	13720.3
282.838	13813.3
283.489	13989.3
284.138	14007.8
284.79	14067.3
285.439	13815.3
286.09	13834.3
286.739	13853.3
287.39	13966.3
288.041	14165.3
288.69	14073.3
289.341	14180.3
289.99	14142.3
290.639	14103.3
291.29	13905.8
291.939	14134.8
292.589	13871.3
293.238	13801.3
293.889	13999.3
294.537	13621.3
295.188	13567.3
295.836	13548.8
296.485	13754.3
297.135	13691.3
297.784	13799.3
298.434	14380.3
299.082	14383.3
299.73	14347.8
300.381	14301.3
301.029	14300.3
301.677	14492.3
302.327	14428.8
302.975	14531.3
303.623	14500.8
304.271	14383.3
304.921	14213.3
305.568	14487.3
306.216	14420.8
306.866	14689.3
307.513	14605.8
308.161	14671.3
308.809	14724.3
309.456	14470.3
310.106	14488.3
310.753	14533.8
311.4	14603.3
312.048	14719.8
312.695	14814.3
313.344	14647.3
313.992	14766.8
314.639	14644.3
315.286	14747.8
315.933	14932.8
316.58	14699.3
317.227	14768.3
317.874	14884.8
318.521	15034.3
319.17	14724.3
319.816	14791.8
320.463	15067.8
321.11	15031.3
321.757	15092.8
322.403	15162.8
323.05	15008.3
323.696	14967.3
324.343	14905.3
324.989	15058.8
325.636	15211.3
326.282	15303.3
326.928	15076.3
327.574	15134.3
328.221	15036.3
328.867	15189.3
329.511	15096.3
330.157	15270.3
330.803	15423.3
331.449	15266.8
332.095	15121.3
332.741	15315.3
333.387	15147.3
334.032	15417.3
334.678	15349.8
335.322	15354.3
335.967	15556.3
336.613	15494.3
337.259	15408.8
337.904	15264.8
338.547	15633.8
339.193	15481.3
339.838	15750.8
340.484	15992.3
341.129	15813.3
341.772	15644.3
342.417	15574.3
343.062	15662.3
343.705	15749.3
344.351	15944.3
344.996	16028.3
345.641	16037.3
346.283	16165.8
346.928	15786.3
347.573	15934.8
348.216	15999.3
348.861	16133.3
349.505	16122.8
350.148	16311.3
350.793	16231.3
351.435	16115.8
352.08	15984.3
352.724	16129.8
353.367	15991.3
354.011	16268.3
354.653	16313.3
355.298	16465.8
355.94	16366.8
356.584	16236.3
357.226	16290.3
357.87	16533.3
358.512	16583.3
359.156	16451.3
359.798	16735.3
360.442	16629.3
361.084	16602.8
361.728	16462.8
362.37	16635.8
363.013	16682.3
363.655	16977.8
364.299	16777.3
364.94	16741.3
365.582	16857.3
366.225	16600.8
366.867	16645.3
367.51	16908.3
368.152	16989.3
368.793	16997.3
369.436	16979.3
370.078	17083.3
370.719	17021.3
371.362	16985.3
372.003	17221.3
372.644	17308.3
373.287	17237.3
373.928	17244.3
374.569	17398.3
375.21	17033.3
375.853	17325.8
376.493	17279.3
377.134	17534.3
377.775	17350.3
378.418	17127.8
379.058	17475.3
379.699	17406.3
380.339	17407.3
380.98	17318.8
381.62	17476.3
382.263	17567.3
382.903	17823.3
383.543	17853.3
384.183	17459.3
384.823	17503.3
385.464	17508.3
386.104	17804.3
386.744	17902.3
387.386	18009.3
388.026	17842.3
388.666	17920.8
389.306	17899.8
389.945	17756.3
390.585	17800.3
391.225	18052.3
391.865	18253.3
392.504	18128.3
393.144	18093.3
393.784	18055.3
394.423	17913.3
395.063	18035.3
395.702	18422.3
396.341	18432.8
396.981	18402.3
397.62	18381.8
398.259	18573.3
398.896	18295.8
399.536	18472.8
400.175	18399.3
400.814	18616.3
401.453	18717.8
402.092	18650.3
402.731	18809.3
403.37	18742.3
404.006	18628.8
404.645	18473.3
405.284	18841.8
405.923	18997.3
406.562	18768.3
407.2	18927.3
407.837	18844.3
408.475	18760.8
409.114	18999.3
409.752	19114.3
410.388	19361.3
411.027	19297.8
411.665	19248.3
412.301	19102.3
412.94	18729.3
413.578	19237.3
414.216	19309.3
414.852	19293.8
415.49	19457.3
416.128	19377.8
416.764	19306.3
417.402	19263.3
418.04	19234.8
418.676	19419.3
419.314	19618.8
419.949	19901.8
420.587	19665.3
421.225	19908.8
421.86	19673.3
422.498	19735.3
423.133	19710.3
423.771	19806.3
424.406	19714.8
425.043	19644.8
425.679	19597.3
426.316	19726.3
426.951	19830.8
427.589	20054.3
428.224	20283.8
428.861	20436.8
429.496	20468.3
430.133	20499.8
430.768	20308.3
431.405	20447.3
432.04	20553.3
432.674	20426.3
433.311	20853.8
433.946	20882.3
434.583	21367.3
435.217	20980.3
435.852	20721.3
436.489	20864.3
437.123	20970.3
437.758	20940.3
438.394	21115.3
439.028	21261.3
439.663	20953.3
440.299	21424.3
440.933	21153.3
441.568	21181.3
442.202	21304.3
442.838	21692.3
443.472	21565.3
444.106	21594.3
444.74	21544.8
445.376	21382.3
446.01	21315.8
446.644	21364.3
447.277	21638.8
447.911	21859.3
448.547	21849.3
449.181	21564.3
449.814	21774.8
450.448	21666.3
451.081	21745.3
451.715	21876.8
452.348	21983.3
452.984	21905.3
453.617	21995.8
454.251	21680.3
454.884	21836.3
455.517	21972.3
456.15	21871.3
456.784	22209.3
457.417	22211.3
458.05	22039.8
458.683	22060.3
459.316	21926.3
459.949	21959.8
460.582	22083.3
461.214	22195.3
461.847	22170.3
462.48	22418.8
463.113	22192.8
463.745	21997.3
464.378	22002.8
465.011	22023.3
465.643	22486.3
466.276	22314.3
466.906	22433.3
467.538	22374.3
468.171	22225.3
468.803	21918.3
469.435	22246.8
470.068	22179.3
470.7	22505.8
471.33	22472.3
471.962	22731.8
472.594	22588.8
473.226	22405.3
473.858	22307.8
474.488	22457.8
475.12	22630.8
475.752	22521.3
476.384	22772.3
477.013	22716.3
477.645	22577.3
478.277	22479.3
478.908	22811.8
479.538	22835.3
480.169	22959.8
480.801	23075.3
481.43	23040.8
482.062	22835.3
482.693	22750.8
483.322	23004.8
483.954	22849.3
484.585	22760.8
485.214	22838.3
485.845	22760.3
486.474	22752.3
487.105	22577.3
487.736	22281.3
488.365	22327.3
488.996	22436.3
489.625	22676.8
490.256	22636.8
490.885	22293.3
491.515	22060.3
492.144	21633.8
492.775	21454.3
493.403	21496.3
494.034	21671.3
494.662	21452.8
495.293	21264.8
495.921	20934.3
496.552	20859.3
497.18	20712.8
497.81	20527.3
498.439	20503.3
499.067	20323.3
499.697	20169.3
500.325	19835.3
500.955	19752.3
501.583	19431.3
502.211	18776.3
502.841	18814.8
503.469	18595.3
504.097	18313.8
504.727	18380.8
505.355	18269.3
505.982	17651.3
506.61	17468.3
507.24	17298.8
507.867	17244.3
508.495	16945.3
509.124	16878.3
509.752	16754.3
510.379	16276.3
511.007	15759.3
511.634	15847.3
512.263	15751.3
512.891	15435.3
513.518	15209.3
514.145	15016.3
514.772	14721.3
515.399	14399.3
516.028	14180.3
516.655	13960.3
517.282	13990.3
517.909	13724.3
518.536	13616.3
519.163	13454.8
519.789	13184.3
520.416	13012.3
521.043	12830.3
521.669	12609.8
522.298	12438.3
522.925	12264.8
523.551	12282.3
524.178	11977.8
524.804	11902.3
525.431	11666.3
526.057	11711.8
526.683	11607.8
527.31	11549.3
527.934	11382.8
528.56	11179.8
529.186	11088.3
529.812	10940.3
530.438	10766.8
531.064	10690.3
531.69	10760.3
532.316	10762.3
532.942	10510.3
533.568	10467.3
534.194	9996.77
534.817	10080.8
535.443	9987.27
536.069	10191.3
536.694	10111.8
537.32	10163.3
537.943	9929.27
538.569	9843.27
539.194	9514.77
539.82	9579.27
540.445	9570.77
541.068	9722.27
541.694	9650.77
542.319	9505.27
542.944	9415.27
543.567	9378.27
544.192	9315.27
544.817	9312.27
545.44	9379.5
546.065	9302.8
546.69	9216.47
547.313	9085.87
547.938	9078.27
548.563	8989.06
549.185	9002.67
549.81	9071.63
550.433	9090.91
551.057	8962.9
551.682	9146.75
552.305	9133.69
552.929	8810.22
553.551	8826.04
554.176	8955.85
554.798	9008.94
555.423	9084.42
556.047	9069.79
556.669	9054.52
557.293	8930.3
557.915	9161.91
558.537	9074.63
559.162	9088.52
559.784	9171.96
560.408	9300.63
561.03	9349.84
561.654	9306.36
562.275	9206.46
562.899	9294.71
563.521	9267.99
564.143	9284.69
564.766	9413.64
565.388	9347.88
566.009	9465.54
566.633	9475.91
567.255	9433.06
567.878	9461.54
568.5	9508.67
569.121	9476.04
569.742	9548.47
570.366	9561.55
570.987	9584.73
571.608	9579.86
572.231	9438.63
572.852	9594.74
573.473	9428.33
574.094	9631.26
574.717	9399.88
575.338	9532.86
575.959	9518.23
576.58	9436.19
577.201	9435.88
577.822	9250.15
578.445	9373.77
579.065	9351.78
579.686	9358.96
580.306	9194.75
580.927	9227.03
581.548	9016.38
582.168	9013.49
582.791	9064.42
583.411	9064.67
584.031	9170.64
584.652	9069.29
585.272	9021.41
585.892	8947.8
586.512	8788.8
587.132	8913.88
587.753	8872.93
588.373	8918.32
588.993	8820.6
589.613	8705.46
590.233	8685.09
590.852	8695.58
591.472	8618.86
592.092	8535.51
592.712	8517.36
593.332	8523.98
593.951	8437.38
594.569	8320.22
595.188	8287.46
595.808	8116.2
596.427	8100.31
597.047	8074.61
597.666	8054.19
598.286	7934.81
598.905	7851.86
599.522	7814.85
600.142	7673.47
600.761	7615.71
601.38	7597.53
601.999	7585.82
602.616	7458.41
603.235	7532.11
603.854	7379.69
604.473	7277.95
605.09	7188.26
605.709	7186.42
606.328	7118.62
606.947	7048.07
607.563	7017.92
608.182	6863.93
608.801	6777.53
609.417	6612.49
610.036	6655.1
610.655	6529.64
611.271	6523.6
611.89	6563.87
612.508	6553.09
613.124	6414
613.743	6356.47
614.359	6269.49
614.977	6181.02
615.595	6224.35
616.212	6184.3
616.83	6114.01
617.446	6070.21
618.064	5994.58
618.68	5945.04
619.298	5836.15
619.914	5803.95
620.532	5854.82
621.147	5691.62
621.765	5717.02
622.381	5741.09
622.999	5641.57
623.614	5624.38
624.23	5563.96
624.847	5396.92
625.463	5545.2
626.08	5480.89
626.696	5433.75
627.311	5341.17
627.929	5321.89
628.544	5264.81
629.161	5265.87
629.776	5176.59
630.392	5182.37
631.009	5106.08
631.624	5156.28
632.239	5160.41
632.854	5114.89
633.471	5020.42
634.086	4907.51
634.701	4981.46
635.318	5009.13
635.932	4993.08
636.547	4864.36
637.162	4824.09
637.777	4758.84
638.393	4751.52
639.008	4730.2
639.622	4665.29
640.237	4726.65
640.851	4721.23
641.468	4576.59
642.082	4590.84
642.697	4528.62
643.311	4496.08
643.925	4529.88
644.539	4439.76
645.154	4626.38
645.768	4543.87
646.382	4505.66
646.996	4485.85
647.612	4430.1
648.226	4509.48
648.84	4481.63
649.454	4081.54
650.068	4422.11
650.682	4457.69
651.295	4264.25
651.909	4284.2
652.523	4259.51
653.136	4263.85
653.75	4302.42
654.361	4317.65
654.975	4299.33
655.589	4318.13
656.202	4243.35
656.815	4248.99
657.429	4198.66
658.042	4156.24
658.655	4050.53
659.269	4159.45
659.882	4186.98
660.493	4167.69
661.106	3926.51
661.719	4013
662.332	4061.64
662.945	4008.22
663.556	3915.68
664.169	4170.15
664.782	4124.56
665.395	4101.79
666.007	3986.75
666.618	4025.19
667.231	4066.13
667.843	4006.02
668.454	4006.99
669.067	4047.06
669.679	4018.98
670.292	3983.07
670.902	4004.03
671.514	3969.14
672.125	3988.23
672.423	3937.23
673.044	4009.23
673.665	3940.23
674.286	3998.73
674.907	3977.73
675.528	3863.23
676.148	3983.73
676.769	3883.23
677.388	3898.23
678.008	3949.73
678.629	3841.23
679.249	3856.73
679.87	3757.23
680.49	3878.23
681.111	3826.23
681.731	3820.23
682.349	3856.23
682.97	3881.23
683.59	3832.23
684.21	3780.73
684.83	3685.23
685.448	3701.23
686.068	3814.73
686.688	3770.73
687.308	3851.73
687.926	3802.23
688.546	3824.23
689.166	3809.73
689.786	3785.23
690.404	3793.23
691.023	3726.23
691.643	3830.23
692.26	3842.23
692.88	3783.23
693.5	3806.73
694.117	3792.23
694.737	3716.23
695.356	3757.73
695.973	3835.23
696.593	3817.23
697.21	3787.73
697.829	3753.23
698.449	3738.73
699.066	3746.23
699.685	3715.73
700.302	3696.23
700.921	3826.23
701.538	3759.23
702.157	3723.73
702.774	3744.23
703.393	3718.23
704.009	3809.23
704.628	3665.73
705.245	3694.73
705.864	3719.23
706.48	3701.23
707.099	3716.73
707.716	3785.23
708.334	3648.23
708.951	3703.23
709.569	3633.23
710.185	3700.23
710.802	3866.23
711.42	3803.23
712.036	3665.23
712.653	3769.23
713.271	3769.23
713.887	3787.23
714.505	3766.23
715.121	3788.73
715.737	3764.23
716.355	3863.73
716.971	3691.23
717.587	3749.23
718.203	3608.23
718.821	3760.73
719.437	3763.23
720.052	3746.73
720.67	3816.73
721.286	3744.73
721.901	3711.73
722.517	3728.73
723.132	3705.23
723.75	3716.73
724.365	3772.23
724.981	3783.23
725.596	3793.73
726.211	3763.23
726.829	3850.23
727.444	3839.23
728.059	3738.73
728.674	3695.73
729.289	3877.73
729.904	3788.73
730.519	3716.23
731.134	3833.73
731.751	3754.73
732.366	3690.23
732.981	3759.23
733.596	3677.73
734.211	3909.23
734.826	3386.23
735.44	3790.23
736.055	3724.73
736.669	3683.23
737.284	3620.23
737.899	3774.73
738.513	3783.23
739.128	3839.73
739.742	3761.73
740.356	3677.23
740.971	3647.73
741.585	3658.73
742.199	3554.23
742.813	3564.23
743.427	3678.23
744.039	3712.73
744.654	3696.23
745.268	3640.23
745.882	3624.23
746.496	3715.73
747.109	3711.23
747.723	3792.23
748.337	3740.23
748.949	3810.73
749.563	3757.23
750.176	3751.23
750.79	3745.23
751.404	3752.23
752.015	3750.23
752.629	3856.73
753.242	3666.23
753.856	3708.23
754.467	3751.23
755.08	3806.73
755.694	3833.73
756.307	3756.23
756.918	3831.23
757.531	3742.23
758.145	3763.23
758.756	3830.23
759.369	3798.23
759.982	3714.23
760.593	3832.73
761.206	3796.23
761.819	3840.23
762.43	3847.73
763.042	3806.23
763.655	3871.23
764.266	3863.23
764.879	3814.23
765.489	3823.73
766.102	3918.23
766.713	3890.23
767.325	3899.23
767.938	3918.23
768.548	3851.73
769.161	3871.73
769.771	3897.23
770.383	3818.23
770.993	3921.23
771.606	4059.73
772.216	4055.73
772.828	4061.23
773.438	3992.23
774.048	4004.23
774.66	3833.23
775.27	4018.23
775.882	3937.73
776.492	3971.23
777.104	3927.73
777.714	4092.73
778.324	3984.23
778.936	3945.73
779.545	4010.23
780.155	3977.23
780.767	4019.23
781.376	4007.73
781.986	4085.73
782.597	3951.23
783.207	3936.23
783.816	3919.73
784.427	3958.23
785.037	3989.23
785.646	4032.73
786.257	3955.23
786.867	3973.73
787.476	4030.23
788.085	3896.23
788.694	3975.23
789.305	3913.23
789.914	4094.23
790.523	4100.73
791.132	4046.23
791.741	3996.23
792.352	3879.23
792.961	3920.23
793.569	3927.73
794.178	3962.73
794.787	3999.23
795.395	4096.23
796.004	3948.73
796.615	4029.23
797.223	3860.23
797.832	3880.73
798.44	3939.23
799.048	3904.73
799.657	3932.23
800.265	3923.73
800.873	3801.23
801.482	3915.23
802.09	3819.73
802.698	3816.23
803.306	3801.23
803.914	3777.73
804.522	3750.73
805.13	3719.23
805.738	3607.73
806.346	3568.23
806.954	3507.73
807.562	3523.23
808.17	3657.23
808.777	3646.23
809.385	3729.23
809.993	3693.23
810.598	3644.73
811.206	3589.23
811.813	3519.23
812.421	3406.73
813.028	3579.73
813.636	3468.23
814.243	3473.23
814.849	3443.23
815.456	3432.23
816.063	3412.23
816.67	3386.23
817.278	3401.73
817.883	2928.23
818.49	3292.23
819.097	3348.23
819.704	3238.73
820.309	3251.23
820.916	3163.73
821.523	3091.23
822.13	3085.23
822.734	3015.23
823.341	2943.73
823.948	3060.23
824.553	2978.23
825.159	2956.73
825.766	2934.23
826.37	2922.23
826.977	2852.73
827.583	2853.23
828.188	2887.23
828.794	2784.23
829.399	2783.73
830.005	2696.23
830.609	2708.23
831.216	2644.73
831.822	2655.23
832.426	2638.23
833.032	2616.23
833.636	2614.73
834.242	2542.73
834.846	2466.73
835.452	2445.23
836.056	2429.23
836.662	2420.73
837.266	2418.23
837.872	2378.23
838.475	2354.73
839.081	2431.73
839.685	2337.23
840.288	2285.73
840.894	2245.73
841.497	2328.23
842.103	2301.73
842.707	2273.23
843.31	2261.23
843.915	2241.73
844.519	2276.23
845.124	2221.23
845.727	2156.23
846.331	2225.73
846.936	2217.73
847.539	2254.73
848.142	2224.23
848.745	2132.23
849.35	2201.73
849.953	2135.23
850.556	2137.73
851.161	2175.23
851.764	2191.23
852.367	2186.23
852.97	2119.23
853.572	2075.23
854.177	2140.23
854.78	2108.73
855.382	2075.23
855.985	2110.23
856.587	2089.23
857.192	2144.23
857.794	2083.23
858.397	2122.73
858.999	2127.23
859.602	2082.23
860.204	2037.73
860.806	2082.23
861.408	2114.23
862.013	2095.73
862.615	2110.73
863.217	2064.73
863.819	2086.23
864.421	2084.23
865.023	2106.73
865.625	2116.73
866.227	2067.23
866.829	2087.73
867.431	2022.23
868.032	2083.23
868.634	2104.23
869.236	2083.23
869.838	2089.73
870.439	2078.23
871.041	2093.73
871.642	2112.73
872.244	2047.73
872.843	2112.73
873.445	2106.73
874.046	2073.23
874.648	2100.23
875.249	2043.23
875.85	2024.23
876.451	2061.23
877.053	2074.73
877.652	2118.73
878.253	2107.73
878.854	2106.23
879.455	2038.23
880.056	2124.23
880.655	2140.73
881.256	2092.73
881.857	2094.23
882.458	2110.73
883.056	2104.23
883.657	2085.73
884.258	2083.23
884.858	2156.23
885.457	2119.23
886.058	2171.23
886.658	2107.23
887.257	2116.23
887.857	2130.23
888.458	2130.73
889.056	2116.23
889.656	2123.23
890.257	2077.23
890.855	2124.23
891.455	2125.73
892.055	2157.23
892.654	2123.23
893.254	2137.73
893.852	2187.73
894.452	2144.23
895.052	2191.73
895.65	2170.73
896.25	2164.73
896.848	2181.73
897.448	2153.23
898.045	2109.23
898.645	2179.23
899.243	2125.23
899.842	2148.23
900.44	2241.23
901.04	2159.73
901.637	2215.23
902.235	2153.23
902.834	2238.23
903.432	2255.73
904.031	2217.23
904.628	2263.23
905.228	2188.23
905.825	2276.73
906.422	2220.23
907.022	2222.23
907.619	2254.73
908.216	2260.23
908.815	2284.23
909.412	2241.23
910.009	2217.23
910.608	2264.73
911.205	2285.23
911.802	2280.73
912.401	2298.23
912.997	2300.23
913.594	2354.73
914.191	2320.23
914.79	2360.23
915.386	2317.23
915.983	2303.73
916.58	2373.23
917.176	2334.23
917.775	2372.73
918.371	2318.23
918.967	2349.23
919.564	2318.23
920.16	2308.73
920.756	2382.23
921.355	2451.23
921.951	2429.23
922.547	2446.23
923.143	2491.23
923.739	2412.73
924.336	2475.23
924.932	2465.23
925.528	2458.73
926.123	2458.23
926.719	2504.73
927.315	2511.23
927.911	2404.73
928.507	2475.73
929.103	2493.23
929.698	2589.23
930.294	2583.73
930.89	2623.23
931.485	2637.73
932.081	2670.73
932.676	2632.23
933.272	2640.23
933.867	2650.23
934.463	2726.23
935.058	2756.23
935.653	2669.23
936.249	2814.23
936.844	2763.23
937.439	2637.23
938.032	2794.73
938.627	2828.73
939.222	2804.73
939.818	2883.23
940.413	2834.23
941.008	2839.23
941.6	2943.73
942.195	2923.73
942.79	2956.23
943.385	2918.23
943.98	2989.73
944.572	3023.23
945.167	2999.23
945.762	3057.23
946.357	2907.73
946.949	3007.23
947.544	3030.73
948.138	2947.73
948.73	3097.23
949.325	3197.23
949.919	3143.23
950.512	3198.23
951.106	3235.23
951.7	3246.23
952.292	3153.23
952.887	3266.23
953.481	3335.73
954.073	3301.23
954.667	3346.73
955.259	3387.73
955.853	3382.23
956.445	3390.23
957.039	3399.23
957.633	3437.73
958.225	3435.23
958.818	3491.73
959.41	3525.23
960.004	3579.23
960.596	3610.23
961.189	3625.23
961.781	3532.23
962.374	3634.23
962.966	3554.23
963.557	3707.23
964.151	3635.23
964.742	3609.23
965.336	3733.23
965.927	3760.23
966.52	3760.23
967.112	3767.23
967.703	3838.23
968.296	3834.23
968.887	3783.23
969.478	3873.73
970.071	3862.73
970.662	3847.23
971.253	3980.23
971.846	3988.73
972.437	4007.23
973.028	3991.73
973.621	4066.73
974.212	4046.23
974.802	4087.73
975.393	4088.23
975.986	4075.23
976.576	4151.23
977.167	4062.73
977.758	4096.23
978.348	4280.23
978.941	4168.23
979.531	4169.23
980.121	4172.73
980.712	4215.73
981.302	4103.23
981.892	4248.73
982.485	4312.23
983.075	4495.23
983.665	4156.23
984.255	4388.73
984.845	4345.23
985.435	4360.23
986.025	4311.73
986.615	4318.73
987.205	4429.23
987.795	4470.23
988.385	4421.73
988.975	4390.23
989.565	4410.23
990.154	4378.23
990.744	4473.73
991.334	4465.23
991.923	4477.23
992.513	4577.23
993.103	4547.23
993.692	4506.23
994.282	4523.73
994.871	4647.23
995.46	4555.23
996.05	4593.73
996.639	4631.23
997.229	4700.73
997.818	4533.23
998.405	4642.73
998.994	4484.73
999.583	4462.23
1000.17	4508.23
1000.76	4624.23
1001.35	4718.23
1001.94	4621.23
1002.53	4593.23
1003.12	4583.23
1003.7	4574.23
1004.29	4663.23
1004.88	4671.23
1005.47	4692.23
1006.06	4747.73
1006.65	4816.23
1007.23	4752.73
1007.82	4680.23
1008.41	4724.23
1009	4712.73
1009.58	4723.23
1010.17	4741.23
1010.76	4778.23
1011.35	4828.23
1011.94	4828.23
1012.52	4770.73
1013.11	4772.23
1013.7	4710.23
1014.29	4799.23
1014.87	4732.23
1015.46	4932.23
1016.05	4836.23
1016.63	4862.23
1017.22	4828.23
1017.81	4780.23
1018.4	4809.23
1018.98	4846.23
1019.57	4738.23
1020.16	4900.23
1020.74	5002.23
1021.33	4921.23
1021.92	4890.23
1022.5	4851.73
1023.09	4887.73
1023.67	4856.73
1024.26	4864.73
1024.85	4901.23
1025.44	5036.23
1026.02	4922.73
1026.61	4776.23
1027.19	4945.23
1027.78	4917.23
1028.37	4937.73
1028.95	5004.73
1029.54	4957.23
1030.12	4903.23
1030.71	5011.23
1031.29	4994.73
1031.88	4877.23
1032.47	4917.23
1033.05	4998.73
1033.64	4952.23
1034.22	4937.23
1034.81	4980.23
1035.39	5037.73
1035.98	4908.23
1036.56	5048.23
1037.15	5011.23
1037.73	5054.23
1038.32	5037.23
1038.9	5073.73
1039.49	5003.23
1040.07	4985.23
1040.66	5048.73
1041.24	5034.23
1041.83	4924.84
1042.41	5045.98
1043	4910.23
1043.58	5151
1044.17	5052.39
1044.75	5077.37
1045.33	4891.36
1045.92	5015.17
1046.5	5013.49
1047.09	5059.19
1047.67	5143.18
1048.25	5178.34
1048.84	5095.84
1049.42	5173.93
1050.01	5003.59
1050.59	5136.56
1051.17	5019.58
1051.76	5217.31
1052.34	5140.85
1052.93	5244.27
1053.51	5282.8
1054.09	5129.5
1054.68	5303.8
1055.26	5223.09
1055.84	5176.72
1056.42	5170.28
1057.01	5261.15
1057.59	5349.8
1058.17	5197.92
1058.76	5267.73
1059.34	5393
1059.92	5212.93
1060.51	5270.48
1061.09	5095.93
1061.67	5399.31
1062.25	5093.14
1062.84	5224.27
1063.42	5431.56
1064	5369.02
1064.58	5415.09
1065.17	5439.16
1065.75	5414.39
1066.33	5457.28
1066.91	5519.31
1067.49	5550.88
1068.08	5572.09
1068.66	5598.9
1069.24	5420.78
1069.82	5544.31
1070.41	5587.51
1070.99	5649.68
1071.57	5641.59
1072.15	5667.56
1072.73	5683.37
1073.31	5648.66
1073.89	5556.36
1074.48	5684.17
1075.06	5676
1075.64	5751.89
1076.22	5823.03
1076.8	5820.98
1077.38	5884.09
1077.96	5862.56
1078.55	5876.53
1079.13	5844.56
1079.71	5786.14
1080.29	5774.66
1080.87	5909.86
1081.45	5944.79
1082.03	5987.73
1082.61	5931.41
1083.19	5999.32
1083.77	5972.31
1084.35	5961.22
1084.93	6007.21
1085.51	5979.65
1086.09	6074.92
1086.67	6151.42
1087.25	6044.74
1087.83	6007.71
1088.41	6046.73
1088.99	6087.32
1089.57	6124.9
1090.15	6032.62
1090.73	6202.18
1091.31	6217.05
1091.89	6187.78
1092.47	6222.31
1093.05	6074.74
1093.63	6195.66
1094.21	6231.04
1094.79	6292.44
1095.37	6308.17
1095.95	6427.3
1096.53	6350.12
1097.11	6315.66
1097.69	6282.18
1098.27	6295.55
1098.85	6291.12
1099.42	6324.36
1100	6324.63
1100.58	6330.08
1101.16	6276.87
1101.74	6293.36
1102.32	6250.79
1102.9	6285.01
1103.48	6319.12
1104.05	6331.1
1104.63	6396.76
1105.21	6445.15
1105.79	6465.14
1106.37	6333.02
1106.95	6320.73
1107.52	6326.55
1108.1	6363.57
1108.68	6440.02
1109.26	6448.62
1109.84	6414.14
1110.41	6440.8
1110.99	6355.66
1111.57	6360.97
1112.15	6348.56
1112.73	6142.93
1113.3	6402.87
1113.88	6337.61
1114.46	6179.74
1115.03	6416.89
1115.61	6354.56
1116.19	6260.79
1116.77	6260.12
1117.34	6324.96
1117.92	6327
1118.5	6323.54
1119.08	6289.21
1119.65	6304.19
1120.23	6261.69
1120.81	6259.01
1121.38	6125.29
1121.96	6155.19
1122.54	6299.3
1123.11	6267.29
1123.69	6192.75
1124.27	6213.23
1124.84	6075.53
1125.42	6048.81
1126	6105.75
1126.57	6087.79
1127.15	6085.78
1127.72	6092.39
1128.3	6066.05
1128.88	6095.82
1129.45	6016.26
1130.03	6016.21
1130.6	5869.78
1131.18	5916.65
1131.76	5839.22
1132.33	5869.67
1132.91	5834.34
1133.48	5911.69
1134.06	5850.98
1134.63	5836.63
1135.21	5778.1
1135.78	5864.59
1136.36	5925.7
1136.94	5894.23
1137.51	5886.29
1138.09	5828.39
1138.66	5765.5
1139.24	5827.82
1139.81	5716.09
1140.39	5653.54
1140.96	5760.78
1141.53	5668.53
1142.11	5673.84
1142.68	5794.59
1143.26	5714.71
1143.83	5642.38
1144.41	5536.08
1144.98	5571.39
1145.56	5556.12
1146.13	5537.9
1146.71	5618.54
1147.28	5502.62
1147.85	5545.05
1148.43	5519.48
1149	5462.72
1149.58	5441.94
1150.15	5272.34
1150.73	5291.12
1151.3	5326.59
1151.87	5249.65
1152.45	5377.54
1153.02	5318.07
1153.59	5367.13
1154.17	5242.47
1154.74	5090.74
1155.31	5284.19
1155.89	5216.62
1156.46	5054.86
1157.03	5026.54
1157.61	5200.48
1158.18	5037.69
1158.75	4957.22
1158.97	4988.72
1159.55	4890.72
1160.14	4896.72
1160.72	4941.22
1161.3	4969.72
1161.88	4847.72
1162.46	4816.22
1163.05	4766.72
1163.63	4766.72
1164.21	4789.22
1164.79	4805.22
1165.37	4765.72
1165.95	4651.72
1166.53	4609.72
1167.11	4593.72
1167.7	4554.72
1168.28	4452.72
1168.86	4538.72
1169.44	4453.22
1170.02	4329.72
1170.6	4402.72
1171.18	4353.72
1171.76	4279.72
1172.35	4279.22
1172.93	4268.72
1173.51	4220.72
1174.09	4271.72
1174.67	4327.72
1175.25	4299.22
1175.83	4123.22
1176.41	4248.22
1176.99	4075.72
1177.57	4075.72
1178.15	4042.72
1178.73	4065.72
1179.31	4041.72
1179.89	3983.72
1180.47	3984.72
1181.05	3917.72
1181.63	3862.72
1182.21	3835.22
1182.79	3841.22
1183.37	3766.72
1183.95	3791.72
1184.53	3766.72
1185.11	3736.72
1185.69	3570.72
1186.27	3612.72
1186.85	3663.22
1187.43	3605.22
1188.01	3541.22
1188.58	3522.72
1189.16	3512.72
1189.74	3489.72
1190.32	3185.72
1190.9	3332.22
1191.48	3418.72
1192.06	3358.72
1192.64	3377.72
1193.22	3269.72
1193.8	3342.72
1194.37	3252.72
1194.95	3307.22
1195.53	3299.22
1196.11	3195.22
1196.69	3212.72
1197.27	3149.72
1197.85	3151.72
1198.42	3109.72
1199	3144.22
1199.58	2997.72
1200.16	3069.22
1200.74	3028.72
1201.31	2941.72
1201.89	2577.72
1202.47	2968.72
1203.05	2964.72
1203.63	2930.22
1204.2	2613.72
1204.78	2828.72
1205.36	2775.72
1205.94	2761.22
1206.51	2730.72
1207.09	2757.22
1207.67	2746.72
1208.25	2629.72
1208.82	2635.72
1209.4	2595.72
1209.98	2666.72
1210.56	2627.72
1211.13	2575.22
1211.71	2566.72
1212.29	2601.72
1212.86	2450.72
1213.44	2499.72
1214.02	2457.72
1214.59	2490.72
1215.17	2415.72
1215.75	2407.72
1216.32	2445.72
1216.9	2389.72
1217.48	2411.72
1218.05	2360.22
1218.63	2345.72
1219.21	2359.22
1219.78	2274.72
1220.36	2216.72
1220.93	2264.22
1221.51	2254.72
1222.09	2295.22
1222.66	2256.72
1223.24	2282.72
1223.81	2233.72
1224.39	2162.72
1224.97	2169.72
1225.54	2110.72
1226.12	2115.72
1226.69	2117.72
1227.27	2138.72
1227.84	2067.72
1228.42	2084.72
1228.99	2072.22
1229.57	1981.72
1230.15	2052.22
1230.72	1965.72
1231.3	2094.72
1231.87	2049.72
1232.44	2011.72
1233.02	1978.72
1233.6	1989.72
1234.17	2007.72
1234.75	2016.22
1235.32	1987.72
1235.89	1983.72
1236.47	2007.22
1237.04	1957.72
1237.62	1968.72
1238.19	1976.72
1238.77	1918.22
1239.34	1967.72
1239.92	1852.72
1240.49	1929.22
1241.06	1917.22
1241.64	1791.72
1242.21	1757.72
1242.79	1882.72
1243.36	1874.22
1243.93	1895.72
1244.51	1924.72
1245.08	1847.22
1245.66	1909.72
1246.23	1864.72
1246.8	1844.72
1247.38	1880.22
1247.95	1900.22
1248.52	1888.22
1249.1	1886.22
1249.67	1877.72
1250.24	1861.72
1250.82	1835.72
1251.39	1872.22
1251.96	1887.72
1252.54	1844.22
1253.11	1847.22
1253.68	1830.72
1254.26	1870.72
1254.83	1803.72
1255.4	1863.72
1255.97	1898.72
1256.55	1840.72
1257.12	1868.72
1257.69	1839.72
1258.27	1853.72
1258.84	1813.22
1259.41	1759.22
1259.98	1803.72
1260.55	1773.72
1261.13	1833.72
1261.7	1818.22
1262.27	1786.72
1262.84	1751.72
1263.41	1813.72
1263.99	1829.72
1264.56	1780.72
1265.13	1855.72
1265.7	1781.72
1266.27	1795.72
1266.85	1795.72
1267.42	1773.22
1267.99	1862.22
1268.56	1824.22
1269.13	1796.72
1269.7	1817.72
1270.28	1783.72
1270.85	1794.22
1271.42	1809.22
1271.99	1822.72
1272.56	1838.22
1273.13	1762.22
1273.7	1736.72
1274.27	1812.72
1274.85	1803.72
1275.41	1794.22
1275.99	1765.72
1276.56	1778.22
1277.13	1814.72
1277.7	1813.72
1278.27	1828.22
1278.84	1836.22
1279.41	1790.22
1279.98	1820.22
1280.55	1739.22
1281.12	1837.22
1281.69	1823.22
1282.26	1763.72
1282.83	1775.22
1283.4	1828.72
1283.97	1810.22
1284.54	1714.72
1285.11	1714.72
1285.68	1709.72
1286.25	1692.72
1286.82	1727.72
1287.39	1743.22
1287.96	1820.72
1288.53	1773.72
1289.1	1766.22
1289.67	1805.72
1290.24	1854.22
1290.81	1823.72
1291.38	1813.72
1291.95	1732.72
1292.52	1719.72
1293.09	1828.72
1293.65	1609.72
1294.22	1773.72
1294.79	1791.72
1295.36	1777.22
1295.93	1803.72
1296.5	1801.72
1297.07	1831.72
1297.64	1784.22
1298.21	1747.72
1298.78	1784.22
1299.34	1795.72
1299.91	1800.72
1300.48	1755.72
1301.05	1736.72
1301.62	1811.72
1302.19	1827.72
1302.75	1802.72
1303.32	1818.72
1303.89	1783.72
1304.46	1791.22
1305.03	1768.72
1305.59	1777.72
1306.16	1814.72
1306.73	1805.22
1307.3	1784.72
1307.87	1819.22
1308.43	1798.72
1309	1812.22
1309.57	1794.22
1310.14	1757.22
1310.7	1757.22
1311.27	1809.22
1311.84	1813.72
1312.4	1807.72
1312.97	1803.22
1313.54	1773.72
1314.11	1771.72
1314.67	1817.22
1315.24	1804.22
1315.81	1818.22
1316.38	1834.72
1316.94	1875.22
1317.51	1858.22
1318.08	1783.22
1318.64	1835.72
1319.21	1788.72
1319.77	1781.72
1320.34	1812.22
1320.91	1813.72
1321.48	1818.72
1322.04	1806.72
1322.61	1835.72
1323.18	1739.72
1323.74	1767.22
1324.31	1828.22
1324.87	1796.72
1325.44	1801.22
1326	1771.22
1326.57	1854.72
1327.14	1797.72
1327.7	1827.72
1328.27	1834.22
1328.83	1759.72
1329.4	1787.72
1329.97	1848.72
1330.53	1789.72
1331.1	1818.22
1331.66	1811.22
1332.23	1794.72
1332.79	1798.72
1333.36	1719.72
1333.92	1727.72
1334.49	1827.72
1335.05	1828.72
1335.62	1880.72
1336.18	1872.72
1336.75	1778.22
1337.31	1801.72
1337.88	1824.72
1338.44	1770.72
1339.01	1793.22
1339.57	1800.72
1340.14	1845.72
1340.7	1808.22
1341.27	1829.72
1341.83	1834.22
1342.39	1792.72
1342.96	1817.72
1343.52	1790.72
1344.09	1822.22
1344.65	1848.72
1345.22	1877.22
1345.78	1794.72
1346.35	1817.72
1346.91	1839.72
1347.47	1798.22
1348.04	1806.72
1348.6	1804.72
1349.16	1846.22
1349.73	1776.72
1350.29	1852.22
1350.86	1859.22
1351.42	1823.72
1351.98	1757.72
1352.55	1837.72
1353.11	1869.72
1353.67	1819.72
1354.23	1803.72
1354.8	1797.22
1355.36	1807.72
1355.92	1832.72
1356.49	1767.72
1357.05	1827.22
1357.61	1864.22
1358.18	1838.72
1358.74	1819.22
1359.3	1768.72
1359.87	1859.22
1360.43	1828.72
1360.99	1812.72
1361.55	1840.72
1362.11	1863.72
1362.68	1846.72
1363.24	1852.22
1363.8	1742.72
1364.36	1828.72
1364.93	1834.22
1365.49	1767.72
1366.05	1837.22
1366.61	1836.72
1367.17	1883.72
1367.74	1822.72
1368.3	1885.22
1368.86	1880.72
1369.42	1890.22
1369.98	1860.22
1370.55	1861.72
1371.11	1827.72
1371.67	1869.72
1372.23	1886.22
1372.79	1836.72
1373.35	1839.72
1373.91	1873.72
1374.48	1834.72
1375.04	1842.72
1375.6	1867.22
1376.16	1838.72
1376.72	1827.72
1377.28	1872.72
1377.84	1839.72
1378.4	1842.72
1378.96	1847.72
1379.53	1811.72
1380.09	1727.72
1380.65	1677.22
1381.21	1906.72
1381.77	1863.22
1382.33	1885.22
1382.89	1889.22
1383.45	1801.72
1384.01	1890.72
1384.57	1875.22
1385.13	1869.22
1385.69	1886.72
1386.25	1878.72
1386.81	1907.72
1387.37	1834.22
1387.93	1899.72
1388.49	1885.72
1389.05	1884.72
1389.61	1889.22
1390.17	1920.22
1390.73	1853.72
1391.29	1908.72
1391.85	1855.72
1392.41	1813.72
1392.97	1893.72
1393.53	1878.22
1394.09	1865.72
1394.65	1875.22
1395.21	1835.22
1395.77	1903.72
1396.33	1872.72
1396.88	1856.72
1397.44	1866.72
1398	1907.72
1398.56	1852.72
1399.12	1837.72
1399.68	1817.72
1400.24	1872.22
1400.8	1888.72
1401.36	1903.72
1401.91	1927.22
1402.47	1924.72
1403.03	1888.72
1403.59	1882.72
1404.15	1900.22
1404.71	1900.22
1405.26	1927.72
1405.82	1959.22
1406.38	1925.72
1406.94	1914.72
1407.5	1900.72
1408.06	1904.72
1408.61	1932.22
1409.17	1904.72
1409.73	1938.22
1410.29	1867.72
1410.85	1936.72
1411.4	1910.72
1411.96	1933.72
1412.52	1852.72
1413.08	1889.72
1413.63	1913.72
1414.19	1954.22
1414.75	1929.22
1415.31	1943.72
1415.86	1959.22
1416.42	1939.22
1416.98	1867.72
1417.53	1903.72
1418.09	1882.72
1418.65	1828.72
1419.21	1894.22
1419.76	1900.22
1420.32	1834.72
1420.88	1916.72
1421.43	1896.22
1421.99	1937.72
1422.55	1902.22
1423.1	1879.72
1423.66	1958.72
1424.22	1891.72
1424.77	2011.72
1425.33	1974.72
1425.89	1865.72
1426.44	1923.22
1427	1921.72
1427.55	1915.72
1428.11	1969.72
1428.67	1970.22
1429.22	1957.72
1429.78	1920.72
1430.33	1940.72
1430.89	1905.22
1431.44	1920.72
1432	1942.72
1432.56	1969.72
1433.11	1947.72
1433.67	1919.72
1434.22	1936.72
1434.78	1991.72
1435.34	1915.72
1435.89	1951.72
1436.44	1927.72
1437	1943.22
1437.56	2016.72
1438.11	1997.22
1438.67	1930.22
1439.22	1893.72
1439.78	1952.72
1440.33	1960.72
1440.89	1932.72
1441.44	1941.72
1441.99	1943.72
1442.55	1959.72
1443.11	1930.72
1443.66	1975.72
1444.21	1939.72
1444.77	1955.22
1445.32	1917.72
1445.88	1936.72
1446.43	1974.22
1446.98	1917.72
1447.54	1972.72
1448.09	1961.72
1448.65	2001.72
1449.2	1913.22
1449.76	1931.22
1450.31	1984.22
1450.86	1961.72
1451.42	1916.72
1451.97	1969.72
1452.52	1982.22
1453.08	1975.72
1453.63	1981.72
1454.19	1942.72
1454.74	1994.22
1455.29	1985.22
1455.85	1955.72
1456.4	1948.72
1456.95	1980.72
1457.51	1999.22
1458.06	1961.72
1458.61	1985.22
1459.17	1988.22
1459.72	1941.72
1460.27	1982.72
1460.82	1983.72
1461.38	2000.72
1461.93	2002.22
1462.48	1975.72
1463.04	2025.22
1463.59	2002.72
1464.14	2000.22
1464.69	1934.72
1465.25	1941.72
1465.8	1977.72
1466.35	2010.22
1466.9	2031.72
1467.46	1866.72
1468.01	1959.72
1468.56	1931.72
1469.11	1969.72
1469.66	1888.72
1470.22	1959.72
1470.77	2022.72
1471.32	2024.72
1471.87	1981.22
1472.42	1943.72
1472.98	1970.72
1473.53	1973.72
1474.08	1933.72
1474.63	1963.72
1475.18	1981.72
1475.73	2013.22
1476.28	1934.72
1476.84	2023.72
1477.39	2006.22
1477.94	1955.22
1478.49	1971.72
1479.04	1974.72
1479.59	2025.22
1480.14	1991.22
1480.7	2016.22
1481.25	1993.72
1481.8	1977.72
1482.35	1962.72
1482.9	2012.22
1483.45	2002.72
1484	1928.72
1484.55	2004.72
1485.1	2000.72
1485.65	2000.72
1486.2	2022.72
1486.75	1963.72
1487.3	2048.22
1487.85	1946.72
1488.4	1946.72
1488.95	2020.22
1489.5	2006.72
1490.05	2088.72
1490.6	2029.22
1491.15	1981.22
1491.7	1973.72
1492.25	2030.72
1492.8	2039.72
1493.35	2032.22
1493.9	2040.22
1494.45	2062.22
1495	2068.72
1495.55	1977.22
1496.1	1993.22
1496.65	2011.22
1497.2	2060.22
1497.75	1955.72
1498.3	2029.22
1498.85	2031.22
1499.4	2111.22
1499.95	1974.72
