20.040655	2842.3037
20.649942	4330.1611
21.25923	6338.9897
21.868517	8956.5547
22.477806	11695.388
23.087093	14008.524
23.696381	15285.855
24.305668	15684.541
24.914955	16125.052
25.524242	16544.865
26.13353	16840.818
26.742817	17071.5
27.352106	17402.891
27.961393	17805.078
28.570681	17874.287
29.179968	18051.939
29.789255	18370.17
30.398542	18551.467
31.00783	18687.141
31.617117	18896.111
32.226406	19145.832
32.835693	19494.736
33.444981	19572.832
34.054268	19943.449
34.663555	20195.324
35.272842	20390.957
35.88213	20614.822
36.491417	20788.857
37.100704	20912.855
37.709991	21115.988
38.319279	21061.412
38.928566	20956.314
39.537857	21223.133
40.147144	21346.34
40.756432	21408.492
41.365719	21602.506
41.975006	21723.139
42.584293	21829.031
43.193581	22100.299
43.802868	22065.025
44.412155	22149.1
45.021442	21971.988
45.63073	22072.078
46.240017	22224.365
46.849304	22248.074
47.458591	22447.123
48.067879	22642.666
48.677166	22718.686
49.286457	22720.662
49.895744	22537.596
50.505032	22558.133
51.114319	22632.109
51.723606	22922.375
52.332893	22650.053
52.942181	22500.934
53.551468	22559.879
54.160755	22458.744
54.770042	22405.893
55.37933	22508.783
55.988617	22398.939
56.597904	22468.672
57.207191	22625.461
57.816479	22756.703
58.425766	22922.936
59.035057	23160.824
59.644344	23257.951
60.253632	23165.986
60.862919	22882.754
61.472206	22613.924
62.081493	22524.158
62.690781	22420.701
63.300068	22428.313
63.909355	22461.707
64.518646	22524.313
65.12793	22489.535
65.737221	22519.561
66.346504	22521.709
66.955795	22523.461
67.565079	22524.766
68.17437	22397.949
68.783653	22170.078
69.392944	22224.352
70.002228	22322.416
70.611519	22406.045
71.220802	22276.594
71.830093	22344.207
72.439377	22146.432
73.048668	21976.188
73.657959	22092.871
74.267242	22230.418
74.876534	22179.229
75.485817	22228.613
76.095108	22289.027
76.704391	21957.021
77.313683	21787.201
77.922966	21577.783
78.532257	21479.332
79.141541	21547.811
79.750832	21671.693
80.360115	21601.027
80.969406	21395.381
81.57869	21356.391
82.187981	21479.93
82.797272	21528.535
83.406555	21526.625
84.015846	21439.639
84.62513	21181.41
85.234421	21025.535
85.843704	20895.908
86.452995	20812.252
87.062279	20775.594
87.67157	20750.459
88.280853	20727.35
88.890144	20734.975
89.499428	20825.201
90.108719	20717.096
90.718002	20798.174
91.327293	20750.262
91.936577	20508.389
92.545868	20314.998
93.155159	20291.109
93.764442	20202.049
94.373734	20039.004
94.983017	20034.559
95.592308	20012.461
96.201591	19873.449
96.810883	19887.928
97.420166	19837.553
98.029457	19758.738
98.638741	19844.869
99.248032	19749.221
99.857315	19560.932
100.46661	19448
101.07589	19385.563
101.68518	19268.18
102.29447	19134.127
102.90376	19169.855
103.51305	19022.871
104.12233	19125.711
104.73162	19132.439
105.3409	19053.836
105.9502	19101.348
106.55948	19054.793
107.16877	18977.699
107.77805	18850.32
108.38734	18611.318
108.99663	18542.678
109.60592	18573.027
110.2152	18437.141
110.82449	18328.711
111.43378	18253.336
112.04307	18111.197
112.65236	18123.641
113.26164	18075.814
113.87093	18019.969
114.48022	17903.113
115.08951	17764.018
115.69879	17813.91
116.30808	17708.412
116.91737	17623.43
117.52666	17719.707
118.13594	17495.305
118.74523	17462.617
119.35452	17287.814
119.96381	17189.773
120.57309	17163.912
121.18238	17154.959
121.79167	17142.668
122.40096	17072.865
123.01025	16988.365
123.61953	17124.137
124.22882	16746.541
124.8381	16845.082
125.4474	16844.535
126.05668	16693.264
126.66597	16563.303
127.27525	16576.494
127.88454	16642.043
128.49384	16558.898
129.10312	16397.377
129.7124	16396.672
130.32169	16349.518
130.93098	16202.054
131.54027	16207.445
132.14955	16253.741
132.75885	16036.507
133.36813	16008.819
133.97742	15896.489
134.5867	15873.958
135.196	15895.607
135.80528	15844.796
136.41457	15787.412
137.02385	15731.012
137.63315	15639.726
138.24243	15843.553
138.85172	15740.93
139.461	15485.251
140.0703	15541.808
140.67958	15555.538
141.28886	15461.273
141.89816	15332.861
142.50745	15237.003
143.11673	15142.602
143.72601	15117.674
144.33531	15277.983
144.9446	15161.808
145.55388	15105.513
146.16316	15067.583
146.77246	15098.771
147.38174	15052.05
147.99103	14890.009
148.60031	14857.887
149.20961	14820.197
149.81889	14812.683
150.42818	14826.741
151.03748	14686.67
151.64676	14558.437
152.25604	14721.741
152.86533	14652.194
153.47462	14678.758
154.08391	14637.276
154.69319	14661.893
155.30247	14665.488
155.91177	14543.646
156.52106	14425.468
157.13034	14376.485
157.73962	14340.07
158.34892	14305.819
158.95821	14351.353
159.56749	14454.118
160.17679	14318.867
160.78607	14309.67
161.39536	14183.859
162.00464	14255.586
162.61394	14186.238
163.22322	14200.408
163.8325	14186.18
164.44179	14174.491
165.05109	14166.137
165.66037	14048.681
166.26965	13940.577
166.87894	14053.057
167.48824	13989.205
168.09752	14052.167
168.7068	14048.973
169.31609	14070.266
169.92538	13939.506
170.53467	13887.309
171.14395	13789.433
171.75325	13785.274
172.36253	13889.233
172.97182	13933.245
173.5811	13892.036
174.1904	13867.033
174.79968	13882.382
175.40897	13709.349
176.01825	13858.784
176.62755	13872.907
177.23683	13850.798
177.84612	13801.922
178.4554	13872.629
179.0647	13775.676
179.67398	13723.3
180.28326	13778.943
180.89256	13733.674
181.50185	13694.539
182.11113	13710.311
182.72041	13784.511
183.32971	13748.429
183.939	13704.078
184.54828	13728.733
185.15756	13678.907
185.76686	13537.3
186.37614	13603.309
186.98543	13684.838
187.59471	13739.563
188.20401	13783.986
188.81329	13740.838
189.42258	13684.357
190.03188	13626.491
190.64116	13622.352
191.25044	13780.693
191.85973	13671.059
192.46902	13697.424
193.07831	13708.4
193.68759	13738.688
194.29688	13731.062
194.90617	13635.488
195.51546	13626.38
196.12474	13717.586
196.73402	13705.154
197.34332	13640.388
197.95261	13700.409
198.56189	13663.5
199.17119	13633.855
199.78047	13658.689
200.38976	13701.68
200.99904	13685.008
201.60834	13708.727
202.21762	13677.826
202.8269	13734.353
203.43619	13792.199
204.04549	13773.275
204.65477	13777.069
205.26405	13785.606
205.87334	13795.157
206.48264	13917.207
207.09192	13784.563
207.7012	13780.865
208.3105	13888.508
208.91978	13876.687
209.52907	13881.112
210.13835	13949.737
210.74765	13937.264
211.35693	13835.002
211.96622	13806.772
212.5755	13862.906
213.1848	13850.032
213.79408	13837.726
214.40337	13955.46
215.01265	13989.761
215.62195	13925.192
216.23123	14031.852
216.84052	14050.936
217.4498	14021.964
218.0591	14074.659
218.66838	14105.044
219.27766	14077.86
219.88696	14099.236
220.49625	14191.407
221.10553	14232.85
221.71481	14157.128
222.32411	14056.199
222.9334	14100.293
223.54268	14088.436
224.15196	14279.267
224.76126	14263.364
225.37054	14146.607
225.97983	14187.023
226.58911	14266.907
227.19841	14277.141
227.80769	14248.439
228.41698	14295.776
229.02628	14408.79
229.63556	14425.579
230.24484	14337.926
230.85413	14357.588
231.46342	14297.862
232.07271	14312.625
232.68199	14321.061
233.29128	14488.042
233.90057	14455.763
234.50986	14426.862
235.11914	14528.283
235.72842	14495.562
236.33772	14495.614
236.94701	14555.214
237.55629	14514.656
238.16559	14474.543
238.77487	14516.084
239.38416	14574.812
239.99344	14713.335
240.60274	14580.708
241.21202	14656.657
241.8213	14720.285
242.43059	14739.387
243.03989	14708.314
243.64917	14703.486
244.25845	14821.058
244.86774	14846.85
245.47704	14772.523
246.08632	14759.715
246.6956	14794.003
247.3049	14809.094
247.91418	14799.826
248.52347	14806.771
249.13275	14906.534
249.74205	14837.971
250.35133	14848.369
250.96062	14736.931
251.5699	14826.635
252.1792	14989.993
252.78848	14911.366
253.39777	14873.284
254.00705	14893.077
254.61635	14821.071
255.22563	14741.264
255.83492	14780.215
256.44421	14935.97
257.0535	15001.117
257.66278	15028.195
258.27206	14954.551
258.88135	14896.834
259.49063	15073.042
260.09995	14997.377
260.70923	14984.579
261.31851	14966.34
261.9278	15017.645
262.53708	15107.772
263.14636	15056.571
263.75565	15001.4
264.36493	15068.25
264.97424	15048.094
265.58353	15077.85
266.19281	15058.554
266.80209	14975.019
267.41138	15003.015
268.02066	15025.546
268.62994	15037.025
269.23926	15072.506
269.84854	15118.695
270.45782	15128.406
271.06711	15114.072
271.67639	15082.978
272.28568	15082.937
272.89496	15064.632
273.50424	15029.953
274.11356	15079.896
274.72284	15073.326
275.33212	15154.274
275.94141	15128.925
276.55069	14993.856
277.15997	15062.054
277.76926	15107.762
278.37857	15028.167
278.98785	14943.898
279.59714	15000.466
280.20642	14985.086
280.8157	15035.238
281.42499	15077.379
282.03427	15025.285
282.64355	14975.968
283.25287	14967.208
283.86215	14978.455
284.47144	14858.354
285.08072	14987.524
285.69	14929.107
286.29929	14909.653
286.90857	15010.041
287.51788	14871.62
288.12717	14900.92
288.73645	14979.625
289.34573	14920.04
289.95502	14962.126
290.5643	14942.547
291.17358	14908.218
291.78287	14989.416
292.39218	14989.235
293.00146	14876.357
293.61075	14871.046
294.22003	14909.498
294.82932	14815.498
295.4386	14874.804
296.04788	14936.772
296.6572	14858.709
297.26648	14770.541
297.87576	14808.528
298.48505	14830.687
299.09433	14854.847
299.70361	14875.751
300.3129	14906.946
300.92218	14901.807
301.53149	14865.858
302.14078	14825.766
302.75006	14779.099
303.35934	14824.892
303.96863	14767.871
304.57791	14720.298
305.18719	14741.077
305.79651	14770.319
306.40579	14657.472
307.01508	14734.479
307.62436	14815.394
308.23364	14759.584
308.84293	14782.174
309.45221	14797.807
310.06149	14753.624
310.67081	14784.204
311.28009	14804.196
311.88937	14694.144
312.49866	14619.149
313.10794	14627.583
313.71722	14624.903
314.32651	14682.697
314.93582	14662.426
315.5451	14718.798
316.15439	14642.754
316.76367	14648.238
317.37296	14614.172
317.98224	14666.859
318.59152	14716.977
319.20081	14605.323
319.81012	14624.368
320.4194	14620.067
321.02869	14566.296
321.63797	14575.622
322.24725	14599.533
322.85654	14643.964
323.46582	14655.538
324.07513	14636.099
324.68442	14661.224
325.2937	14700.614
325.90298	14649.735
326.51227	14715.152
327.12155	14739.536
327.73083	14682.078
328.34012	14515.639
328.94943	14584.793
329.55872	14439.393
330.168	14524.689
330.77728	14650.121
331.38657	14621.46
331.99585	14592.559
332.60513	14584.726
333.21442	14595.05
333.82373	14645.063
334.43301	14660.742
335.0423	14651.434
335.65158	14572.539
336.26086	14687.544
336.87015	14709.712
337.47943	14603.322
338.08875	14637.074
338.69803	14646.216
339.30731	14728.781
339.9166	14716.974
340.52588	14627.279
341.13516	14743.761
341.74445	14760.441
342.35373	14718.551
342.96304	14800.372
343.57233	14782.92
344.18161	14691.916
344.79089	14690.036
345.40018	14750.425
346.00946	14745.908
346.61874	14753.143
347.22806	14740.803
347.83734	14831.841
348.44662	14807.575
349.05591	14794.38
349.66519	14812.606
350.27448	14778.989
350.88376	14820.543
351.49304	14822.417
352.10236	14871.617
352.71164	14863.875
353.32092	14815.672
353.93021	14808.043
354.53949	14784.281
355.14877	14820.649
355.75806	14896.509
356.36737	14788.04
356.97665	14993.959
357.58594	14926.627
358.19522	14772.735
358.8045	14851.209
359.41379	14948.037
360.02307	14746.603
360.63235	15056.892
361.24167	14892.623
361.85095	14949.485
362.46024	14962.805
363.06952	14985.044
363.6788	15052.868
364.28809	15123.903
364.89737	15121.578
365.50668	15073.672
366.11597	15106.983
366.72525	15135.337
367.33453	15039.01
367.94382	15025.5
368.5531	15093.134
369.16238	15130.569
369.77167	15166.41
370.38098	15158.811
370.99026	15042.883
371.59955	15001.929
372.20883	15107.946
372.81812	15320.942
373.4274	15240.835
374.03668	15182.581
374.646	15278.493
375.25528	15260.209
375.86456	15219.001
376.47385	15287.479
377.08313	15330.231
377.69241	15311.766
378.3017	15329.688
378.91098	15386.962
379.52029	15506.917
380.12958	15541.938
380.73886	15385.043
381.34814	15315.392
381.95743	15519.789
382.56671	15376.544
383.17599	15437.578
383.78531	15525.344
384.39459	15407.229
385.00388	15458.06
385.61316	15533.541
386.22244	15554.777
386.83173	15567.067
387.44101	15641.084
388.05029	15661.1
388.65961	15630.126
389.26889	15677.124
389.87817	15735.877
390.48746	15737.155
391.09674	15780.754
391.70602	15779.894
392.31531	15765.429
392.92462	15899.849
393.53391	15840.797
394.14319	15765.481
394.75247	15936.41
395.36176	15823.897
395.97104	15829.279
396.58032	16053.841
397.18961	16121.028
397.79892	16127.778
398.4082	16086.457
399.01749	16026.828
399.62677	16018.643
400.23605	16049.281
400.84534	16079.945
401.45462	16121.685
402.06393	16114.669
402.67322	16116.744
403.2825	16250.346
403.89178	16301.745
404.50107	16267.786
405.11035	16338.827
405.71964	16332.945
406.32892	16337.365
406.93823	16422.959
407.54752	16411.232
408.1568	16600.602
408.76608	16550.727
409.37537	16527.977
409.98465	16466.457
410.59393	16515.424
411.20325	16449.719
411.81253	16515.932
412.42181	16557.543
413.0311	16587.441
413.64038	16694.621
414.24966	16699.182
414.85895	16725.1
415.46823	16813.031
416.07755	16754.49
416.68683	16772.195
417.29611	16849.119
417.9054	16753.633
418.51468	16783.689
419.12396	16880.174
419.73325	16929.955
420.34256	16875.514
420.95184	16960.979
421.56113	17044.834
422.17041	17032.984
422.77969	17132.393
423.38898	16973.02
423.99826	17080.746
424.60754	17108.049
425.21686	17125.051
425.82614	17244.156
426.43542	17300.002
427.04471	17331.689
427.65399	17319.27
428.26328	17271.281
428.87256	17173.926
429.48184	17151.594
430.09116	17295.398
430.70044	17336.398
431.30972	17397.189
431.91901	17466.85
432.52829	17432.775
433.13757	17482.65
433.74686	17529.984
434.35617	17403.982
434.96545	17597.816
435.57474	17646.691
436.18402	17675.59
436.7933	17722.834
437.40259	17739.26
438.01187	17623.75
438.62115	17557.029
439.23047	17601.549
439.83975	17755.934
440.44904	17742.74
441.05832	17780.488
441.6676	17763.543
442.27689	17728.217
442.88617	17746.662
443.49548	17715.9
444.10477	17776.465
444.71405	17928.688
445.32333	17939.928
445.93262	17984.842
446.5419	18050.189
447.15118	18052.707
447.76047	18057.322
448.36978	18006.271
448.97906	18168.736
449.58835	18244.986
450.19763	18278.246
450.80692	18222.877
451.4162	18310.512
452.02548	18317.078
452.6348	18329.383
453.24408	18268.967
453.85336	18464.43
454.46265	18484.039
455.07193	18603.535
455.68121	18520.826
456.2905	18499.021
456.89978	18633.061
457.50909	18789.693
458.11838	18907.563
458.72766	18992.859
459.33694	19069.518
459.94623	19061.633
460.55551	19033.535
461.16479	19161.02
461.77411	19312.102
462.38339	19409.193
462.99268	19339.602
463.60196	19559.898
464.21124	19713.303
464.82053	19620.006
465.42981	19729.145
466.03909	19623.713
466.64841	19823.414
467.25769	19967.27
467.86697	20005.879
468.47626	20103.09
469.08554	20180.725
469.69482	20106.58
470.30411	20228.834
470.91342	20312.547
471.52271	20445.055
472.13199	20461.666
472.74127	20455.303
473.35056	20461.227
473.95984	20519.168
474.56912	20631.928
475.17841	20550.922
475.78772	20555.539
476.397	20722.506
477.00629	20646.801
477.61557	20887.047
478.22485	20918.186
478.83414	20872.242
479.44342	20862.891
480.05273	20883.547
480.66202	20849.715
481.2713	20868.738
481.88058	20905.816
482.48987	20876.984
483.09915	20914.602
483.70844	20775.684
484.31772	20740.936
484.92703	20597.361
485.53632	20544.803
486.1456	20581.092
486.75488	20718.174
487.36417	20406.17
487.97345	20488.814
488.58273	20384.768
489.19205	20233.678
489.80133	20162.209
490.41061	20053.051
491.0199	19973.318
491.62918	19901.553
492.23846	19720.154
492.84775	19552.369
493.45703	19442.447
494.06635	19388.365
494.67563	19291.375
495.28491	19159.367
495.8942	19124.506
496.50348	18979.656
497.11276	18723.541
497.72205	18469.115
498.33136	18435.555
498.94064	18156.066
499.54993	18255.158
500.15921	18006.48
500.76849	17839.963
501.37778	17730.863
501.98706	17552.725
502.59634	17337.803
503.20566	17252.363
503.81494	16885.881
504.42422	16780.918
505.03351	16700.91
505.64279	16549.627
506.25208	16371.803
506.86136	16196.155
507.47067	15988.829
508.07996	15804.252
508.68924	15676.901
509.29852	15493.971
509.90781	15340.636
510.51709	15221.233
511.12637	15017.182
511.73566	14871.342
512.34497	14735.267
512.95422	14497.553
513.56354	14319.284
514.17279	14210.989
514.7821	14215.406
515.39142	14041.168
516.00067	13810.123
516.60999	13685.547
517.21924	13575.625
517.82855	13488.67
518.43781	13329.398
519.04712	13183.997
519.65643	13204.808
520.26569	13091.415
520.875	12866.83
521.48425	12874.556
522.09357	12649.084
522.70282	12631.244
523.31213	12413.671
523.92145	12382.205
524.5307	12392.345
525.14001	12270.296
525.74927	12158.862
526.35858	12140.71
526.96783	12147.546
527.57715	12049.068
528.18646	11926.778
528.79572	11929.667
529.40503	11901.612
530.01428	11762.326
530.6236	11692.652
531.23285	11691.241
531.84216	11629.648
532.45142	11619.366
533.06073	11658.012
533.67004	11569.182
534.2793	11510.335
534.88861	11564.157
535.49786	11564.75
536.10718	11566.732
536.71643	11545.788
537.32574	11533.226
537.93506	11530.216
538.54431	11584.039
539.15363	11647.418
539.76288	11655.738
540.37219	11684.847
540.98145	11698.083
541.59076	11634.829
542.20007	11599.194
542.80933	11658.753
543.41864	11702.739
544.02789	11654.828
544.63721	11801.679
545.24646	11837.689
545.85577	11883.524
546.46509	11942.114
547.07434	11981.815
547.68365	12078.516
548.29291	12135.509
548.90222	12127.413
549.51147	12143.738
550.12079	12276.839
550.73004	12420.417
551.33936	12478.446
551.94867	12546.57
552.55792	12733.054
553.16724	12768.191
553.77649	12895.898
554.3858	13030.309
554.99506	13139.314
555.60437	13239.173
556.21368	13265.907
556.82294	13367.87
557.43225	13593.453
558.0415	13734.044
558.65082	13841.804
559.26007	14050.753
559.86938	14135.752
560.4787	14212.262
561.08795	14363.208
561.69727	14558.954
562.30652	14700.525
562.91583	14744.356
563.52509	14881.088
564.1344	14976.001
564.74365	15033.119
565.35297	15135.904
565.96228	15238.904
566.57153	15283.821
567.18085	15367.77
567.7901	15265.086
568.39941	15342.669
569.00867	15347.674
569.61798	15251.237
570.22729	15331.846
570.83655	15345.88
571.44586	15471.657
572.05511	15404.159
572.66443	15305.997
573.27368	15197.54
573.883	15233.602
574.49231	15067.161
575.10156	15073.544
575.71088	14879.616
576.32013	14805.257
576.92944	14737.394
577.5387	14625.919
578.14801	14523.915
578.75732	14344.645
579.36658	14243.356
579.97589	14205.021
580.58514	14059.373
581.19446	13889.267
581.80371	13803.383
582.41302	13588.248
583.02228	13409.431
583.63159	13301.931
584.24091	13205.887
584.85016	12995.527
585.45947	12899.111
586.06873	12745.063
586.67804	12587.865
587.28729	12377.619
587.89661	12226.729
588.50592	12115.551
589.11517	11983.933
589.72449	11853.002
590.33374	11764.044
590.94305	11603.911
591.55231	11416.921
592.16162	11193.354
592.77094	11085.535
593.38019	10958.61
593.9895	10813.673
594.59875	10594.976
595.20807	10469.723
595.81732	10410.629
596.42664	10290.102
597.03595	10147.956
597.6452	10077.774
598.25452	9926.6924
598.86377	9801.1348
599.47308	9696.1025
600.08234	9666.1592
600.69165	9519.0684
601.3009	9415.7686
601.91022	9228.9355
602.51953	9209.459
603.12878	9013.625
603.7381	9015.918
604.34735	8908.6113
604.95667	8780.0283
605.56592	8713.9092
606.17523	8650.5381
606.78455	8543.6729
607.3938	8498.1221
608.00311	8370.9648
608.61237	8234.5537
609.22168	8276.0049
609.83093	8173.7505
610.44025	8085.8628
611.04956	8015.7314
611.65881	7943.2666
612.26813	7875.1729
612.87738	7778.0391
613.48669	7729.5723
614.09595	7678.3423
614.70526	7617.8638
615.31458	7572.3579
615.92383	7540.6812
616.53314	7502.8447
617.1424	7439.8149
617.75171	7360.9658
618.36096	7300.6318
618.97028	7220.8101
619.57953	7185.7705
620.18884	7190.5283
620.79816	7111.4663
621.40741	7002.0845
622.01672	6991.2705
622.62598	6954.4419
623.23529	6932.7598
623.84454	6912.4219
624.45386	6834.1636
625.06317	6789.1045
625.67242	6781.2305
626.28174	6692.6104
626.89099	6637.623
627.50031	6667.4844
628.10956	6629.6001
628.71887	6547.8677
629.32819	6499.5693
629.93744	6367.5586
630.54675	6371.3423
631.15601	6354.293
631.76532	6374.5918
632.37457	6333.5039
632.98389	6286.7583
633.5932	6218.2544
634.20245	6155.397
634.81177	6159.3481
635.42102	6126.9546
636.03033	6095.4551
636.63959	6085.4385
637.2489	6033.8428
637.85815	6014.5454
638.46747	5960.8262
639.07678	5924.4644
639.68604	5910.4355
640.29535	5868.2002
640.9046	5830.3896
641.51392	5790.0293
642.12317	5748.9648
642.73248	5707.8877
643.3418	5670.7036
643.95105	5640.8325
644.56036	5610.1187
645.16962	5583.4165
645.77893	5607.3994
646.38818	5579.3281
646.9975	5525.0537
647.60681	5520.1709
648.21606	5489.4976
648.82538	5472.2456
649.43463	5450.0161
650.04395	5381.5239
650.6532	5391.9775
651.26251	5381.6201
651.87183	5341.4663
652.48108	5315.2568
653.09039	5301.8423
653.69965	5272.0718
654.30896	5292.6138
654.91821	5291.4556
655.52753	5260.731
656.13678	5278.7568
656.74609	5202.1001
657.35541	5199.6484
657.96466	5235.2212
658.57397	5081.5098
659.18323	5239.8975
659.79254	5190.6338
660.40179	5203.4302
661.01111	5228.1938
661.62042	5110.1685
662.22968	5169.728
662.83899	5155.2881
663.44824	5148.3213
664.05756	5166.4263
664.66681	5128.627
665.27612	5214.7212
665.88544	5170.0674
666.49469	5136.8447
667.104	5144.5508
667.71326	5175.9341
668.32257	5175.8496
668.93182	5113.248
669.54114	5174.457
670.15039	5232.5049
670.7597	5181.9565
671.36902	5165.3193
671.97827	5186.2891
672.58759	5218.896
673.19684	5213.1289
673.80615	5211.4541
674.41541	5214.5845
675.02472	5210.1943
675.63403	5265.1089
676.24329	5268.9849
676.8526	5264.5332
677.46185	5260.1436
678.07117	5202.2734
678.68042	5210.438
679.28973	5259.8491
679.89905	5281.0566
680.5083	5301.8169
681.11761	5280.7642
681.72687	5252.2725
682.33618	5285.3521
682.94543	5301.8003
683.55475	5308.0854
684.16406	5331.7578
684.77332	5419.5293
685.38263	5364.5151
685.99188	5310.9507
686.6012	5342.0605
687.21045	5326.5869
687.81976	5309.5342
688.42902	5394.1362
689.03833	5427.8652
689.64764	5396.6211
690.2569	5363.0947
690.86621	5475.249
691.47546	5267.1567
692.08478	5401.4707
692.69403	5374.1875
693.30334	5425.124
693.91266	5418.3237
694.52191	5309.644
695.13123	5480.1108
695.74048	5331.8765
696.34979	5400.5151
696.95905	5358.7739
697.56836	5383.1738
698.17767	5386.2407
698.78693	5431.9683
699.39624	5466.3335
700.00549	5429.8311
700.61481	5415.5859
701.22406	5371.1074
701.83337	5426.4702
702.44269	5440.7202
703.05194	5391.6777
703.66125	5412.8481
704.27051	5432.1123
704.87982	5456.9507
705.48907	5432.0615
706.09839	5407.0776
706.70764	5340.2549
707.31696	5314.5327
707.92627	5341.6113
708.53552	5350.5034
709.14484	5364.3149
709.75409	5358.3931
710.3634	5349.7778
710.97266	5375.2183
711.58197	5389.3408
712.19128	5383.7559
712.80054	5389.8032
713.40985	5427.0654
714.0191	5386.8945
714.62842	5219.7905
715.23767	5232.0859
715.84698	5375.3013
716.4563	5346.8794
717.06555	5319.1323
717.67487	5346.5664
718.28412	5321.6714
718.89343	5295.5474
719.50269	5281.541
720.112	5295.394
720.72131	5294.459
721.33057	5247.3091
721.93988	5273.4556
722.54913	5320.5732
723.15845	5321.9424
723.7677	5303.8389
724.37701	5242.2178
724.98627	5217.9946
725.59558	5215.1089
726.2049	5268.7002
726.81415	5215.813
727.42346	5123.5732
728.03271	5121.8486
728.64203	5163.4556
729.25128	5165.8726
729.8606	5163.6338
730.46991	5057.7939
731.07916	5129.3604
731.68848	5097.0503
732.29773	5045.4277
732.90704	5071.3618
733.5163	5052.7822
734.12561	5023.6465
734.73492	5024.8379
735.34418	5006.6621
735.95349	5087.0356
736.56274	5018.9468
737.17206	5033.5049
737.78131	4923.2383
738.39063	4866.1206
738.99994	4994.9038
739.60919	4947.8257
740.21851	4985.2305
740.82776	4981.2764
741.43707	4940.8267
742.04633	4943.875
742.65564	4952.1616
743.26489	4900.7246
743.87421	4859.3193
744.48352	4808.1611
745.09277	4867.8599
745.70209	4855.7764
746.31134	4812.8008
746.92065	4786.3428
747.52991	4880.2534
748.13922	4805.9624
748.74854	4805.0679
749.35779	4773.7803
749.9671	4728.7734
750.57635	4786.7671
751.18567	4728.2974
751.79492	4688.9473
752.40424	4676.3223
753.01355	4659.5859
753.6228	4658.6548
754.23212	4653.8945
754.84137	4655.5386
755.45068	4519.4233
756.05994	4484.6465
756.66925	4543.0464
757.2785	4473.1602
757.88782	4536.3574
758.49713	4525.6929
759.10638	4581.8999
759.7157	4586.4233
760.32495	4524.0083
760.93427	4489.2344
761.54352	4486.9795
762.15283	4418.5586
762.76215	4421.395
763.3714	4490.3696
763.98071	4441.5713
764.58997	4390.0537
765.19928	4389.5801
765.80853	4327.354
766.41785	4327.6494
767.02716	4209.6025
767.63641	4305.7588
768.24573	4297.4854
768.85498	4269.8569
769.46429	4216.5068
770.07355	4256.5537
770.68286	4216.082
771.29218	4238.6533
771.90143	4217.8208
772.51074	4206.0396
773.12	4195.1919
773.72931	4124.166
774.33856	4088.053
774.94788	4088.949
775.55713	4065.5496
776.16644	4109.6914
776.77576	4028.2063
777.38501	4049.1838
777.99432	4017.946
778.60358	4011.6951
779.21289	3987.0378
779.82214	3967.8853
780.43146	3888.248
781.04077	3888.5376
781.65002	3867.9731
782.25934	3880.6257
782.86859	3821.114
783.47791	3785.583
784.08716	3802.8027
784.69647	3807.0747
785.30579	3661.3545
785.91504	3602.1621
786.52435	3670.0703
787.13361	3736.2266
787.74292	3713.4465
788.35217	3620.6011
788.96149	3613.7017
789.5708	3576.8694
790.18005	3530.1191
790.78937	3564.2219
791.39862	3511.1772
792.00793	3492.1995
792.61719	3449.6301
793.2265	3446.5142
793.83575	3435.8906
794.44507	3297.062
795.05438	3319.27
795.66364	3258.5542
796.27295	3245.6592
796.8822	3318.7302
797.49152	3232.8152
798.10077	3239.792
798.71008	3174.2449
799.3194	3183.7231
799.92865	3173.5378
800.53796	3140.3955
801.14722	3166.9932
801.75653	3117.9131
802.36578	3076.0303
802.9751	3042.0249
803.58441	3042.344
804.19366	2970.78
804.80298	2978.9202
805.41223	2935.4036
806.02155	2906.4082
806.6308	2926.1858
807.24011	2907.5217
807.84943	2954.7803
808.45868	2848.2922
809.06799	2862.1179
809.67725	2832.3054
810.28656	2811.2498
810.89581	2790.5249
811.50513	2787.2214
812.11438	2796.3418
812.72369	2728.8606
813.33301	2678.6768
813.94226	2740.7388
814.55157	2750.6521
815.16083	2719.4294
815.77014	2698.1038
816.37939	2648.8018
816.98871	2684.7517
817.59802	2690.5137
818.20728	2684.3665
818.81659	2670.7708
819.42584	2613.1765
820.03516	2646.8479
820.64441	2675.0088
821.25372	2614.5198
821.86304	2674.6631
822.47229	2641.4133
823.0816	2633.3281
823.69086	2582.8208
824.30017	2626.1638
824.90942	2593.4827
825.51874	2597.9597
826.12805	2528.4915
826.7373	2585.925
827.34662	2618.6526
827.95587	2569.9719
828.56519	2558.7971
829.17444	2573.5691
829.78375	2564.7964
830.39301	2566.9658
831.00232	2521.2813
831.61163	2545.3352
832.22089	2530.8843
832.8302	2560.0278
833.43945	2540.5911
834.04877	2574.3801
834.65802	2537.5432
835.26733	2557.4973
835.87665	2548.1743
836.4859	2562.54
837.09521	2527.3909
837.70447	2518.4192
838.31378	2570.1707
838.92303	2556.25
839.53235	2569.8081
840.14166	2582.5688
840.75092	2513.7832
841.36023	2470.6907
841.96948	2582.125
842.5788	2568.4932
843.18805	2573.5193
843.79736	2560.1055
844.40668	2556.175
845.01593	2575.8296
845.62524	2554.3887
846.2345	2557.5107
846.84381	2569.7815
847.45306	2556.8079
848.06238	2541.3831
848.67163	2563.1912
849.28094	2535.9277
849.89026	2549.3167
850.49951	2560.5723
851.10883	2571.1245
851.71808	2522.5806
852.32739	2524.2119
852.93665	2598.9436
853.54596	2590.2778
854.15527	2548.7588
854.76453	2545.7908
855.37384	2545.2866
855.98309	2539.0735
856.59241	2561.7913
857.20166	2589.9856
857.81097	2569.1235
858.42029	2531.9851
859.02954	2567.5298
859.63885	2568.2295
860.24811	2522.0366
860.85742	2520.0105
861.46667	2573.8384
862.07599	2580.2864
862.68524	2580.9734
863.29456	2567.3271
863.90387	2519.7205
864.51312	2568.7986
865.12244	2565.0925
865.73169	2580.8159
866.341	2576.3289
866.95026	2557.4268
867.55957	2561.8567
868.16888	2636.5342
868.77814	2601.0806
869.38745	2558.1294
869.9967	2586.2827
870.60602	2538.3071
871.21527	2535.5537
871.82458	2621.9746
872.4339	2629.6267
873.04315	2606.2449
873.65247	2597.2383
874.26172	2600.5732
874.87103	2646.4368
875.48029	2638.2151
876.0896	2593.4167
876.69891	2555.3284
877.30817	2549.7466
877.91748	2599.1902
878.52673	2647.5203
879.13605	2646.5864
879.7453	2637.2227
880.35461	2634.2898
880.96387	2687.5063
881.57318	2656.0413
882.1825	2675.9727
882.79175	2650.0002
883.40106	2619.7954
884.01031	2670.0811
884.61963	2701.1936
885.22888	2652.5649
885.8382	2707.406
886.44751	2742.7119
887.05676	2700.3831
887.66608	2704.907
888.27533	2722.0454
888.88464	2712.5176
889.4939	2708.7864
890.10321	2746.2261
890.71252	2741.0208
891.32178	2769.9524
891.93109	2756.4351
892.54034	2731.6909
893.14966	2756.4871
893.75891	2746.8535
894.36823	2744.8088
894.97754	2842.9446
895.58679	2873.1519
896.19611	2847.3706
896.80536	2857.4216
897.41467	2838.7461
898.02393	2804.0281
898.63324	2863.1587
899.24249	2869.8909
899.85181	2877.3604
900.46112	2939.7559
901.07037	2944.752
901.67969	2932.3018
902.28894	2957.3167
902.89825	3005.7217
903.50751	3016.7334
904.11682	2988.9646
904.72614	2995.6909
905.33539	3030.7473
905.9447	3056.2559
906.55396	3078.9553
907.16327	3067.8633
907.77252	3090.7476
908.38184	3139.0078
908.99115	3167.3491
909.6004	3140.2712
910.20972	3168.4023
910.81897	3175.7417
911.42828	3178.2339
912.03754	3249.5969
912.64685	3201.4255
913.25616	3251.5254
913.86542	3260.4065
914.47473	3265.355
915.08398	3262.7471
915.6933	3291.6709
916.30255	3361.6455
916.91187	3361.9568
917.52112	3416.5833
918.13043	3447.7351
918.73975	3492.3682
919.349	3511.8115
919.95831	3542.0215
920.56757	3507.0005
921.17688	3551.6399
921.78613	3619.5681
922.39545	3597.6155
923.00476	3683.5603
923.61401	3750.9624
924.22333	3712.6072
924.83258	3732.0925
925.44189	3775.6309
926.05115	3796.6091
926.66046	3876.5728
927.26978	3932.0891
927.87903	3918.7915
928.48834	3958.835
929.0976	3979.8923
929.70691	3980.8699
930.31616	3996.4165
930.92548	4019.2881
931.53479	4097.9932
932.14404	4152.6709
932.75336	4185.4419
933.36261	4236.7202
933.97192	4238.7373
934.58118	4235.9614
935.19049	4277.0269
935.79974	4336.3872
936.40906	4402.4121
937.01837	4394.1631
937.62762	4404.2515
938.23694	4496.4849
938.84619	4538.7949
939.45551	4489.3618
940.06476	4585.8496
940.67407	4619.1499
941.28339	4641.8633
941.89264	4675.0986
942.50195	4697.7534
943.11121	4798.2495
943.72052	4778.1143
944.32977	4698.0146
944.93909	4865.4937
945.5484	4940.3789
946.15765	4929.082
946.76697	4970.7646
947.37622	4974.9536
947.98553	4997.4365
948.59479	5061.8652
949.2041	5101.4751
949.81335	5139.4194
950.42267	5192.0425
951.03198	5225.6445
951.64124	5260.8564
952.25055	5281.4126
952.8598	5314.9263
953.46912	5320.3394
954.07837	5327.2173
954.68768	5378.6533
955.297	5399.2202
955.90625	5465.939
956.51556	5541.103
957.12482	5481.8823
957.73413	5538.8242
958.34338	5537.2739
958.9527	5580.3354
959.56201	5575.7153
960.17126	5650.1572
960.78058	5684.2251
961.38983	5666.252
961.99915	5623.873
962.6084	5708.9478
963.21771	5758.2339
963.82703	5795.0835
964.43628	5807.645
965.04559	5910.7637
965.65485	5966.6299
966.26416	5838.8457
966.87341	5870.502
967.48273	5867.0317
968.09198	5946.0562
968.70129	6008.793
969.31061	6021.0752
969.91986	6080.2271
970.52917	6042.9082
971.13843	6033.5625
971.74774	6101.0825
972.35699	6084.8296
972.96631	6113.4565
973.57562	6157.3975
974.18488	6181.4092
974.79419	6240.1846
975.40344	6241.0669
976.01276	6249.5239
976.62201	6244.2407
977.23132	6228.437
977.84064	6229.4292
978.44989	6320.3042
979.0592	6359.9834
979.66846	6335.8394
980.27777	6417.5723
980.88702	6378.8066
981.49634	6402.4321
982.10565	6376.2104
982.7149	6467.7212
983.32422	6420.8809
983.93347	6489.4595
984.54279	6493.0562
985.15204	6525.5796
985.76135	6530.3857
986.37061	6509.2207
986.97992	6536.9023
987.58923	6517.1025
988.19849	6611.1133
988.8078	6580.6938
989.41705	6609.1641
990.02637	6579.6626
990.63562	6636.688
991.24493	6696.4087
991.85425	6718.2666
992.4635	6682.2979
993.07281	6698.647
993.68207	6744.3804
994.29138	6805.9951
994.90063	6778.9453
995.50995	6732.8228
996.11926	6788.3931
996.72852	6775.9341
997.33783	6840.374
997.94708	6867.0732
998.5564	6936.2832
999.16565	6939.5962
999.77496	6902.4707
1000.3843	6916.7578
1000.9935	6946.0024
1001.6028	6950.043
1002.2121	6994.3833
1002.8214	6916.9087
1003.4307	7072.1826
1004.04	7095.2891
1004.6492	7047.2471
1005.2585	7048.3525
1005.8679	7112.333
1006.4771	7111.7925
1007.0864	7127.7231
1007.6957	7177.2598
1008.305	7199.8818
1008.9142	7193.8198
1009.5236	7231.293
1010.1329	7218.1465
1010.7421	7222.8828
1011.3514	7273.54
1011.9607	7324.3823
1012.57	7350.4072
1013.1793	7368.9199
1013.7886	7326.9463
1014.3979	7315.8945
1015.0071	7357.355
1015.6165	7400.5439
1016.2257	7416.5776
1016.835	7425.9141
1017.4443	7475.0352
1018.0536	7523.1865
1018.6629	7560.6807
1019.2722	7506.9854
1019.8815	7512.4263
1020.4907	7498.5552
1021.1	7577.2822
1021.7093	7679.6318
1022.3186	7616.4619
1022.9279	7646.9243
1023.5372	7646.1768
1024.1465	7658.3452
1024.7557	7659.0068
1025.365	7693.0767
1025.9744	7712.8257
1026.5836	7752.374
1027.1929	7745.5444
1027.8022	7784.7651
1028.4115	7790.0244
1029.0208	7771.3257
1029.63	7823.2368
1030.2394	7869.5684
1030.8486	7939.5117
1031.4579	7955.8066
1032.0671	7943.1528
1032.6765	7898.9507
1033.2858	8001.1108
1033.895	7986.6724
1034.5044	8012.9209
1035.1136	8086.7695
1035.7229	8117.4902
1036.3322	8115.1938
1036.9415	8082.335
1037.5508	8067.4351
1038.16	8103.3682
1038.7694	8121.0566
1039.3787	8135.5703
1039.9879	8189.7754
1040.5972	8166.8047
1041.2065	8164.355
1041.8158	8206.7705
1042.425	8197.125
1043.0344	8235.9307
1043.6437	8310.9121
1044.2529	8206.8359
1044.8622	8277.3027
1045.4716	8251.9258
1046.0808	8361.9756
1046.6901	8223.8926
1047.2994	8315.0488
1047.9087	8294.7988
1048.5179	8207.2793
1049.1272	8342.9922
1049.7366	8284.6758
1050.3458	8323.5586
1050.9551	8265.9121
1051.5645	8296.6709
1052.1737	8360.4521
1052.783	8289.8916
1053.3922	8326.4902
1054.0016	8413.5293
1054.6108	8368.6582
1055.2201	8366.0313
1055.8295	8372.6895
1056.4387	8372.9873
1057.048	8389.8662
1057.6572	8327.71
1058.2666	8336.3545
1058.8759	8375.499
1059.4851	8300.3203
1060.0945	8329.2441
1060.7037	8341.7803
1061.313	8270.6953
1061.9222	8274.6748
1062.5316	8252.7451
1063.1409	8270.8984
1063.7501	8322.4375
1064.3594	8349.1689
1064.9688	8313.9727
1065.578	8204.0186
1066.1873	8167.2866
1066.7966	8192.1152
1067.4059	8180.3013
1068.0151	8172.6631
1068.6244	8098.1494
1069.2338	8110.0449
1069.843	8094.8213
1070.4523	8040.3203
1071.0616	7991.6475
1071.6709	8023.7642
1072.2802	8039.8398
1072.8894	8025.8784
1073.4988	7967.3633
1074.108	7921.8213
1074.7173	7910.4478
1075.3267	7925.1831
1075.9359	7794.2842
1076.5452	7742.8472
1077.1544	7755.6792
1077.7638	7717.4692
1078.373	7718.6226
1078.9823	7667.4761
1079.5917	7668.1826
1080.2009	7639.7114
1080.8102	7477.2485
1081.4194	7609.4849
1082.0288	7572.8022
1082.6381	7522.4302
1083.2473	7501.7285
1083.8567	7428.5737
1084.4659	7413.855
1085.0752	7339.7261
1085.6844	7265.1348
1086.2938	7308.1367
1086.9031	7274.4688
1087.5123	7289.3057
1088.1217	7215.7349
1088.731	7177.5786
1089.3402	7098.9858
1089.9495	7108.1563
1090.5588	7027.2461
1091.1681	7024.9741
1091.7773	6968.8574
1092.3867	6900.0356
1092.996	6913.4653
1093.6052	6815.1724
1094.2145	6754.4761
1094.8239	6828.1226
1095.4331	6809.5332
1096.0424	6682.9219
1096.6517	6700.7451
1097.261	6688.8677
1097.8702	6565.9546
1098.4795	6517.1572
1099.0889	6517.627
1099.6981	6436.7705
1100.3074	6365.062
1100.9166	6358.502
1101.526	6300.1704
1102.1353	6305.4395
1102.7445	6238.0718
1103.3539	6222.1387
1103.9631	6244.894
1104.5724	6209.2471
1105.1816	6163.1694
1105.791	6130.3647
1106.4003	6107.5269
1107.0095	6061.2837
1107.6189	5959.6055
1108.2281	5862.2202
1108.8374	5897.9019
1109.4467	5894.9209
1110.056	5834.041
1110.6653	5824.9746
1111.2745	5662.0913
1111.8839	5671.918
1112.4932	5646.8003
1113.1024	5597.2021
1113.7117	5571.0381
1114.321	5515.7515
1114.9303	5522.3076
1115.5396	5503.7773
1116.1489	5480.9805
1116.7582	5351.6255
1117.3674	5368.3574
1117.9767	5236.6489
1118.5861	5204.0332
1119.1953	5243.8735
1119.8046	5174.1914
1120.4139	5104.5654
1121.0232	5108.7974
1121.6324	5045.5376
1122.2417	4976.1758
1122.8511	4937.6836
1123.4603	4972.4336
1124.0696	4912.2026
1124.679	4863.0195
1125.2882	4806.9644
1125.8975	4790.2896
1126.5067	4740.2163
1127.1161	4689.1675
1127.7253	4726.8784
1128.3346	4621.3901
1128.944	4540.6533
1129.5532	4622.2124
1130.1625	4581.0708
1130.7717	4547.0776
1131.3811	4436.5596
1131.9904	4384.5757
1132.5996	4382.2725
1133.2089	4366.0244
1133.8182	4365.6001
1134.4275	4334.9136
1135.0367	4279.5981
1135.6461	4181.2021
1136.2554	4177.9028
1136.8646	4180.6963
1137.4739	4133.6855
1138.0833	4073.1904
1138.6925	3993.8264
1139.3018	3949.5623
1139.9111	3922.6616
1140.5204	3867.9456
1141.1296	4012.238
1141.7389	3905.9243
1142.3483	3903.9373
1142.9575	3807.9021
1143.5668	3680.2991
1144.1761	3671.9968
1144.7854	3693.4226
1145.3947	3663.0308
1146.0039	3642.4468
1146.6133	3547.0818
1147.2225	3551.051
1147.8318	3556.6589
1148.4412	3508.6887
1149.0504	3408.1658
1149.6597	3433.0969
1150.2689	3375.4475
1150.8783	3378.6858
1151.4875	3326.645
1152.0968	3357.0203
1152.7062	3297.3621
1153.3154	3304.272
1153.9247	3187.3369
1154.5339	3243.751
1155.1433	3133.3091
1155.7526	3081.1936
1156.3618	3114.304
1156.9712	3114.2341
1157.5804	3040.6665
1158.1897	3001.1777
1158.799	3005.4678
1159.4083	2939.9343
1160.0176	2906.7766
1160.6268	2913.929
1161.2362	2856.636
1161.8455	2814.0356
1162.4547	2841.6509
1163.064	2779.9778
1163.6733	2710.2317
1164.2826	2689.7861
1164.8918	2685.7427
1165.5012	2615.249
1166.1105	2627.4897
1166.7197	2658.9656
1167.329	2628.6248
1167.9384	2584.4495
1168.5476	2527.8176
1169.1569	2484.6963
1169.7661	2491.5261
1170.3755	2509.7498
1170.9847	2447.1111
1171.594	2417.9763
1172.2034	2399.073
1172.8126	2402.6306
1173.4219	2365.6626
1174.0311	2303.9065
1174.6405	2288.0764
1175.2498	2269.5178
1175.859	2272.906
1176.4684	2253.3843
1177.0776	2275.2273
1177.6869	2210.8005
1178.2961	2186.063
1178.9055	2209.6208
1179.5148	2180.9243
1180.124	2149.9333
1180.7334	2150.4097
1181.3427	2178.8621
1181.9519	2143.5181
1182.5612	2143.8403
1183.1705	2098.1885
1183.7798	2058.053
1184.389	2032.8752
1184.9984	2026.5168
1185.6077	2018.7991
1186.2169	2041.9092
1186.8262	1996.4807
1187.4355	1969.5713
1188.0448	2006.5024
1188.6541	1978.5598
1189.2634	1981.3599
1189.8727	1964.5205
1190.4819	1931.2239
1191.0912	1904.9619
1191.7006	1892.4041
1192.3098	1927.4387
1192.9191	1883.2087
1193.5284	1850.7712
1194.1377	1885.8503
1194.7469	1886.1145
1195.3562	1886.7485
1195.9656	1897.3466
1196.5748	1906.9523
1197.1841	1850.0403
1197.7935	1848.4473
1198.4027	1814.0264
1199.012	1839.593
1199.6212	1849.9517
1200.2306	1850.3171
1200.8398	1803.2402
1201.4491	1830.0798
1202.0585	1799.6204
1202.6677	1792.1226
1203.277	1817.9492
1203.8862	1798.0986
1204.4956	1802.6624
1205.1049	1816.2939
1205.7141	1777.5026
1206.3234	1752.9625
1206.9327	1762.2448
1207.542	1761.173
1208.1512	1748.0402
1208.7606	1741.8571
1209.3699	1777.6124
1209.9791	1764.1787
1210.5884	1736.6039
1211.1978	1724.3881
1211.807	1755.075
1212.4163	1755.4493
1213.0256	1706.8223
1213.6349	1693.6169
1214.2441	1707.1978
1214.8534	1713.9493
1215.4628	1718.318
1216.072	1694.2831
1216.6813	1667.1874
1217.2906	1673.604
1217.8999	1631.6143
1218.5092	1656.8257
1219.1184	1670.3191
1219.7278	1665.1207
1220.337	1678.2668
1220.9463	1640.0419
1221.5557	1697.2657
1222.1649	1649.5668
1222.7742	1721.0583
1223.3834	1672.3263
1223.9928	1683.6985
1224.6021	1688.6527
1225.2113	1652.3827
1225.8207	1645.5702
1226.4299	1662.5953
1227.0392	1649.1652
1227.6484	1644.3362
1228.2578	1670.1843
1228.8671	1642.4438
1229.4763	1653.9386
1230.0857	1559.5038
1230.6949	1606.199
1231.3042	1635.7275
1231.9135	1660.0217
1232.5228	1668.3696
1233.1321	1659.7823
1233.7413	1654.6157
1234.3507	1627.4646
1234.96	1611.156
1235.5692	1613.4934
1236.1785	1588.3821
1236.7878	1609.7448
1237.3971	1599.4313
1238.0063	1589.666
1238.6156	1607.9622
1239.225	1622.771
1239.8342	1589.5228
1240.4435	1602.9152
1241.0529	1587.2297
1241.6621	1605.7705
1242.2714	1570.3748
1242.8806	1619.0071
1243.49	1621.9913
1244.0992	1591.1438
1244.7085	1627.5125
1245.3179	1615.0845
1245.9271	1599.2106
1246.5364	1597.9534
1247.1456	1603.3873
1247.755	1574.4816
1248.3643	1563.203
1248.9735	1595.0237
1249.5829	1522.2651
1250.1921	1593.047
1250.8014	1611.73
1251.4106	1584.868
1252.02	1600.1552
1252.6293	1550.5795
1253.2385	1598.433
1253.8479	1568.3761
1254.4572	1540.2665
1255.0664	1563.6378
1255.6757	1548.0233
1256.285	1535.0392
1256.8943	1586.5624
1257.5035	1597.064
1258.1129	1580.8485
1258.7222	1572.4314
1259.3314	1555.7075
1259.9407	1581.0403
1260.55	1599.1294
1261.1593	1545.1223
1261.7686	1541.8613
1262.3779	1529.8663
1262.9872	1555.3627
1263.5964	1528.6559
1264.2057	1571.2094
1264.8151	1548.8373
1265.4243	1561.7644
1266.0336	1551.7035
1266.6429	1514.6841
1267.2522	1549.1549
1267.8615	1584.6097
1268.4707	1567.4414
1269.0801	1529.675
1269.6893	1585.7827
1270.2986	1570.7183
1270.908	1560.0402
1271.5172	1619.9736
1272.1265	1593.1211
1272.7357	1540.0616
1273.3451	1566.9967
1273.9543	1523.1715
1274.5636	1516.6832
1275.1729	1580.9972
1275.7822	1531.3915
1276.3915	1518.6362
1277.0007	1496.2649
1277.6101	1549.818
1278.2194	1502.3287
1278.8286	1576.5402
1279.4379	1495.5363
1280.0472	1503.7538
1280.6565	1517.2555
1281.2657	1526.6661
1281.8751	1512.8293
1282.4844	1520.2502
1283.0936	1532.9821
1283.7029	1534.0742
1284.3123	1548.6405
1284.9215	1569.2811
1285.5308	1477.9336
1286.1401	1495.4456
1286.7494	1533.5282
1287.3586	1555.0228
1287.9679	1559.4027
1288.5773	1524.1577
1289.1865	1560.3275
1289.7958	1514.4456
1290.4052	1526.7339
1291.0144	1520.514
1291.6237	1541.5298
1292.2329	1511.1833
1292.8423	1547.047
1293.4515	1571.5026
1294.0608	1513.8811
1294.6702	1495.0067
1295.2794	1460.4965
1295.8887	1534.5487
1296.4979	1506.2552
1297.1073	1501.3732
1297.7166	1503.7587
1298.3258	1526.5781
1298.9352	1532.0944
1299.5444	1521.704
1300.1537	1539.8018
1300.7629	1476.135
1301.3723	1462.2302
1301.9816	1516.6058
1302.5908	1539.9067
1303.2002	1543.5846
1303.8094	1475.7009
1304.4187	1522.5472
1305.028	1509.0812
1305.6373	1506.9747
1306.2466	1522.5797
1306.8558	1516.6444
1307.4652	1528.3853
1308.0745	1506.1715
1308.6837	1491.6166
1309.293	1532.0139
1309.9023	1475.2671
1310.5116	1482.0626
1311.1208	1492.9684
1311.7301	1480.4159
1312.3395	1524.6753
1312.9487	1512.8693
1313.558	1528.4305
1314.1674	1505.665
1314.7766	1517.5603
1315.3859	1510.0526
1315.9951	1510.6185
1316.6045	1517.0935
1317.2137	1524.7935
1317.823	1516.064
1318.4324	1495.7019
1319.0416	1501.9939
1319.6509	1485.817
1320.2601	1522.4114
1320.8695	1521.0304
1321.4788	1497.1877
1322.088	1513.735
1322.6974	1484.6312
1323.3066	1474.0551
1323.9159	1477.3926
1324.5251	1507.9587
1325.1345	1506.995
1325.7438	1555.5026
1326.353	1481.5525
1326.9624	1426.6821
1327.5717	1526.9298
1328.1809	1511.9218
1328.7902	1449.8019
1329.3995	1489.3429
1330.0088	1520.8906
1330.618	1539.3689
1331.2274	1535.4021
1331.8367	1504.8505
1332.4459	1527.441
1333.0552	1504.5519
1333.6646	1493.678
1334.2738	1539.9362
1334.8831	1501.0566
1335.4924	1458.8389
1336.1017	1483.6344
1336.7109	1495.1648
1337.3202	1507.0907
1337.9296	1511.4775
1338.5388	1488.1635
1339.1481	1512.7191
1339.7574	1529.1676
1340.3667	1486.2533
1340.976	1496.1799
1341.5852	1496.0542
1342.1946	1488.5034
1342.8038	1512.5411
1343.4131	1471.4648
1344.0223	1463.2029
1344.6317	1502.2148
1345.241	1491.238
1345.8502	1495.103
1346.4596	1503.1594
1347.0688	1463.5239
1347.6781	1474.3341
1348.2874	1512.96
1348.8967	1483.5022
1349.506	1445.96
1350.1152	1474.1881
1350.7246	1487.5171
1351.3339	1512.3475
1351.9431	1533.9298
1352.5524	1526.9387
1353.1617	1501.1356
1353.771	1492.1288
1354.3802	1477.673
1354.9896	1492.4163
1355.5989	1491.021
1356.2081	1453.9973
1356.8174	1474.6101
1357.4268	1472.9342
1358.036	1497.301
1358.6453	1469.8799
1359.2546	1453.7594
1359.8639	1442.941
1360.4731	1511.4097
1361.0824	1486.2374
1361.6918	1478.0388
1362.301	1489.5594
1362.9103	1481.0255
1363.5197	1477.0782
1364.1289	1472.1952
1364.7382	1430.7622
1365.3474	1467.6851
1365.9568	1436.7946
1366.566	1451.9758
1367.1753	1519.8912
1367.7847	1496.8588
1368.3939	1494.5039
1369.0032	1529.0083
1369.6124	1474.6052
1370.2218	1498.7847
1370.8311	1511.4409
1371.4403	1493.9232
1372.0497	1475.3304
1372.6589	1491.0742
1373.2682	1495.5337
1373.8774	1511.0145
1374.4868	1492.9419
1375.0961	1501.2422
1375.7053	1498.485
1376.3147	1421.9993
1376.924	1471.4614
1377.5332	1489.5793
1378.1425	1505.9923
1378.7518	1498.472
1379.3611	1517.8977
1379.9703	1468.3085
1380.5796	1467.0741
1381.189	1478.0337
1381.7982	1454.5989
1382.4075	1490.0033
1383.0168	1500.1975
1383.6261	1504.124
1384.2354	1457.7953
1384.8446	1485.3597
1385.454	1454.72
1386.0632	1474.6157
1386.6725	1490.9897
1387.2819	1455.4114
1387.8911	1430.2535
1388.5004	1443.0022
1389.1096	1450.2937
1389.719	1477.5911
1390.3282	1435.7366
1390.9375	1405.4578
1391.5469	1431.6146
1392.1561	1461.8904
1392.7654	1447.6221
1393.3746	1446.0818
1393.984	1453.7572
1394.5933	1426.4337
1395.2025	1413.5405
1395.8119	1482.1411
1396.4211	1494.5981
1397.0304	1429.6382
1397.6396	1479.6042
1398.249	1416.252
1398.8583	1485.8066
1399.4675	1449.4584
1400.0769	1401.8689
1400.6862	1427.4099
1401.2954	1464.6671
1401.9047	1459.7966
1402.514	1462.5533
1403.1233	1447.8549
1403.7325	1449.1034
1404.3419	1411.53
1404.9512	1433.9032
1405.5604	1440.6865
1406.1697	1454.8384
1406.7791	1457.5594
1407.3883	1432.8356
1407.9976	1441.4282
1408.6069	1459.0861
1409.2162	1439.2954
1409.8254	1467.0032
1410.4347	1437.1472
1411.0441	1429.0685
1411.6533	1410.9
1412.2626	1458.5873
1412.8718	1443.3324
1413.4812	1416.7269
1414.0905	1387.4091
1414.6997	1382.8462
1415.3091	1454.5721
1415.9183	1438.3608
1416.5276	1484.7391
1417.1368	1454.281
1417.7462	1416.2195
1418.3555	1381.1652
1418.9647	1451.8245
1419.5741	1441.656
1420.1833	1447.509
1420.7926	1423.8771
1421.4019	1407.825
1422.0112	1428.8726
1422.6205	1425.0601
1423.2297	1438.2529
1423.8391	1412.4519
1424.4484	1397.8706
1425.0576	1436.6062
1425.6669	1409.6954
1426.2762	1390.8793
1426.8855	1399.5135
1427.4948	1392.2913
1428.1041	1405.8733
1428.7134	1437.8527
1429.3226	1407.4973
1429.9319	1394.7577
1430.5413	1425.6387
1431.1505	1428.3572
1431.7598	1399.3431
1432.3691	1394.2369
1432.9784	1416.8535
1433.5876	1366.4709
1434.1969	1362.7438
1434.8063	1410.9116
1435.4155	1415.4703
1436.0248	1424.5367
1436.6342	1409.2383
1437.2434	1377.5466
1437.8527	1390.9395
1438.4619	1401.6783
1439.0713	1424.745
1439.6805	1414.6689
1440.2898	1387.3812
1440.8992	1364.1602
1441.5084	1392.8311
1442.1177	1394.1892
1442.7269	1387.3893
1443.3363	1374.6736
1443.9456	1391.0963
1444.5548	1397.4292
1445.1642	1383.3456
1445.7734	1378.5842
1446.3827	1369.049
1446.9919	1363.652
1447.6013	1403.7423
1448.2106	1367.9987
1448.8198	1418.7062
1449.4291	1381.2135
1450.0385	1414.3583
1450.6477	1405.9681
1451.257	1352.5024
1451.8663	1362.9878
1452.4756	1394.0699
1453.0848	1368.444
1453.6941	1365.2125
1454.3035	1378.2036
1454.9127	1372.7485
1455.522	1379.8369
1456.1313	1350.2407
1456.7406	1372.6412
1457.3499	1384.9944
1457.9591	1364.3163
1458.5685	1369.8738
1459.1777	1405.0547
1459.787	1397.0103
1460.3964	1363.1219
1461.0056	1371.817
1461.6149	1401.2179
1462.2241	1343.2961
1462.8335	1333.6854
1463.4427	1354.194
1464.052	1362.895
1464.6614	1334.2749
1465.2706	1402.8118
1465.8799	1317.6328
1466.4891	1336.0795
1467.0985	1358.5566
1467.7078	1355.5732
1468.317	1321.8516
1468.9264	1323.6525
1469.5356	1343.3961
1470.1449	1381.489
1470.7542	1353.9264
1471.3635	1348.5444
1471.9728	1344.4785
1472.582	1326.3048
1473.1914	1307.2181
1473.8007	1323.7402
1474.4099	1331.014
1475.0192	1328.5985
1475.6285	1283.1676
1476.2378	1369.0525
1476.847	1341.7212
1477.4564	1338.6141
1478.0657	1290.6327
1478.6749	1315.3655
1479.2842	1317.3414
1479.8936	1320.0212
1480.5028	1338.5231
1481.1121	1318.4586
1481.7214	1342.2994
1482.3307	1325.33
1482.9399	1333.6908
1483.5492	1322.6439
1484.1586	1353.0681
1484.7678	1359.1067
1485.3771	1354.8569
1485.9863	1338.2299
1486.5957	1299.6025
1487.205	1288.2233
1487.8142	1326.6655
1488.4236	1295.3898
1489.0328	1328.5616
1489.6421	1289.7599
1490.2513	1258.4335
1490.8607	1327.4767
1491.47	1278.6826
1492.0792	1289.2649
1492.6886	1325.429
1493.2979	1313.8804
1493.9071	1266.0498
1494.5164	1327.2516
1495.1257	1320.5632
1495.735	1312.9393
1496.3442	1304.2917
1496.9536	1283.0043
1497.5629	1288.1122
1498.1721	1263.7302
1498.7814	1327.2075
1499.3907	1280.4845
1500	1273.911
