20.040655	1888.1919
20.649942	2534.7546
21.25923	3207.6306
21.868517	3941.8816
22.477806	4446.3311
23.087093	4742.3403
23.696381	4895.5767
24.305668	4998.8784
24.914955	5198.2769
25.524242	5425.1489
26.13353	5774.7017
26.742817	5939.6089
27.352106	6211.4126
27.961393	6412.0063
28.570681	6602.9092
29.179968	6576.5146
29.789255	6438.5508
30.398542	6444.4941
31.00783	6557.4121
31.617117	6630.7856
32.226406	6799.0591
32.835693	6989.605
33.444981	7202.3755
34.054268	7325.707
34.663555	7563.7104
35.272842	7763.9316
35.88213	7919.8643
36.491417	8049.7085
37.100704	8088.4492
37.709991	8194.0947
38.319279	8084.4326
38.928566	8088.0327
39.537857	8209.6025
40.147144	8279.333
40.756432	8325.7432
41.365719	8427.8145
41.975006	8566.0137
42.584293	8744.627
43.193581	8920.1738
43.802868	8916.541
44.412155	9118.3438
45.021442	8765.3887
45.63073	8780.9443
46.240017	8818.2021
46.849304	8972.2236
47.458591	9091.873
48.067879	9192.2021
48.677166	9327.4131
49.286457	9387.7393
49.895744	9284.749
50.505032	9319.2715
51.114319	9248.2217
51.723606	9288.3652
52.332893	9332.8174
52.942181	9389.8613
53.551468	9403.9248
54.160755	9244.999
54.770042	9132.1572
55.37933	9203.6504
55.988617	9227.1963
56.597904	9219.3652
57.207191	9225.3145
57.816479	9437.5459
58.425766	9738.0381
59.035057	9894.6514
59.644344	10058.24
60.253632	9956.8916
60.862919	9619.4307
61.472206	9412.7402
62.081493	9505.5137
62.690781	9680.9424
63.300068	10197.486
63.909355	13141.983
64.518646	16955.801
65.12793	18390.23
65.737221	18354.416
66.346504	15144.707
66.955795	11332.222
67.565079	9614.0186
68.17437	9560.6348
68.783653	9419.3135
69.392944	9372.2021
70.002228	9391.3428
70.611519	9529.8203
71.220802	9632.0205
71.830093	9632.0166
72.439377	9589.1787
73.048668	9416.7314
73.657959	9382.5947
74.267242	9706.6016
74.876534	12111.441
75.485817	18743.549
76.095108	25451.145
76.704391	28202.186
77.313683	27842.311
77.922966	18459.586
78.532257	11317.615
79.141541	9270.3984
79.750832	9181.1768
80.360115	9175.748
80.969406	9295.373
81.57869	9535.1328
82.187981	9663.2305
82.797272	9783.5225
83.406555	9747.4287
84.015846	9618.3428
84.62513	9334.9697
85.234421	9233.8945
85.843704	9216.5498
86.452995	9216.6953
87.062279	9182.4961
87.67157	9171.5566
88.280853	9213.8574
88.890144	9163.8223
89.499428	9272.0234
90.108719	9240.9092
90.718002	9509.5781
91.327293	9468.1875
91.936577	9388.4375
92.545868	9248.2725
93.155159	9193.0908
93.764442	9267.1992
94.373734	9332.1582
94.983017	9291.1387
95.592308	9214.3232
96.201591	9087.1475
96.810883	9015.0713
97.420166	8988.8145
98.029457	9106.4424
98.638741	9184.8887
99.248032	9197.1064
99.857315	9161.2246
100.46661	9063.1729
101.07589	8961.4053
101.68518	8937.4082
102.29447	8940.4805
102.90376	8967.7334
103.51305	9041.4082
104.12233	8904.7715
104.73162	9040.0371
105.3409	9156.6348
105.9502	9227.6104
106.55948	9199.5674
107.16877	9160.1084
107.77805	9088.6348
108.38734	8935.3125
108.99663	8863.9268
109.60592	8865.5859
110.2152	8789.0762
110.82449	8827.2324
111.43378	8747.3223
112.04307	8784.1719
112.65236	8808.333
113.26164	8802.3154
113.87093	8868.3506
114.48022	9103.4883
115.08951	9466.8525
115.69879	9760.1191
116.30808	9771.5146
116.91737	9467.9492
117.52666	8796.4229
118.13594	8736.3848
118.74523	8652.6787
119.35452	8607.5215
119.96381	8534.9141
120.57309	8491.1465
121.18238	8514.0576
121.79167	8595.3125
122.40096	8708.7559
123.01025	8777.1309
123.61953	8727.4014
124.22882	8501.5361
124.8381	8460.583
125.4474	8406.3203
126.05668	8397.3115
126.66597	8354.2129
127.27525	8461.2295
127.88454	8562.707
128.49384	8453.2725
129.10312	8330.4326
129.7124	8421.6104
130.32169	8355.8301
130.93098	8288.1885
131.54027	8408.832
132.14955	8391.0469
132.75885	8342.2637
133.36813	8257.7598
133.97742	8276.3867
134.5867	8312.7549
135.196	8229.1738
135.80528	8171.5752
136.41457	8240.5293
137.02385	8218.1318
137.63315	8236.9355
138.24243	8242.8184
138.85172	8283.0615
139.461	8305.749
140.0703	8306.3711
140.67958	8238.6768
141.28886	8183.752
141.89816	8113.1343
142.50745	8105.0698
143.11673	8154.7124
143.72601	8139.2085
144.33531	8104.3633
144.9446	8138.2998
145.55388	8177.4292
146.16316	8116.0313
146.77246	8137.4272
147.38174	8068.4785
147.99103	8011.3335
148.60031	7970.5425
149.20961	8051.313
149.81889	8103.1465
150.42818	8055.4458
151.03748	8033.9873
151.64676	8000.9688
152.25604	8006.1904
152.86533	7975.2954
153.47462	8038.0405
154.08391	8021.4771
154.69319	7973.3613
155.30247	8061.4087
155.91177	7984.0347
156.52106	7926.1309
157.13034	7982.2822
157.73962	7993.5298
158.34892	7946.0332
158.95821	7994.9424
159.56749	8009.9937
160.17679	8024.3013
160.78607	7942.2598
161.39536	7958.5356
162.00464	7975.189
162.61394	7984.1982
163.22322	7969.0278
163.8325	7964.563
164.44179	7999.9673
165.05109	8015.062
165.66037	7984.1958
166.26965	7972.3906
166.87894	7956.4849
167.48824	8036.4453
168.09752	8007.5874
168.7068	7966.2715
169.31609	7988.7515
169.92538	7989.688
170.53467	8064.1387
171.14395	7999.915
171.75325	7952.2871
172.36253	7990.5093
172.97182	7999.8608
173.5811	7961.0776
174.1904	7934.3652
174.79968	8004.1001
175.40897	7879.9854
176.01825	8025.8633
176.62755	7943.1445
177.23683	7946.9043
177.84612	8061.0381
178.4554	8022.4463
179.0647	7948.8428
179.67398	7940.1714
180.28326	8021.0034
180.89256	8066.0776
181.50185	7989.7563
182.11113	8121.0737
182.72041	8041.1001
183.32971	8045.7412
183.939	8058.335
184.54828	8052.5688
185.15756	8165.4102
185.76686	8116.5806
186.37614	8069.0381
186.98543	8031.0562
187.59471	8035.9658
188.20401	8128.0347
188.81329	8156.0225
189.42258	8036.5591
190.03188	8114.2949
190.64116	8146.5308
191.25044	8178.0498
191.85973	8136.3062
192.46902	8202.2217
193.07831	8230.1631
193.68759	8297.6074
194.29688	8190.8511
194.90617	8126.5938
195.51546	8238.8867
196.12474	8293.501
196.73402	8221.0029
197.34332	8282.0869
197.95261	8326.3662
198.56189	8282.2314
199.17119	8321.0098
199.78047	8255.4219
200.38976	8284.5869
200.99904	8352.7383
201.60834	8341.3711
202.21762	8349.0264
202.8269	8350.2461
203.43619	8338.3877
204.04549	8304.9395
204.65477	8299.7119
205.26405	8398.8506
205.87334	8396.543
206.48264	8423.6289
207.09192	8480.1104
207.7012	8472.3926
208.3105	8404.0264
208.91978	8465.5127
209.52907	8550.7363
210.13835	8582.6465
210.74765	8534.0693
211.35693	8514.3379
211.96622	8563.1768
212.5755	8600.8359
213.1848	8609.0254
213.79408	8633.4043
214.40337	8636.7344
215.01265	8704.1416
215.62195	8578.0166
216.23123	8676.1094
216.84052	8703.9717
217.4498	8762.8301
218.0591	8769.7803
218.66838	8756.582
219.27766	8793.9004
219.88696	8810.3682
220.49625	8812.3838
221.10553	8860.4551
221.71481	8842.5674
222.32411	8801.7686
222.9334	8944.4775
223.54268	8866.2617
224.15196	8957.7764
224.76126	9038.4434
225.37054	9071.7402
225.97983	8979.9307
226.58911	9037.7969
227.19841	9042.1348
227.80769	9016.6113
228.41698	9048.8955
229.02628	9089.6758
229.63556	9118.8877
230.24484	9145.4893
230.85413	9150.1504
231.46342	9210.1318
232.07271	9169.5771
232.68199	9300.708
233.29128	9197.8457
233.90057	9226.0225
234.50986	9287.0107
235.11914	9267.0176
235.72842	9279.1396
236.33772	9312.1436
236.94701	9389.8037
237.55629	9443.4707
238.16559	9362.7383
238.77487	9388.3262
239.38416	9581.6973
239.99344	9529.0908
240.60274	9551.4648
241.21202	9569.9395
241.8213	9561.3438
242.43059	9638.3574
243.03989	9641.0752
243.64917	9714.2227
244.25845	9774.7998
244.86774	9799.7939
245.47704	9815.0039
246.08632	9791.3359
246.6956	9711.2354
247.3049	9703.2998
247.91418	9897.7217
248.52347	9837.0137
249.13275	9934.0811
249.74205	9958.6279
250.35133	9914.8252
250.96062	9993.5703
251.5699	10138.854
252.1792	10137.092
252.78848	10092.073
253.39777	10125.281
254.00705	10133.528
254.61635	10145.184
255.22563	10228.121
255.83492	10287.904
256.44421	10329.639
257.0535	10211.404
257.66278	10372.054
258.27206	10436.216
258.88135	10464.189
259.49063	10471.221
260.09995	10397.628
260.70923	10443.533
261.31851	10536.594
261.9278	10579.236
262.53708	10631.972
263.14636	10665.031
263.75565	10677.222
264.36493	10706.597
264.97424	10702.681
265.58353	10723.611
266.19281	10724.894
266.80209	10802.585
267.41138	10885.793
268.02066	10896.401
268.62994	10971.029
269.23926	10876.093
269.84854	10980.746
270.45782	10950.025
271.06711	11022.726
271.67639	11103.521
272.28568	11108.661
272.89496	11153.911
273.50424	11186.903
274.11356	11150.046
274.72284	11221.589
275.33212	11218.673
275.94141	11367.701
276.55069	11212.377
277.15997	11488.58
277.76926	11478.086
278.37857	11527.465
278.98785	11419.606
279.59714	11475.822
280.20642	11565.399
280.8157	11692.775
281.42499	11723.181
282.03427	11684.508
282.64355	11710.78
283.25287	11726.4
283.86215	11757.838
284.47144	11778.408
285.08072	11875.864
285.69	11836.746
286.29929	11931.651
286.90857	11969.778
287.51788	11965.369
288.12717	12032.668
288.73645	12052.098
289.34573	11984.871
289.95502	12032.256
290.5643	12180.97
291.17358	12198.85
291.78287	12193.591
292.39218	12301.114
293.00146	12316.169
293.61075	12367.825
294.22003	12443.8
294.82932	12501.53
295.4386	12396.554
296.04788	12596.87
296.6572	12485.97
297.26648	12496.787
297.87576	12527.148
298.48505	12589.633
299.09433	12532.236
299.70361	12586.12
300.3129	12704.472
300.92218	12753.989
301.53149	12736.951
302.14078	12733.123
302.75006	12794.971
303.35934	12796.745
303.96863	12794.549
304.57791	12832.012
305.18719	12997.223
305.79651	12959.463
306.40579	13112.871
307.01508	13103.497
307.62436	13033.205
308.23364	13004.481
308.84293	13077.995
309.45221	13236.976
310.06149	13230.359
310.67081	13213.544
311.28009	13261.122
311.88937	13252.219
312.49866	13279.8
313.10794	13312.314
313.71722	13336.213
314.32651	13441.575
314.93582	13506.582
315.5451	13366.364
316.15439	13510.491
316.76367	13528.627
317.37296	13462.691
317.98224	13537.851
318.59152	13568.505
319.20081	13684.383
319.81012	13791.499
320.4194	13781.692
321.02869	13776.589
321.63797	13825.48
322.24725	13816.794
322.85654	13814.95
323.46582	13901.64
324.07513	13831.919
324.68442	13990.81
325.2937	13917.279
325.90298	14042.262
326.51227	13977.372
327.12155	14038.187
327.73083	14021.703
328.34012	14112.806
328.94943	14037.561
329.55872	14242.146
330.168	14272.55
330.77728	14196.38
331.38657	14241.146
331.99585	14316.432
332.60513	14330.405
333.21442	14377.685
333.82373	14526.308
334.43301	14451.388
335.0423	14371.048
335.65158	14529.982
336.26086	14497.903
336.87015	14771.288
337.47943	14682.001
338.08875	14639.041
338.69803	14716.208
339.30731	14781.511
339.9166	14815.707
340.52588	14867.124
341.13516	14827.758
341.74445	14807.011
342.35373	14860.347
342.96304	14972.473
343.57233	15082.453
344.18161	15066.347
344.79089	15069.151
345.40018	15094.314
346.00946	15201.955
346.61874	15358.571
347.22806	15297.64
347.83734	15376.496
348.44662	15372.154
349.05591	15387.952
349.66519	15369.723
350.27448	15470.762
350.88376	15521.23
351.49304	15588.563
352.10236	15570.029
352.71164	15575.087
353.32092	15626.083
353.93021	15633.083
354.53949	15672.847
355.14877	15754.621
355.75806	15768.606
356.36737	15858.128
356.97665	16010.486
357.58594	15881.493
358.19522	15975.028
358.8045	15904.591
359.41379	16062.249
360.02307	16103.688
360.63235	16122.665
361.24167	16172.929
361.85095	16265.515
362.46024	16265.344
363.06952	16115.752
363.6788	16217.715
364.28809	16372.973
364.89737	16402.516
365.50668	16455.496
366.11597	16449.758
366.72525	16375.838
367.33453	16474.783
367.94382	16663.318
368.5531	16574.621
369.16238	16697.818
369.77167	16722.822
370.38098	16813.068
370.99026	16746.828
371.59955	16881.691
372.20883	16958.152
372.81812	16877.465
373.4274	16936.58
374.03668	16950.117
374.646	16904.342
375.25528	17007.057
375.86456	17166.15
376.47385	17136.729
377.08313	17071.248
377.69241	17161.547
378.3017	17170.279
378.91098	17108.686
379.52029	17327.43
380.12958	17399.854
380.73886	17369.578
381.34814	17470.928
381.95743	17465.834
382.56671	17482.813
383.17599	17544.139
383.78531	17617.143
384.39459	17581.547
385.00388	17549.777
385.61316	17657.16
386.22244	17583.266
386.83173	17537.791
387.44101	17507.459
388.05029	17611.387
388.65961	17756.471
389.26889	17777.959
389.87817	17760.287
390.48746	17768.752
391.09674	17778.189
391.70602	17734.205
392.31531	17949.695
392.92462	18106.402
393.53391	18092.066
394.14319	18074.553
394.75247	18103.965
395.36176	18094.939
395.97104	18058.635
396.58032	18121.666
397.18961	18149.709
397.79892	18217.965
398.4082	18227.389
399.01749	18164.07
399.62677	18115.148
400.23605	18301.973
400.84534	18412.385
401.45462	18365.447
402.06393	18409.273
402.67322	18417.107
403.2825	18343.445
403.89178	18408.672
404.50107	18402.395
405.11035	18365.102
405.71964	18411.252
406.32892	18369.863
406.93823	18617.59
407.54752	18456.908
408.1568	18428.771
408.76608	18642.588
409.37537	18686.332
409.98465	18535.186
410.59393	18711.732
411.20325	18818.039
411.81253	18798.457
412.42181	18887.662
413.0311	18827.137
413.64038	18841.49
414.24966	18944.498
414.85895	18944.764
415.46823	18826.023
416.07755	18773.326
416.68683	18874.066
417.29611	18800.283
417.9054	18949.451
418.51468	19032.73
419.12396	19111.035
419.73325	19203.109
420.34256	19266.553
420.95184	19191.604
421.56113	19223.088
422.17041	19276.742
422.77969	19184.582
423.38898	19246.441
423.99826	19278.438
424.60754	19283.213
425.21686	19316.191
425.82614	19289.936
426.43542	19239.381
427.04471	19390.818
427.65399	19445.303
428.26328	19461.561
428.87256	19526.771
429.48184	19451.793
430.09116	19466.309
430.70044	19603.783
431.30972	19558.059
431.91901	19511.535
432.52829	19635.906
433.13757	19511.346
433.74686	19551.406
434.35617	19248.287
434.96545	19519.406
435.57474	19564.359
436.18402	19653.559
436.7933	19568.752
437.40259	19640.869
438.01187	19687.336
438.62115	19567.014
439.23047	19588.047
439.83975	19636.744
440.44904	19512.84
441.05832	19511.541
441.6676	19586.189
442.27689	19604.525
442.88617	19617.771
443.49548	19659.994
444.10477	19618.098
444.71405	19461.82
445.32333	19475.48
445.93262	19648.08
446.5419	19637.133
447.15118	19588.861
447.76047	19509.018
448.36978	19409.891
448.97906	19498.076
449.58835	19412.705
450.19763	19301.537
450.80692	19368.58
451.4162	19494.281
452.02548	19428.037
452.6348	19327.232
453.24408	19344.514
453.85336	19338.475
454.46265	19353.311
455.07193	19171.004
455.68121	19079.617
456.2905	19052.287
456.89978	19006.348
457.50909	18995.184
458.11838	19034.137
458.72766	19041.291
459.33694	18985.242
459.94623	18987.939
460.55551	19016.52
461.16479	18876.803
461.77411	18759.189
462.38339	18812.625
462.99268	18649.848
463.60196	18562.414
464.21124	18694.973
464.82053	18610.355
465.42981	18513.229
466.03909	18343.777
466.64841	18385.627
467.25769	18364.225
467.86697	18325.102
468.47626	18293.523
469.08554	18178.236
469.69482	18194.225
470.30411	18122.779
470.91342	18057.334
471.52271	18017.273
472.13199	18013.465
472.74127	17997.447
473.35056	17936.305
473.95984	17854.303
474.56912	17903.352
475.17841	17956.945
475.78772	17925.58
476.397	17927.205
477.00629	17867.525
477.61557	17984.654
478.22485	18123.793
478.83414	18149.627
479.44342	18235.189
480.05273	18361.393
480.66202	18552.688
481.2713	18527.184
481.88058	18583.857
482.48987	18979.67
483.09915	18814.391
483.70844	18997.199
484.31772	19161.182
484.92703	19184.889
485.53632	19228.127
486.1456	19229.135
486.75488	19370.705
487.36417	19512.133
487.97345	19499.305
488.58273	19598.773
489.19205	19649.895
489.80133	19773.629
490.41061	19618.748
491.0199	19483.244
491.62918	19516.305
492.23846	19403.051
492.84775	19262.17
493.45703	19173.066
494.06635	19031.662
494.67563	18834.732
495.28491	18718.822
495.8942	18507.889
496.50348	18284.824
497.11276	17995.199
497.72205	17820.479
498.33136	17515.26
498.94064	17234.738
499.54993	17026.873
500.15921	16736.914
500.76849	16547.16
501.37778	16214.833
501.98706	15952.245
502.59634	15749.205
503.20566	15410.046
503.81494	15097.354
504.42422	14746.746
505.03351	14429.175
505.64279	14332.174
506.25208	14141.799
506.86136	13808.886
507.47067	13523.253
508.07996	13307.323
508.68924	13032.641
509.29852	12748.084
509.90781	12466.882
510.51709	12205.591
511.12637	11936.27
511.73566	11655.711
512.34497	11425.066
512.95422	11285.349
513.56354	11134.781
514.17279	10823.018
514.7821	10593.435
515.39142	10381.936
516.00067	10210.626
516.60999	10052.097
517.21924	9954.1592
517.82855	9725.9385
518.43781	9515.7139
519.04712	9371.3848
519.65643	9192.0371
520.26569	9022.4697
520.875	8952.499
521.48425	8688.9473
522.09357	8720.6123
522.70282	8470.0811
523.31213	8321.8564
523.92145	8241.9385
524.5307	8090.5005
525.14001	7979.8667
525.74927	7856.335
526.35858	7783.6362
526.96783	7770.3955
527.57715	7649.6128
528.18646	7548.6191
528.79572	7441.7939
529.40503	7357.6455
530.01428	7321.207
530.6236	7279.5752
531.23285	7183.4492
531.84216	7072.7446
532.45142	7040.6279
533.06073	6952.8828
533.67004	6860.8091
534.2793	6818.0718
534.88861	6749.6138
535.49786	6728.9438
536.10718	6666.5454
536.71643	6579.6338
537.32574	6596.7544
537.93506	6520.7266
538.54431	6460.7988
539.15363	6356.2319
539.76288	6367.7266
540.37219	6320.2168
540.98145	6181.4131
541.59076	6248.6089
542.20007	6237.9678
542.80933	6135.4165
543.41864	6116.04
544.02789	6036.9468
544.63721	6082.6904
545.24646	6022.4292
545.85577	5904.0933
546.46509	5955.2676
547.07434	5916.8125
547.68365	5842.646
548.29291	5805.3271
548.90222	5784.7959
549.51147	5754.3306
550.12079	5715.8833
550.73004	5678.9355
551.33936	5640.7935
551.94867	5619.4712
552.55792	5590.5024
553.16724	5524.1094
553.77649	5518.2192
554.3858	5505.9902
554.99506	5472.6729
555.60437	5442.5889
556.21368	5398.0005
556.82294	5389.293
557.43225	5374.2012
558.0415	5343.0195
558.65082	5326.8281
559.26007	5276.7817
559.86938	5246.6563
560.4787	5244.585
561.08795	5255.5679
561.69727	5207.2808
562.30652	5148.6108
562.91583	5176.1284
563.52509	5147.7554
564.1344	5127.7417
564.74365	5116.0308
565.35297	5109.3325
565.96228	5087.6421
566.57153	5089.665
567.18085	5035.8003
567.7901	5087.377
568.39941	5006.459
569.00867	5081.6367
569.61798	5027.8799
570.22729	5006.415
570.83655	4995.9331
571.44586	4949.4019
572.05511	4978.957
572.66443	5012.9268
573.27368	4987.2012
573.883	4928.6865
574.49231	4939.7754
575.10156	4967.7632
575.71088	4890.4424
576.32013	4994.0581
576.92944	4986.4448
577.5387	4965.5693
578.14801	4947.5469
578.75732	4961.4199
579.36658	4995.4277
579.97589	4999.4028
580.58514	5012.8452
581.19446	4995.4385
581.80371	4982.519
582.41302	5023.6289
583.02228	5045.9453
583.63159	5068.667
584.24091	5093.3687
584.85016	5046.291
585.45947	5103.0327
586.06873	5152.7246
586.67804	5140.1919
587.28729	5170.8716
587.89661	5213.167
588.50592	5261.686
589.11517	5271.7236
589.72449	5359.7646
590.33374	5396.3311
590.94305	5483.1255
591.55231	5495.9146
592.16162	5526.8071
592.77094	5626.7402
593.38019	5688.4282
593.9895	5708.0908
594.59875	5728.0669
595.20807	5848.0625
595.81732	5952.9526
596.42664	5967.75
597.03595	5964.3403
597.6452	6138.498
598.25452	6155.8892
598.86377	6215.6016
599.47308	6218.1177
600.08234	6286.6787
600.69165	6273.1929
601.3009	6280.9023
601.91022	6330.2485
602.51953	6368.8032
603.12878	6397.7407
603.7381	6343.6777
604.34735	6418.4243
604.95667	6349.269
605.56592	6382.4521
606.17523	6332.2041
606.78455	6308.7642
607.3938	6253.1738
608.00311	6229.3008
608.61237	6156.1631
609.22168	6121.7476
609.83093	6025.3828
610.44025	6045.2671
611.04956	5944.2319
611.65881	5937.5547
612.26813	5878.7153
612.87738	5797.2017
613.48669	5759.8579
614.09595	5654.3125
614.70526	5587.8232
615.31458	5540.2744
615.92383	5452.0127
616.53314	5370.7358
617.1424	5328.4937
617.75171	5260.0273
618.36096	5233.834
618.97028	5194.8926
619.57953	5084.6719
620.18884	5008.5957
620.79816	4973.0547
621.40741	4901.8379
622.01672	4801.4087
622.62598	4739.8926
623.23529	4705.585
623.84454	4661.1426
624.45386	4619.3711
625.06317	4560.8965
625.67242	4554.0176
626.28174	4484.3701
626.89099	4383.8823
627.50031	4415.3262
628.10956	4354.2305
628.71887	4346.1353
629.32819	4271.6987
629.93744	4219.8286
630.54675	4169.8257
631.15601	4136.7983
631.76532	4055.7878
632.37457	4028.9758
632.98389	4035.8171
633.5932	4000.4858
634.20245	4013.3381
634.81177	3910.6284
635.42102	3889.8003
636.03033	3887.2573
636.63959	3859.0256
637.2489	3838.6738
637.85815	3812.9302
638.46747	3782.8574
639.07678	3721.2307
639.68604	3715.2429
640.29535	3751.3149
640.9046	3705.4114
641.51392	3673.9641
642.12317	3621.6182
642.73248	3627.7705
643.3418	3618.8174
643.95105	3570.0466
644.56036	3565.0723
645.16962	3592.5042
645.77893	3558.8391
646.38818	3532.5833
646.9975	3526.7798
647.60681	3524.8896
648.21606	3499.2319
648.82538	3479.3809
649.43463	3476.5107
650.04395	3437.7656
650.6532	3427.2312
651.26251	3427.6875
651.87183	3444.1135
652.48108	3423.2668
653.09039	3414.4922
653.69965	3378.7693
654.30896	3333.1711
654.91821	3341.7026
655.52753	3370.9031
656.13678	3340.4639
656.74609	3323.98
657.35541	3392.9412
657.96466	3386.4143
658.57397	3335.2437
659.18323	3345.5374
659.79254	3309.6116
660.40179	3306.3687
661.01111	3262.6787
661.62042	3251.1636
662.22968	3297.2644
662.83899	3286.8674
663.44824	3294.9304
664.05756	3311.7888
664.66681	3268.3792
665.27612	3248.4526
665.88544	3235.9736
666.49469	3235.4802
667.104	3228.5432
667.71326	3234.2727
668.32257	3266.6384
668.93182	3270.1169
669.54114	3258.7412
670.15039	3201.7983
670.7597	3196.3413
671.36902	3223.7339
671.97827	3206.2126
672.58759	3170.8005
673.19684	3172.1616
673.80615	3190.2756
674.41541	3204.5354
675.02472	3204.2654
675.63403	3181.9509
676.24329	3195.5173
676.8526	3202.3728
677.46185	3185.0508
678.07117	3202.1809
678.68042	3204.2014
679.28973	3211.7737
679.89905	3193.5195
680.5083	3186.5422
681.11761	3202.97
681.72687	3202.8633
682.33618	3197.478
682.94543	3173.5845
683.55475	3195.4729
684.16406	3184.3728
684.77332	3219.4622
685.38263	3193.3921
685.99188	3147.7126
686.6012	3167.1091
687.21045	3205.8696
687.81976	3171.1062
688.42902	3183.387
689.03833	3139.4785
689.64764	3165.1731
690.2569	3159.0715
690.86621	3131.5735
691.47546	3188.2813
692.08478	3153.1123
692.69403	3108.0781
693.30334	3163.7324
693.91266	3151.5728
694.52191	3182.7063
695.13123	3171.0383
695.74048	3160.0571
696.34979	3153.3228
696.95905	3131.8545
697.56836	3118.7854
698.17767	3135.8503
698.78693	3154.5979
699.39624	3145.0142
700.00549	3143.7148
700.61481	3161.6257
701.22406	3100.8003
701.83337	3082.8044
702.44269	3133.2786
703.05194	3131.053
703.66125	3095.1284
704.27051	3127.7144
704.87982	3133.6582
705.48907	3131.9155
706.09839	3127.1208
706.70764	3139.2705
707.31696	3150.2063
707.92627	3148.6716
708.53552	3144.7827
709.14484	3128.2993
709.75409	3106.6658
710.3634	3110.5564
710.97266	3102.8044
711.58197	3094.4553
712.19128	3111.6104
712.80054	3106.0986
713.40985	3107.3811
714.0191	3150.4663
714.62842	3153.1958
715.23767	3125.6455
715.84698	3142.3521
716.4563	3127.5701
717.06555	3104.9243
717.67487	3123.3499
718.28412	3127.157
718.89343	3142.9336
719.50269	3137.8782
720.112	3133.4736
720.72131	3136.7671
721.33057	3139.229
721.93988	3105.9463
722.54913	3122.9592
723.15845	3142.5659
723.7677	3160.2595
724.37701	3138.9304
724.98627	3142.3831
725.59558	3145.9768
726.2049	3165.1208
726.81415	3132.9243
727.42346	3190.2944
728.03271	3147.5293
728.64203	3161.187
729.25128	3161.1741
729.8606	3175.1553
730.46991	3191.585
731.07916	3176.4138
731.68848	3146.533
732.29773	3142.0315
732.90704	3193.7195
733.5163	3181.8103
734.12561	3193.302
734.73492	3157.9333
735.34418	3154.7195
735.95349	3205.2112
736.56274	3221.5508
737.17206	3204.2349
737.78131	3234.4094
738.39063	3211.9836
738.99994	3220.865
739.60919	3177.1951
740.21851	3260.5352
740.82776	3230.5559
741.43707	3225.842
742.04633	3259.0227
742.65564	3188.3774
743.26489	3223.0898
743.87421	3294.5122
744.48352	3288.74
745.09277	3237.645
745.70209	3255.5557
746.31134	3279.2822
746.92065	3258.7495
747.52991	3282.5591
748.13922	3304.4609
748.74854	3243.2888
749.35779	3313.1401
749.9671	3314.5515
750.57635	3301.9607
751.18567	3276.9551
751.79492	3276.5298
752.40424	3333.3716
753.01355	3369.1494
753.6228	3329.1431
754.23212	3332.1519
754.84137	3361.5251
755.45068	3355.3438
756.05994	3362.8374
756.66925	3395.1614
757.2785	3282.9597
757.88782	3359.4316
758.49713	3414.8755
759.10638	3443.7954
759.7157	3442.98
760.32495	3369.8486
760.93427	3365.0864
761.54352	3418.3792
762.15283	3469.261
762.76215	3459.1221
763.3714	3490.1089
763.98071	3456.6956
764.58997	3498.115
765.19928	3559.9927
765.80853	3602.9736
766.41785	3594.0674
767.02716	3635.9207
767.63641	3671.4539
768.24573	3695.5225
768.85498	3770.6101
769.46429	3814.2649
770.07355	3851.6509
770.68286	3916.6174
771.29218	3971.8457
771.90143	4032.4084
772.51074	4071.4292
773.12	4111.9155
773.72931	4194.9639
774.33856	4244.5034
774.94788	4254.0747
775.55713	4354.6709
776.16644	4463.2534
776.77576	4473.0786
777.38501	4596.0063
777.99432	4677.9443
778.60358	4726.6362
779.21289	4685.9063
779.82214	4846.7852
780.43146	4868.582
781.04077	4912.0078
781.65002	4888.0752
782.25934	4947.5127
782.86859	4960.1143
783.47791	5103.7842
784.08716	5113.9775
784.69647	5072.5723
785.30579	5140.6646
785.91504	5204.8901
786.52435	5214.8613
787.13361	5184.5459
787.74292	5191.5874
788.35217	5236.6221
788.96149	5260.187
789.5708	5257.894
790.18005	5327.8018
790.78937	5371.4976
791.39862	5301.186
792.00793	5377.853
792.61719	5365.416
793.2265	5379.7427
793.83575	5368.9229
794.44507	5408.0229
795.05438	5353.9839
795.66364	5458.7085
796.27295	5459.8887
796.8822	5394.1104
797.49152	5402.0703
798.10077	5416.7036
798.71008	5467.3159
799.3194	5326.749
799.92865	5392.0273
800.53796	5439.147
801.14722	5453.916
801.75653	5411.9702
802.36578	5411.4785
802.9751	5453.0288
803.58441	5396.0366
804.19366	5415.0713
804.80298	5459.4033
805.41223	5447.4834
806.02155	5402.1104
806.6308	5387.6353
807.24011	5415.25
807.84943	5346.3989
808.45868	5344.793
809.06799	5339.7974
809.67725	5405.749
810.28656	5313.124
810.89581	5360.3066
811.50513	5325.5679
812.11438	5274.0767
812.72369	5308.5698
813.33301	5363.6919
813.94226	5311.3506
814.55157	5281.8203
815.16083	5290.207
815.77014	5234.2163
816.37939	5196.8896
816.98871	5229.7554
817.59802	5267.7173
818.20728	5204.1538
818.81659	5217.8354
819.42584	5207.5327
820.03516	5192.1143
820.64441	5201.2349
821.25372	5127.1958
821.86304	5154.9204
822.47229	5131.1943
823.0816	5182.3018
823.69086	5160.7432
824.30017	5070.3271
824.90942	5106.6372
825.51874	5031.0186
826.12805	5075.0244
826.7373	5044.8081
827.34662	5162.6743
827.95587	4937.5981
828.56519	4944.1089
829.17444	4979.4868
829.78375	4977.0581
830.39301	4974.6807
831.00232	4900.4219
831.61163	4979.082
832.22089	4847.8979
832.8302	4915.168
833.43945	4827.0879
834.04877	4798.2485
834.65802	4825.8306
835.26733	4794.9805
835.87665	4818.811
836.4859	4744.6216
837.09521	4784.1763
837.70447	4683.9814
838.31378	4654.2764
838.92303	4641.2808
839.53235	4579.9146
840.14166	4613.2759
840.75092	4590.0732
841.36023	4526.3296
841.96948	4498.6289
842.5788	4539.7271
843.18805	4498.4639
843.79736	4388.749
844.40668	4419.6338
845.01593	4405.6133
845.62524	4353.29
846.2345	4298.041
846.84381	4258.9502
847.45306	4198.0088
848.06238	4247.5771
848.67163	4197.5254
849.28094	4118.478
849.89026	4106.5313
850.49951	4033.1433
851.10883	3990.6948
851.71808	3930.5044
852.32739	3888.7
852.93665	3864.25
853.54596	3820.8975
854.15527	3801.8579
854.76453	3781.6226
855.37384	3737.8843
855.98309	3712.0493
856.59241	3663.4006
857.20166	3587.3804
857.81097	3548.7217
858.42029	3517.8818
859.02954	3481.8943
859.63885	3460.0535
860.24811	3410.4785
860.85742	3399.8035
861.46667	3339.5005
862.07599	3278.7329
862.68524	3232.0361
863.29456	3235.7615
863.90387	3231.167
864.51312	3203.5002
865.12244	3191.9941
865.73169	3161.4268
866.341	3124.9631
866.95026	3076.2554
867.55957	3044.5613
868.16888	3055.7227
868.77814	3037.5945
869.38745	3003.9697
869.9967	3028.4355
870.60602	2981.9624
871.21527	2931.3098
871.82458	2960.6216
872.4339	2965.6755
873.04315	2931.5547
873.65247	2944.4011
874.26172	2935.7659
874.87103	2934.0808
875.48029	2871.5437
876.0896	2832.7263
876.69891	2858.9041
877.30817	2916.7295
877.91748	2897.583
878.52673	2860.1633
879.13605	2873.1116
879.7453	2836.2825
880.35461	2814.791
880.96387	2852.9475
881.57318	2854.5515
882.1825	2825.937
882.79175	2862.3132
883.40106	2815.022
884.01031	2794.1196
884.61963	2853.491
885.22888	2852.6858
885.8382	2851.4143
886.44751	2813.9705
887.05676	2787.3862
887.66608	2820.8501
888.27533	2800.74
888.88464	2768.7295
889.4939	2771.4868
890.10321	2756.6245
890.71252	2741.2427
891.32178	2724.8228
891.93109	2778.8982
892.54034	2745.7422
893.14966	2771.0549
893.75891	2805.4617
894.36823	2783.4556
894.97754	2786.4929
895.58679	2737.8726
896.19611	2705.0491
896.80536	2740.3743
897.41467	2769.2117
898.02393	2759.9714
898.63324	2718.5425
899.24249	2701.3662
899.85181	2735.2063
900.46112	2730.0488
901.07037	2734.6301
901.67969	2727.3433
902.28894	2732.1155
902.89825	2742.6814
903.50751	2738.384
904.11682	2733.2244
904.72614	2707.0718
905.33539	2706.2441
905.9447	2702.6316
906.55396	2700.3257
907.16327	2667.9587
907.77252	2690.2771
908.38184	2681.9502
908.99115	2676.1018
909.6004	2705.5247
910.20972	2701.3433
910.81897	2652.6421
911.42828	2694.8691
912.03754	2688.5378
912.64685	2675.7817
913.25616	2669.0442
913.86542	2696.6721
914.47473	2643.947
915.08398	2632.2468
915.6933	2690.1565
916.30255	2615.79
916.91187	2675.7915
917.52112	2679.9829
918.13043	2655.4785
918.73975	2646.8835
919.349	2667.1035
919.95831	2654.1926
920.56757	2648.4158
921.17688	2591.8975
921.78613	2601.5203
922.39545	2605.0903
923.00476	2638.4463
923.61401	2627.1152
924.22333	2583.5764
924.83258	2611.9092
925.44189	2612.6108
926.05115	2561.5728
926.66046	2568.7551
927.26978	2573.5525
927.87903	2562.4548
928.48834	2568.1929
929.0976	2551.9858
929.70691	2561.6401
930.31616	2542.2124
930.92548	2560.7949
931.53479	2561.2168
932.14404	2556.1531
932.75336	2559.0454
933.36261	2581.1521
933.97192	2561.3
934.58118	2547.0276
935.19049	2540.3
935.79974	2520.0034
936.40906	2520.7285
937.01837	2527.0735
937.62762	2512.5313
938.23694	2538.5203
938.84619	2526.6379
939.45551	2527.4424
940.06476	2497.4436
940.67407	2513.6812
941.28339	2501.6453
941.89264	2481.8462
942.50195	2482.625
943.11121	2477.0173
943.72052	2502.8936
944.32977	2467.1948
944.93909	2484.4202
945.5484	2494.9104
946.15765	2456.6477
946.76697	2457.6382
947.37622	2444.5754
947.98553	2398.0457
948.59479	2447.6138
949.2041	2456.6035
949.81335	2426.2068
950.42267	2431.0225
951.03198	2434.6277
951.64124	2415.4321
952.25055	2404.5691
952.8598	2413.2366
953.46912	2425.741
954.07837	2408.5962
954.68768	2411.8577
955.297	2407.8428
955.90625	2413.521
956.51556	2390.9382
957.12482	2389.9058
957.73413	2372.7583
958.34338	2374.8372
958.9527	2405.3918
959.56201	2402.5706
960.17126	2392.0811
960.78058	2368.7471
961.38983	2376.1204
961.99915	2377.9482
962.6084	2407.0037
963.21771	2381.3914
963.82703	2366.2361
964.43628	2368.2446
965.04559	2332.1365
965.65485	2382.2241
966.26416	2374.0476
966.87341	2371.9685
967.48273	2344.9482
968.09198	2373.7849
968.70129	2362.675
969.31061	2371.3035
969.91986	2344.9299
970.52917	2341.2261
971.13843	2343.8892
971.74774	2358.5129
972.35699	2339.0359
972.96631	2351.5859
973.57562	2322.9937
974.18488	2325.7102
974.79419	2339.4956
975.40344	2346.2522
976.01276	2361.8872
976.62201	2375.356
977.23132	2352.4766
977.84064	2358.416
978.44989	2332.8535
979.0592	2323.5891
979.66846	2324.271
980.27777	2358.1897
980.88702	2336.6545
981.49634	2357.0598
982.10565	2345.9077
982.7149	2372.3928
983.32422	2365.2844
983.93347	2370.4736
984.54279	2374.1428
985.15204	2347.1289
985.76135	2380.363
986.37061	2390.7837
986.97992	2373.1121
987.58923	2352.7681
988.19849	2360.4229
988.8078	2355.093
989.41705	2370.4038
990.02637	2390.302
990.63562	2387.7566
991.24493	2382.1287
991.85425	2380.9668
992.4635	2377.4307
993.07281	2388.1792
993.68207	2388.1895
994.29138	2399.2822
994.90063	2395.3135
995.50995	2392.7773
996.11926	2358.7979
996.72852	2412.5313
997.33783	2396.8479
997.94708	2395.5544
998.5564	2419.3281
999.16565	2413.708
999.77496	2423.1086
1000.3843	2418.2388
1000.9935	2461.0999
1001.6028	2406.3464
1002.2121	2464.3757
1002.8214	2443.9871
1003.4307	2426.6721
1004.04	2434.8708
1004.6492	2421.718
1005.2585	2429.0293
1005.8679	2484.5095
1006.4771	2476.2981
1007.0864	2478.0271
1007.6957	2477.6294
1008.305	2479.4539
1008.9142	2493.4814
1009.5236	2490.9131
1010.1329	2513.3884
1010.7421	2516.4148
1011.3514	2511.5828
1011.9607	2514.6223
1012.57	2512.1155
1013.1793	2545.5928
1013.7886	2556.9883
1014.3979	2564.9697
1015.0071	2571.6016
1015.6165	2595.2485
1016.2257	2600.5918
1016.835	2611.0354
1017.4443	2610.6001
1018.0536	2646.3789
1018.6629	2653.2512
1019.2722	2683.7925
1019.8815	2667.9893
1020.4907	2659.4451
1021.1	2681.9797
1021.7093	2682.7612
1022.3186	2690.1997
1022.9279	2704.8003
1023.5372	2722.3596
1024.1465	2721.8262
1024.7557	2754.3337
1025.365	2757.1201
1025.9744	2760.2051
1026.5836	2782.053
1027.1929	2804.2571
1027.8022	2826.8137
1028.4115	2808.1348
1029.0208	2818.7434
1029.63	2822.4639
1030.2394	2861.1116
1030.8486	2867.3118
1031.4579	2884.8284
1032.0671	2894.5464
1032.6765	2897.4744
1033.2858	2907.5488
1033.895	2947.7729
1034.5044	2973.3398
1035.1136	2958.3379
1035.7229	2952.3535
1036.3322	2956.0405
1036.9415	2998.8079
1037.5508	3012.7659
1038.16	3027.834
1038.7694	3033.6416
1039.3787	3058.0095
1039.9879	3061.53
1040.5972	3057.9976
1041.2065	3084.2026
1041.8158	3059.8401
1042.425	3079.3052
1043.0344	3110.4839
1043.6437	3097.3188
1044.2529	3095.2144
1044.8622	3139.4729
1045.4716	3149.7944
1046.0808	3138.4202
1046.6901	3157.0181
1047.2994	3132.2087
1047.9087	3164.543
1048.5179	3199.0994
1049.1272	3165.7891
1049.7366	3192.5671
1050.3458	3164.8452
1050.9551	3201.0313
1051.5645	3178.3435
1052.1737	3182.4724
1052.783	3214.9355
1053.3922	3190.2722
1054.0016	3206.5801
1054.6108	3233.6802
1055.2201	3232.5776
1055.8295	3217.2068
1056.4387	3217.8086
1057.048	3222.2961
1057.6572	3241.2305
1058.2666	3251.9426
1058.8759	3226.8606
1059.4851	3231.7141
1060.0945	3230.4119
1060.7037	3207.6604
1061.313	3267.8691
1061.9222	3240.738
1062.5316	3224.9265
1063.1409	3205.5212
1063.7501	3208.4343
1064.3594	3266.7483
1064.9688	3261.147
1065.578	3249.1008
1066.1873	3192.6133
1066.7966	3214.4634
1067.4059	3248.614
1068.0151	3227.7104
1068.6244	3204.6758
1069.2338	3215.4053
1069.843	3189.6963
1070.4523	3167.9153
1071.0616	3185.9846
1071.6709	3191.9138
1072.2802	3150.9883
1072.8894	3128.9258
1073.4988	3154.4448
1074.108	3154.188
1074.7173	3176.2207
1075.3267	3181.2759
1075.9359	3176.4177
1076.5452	3127.3999
1077.1544	3133.2781
1077.7638	3091.7273
1078.373	3148.5979
1078.9823	3129.446
1079.5917	3094.8005
1080.2009	3065.5452
1080.8102	3081.6807
1081.4194	3047.1768
1082.0288	3057.0144
1082.6381	3090.531
1083.2473	3048.3635
1083.8567	3051.0847
1084.4659	3032.8777
1085.0752	3033.98
1085.6844	3028.6714
1086.2938	3037.781
1086.9031	2994.2043
1087.5123	2997.3
1088.1217	2997.9717
1088.731	2982.1589
1089.3402	2960.4368
1089.9495	2939.353
1090.5588	2925.8511
1091.1681	2931.5659
1091.7773	2934.769
1092.3867	2871.2058
1092.996	2886.9954
1093.6052	2899.5901
1094.2145	2895.4832
1094.8239	2911.167
1095.4331	2880.9146
1096.0424	2874.7986
1096.6517	2791.4431
1097.261	2800.9109
1097.8702	2827.5129
1098.4795	2766.6086
1099.0889	2840.0747
1099.6981	2783.7419
1100.3074	2800.4417
1100.9166	2763.3721
1101.526	2771.4202
1102.1353	2752.8264
1102.7445	2749.5308
1103.3539	2741.3064
1103.9631	2727.6863
1104.5724	2721.677
1105.1816	2701.3159
1105.791	2670.4258
1106.4003	2658.7571
1107.0095	2666.8242
1107.6189	2689.8679
1108.2281	2680.4573
1108.8374	2653.4744
1109.4467	2647.959
1110.056	2662.3835
1110.6653	2660.3987
1111.2745	2646.8706
1111.8839	2643.468
1112.4932	2638.8589
1113.1024	2619.7612
1113.7117	2593.4983
1114.321	2620.0151
1114.9303	2635.5796
1115.5396	2637.0686
1116.1489	2589.1431
1116.7582	2597.7102
1117.3674	2587.5994
1117.9767	2531.2302
1118.5861	2552.8535
1119.1953	2585.4402
1119.8046	2597.4153
1120.4139	2581.7217
1121.0232	2559.7507
1121.6324	2638.8628
1122.2417	2722.1936
1122.8511	2781.7988
1123.4603	2801.5334
1124.0696	2718.5798
1124.679	2627.6428
1125.2882	2604.5005
1125.8975	2597.4875
1126.5067	2587.03
1127.1161	2594.2937
1127.7253	2599.3835
1128.3346	2622.1042
1128.944	2606.6294
1129.5532	2582.1675
1130.1625	2612.8118
1130.7717	2591.1934
1131.3811	2598.657
1131.9904	2576.6472
1132.5996	2596.3943
1133.2089	2586.5024
1133.8182	2583.4277
1134.4275	2598.0479
1135.0367	2609.4121
1135.6461	2597.2517
1136.2554	2605.771
1136.8646	2598.7913
1137.4739	2633.6973
1138.0833	2653.8379
1138.6925	2644.0178
1139.3018	2643.3743
1139.9111	2652.22
1140.5204	2683.9966
1141.1296	2628.4031
1141.7389	2627.0032
1142.3483	2644.0024
1142.9575	2664.3601
1143.5668	2667.9741
1144.1761	2666.0759
1144.7854	2665.4668
1145.3947	2654.6167
1146.0039	2661.824
1146.6133	2676.0925
1147.2225	2686.1365
1147.8318	2683.7656
1148.4412	2682.1694
1149.0504	2672.1699
1149.6597	2702.8752
1150.2689	2712.9949
1150.8783	2670.2605
1151.4875	2680.3684
1152.0968	2689.9194
1152.7062	2718.0845
1153.3154	2705.772
1153.9247	2703.9065
1154.5339	2684.9709
1155.1433	2706.6814
1155.7526	2705.5288
1156.3618	2734.3438
1156.9712	2700.0774
1157.5804	2723.781
1158.1897	2740.2065
1158.799	2764.0315
1159.4083	2747.9158
1160.0176	2770.2444
1160.6268	2745.5596
1161.2362	2737.6248
1161.8455	2716.5903
1162.4547	2741.2146
1163.064	2752.261
1163.6733	2772.6531
1164.2826	2755.4336
1164.8918	2728.7185
1165.5012	2755.3372
1166.1105	2722.4885
1166.7197	2782.4731
1167.329	2786.0693
1167.9384	2683.9395
1168.5476	2772.9739
1169.1569	2773.4119
1169.7661	2738.3391
1170.3755	2755.3867
1170.9847	2759.8943
1171.594	2777.1563
1172.2034	2760.4656
1172.8126	2777.8525
1173.4219	2773.9348
1174.0311	2787.5488
1174.6405	2802.3367
1175.2498	2806.0093
1175.859	2771.844
1176.4684	2796.7026
1177.0776	2787.55
1177.6869	2772.2004
1178.2961	2813.2126
1178.9055	2815.9067
1179.5148	2784.0713
1180.124	2792.3933
1180.7334	2829.7729
1181.3427	2806.3218
1181.9519	2832.5271
1182.5612	2812.4604
1183.1705	2787.3323
1183.7798	2776.6064
1184.389	2760.855
1184.9984	2776.1628
1185.6077	2819.5496
1186.2169	2798.9939
1186.8262	2832.1611
1187.4355	2839.8943
1188.0448	2815.3906
1188.6541	2780.4709
1189.2634	2803.6533
1189.8727	2866.3992
1190.4819	2794.4702
1191.0912	2809.9573
1191.7006	2792.4888
1192.3098	2760.1443
1192.9191	2818.4941
1193.5284	2840.365
1194.1377	2817.563
1194.7469	2772.635
1195.3562	2778.0054
1195.9656	2818.4175
1196.5748	2766.9343
1197.1841	2785.2009
1197.7935	2820.6594
1198.4027	2803.4724
1199.012	2813.2786
1199.6212	2745.9656
1200.2306	2785.439
1200.8398	2789.9934
1201.4491	2744.8489
1202.0585	2750.2883
1202.6677	2799.2388
1203.277	2786.8362
1203.8862	2782.9749
1204.4956	2763.429
1205.1049	2747.4053
1205.7141	2740.8818
1206.3234	2748.5256
1206.9327	2775.9956
1207.542	2755.2007
1208.1512	2708.7651
1208.7606	2713.459
1209.3699	2744.4912
1209.9791	2734.1138
1210.5884	2758.7056
1211.1978	2788.5911
1211.807	2771.6189
1212.4163	2745.9871
1213.0256	2776.2383
1213.6349	2786.7104
1214.2441	2752.3767
1214.8534	2696.6482
1215.4628	2734.0215
1216.072	2729.1309
1216.6813	2726.5459
1217.2906	2692.7534
1217.8999	2733.7407
1218.5092	2702.0159
1219.1184	2705.2468
1219.7278	2689.1228
1220.337	2707.2559
1220.9463	2709.2776
1221.5557	2589.2805
1222.1649	2688.3113
1222.7742	2705.8145
1223.3834	2725.5513
1223.9928	2705.9934
1224.6021	2678.729
1225.2113	2670.4021
1225.8207	2687.4497
1226.4299	2670.7661
1227.0392	2667.9551
1227.6484	2653.6125
1228.2578	2630.4675
1228.8671	2663.1611
1229.4763	2674.5916
1230.0857	2670.7056
1230.6949	2690.4082
1231.3042	2633.0471
1231.9135	2649.332
1232.5228	2626.8044
1233.1321	2619.5193
1233.7413	2625.8284
1234.3507	2590.6638
1234.96	2598.6904
1235.5692	2589.124
1236.1785	2609.3054
1236.7878	2593.802
1237.3971	2581.1106
1238.0063	2563.5833
1238.6156	2565.2715
1239.225	2552.313
1239.8342	2562.47
1240.4435	2570.3354
1241.0529	2578.8989
1241.6621	2521.3979
1242.2714	2517.9182
1242.8806	2529.1404
1243.49	2512.8643
1244.0992	2521.6943
1244.7085	2525.5432
1245.3179	2509.9932
1245.9271	2490.5188
1246.5364	2508.5557
1247.1456	2498.6055
1247.755	2474.3904
1248.3643	2497.4763
1248.9735	2505.7163
1249.5829	2502.8135
1250.1921	2500.5337
1250.8014	2508.1641
1251.4106	2460.3159
1252.02	2457.3955
1252.6293	2453.0193
1253.2385	2459.9287
1253.8479	2469.0059
1254.4572	2442.2734
1255.0664	2424.9932
1255.6757	2402.6106
1256.285	2432.7661
1256.8943	2424.6399
1257.5035	2428.1216
1258.1129	2446.0059
1258.7222	2428.144
1259.3314	2383.5396
1259.9407	2387.5178
1260.55	2386.2568
1261.1593	2367.1338
1261.7686	2372.252
1262.3779	2363.0461
1262.9872	2349.9753
1263.5964	2350.6511
1264.2057	2325.7188
1264.8151	2352.4736
1265.4243	2362.4446
1266.0336	2329.4705
1266.6429	2321.394
1267.2522	2306.4778
1267.8615	2297.6802
1268.4707	2318.9258
1269.0801	2311.0835
1269.6893	2343.6245
1270.2986	2285.3992
1270.908	2311.1721
1271.5172	2315.8599
1272.1265	2292.6768
1272.7357	2270.1216
1273.3451	2308.9851
1273.9543	2321.8816
1274.5636	2312.6174
1275.1729	2272.3152
1275.7822	2271.1299
1276.3915	2290.5654
1277.0007	2305.0142
1277.6101	2316.0664
1278.2194	2242.77
1278.8286	2285.9194
1279.4379	2263.4358
1280.0472	2295.1619
1280.6565	2300.8401
1281.2657	2284.8389
1281.8751	2271.2271
1282.4844	2276.6641
1283.0936	2266.1482
1283.7029	2259.8713
1284.3123	2270.854
1284.9215	2313.5029
1285.5308	2280.7373
1286.1401	2238.8806
1286.7494	2247.7185
1287.3586	2279.269
1287.9679	2295.6406
1288.5773	2262.4382
1289.1865	2262.4492
1289.7958	2267.6865
1290.4052	2257.0198
1291.0144	2265.9277
1291.6237	2272.8125
1292.2329	2293.573
1292.8423	2286.3291
1293.4515	2296.5293
1294.0608	2223.7642
1294.6702	2260.4751
1295.2794	2258.2085
1295.8887	2279.8513
1296.4979	2226.2498
1297.1073	2253.9102
1297.7166	2248.3696
1298.3258	2216.9375
1298.9352	2260.623
1299.5444	2243.3623
1300.1537	2245.9941
1300.7629	2244.1475
1301.3723	2234.2859
1301.9816	2269.4202
1302.5908	2257.8091
1303.2002	2207.2515
1303.8094	2259.9065
1304.4187	2256.7991
1305.028	2245.7014
1305.6373	2262.1484
1306.2466	2261.8582
1306.8558	2245.5515
1307.4652	2228.5889
1308.0745	2267.594
1308.6837	2252.6621
1309.293	2242.1624
1309.9023	2250.0667
1310.5116	2233.563
1311.1208	2223.4692
1311.7301	2203.4458
1312.3395	2225.3367
1312.9487	2234.5334
1313.558	2251.208
1314.1674	2235.9761
1314.7766	2224.2744
1315.3859	2199.4292
1315.9951	2205.4448
1316.6045	2222.8252
1317.2137	2220.3425
1317.823	2222.1938
1318.4324	2206.4216
1319.0416	2158.1687
1319.6509	2203.5151
1320.2601	2215.5024
1320.8695	2215.6575
1321.4788	2234.3296
1322.088	2236.8279
1322.6974	2231.7727
1323.3066	2207.5176
1323.9159	2232.7402
1324.5251	2245.5166
1325.1345	2235.6885
1325.7438	2185.864
1326.353	2220.5488
1326.9624	2181.7771
1327.5717	2175.8726
1328.1809	2203.9226
1328.7902	2206.9949
1329.3995	2196.1262
1330.0088	2204.3179
1330.618	2264.9634
1331.2274	2237.6514
1331.8367	2216.0337
1332.4459	2236.7944
1333.0552	2213.9395
1333.6646	2234.6509
1334.2738	2202.7505
1334.8831	2228.2351
1335.4924	2220.4893
1336.1017	2202.4351
1336.7109	2245.2234
1337.3202	2224.6675
1337.9296	2196.8757
1338.5388	2187.239
1339.1481	2182.342
1339.7574	2211.332
1340.3667	2235.9219
1340.976	2228.582
1341.5852	2202.5471
1342.1946	2255.8518
1342.8038	2247.7224
1343.4131	2201.1814
1344.0223	2208.1313
1344.6317	2204.6277
1345.241	2217.4736
1345.8502	2227.6758
1346.4596	2200.7136
1347.0688	2222.9414
1347.6781	2221.7368
1348.2874	2192.6682
1348.8967	2227.375
1349.506	2243.447
1350.1152	2210.3398
1350.7246	2176.7876
1351.3339	2197.6211
1351.9431	2205.8096
1352.5524	2220.3203
1353.1617	2201.5063
1353.771	2205.4338
1354.3802	2217.2947
1354.9896	2219.6416
1355.5989	2217.8442
1356.2081	2219.801
1356.8174	2190.864
1357.4268	2209.8936
1358.036	2194.7629
1358.6453	2191.2671
1359.2546	2217.396
1359.8639	2207.3926
1360.4731	2215.457
1361.0824	2201.2651
1361.6918	2179.7344
1362.301	2216.8928
1362.9103	2201.6438
1363.5197	2205.8181
1364.1289	2200.8701
1364.7382	2261.355
1365.3474	2235.397
1365.9568	2210.3918
1366.566	2206.6292
1367.1753	2179.5725
1367.7847	2198.4858
1368.3939	2217.9226
1369.0032	2197.979
1369.6124	2214.5508
1370.2218	2221.2246
1370.8311	2219.5532
1371.4403	2222.8835
1372.0497	2202.8284
1372.6589	2191.5425
1373.2682	2194.6191
1373.8774	2179.5203
1374.4868	2209.9487
1375.0961	2208.8401
1375.7053	2224.7471
1376.3147	2219.8655
1376.924	2199.1284
1377.5332	2253.2808
1378.1425	2184.4707
1378.7518	2225.3911
1379.3611	2190.0881
1379.9703	2198.0747
1380.5796	2205.9541
1381.189	2206.4993
1381.7982	2216.1152
1382.4075	2181.1677
1383.0168	2197.6724
1383.6261	2171.7712
1384.2354	2204.811
1384.8446	2196.2595
1385.454	2226.248
1386.0632	2198.5566
1386.6725	2193.2305
1387.2819	2176.5403
1387.8911	2161.9739
1388.5004	2184.8552
1389.1096	2197.5901
1389.719	2214.5598
1390.3282	2196.2546
1390.9375	2195.864
1391.5469	2176.5168
1392.1561	2166.9131
1392.7654	2186.1616
1393.3746	2213.6924
1393.984	2197.8743
1394.5933	2184.6943
1395.2025	2190.332
1395.8119	2203.0896
1396.4211	2202.677
1397.0304	2210.1187
1397.6396	2184.9744
1398.249	2199.0701
1398.8583	2202.9172
1399.4675	2190.3857
1400.0769	2186.0864
1400.6862	2204.0991
1401.2954	2202.1609
1401.9047	2186.4148
1402.514	2199.4104
1403.1233	2193.2427
1403.7325	2182.5398
1404.3419	2177.4338
1404.9512	2236.3171
1405.5604	2197.0154
1406.1697	2195.1643
1406.7791	2219.6348
1407.3883	2203.6394
1407.9976	2222.4956
1408.6069	2207.343
1409.2162	2208.5586
1409.8254	2231.1013
1410.4347	2228.1765
1411.0441	2210.021
1411.6533	2196.4517
1412.2626	2190.1301
1412.8718	2196.054
1413.4812	2209.0066
1414.0905	2191.7556
1414.6997	2187.1909
1415.3091	2198.3093
1415.9183	2174.4402
1416.5276	2186.1328
1417.1368	2181.6516
1417.7462	2174.667
1418.3555	2191.988
1418.9647	2179.7703
1419.5741	2194.3557
1420.1833	2177.9885
1420.7926	2191.7866
1421.4019	2188.3687
1422.0112	2201.8
1422.6205	2210.5088
1423.2297	2226.311
1423.8391	2175.0767
1424.4484	2157.0144
1425.0576	2166.0046
1425.6669	2181.1177
1426.2762	2158.8347
1426.8855	2178.5149
1427.4948	2204.6465
1428.1041	2168.4871
1428.7134	2173.2883
1429.3226	2134.9858
1429.9319	2206.7429
1430.5413	2191.0815
1431.1505	2190.2422
1431.7598	2218.5994
1432.3691	2208.6621
1432.9784	2179.0596
1433.5876	2199.375
1434.1969	2213.3899
1434.8063	2205.2148
1435.4155	2229.6846
1436.0248	2181.8235
1436.6342	2181.9229
1437.2434	2178.9705
1437.8527	2172.0012
1438.4619	2197.1577
1439.0713	2194.8638
1439.6805	2219.9539
1440.2898	2174.4204
1440.8992	2170.2336
1441.5084	2222.6316
1442.1177	2183.2188
1442.7269	2175.0869
1443.3363	2177.4333
1443.9456	2183.8516
1444.5548	2184.7383
1445.1642	2197.9841
1445.7734	2207.4761
1446.3827	2183.9031
1446.9919	2204.6633
1447.6013	2152.3291
1448.2106	2200.0203
1448.8198	2155.1028
1449.4291	2169.3528
1450.0385	2148.1907
1450.6477	2156.1208
1451.257	2166.2192
1451.8663	2162.4766
1452.4756	2181.9045
1453.0848	2178.0374
1453.6941	2194.6526
1454.3035	2183.3418
1454.9127	2172.385
1455.522	2171.9521
1456.1313	2177.7559
1456.7406	2166.3374
1457.3499	2162.5405
1457.9591	2169.2061
1458.5685	2172.4778
1459.1777	2169.0593
1459.787	2176.925
1460.3964	2155.2712
1461.0056	2177.7913
1461.6149	2172.7993
1462.2241	2184.7712
1462.8335	2189.0835
1463.4427	2176.0366
1464.052	2175.5244
1464.6614	2164.1345
1465.2706	2199.1287
1465.8799	2212.74
1466.4891	2188.4082
1467.0985	2172.209
1467.7078	2197.5784
1468.317	2180.7358
1468.9264	2169.0386
1469.5356	2171.8884
1470.1449	2136.4338
1470.7542	2176.9861
1471.3635	2179.6033
1471.9728	2184.7065
1472.582	2187.0063
1473.1914	2174.1121
1473.8007	2182.5288
1474.4099	2151.3684
1475.0192	2170.1814
1475.6285	2156.7581
1476.2378	2150.9368
1476.847	2170.5508
1477.4564	2160.3008
1478.0657	2177.6851
1478.6749	2139.6375
1479.2842	2166.4387
1479.8936	2172.2983
1480.5028	2158.3071
1481.1121	2138.2312
1481.7214	2150.917
1482.3307	2171.8696
1482.9399	2169.1338
1483.5492	2162.8687
1484.1586	2156.353
1484.7678	2154.0361
1485.3771	2186.7585
1485.9863	2176.031
1486.5957	2167.1326
1487.205	2148.9207
1487.8142	2155.4629
1488.4236	2197.1472
1489.0328	2169.4802
1489.6421	2161.4063
1490.2513	2163.6724
1490.8607	2180.0679
1491.47	2155.7339
1492.0792	2134.135
1492.6886	2165.2891
1493.2979	2161.3481
1493.9071	2108.0251
1494.5164	2164.8965
1495.1257	2149.6069
1495.735	2114.0854
1496.3442	2146.7568
1496.9536	2155.7175
1497.5629	2148.6335
1498.1721	2176.6135
1498.7814	2167.0908
1499.3907	2154.3337
1500	2179.6597
