20.040655	1906.8618
20.649942	2570.4749
21.25923	3409.1912
21.868517	4237.7559
22.477806	4944.0034
23.087093	5354.5361
23.696381	5550.6372
24.305668	5695.874
24.914955	5819.8525
25.524242	6047.1934
26.13353	6422.8735
26.742817	6624.1538
27.352106	6852.96
27.961393	7064.0708
28.570681	7238.1353
29.179968	7217.9551
29.789255	7114.9429
30.398542	7164.6001
31.00783	7323.0225
31.617117	7343.626
32.226406	7617.5381
32.835693	7777.1157
33.444981	7909.8804
34.054268	8071.3145
34.663555	8310.8906
35.272842	8570.6045
35.88213	8782.8779
36.491417	8864.8428
37.100704	8841.9824
37.709991	8963.4492
38.319279	8864.0996
38.928566	8720.8027
39.537857	8900.167
40.147144	8972.8535
40.756432	8999.0225
41.365719	9095.8975
41.975006	9290.8682
42.584293	9497.2227
43.193581	9635.5273
43.802868	9729.9951
44.412155	9669.1846
45.021442	9401.083
45.63073	9497.9629
46.240017	9531.1504
46.849304	9678.9697
47.458591	9815.5088
48.067879	9883.7695
48.677166	9975.0947
49.286457	10047.565
49.895744	9905.667
50.505032	9819.5469
51.114319	9997.0381
51.723606	10049.171
52.332893	10026.66
52.942181	9972.6943
53.551468	9903.9209
54.160755	9876.1133
54.770042	9851.9873
55.37933	9837.6865
55.988617	9885.167
56.597904	9840.8809
57.207191	9950.4199
57.816479	10067.873
58.425766	10276.499
59.035057	10550.359
59.644344	10658.061
60.253632	10533.403
60.862919	10317.564
61.472206	10141.194
62.081493	10096.495
62.690781	10303.797
63.300068	10786.755
63.909355	13441.756
64.518646	17505.137
65.12793	19298.191
65.737221	19205.688
66.346504	15951.321
66.955795	12076.708
67.565079	10149.751
68.17437	9985.3789
68.783653	10006.019
69.392944	9914.8584
70.002228	10055.148
70.611519	10022.549
71.220802	10225.426
71.830093	10255.469
72.439377	10196.295
73.048668	10017.229
73.657959	9981.4473
74.267242	10265.022
74.876534	12543.875
75.485817	19176.133
76.095108	26669.326
76.704391	30056.645
77.313683	29431.125
77.922966	19913.166
78.532257	12093.7
79.141541	9826.9121
79.750832	9681.1299
80.360115	9674.4873
80.969406	9856.0078
81.57869	10076.651
82.187981	10188.873
82.797272	10248.475
83.406555	10310.623
84.015846	10206.72
84.62513	9897.4531
85.234421	9852.7666
85.843704	9770.2715
86.452995	9719.2754
87.062279	9701.8008
87.67157	9651.0205
88.280853	9670.2979
88.890144	9826.4639
89.499428	9750.5449
90.108719	9826.2715
90.718002	9869.2207
91.327293	9971.0488
91.936577	9933.9629
92.545868	9782.2002
93.155159	9697.6357
93.764442	9715.2744
94.373734	9738.8301
94.983017	9747.1875
95.592308	9771.04
96.201591	9587.0566
96.810883	9532.5615
97.420166	9607.4453
98.029457	9635.2861
98.638741	9677.249
99.248032	9712.9873
99.857315	9649.1895
100.46661	9554.0322
101.07589	9485.9912
101.68518	9457.8926
102.29447	9526.2627
102.90376	9432.1104
103.51305	9445.4668
104.12233	9448.9951
104.73162	9504.5537
105.3409	9549.3789
105.9502	9730.7754
106.55948	9792.1279
107.16877	9718.4521
107.77805	9619.3877
108.38734	9485.3535
108.99663	9327.0342
109.60592	9277.0107
110.2152	9357.5195
110.82449	9286.9873
111.43378	9261.1953
112.04307	9206.5078
112.65236	9195.5068
113.26164	9242.2588
113.87093	9334.3779
114.48022	9578.6504
115.08951	9935.3105
115.69879	10182.758
116.30808	10373.101
116.91737	10220.887
117.52666	9260.2305
118.13594	9147.4072
118.74523	9177.917
119.35452	9098.7021
119.96381	9020.4775
120.57309	9044.5205
121.18238	9066.1602
121.79167	9072.2266
122.40096	9173.9561
123.01025	9265.5381
123.61953	9198.7529
124.22882	9021.8779
124.8381	9024.1455
125.4474	8968.2334
126.05668	8943.085
126.66597	8923.5049
127.27525	8947.1328
127.88454	8952.8164
128.49384	8920.3906
129.10312	8914.3066
129.7124	8941.8213
130.32169	8928.1797
130.93098	8941.0098
131.54027	8943.2939
132.14955	8950.1553
132.75885	8875.6914
133.36813	8844.0283
133.97742	8857.1816
134.5867	8788.2471
135.196	8776.6523
135.80528	8879.6016
136.41457	8933.4258
137.02385	8904.1865
137.63315	8896.2725
138.24243	8851.7236
138.85172	9034.2061
139.461	9059.0576
140.0703	9094.6943
140.67958	9118.6543
141.28886	9083.1699
141.89816	9085.3379
142.50745	9106.6465
143.11673	9070.1631
143.72601	9008.5127
144.33531	8978.0693
144.9446	8910.7148
145.55388	8872.9082
146.16316	8851.6396
146.77246	8824.1211
147.38174	8799.623
147.99103	8662.3369
148.60031	8622.1172
149.20961	8653.3994
149.81889	8678.2461
150.42818	8655.752
151.03748	8579.3262
151.64676	8537.3506
152.25604	8585.3184
152.86533	8526.2822
153.47462	8553.7451
154.08391	8589.1221
154.69319	8590.8408
155.30247	8630.1465
155.91177	8598.8359
156.52106	8548.2188
157.13034	8531.042
157.73962	8519.5938
158.34892	8505.9756
158.95821	8529.4844
159.56749	8546.709
160.17679	8502.4199
160.78607	8461.4883
161.39536	8479.668
162.00464	8516.3545
162.61394	8416.6387
163.22322	8439.2471
163.8325	8525.834
164.44179	8559.2666
165.05109	8533.7285
165.66037	8472.166
166.26965	8416.6016
166.87894	8466.2988
167.48824	8449.6621
168.09752	8502.8906
168.7068	8576.2734
169.31609	8487.9414
169.92538	8519.5254
170.53467	8537.417
171.14395	8534.3281
171.75325	8496.7725
172.36253	8492.7773
172.97182	8553.0781
173.5811	8609.4951
174.1904	8653.2998
174.79968	8628.6309
175.40897	8570.8945
176.01825	8614.1943
176.62755	8499.5469
177.23683	8508.1436
177.84612	8504.5332
178.4554	8580.4141
179.0647	8609.6748
179.67398	8607.5156
180.28326	8598.0781
180.89256	8570.751
181.50185	8568.9727
182.11113	8528.0273
182.72041	8575.5166
183.32971	8656.0244
183.939	8657.4063
184.54828	8643.8213
185.15756	8549.7441
185.76686	8553.4941
186.37614	8640.4531
186.98543	8675.1211
187.59471	8624.124
188.20401	8601.1338
188.81329	8668.5488
189.42258	8719.54
190.03188	8704.2031
190.64116	8720.4648
191.25044	8688.1689
191.85973	8634.8486
192.46902	8642.833
193.07831	8765.1318
193.68759	8788.5674
194.29688	8818.8135
194.90617	8818.2695
195.51546	8799.5254
196.12474	8833.3721
196.73402	8864.4424
197.34332	8828.3008
197.95261	8867.5439
198.56189	8917.6201
199.17119	8784.6572
199.78047	8936.291
200.38976	8913.4385
200.99904	8969.624
201.60834	8947.2051
202.21762	8930.2568
202.8269	8963.9795
203.43619	8987.1709
204.04549	8992.248
204.65477	9003.2051
205.26405	9015.9834
205.87334	9104.8613
206.48264	9110.125
207.09192	9027.6211
207.7012	9052.2607
208.3105	9086.0596
208.91978	9046.5811
209.52907	9040.7588
210.13835	9144.1621
210.74765	9183.1719
211.35693	9151.166
211.96622	9155.2969
212.5755	9234.2686
213.1848	9301.1172
213.79408	9233.2773
214.40337	9258.7783
215.01265	9293.5225
215.62195	9343.0293
216.23123	9380.9277
216.84052	9266.6006
217.4498	9390.4307
218.0591	9382.3271
218.66838	9387.5811
219.27766	9436.292
219.88696	9416.7783
220.49625	9402.2637
221.10553	9450.46
221.71481	9428.6367
222.32411	9454.9736
222.9334	9466.7617
223.54268	9538.959
224.15196	9504.5664
224.76126	9584.6387
225.37054	9671.8057
225.97983	9723.8389
226.58911	9632.3994
227.19841	9650.9277
227.80769	9629.1211
228.41698	9631.0576
229.02628	9726.9063
229.63556	9730.7012
230.24484	9766.4414
230.85413	9807.499
231.46342	9887.9482
232.07271	9760.125
232.68199	9849.6992
233.29128	9865.54
233.90057	9885.3643
234.50986	9977.8018
235.11914	9988.2754
235.72842	9992.1338
236.33772	9996.6309
236.94701	9996.4082
237.55629	10013.981
238.16559	10069.564
238.77487	10179.438
239.38416	10194.112
239.99344	10188.694
240.60274	10086.633
241.21202	10280.709
241.8213	10369.922
242.43059	10284.825
243.03989	10328.151
243.64917	10322.428
244.25845	10411.411
244.86774	10450.527
245.47704	10463.822
246.08632	10507.039
246.6956	10470.804
247.3049	10470.568
247.91418	10537.071
248.52347	10428.274
249.13275	10532.376
249.74205	10710.159
250.35133	10632.731
250.96062	10597.656
251.5699	10735.746
252.1792	10739.356
252.78848	10794.124
253.39777	10852.978
254.00705	10857.438
254.61635	10864.097
255.22563	10876.869
255.83492	10880.739
256.44421	10924.263
257.0535	10959.876
257.66278	11055.27
258.27206	11099.526
258.88135	11107.9
259.49063	11124.83
260.09995	11163.272
260.70923	11120.444
261.31851	11171.476
261.9278	11282.166
262.53708	11395.456
263.14636	11438.302
263.75565	11434.121
264.36493	11451.667
264.97424	11466.396
265.58353	11519.512
266.19281	11585.974
266.80209	11510.908
267.41138	11663.479
268.02066	11683.059
268.62994	11640.066
269.23926	11689.74
269.84854	11705.115
270.45782	11776.418
271.06711	11810.186
271.67639	11837.94
272.28568	11886.995
272.89496	11902.931
273.50424	11941.438
274.11356	12019.404
274.72284	11960.225
275.33212	12081.959
275.94141	12039.077
276.55069	12129.76
277.15997	12194.541
277.76926	12202.906
278.37857	12225.689
278.98785	12212
279.59714	12325.277
280.20642	12415.263
280.8157	12446.7
281.42499	12476.504
282.03427	12536.278
282.64355	12519.844
283.25287	12415.529
283.86215	12477.033
284.47144	12540.602
285.08072	12683.689
285.69	12534.849
286.29929	12576.929
286.90857	12778.68
287.51788	12742.202
288.12717	12741.59
288.73645	12817.966
289.34573	12890.143
289.95502	12936.222
290.5643	12993.487
291.17358	13016.138
291.78287	13015.96
292.39218	13030.688
293.00146	13004.569
293.61075	13037.285
294.22003	13223.651
294.82932	13364.134
295.4386	13390.876
296.04788	13218.512
296.6572	13301.632
297.26648	13343.54
297.87576	13434.725
298.48505	13427.828
299.09433	13443.592
299.70361	13547.955
300.3129	13635.543
300.92218	13622.345
301.53149	13612.372
302.14078	13600.828
302.75006	13573.406
303.35934	13794.021
303.96863	13745.04
304.57791	13830.509
305.18719	13857.522
305.79651	13762.542
306.40579	13758.145
307.01508	13775.777
307.62436	13851.593
308.23364	13907.546
308.84293	13972.229
309.45221	13934.382
310.06149	13905.881
310.67081	14017.973
311.28009	14094.181
311.88937	14093.039
312.49866	14173.891
313.10794	14204.214
313.71722	14234.977
314.32651	14144.094
314.93582	14327.269
315.5451	14378.856
316.15439	14405.685
316.76367	14519.141
317.37296	14446.682
317.98224	14295.548
318.59152	14351.192
319.20081	14416.751
319.81012	14487.654
320.4194	14506.074
321.02869	14601.61
321.63797	14698.899
322.24725	14711.151
322.85654	14784.701
323.46582	14714.855
324.07513	14832.739
324.68442	14889.072
325.2937	14846.898
325.90298	14820.517
326.51227	14990.495
327.12155	14943.113
327.73083	15034.353
328.34012	15025.28
328.94943	15017.081
329.55872	15046.685
330.168	15103.875
330.77728	15013.886
331.38657	15025.306
331.99585	15188.987
332.60513	15306.229
333.21442	15379.11
333.82373	15296.258
334.43301	15309.263
335.0423	15382.356
335.65158	15494.166
336.26086	15484.984
336.87015	15511.091
337.47943	15561.589
338.08875	15495.557
338.69803	15679.771
339.30731	15614.723
339.9166	15613.108
340.52588	15720.349
341.13516	15796.288
341.74445	15898.256
342.35373	15964.928
342.96304	15940.169
343.57233	15973.239
344.18161	16079.414
344.79089	16113.938
345.40018	16085.249
346.00946	16093.658
346.61874	16128.91
347.22806	16127.917
347.83734	16153.268
348.44662	16186.917
349.05591	16198.013
349.66519	16231.745
350.27448	16321.09
350.88376	16396.023
351.49304	16451.854
352.10236	16458.15
352.71164	16591.57
353.32092	16720.285
353.93021	16683.504
354.53949	16658.281
355.14877	16697.355
355.75806	16725.283
356.36737	16826.461
356.97665	16781.824
357.58594	16722.014
358.19522	16876.816
358.8045	16934.324
359.41379	16900.092
360.02307	17033.43
360.63235	17062.783
361.24167	17230.473
361.85095	17195.758
362.46024	17117.67
363.06952	17171.924
363.6788	17277.99
364.28809	17347.779
364.89737	17424.088
365.50668	17476.145
366.11597	17545.094
366.72525	17609.203
367.33453	17459.186
367.94382	17667.957
368.5531	17617.939
369.16238	17527.049
369.77167	17628.842
370.38098	17767.373
370.99026	17684.113
371.59955	17758.818
372.20883	17872.76
372.81812	17755.826
373.4274	17931.588
374.03668	18030.953
374.646	18044.402
375.25528	17937.264
375.86456	17941.15
376.47385	18092.027
377.08313	18064.213
377.69241	17958.48
378.3017	18121.697
378.91098	18298.367
379.52029	18266.629
380.12958	18237.543
380.73886	18268.637
381.34814	18408.635
381.95743	18297.773
382.56671	18472.479
383.17599	18399.734
383.78531	18395.178
384.39459	18388.811
385.00388	18563.23
385.61316	18580.533
386.22244	18532.121
386.83173	18512.102
387.44101	18495.232
388.05029	18590.381
388.65961	18696.025
389.26889	18729.576
389.87817	18769.529
390.48746	18749.566
391.09674	18734.127
391.70602	18849.211
392.31531	18814.059
392.92462	18951.328
393.53391	18946.629
394.14319	19032.191
394.75247	18987.91
395.36176	19041.875
395.97104	18953.986
396.58032	18914.555
397.18961	19095.742
397.79892	19235.691
398.4082	19165.145
399.01749	19205.643
399.62677	19319.957
400.23605	19249.465
400.84534	19215.172
401.45462	19291.645
402.06393	19324.676
402.67322	19319.254
403.2825	19335.549
403.89178	19407.799
404.50107	19361.979
405.11035	19317.639
405.71964	19338.92
406.32892	19498.932
406.93823	19553.602
407.54752	19414.873
408.1568	19518.992
408.76608	19568.531
409.37537	19626.908
409.98465	19710.592
410.59393	19595.695
411.20325	19584.348
411.81253	19751.332
412.42181	19747.01
413.0311	19745.43
413.64038	19709.922
414.24966	19631.07
414.85895	19756.977
415.46823	19911.531
416.07755	19814.775
416.68683	19727.617
417.29611	19793.752
417.9054	19897.645
418.51468	19938.492
419.12396	19871.773
419.73325	19900.99
420.34256	19920.002
420.95184	19979.512
421.56113	20030.453
422.17041	20101.113
422.77969	20037.311
423.38898	20036.385
423.99826	19951.713
424.60754	20111.439
425.21686	20129.875
425.82614	20071.623
426.43542	20073.951
427.04471	20249.072
427.65399	20253.326
428.26328	20105.807
428.87256	20174.043
429.48184	20343.625
430.09116	20341.537
430.70044	20336.445
431.30972	20468.033
431.91901	20339.316
432.52829	20232.313
433.13757	20330.678
433.74686	20314.713
434.35617	20245.525
434.96545	20315.738
435.57474	20253.57
436.18402	20340.455
436.7933	20330.529
437.40259	20459.373
438.01187	20464.676
438.62115	20323.387
439.23047	20326.139
439.83975	20411.02
440.44904	20390.811
441.05832	20338.006
441.6676	20404.088
442.27689	20428.385
442.88617	20377.85
443.49548	20324.9
444.10477	20293.826
444.71405	20337.145
445.32333	20315.6
445.93262	20227.732
446.5419	20225.973
447.15118	20201.416
447.76047	20168.477
448.36978	20188.748
448.97906	20349.707
449.58835	20275.961
450.19763	20262.488
450.80692	20081.49
451.4162	20155.889
452.02548	20120.826
452.6348	20100.266
453.24408	19987.277
453.85336	19968.027
454.46265	19982.055
455.07193	19952.047
455.68121	19985.469
456.2905	19925.543
456.89978	19733.186
457.50909	19637.137
458.11838	19669.773
458.72766	19699.949
459.33694	19771.721
459.94623	19808.432
460.55551	19663.791
461.16479	19524.32
461.77411	19401.475
462.38339	19543.986
462.99268	19436.555
463.60196	19150.43
464.21124	19190.42
464.82053	19190.168
465.42981	19031.482
466.03909	18996.008
466.64841	18967.828
467.25769	19066.031
467.86697	18922.609
468.47626	18932.441
469.08554	18853.998
469.69482	18856.736
470.30411	18694.842
470.91342	18716.773
471.52271	18587.385
472.13199	18513.908
472.74127	18561.498
473.35056	18488.83
473.95984	18479.807
474.56912	18481.203
475.17841	18372.51
475.78772	18362.48
476.397	18406.688
477.00629	18430.895
477.61557	18485.543
478.22485	18599.602
478.83414	18733.107
479.44342	18732.684
480.05273	18846.045
480.66202	18932.393
481.2713	18855.811
481.88058	19263.736
482.48987	19274.596
483.09915	19527.775
483.70844	19511.023
484.31772	19541.457
484.92703	19465.102
485.53632	19649.996
486.1456	19842.797
486.75488	19942.729
487.36417	19972.365
487.97345	20100.914
488.58273	20060.711
489.19205	20019.813
489.80133	19963.234
490.41061	19911.664
491.0199	19781.422
491.62918	19693.719
492.23846	19625.607
492.84775	19569.053
493.45703	19480.959
494.06635	19175.561
494.67563	18920.619
495.28491	18815.25
495.8942	18672.545
496.50348	18438.182
497.11276	18101.141
497.72205	17831.385
498.33136	17649.67
498.94064	17305.146
499.54993	17059.832
500.15921	16625.566
500.76849	16312.464
501.37778	16330.004
501.98706	16010.521
502.59634	15742.688
503.20566	15380.184
503.81494	15168.385
504.42422	14836.987
505.03351	14614.101
505.64279	14308.618
506.25208	14053.688
506.86136	13741.537
507.47067	13494.123
508.07996	13351.669
508.68924	12996.78
509.29852	12739.035
509.90781	12565.716
510.51709	12319.185
511.12637	12083.477
511.73566	11891.923
512.34497	11630.26
512.95422	11341.538
513.56354	11220.767
514.17279	11038.511
514.7821	10861.551
515.39142	10582.23
516.00067	10364.97
516.60999	10333.513
517.21924	10063.51
517.82855	9862.7549
518.43781	9765.4404
519.04712	9559.167
519.65643	9476.6797
520.26569	9425.0156
520.875	9254.4795
521.48425	9133.6563
522.09357	8809.6934
522.70282	8713.6504
523.31213	8697.3613
523.92145	8577.7109
524.5307	8439.9111
525.14001	8312.2168
525.74927	8268.0947
526.35858	8190.3726
526.96783	8062.6025
527.57715	7970.0093
528.18646	7851.9858
528.79572	7803.5771
529.40503	7805.1929
530.01428	7767.667
530.6236	7712.354
531.23285	7570.2119
531.84216	7442.6953
532.45142	7410.7886
533.06073	7387.0059
533.67004	7261.9673
534.2793	7196.7983
534.88861	7238.4648
535.49786	7177.6865
536.10718	7141.3989
536.71643	7075.2573
537.32574	6969.917
537.93506	6877.4912
538.54431	6903.5488
539.15363	6821.7686
539.76288	6792.1187
540.37219	6783.083
540.98145	6741.8438
541.59076	6661.9766
542.20007	6660.5776
542.80933	6652.2593
543.41864	6626.6841
544.02789	6507.2651
544.63721	6514.627
545.24646	6467.5771
545.85577	6388.9756
546.46509	6341.3335
547.07434	6380.7114
547.68365	6291.6987
548.29291	6299.4092
548.90222	6278.2622
549.51147	6193.5913
550.12079	6251.0146
550.73004	6138.853
551.33936	6107.3774
551.94867	6057.6543
552.55792	6100.5479
553.16724	6072.0337
553.77649	6040.3408
554.3858	5990.0278
554.99506	5930.9497
555.60437	5897.2646
556.21368	5883.6089
556.82294	5859.5352
557.43225	5879.5957
558.0415	5889.5083
558.65082	5862.0342
559.26007	5820.4092
559.86938	5789.1982
560.4787	5743.6489
561.08795	5752.5146
561.69727	5748.9688
562.30652	5709.2671
562.91583	5712.8618
563.52509	5677.7739
564.1344	5662.2515
564.74365	5647.9541
565.35297	5619.271
565.96228	5556.2622
566.57153	5646.1729
567.18085	5571.0132
567.7901	5583.9185
568.39941	5564.6089
569.00867	5638.9263
569.61798	5582.1133
570.22729	5510.4424
570.83655	5513.6938
571.44586	5534.7646
572.05511	5507.9316
572.66443	5529.2041
573.27368	5515.7612
573.883	5515.9902
574.49231	5518.688
575.10156	5484.2402
575.71088	5445.5366
576.32013	5439.7925
576.92944	5475.7593
577.5387	5505.4771
578.14801	5508.7993
578.75732	5524.7974
579.36658	5494.2002
579.97589	5511.0576
580.58514	5467.481
581.19446	5472.7495
581.80371	5535.3535
582.41302	5520.5391
583.02228	5569.6836
583.63159	5606.7612
584.24091	5576.3184
584.85016	5589.7031
585.45947	5635.0845
586.06873	5616.0518
586.67804	5621.8867
587.28729	5632.8315
587.89661	5689.0986
588.50592	5729.0898
589.11517	5777.7109
589.72449	5789.1973
590.33374	5859.5796
590.94305	5877.6235
591.55231	5873.9829
592.16162	5928.5444
592.77094	5997.8735
593.38019	6030.8696
593.9895	6050.312
594.59875	6094.3286
595.20807	6199.4199
595.81732	6233.2354
596.42664	6263.4102
597.03595	6340.7368
597.6452	6361.6353
598.25452	6394.0439
598.86377	6447.2017
599.47308	6507.5361
600.08234	6547.6128
600.69165	6579.2568
601.3009	6600.8291
601.91022	6615.8711
602.51953	6602.9326
603.12878	6532.0332
603.7381	6545.2344
604.34735	6605.8862
604.95667	6531.8672
605.56592	6620.0933
606.17523	6500.145
606.78455	6525.8926
607.3938	6470.8423
608.00311	6442.4219
608.61237	6430.3726
609.22168	6364.0117
609.83093	6280.4233
610.44025	6244.9277
611.04956	6212.4053
611.65881	6163.6348
612.26813	6152.3389
612.87738	6079.6289
613.48669	6031.6895
614.09595	5948.458
614.70526	5850.8809
615.31458	5792.8003
615.92383	5768.0957
616.53314	5718.7148
617.1424	5673.3574
617.75171	5603.9751
618.36096	5579.9775
618.97028	5573.8145
619.57953	5483.2725
620.18884	5361.5732
620.79816	5325.9736
621.40741	5323.1431
622.01672	5223.8252
622.62598	5184.98
623.23529	5139.5342
623.84454	5101.9648
624.45386	5067.9712
625.06317	4991.7285
625.67242	4990.1138
626.28174	4950.0605
626.89099	4890.3765
627.50031	4873.7964
628.10956	4808.3877
628.71887	4795.2935
629.32819	4782.6021
629.93744	4721.1699
630.54675	4697.8691
631.15601	4629.4175
631.76532	4600.8267
632.37457	4614.2227
632.98389	4577.1113
633.5932	4585.8584
634.20245	4592.5146
634.81177	4539.9121
635.42102	4467.9761
636.03033	4441.5337
636.63959	4452.4854
637.2489	4431.2031
637.85815	4387.2681
638.46747	4356.2021
639.07678	4377.7739
639.68604	4371.8423
640.29535	4330.8105
640.9046	4308.5122
641.51392	4311.8066
642.12317	4256.4453
642.73248	4237.4067
643.3418	4263.5488
643.95105	4245.1396
644.56036	4238.3838
645.16962	4213.9893
645.77893	4162.5859
646.38818	4160.5962
646.9975	4164.2017
647.60681	4142.8701
648.21606	4116.2695
648.82538	4141.6641
649.43463	4148.6411
650.04395	4117.0952
650.6532	4083.6799
651.26251	4087.7644
651.87183	4078.7336
652.48108	4051.3711
653.09039	4060.9719
653.69965	4053.8916
654.30896	3985.0295
654.91821	4013.9753
655.52753	3998.6074
656.13678	4019.1504
656.74609	4055.5935
657.35541	4020.5076
657.96466	4014.0994
658.57397	4014.3784
659.18323	3996.5459
659.79254	3963.6509
660.40179	3984.5435
661.01111	3981.1272
661.62042	3951.365
662.22968	3966.7039
662.83899	3949.1812
663.44824	3949.3518
664.05756	4002.9778
664.66681	3968.7979
665.27612	3959.7595
665.88544	3973.8774
666.49469	3953.7947
667.104	3942.1064
667.71326	3923.7483
668.32257	3948.1504
668.93182	3980.8708
669.54114	3980.9382
670.15039	3982.8716
670.7597	3973.26
671.36902	3913.6553
671.97827	3896.7808
672.58759	3936.9465
673.19684	3919.6353
673.80615	3893.1362
674.41541	3932.1377
675.02472	3961.2451
675.63403	3945.0801
676.24329	3929.2869
676.8526	3898.4553
677.46185	3886.0068
678.07117	3921.8127
678.68042	3914.1782
679.28973	3897.5376
679.89905	3929.2925
680.5083	3902.7305
681.11761	3944.1033
681.72687	3933.4531
682.33618	3914.0662
682.94543	3898.1392
683.55475	3919.146
684.16406	3883.2932
684.77332	3885.4861
685.38263	3875.7366
685.99188	3916.4373
686.6012	3918.7959
687.21045	3920.1719
687.81976	3907.325
688.42902	3884.7729
689.03833	3889.1394
689.64764	3890.98
690.2569	3879.4172
690.86621	3922.3596
691.47546	3857.6396
692.08478	3875.2048
692.69403	3896.2795
693.30334	3865.5437
693.91266	3901.5566
694.52191	3856.4414
695.13123	3881.9851
695.74048	3917.1724
696.34979	3947.7483
696.95905	3889.5005
697.56836	3912.2915
698.17767	3850.7017
698.78693	3884.1519
699.39624	3915.5366
700.00549	3895.2429
700.61481	3896.0273
701.22406	3872.842
701.83337	3874.1138
702.44269	3876.0098
703.05194	3903.5532
703.66125	3888.7629
704.27051	3887.2332
704.87982	3917.0706
705.48907	3915.3184
706.09839	3906.5166
706.70764	3869.2949
707.31696	3889.0081
707.92627	3880.7942
708.53552	3847.0315
709.14484	3866.509
709.75409	3854.7808
710.3634	3869.4226
710.97266	3868.9316
711.58197	3902.1926
712.19128	3909.5979
712.80054	3872.8909
713.40985	3887.1624
714.0191	3899.1292
714.62842	3872.197
715.23767	3876.3611
715.84698	3909.9075
716.4563	3882.6267
717.06555	3842.7317
717.67487	3887.7964
718.28412	3940.5059
718.89343	3923.7334
719.50269	3931.8242
720.112	3883.0156
720.72131	3832.6321
721.33057	3878.0149
721.93988	3860.1694
722.54913	3918.03
723.15845	3950.9209
723.7677	3948.1135
724.37701	3898.1306
724.98627	3886.1143
725.59558	3927.7495
726.2049	3968.3318
726.81415	3942.6091
727.42346	3959.5381
728.03271	3986.8228
728.64203	3998.7891
729.25128	3950.4426
729.8606	3974.6555
730.46991	3974.8569
731.07916	3992.1235
731.68848	3956.459
732.29773	3906.8738
732.90704	3946.573
733.5163	3940.7434
734.12561	3994.4321
734.73492	3979.0032
735.34418	3945.7439
735.95349	3909.8611
736.56274	4018.3362
737.17206	3975.5791
737.78131	3958.168
738.39063	3961.4893
738.99994	4001.3281
739.60919	3966.637
740.21851	3990.0435
740.82776	4007.2771
741.43707	4016.3291
742.04633	4013.019
742.65564	4023.9431
743.26489	4054.614
743.87421	4046.2034
744.48352	4087.3879
745.09277	4111.0498
745.70209	4108.2622
746.31134	4097.4209
746.92065	4095.7417
747.52991	4012.573
748.13922	4057.3083
748.74854	4135.6758
749.35779	4048.2014
749.9671	4131.3525
750.57635	4084.0376
751.18567	4144.2681
751.79492	4117.4263
752.40424	4061.156
753.01355	4156.4814
753.6228	4095.6782
754.23212	4099.853
754.84137	4156.9063
755.45068	4127.2285
756.05994	4120.7627
756.66925	4227.6572
757.2785	4170.2202
757.88782	4242.2715
758.49713	4206.3516
759.10638	4207.8706
759.7157	4212.582
760.32495	4233.0596
760.93427	4232.915
761.54352	4222.7666
762.15283	4204.8237
762.76215	4220.7222
763.3714	4200.8628
763.98071	4283.6685
764.58997	4312.8989
765.19928	4310.8794
765.80853	4402.4111
766.41785	4448.292
767.02716	4416.7803
767.63641	4492.3369
768.24573	4490.6992
768.85498	4561.8311
769.46429	4567.3818
770.07355	4632.9282
770.68286	4713.7788
771.29218	4772.8032
771.90143	4803.9033
772.51074	4910.2832
773.12	4998.4824
773.72931	5170.6582
774.33856	5121.2407
774.94788	5154.1118
775.55713	5263.583
776.16644	5314.0054
776.77576	5314.8184
777.38501	5421.3491
777.99432	5493.2432
778.60358	5520.4712
779.21289	5552.459
779.82214	5663.3887
780.43146	5731.7661
781.04077	5749.6201
781.65002	5802.3599
782.25934	5854.3599
782.86859	5880.0347
783.47791	5933.4307
784.08716	5995.5078
784.69647	6072.895
785.30579	6078.4937
785.91504	6137.4468
786.52435	6123.27
787.13361	6134.4307
787.74292	6172.0151
788.35217	6233.2246
788.96149	6194.0459
789.5708	6228.6768
790.18005	6209.1069
790.78937	6244.8306
791.39862	6216.8159
792.00793	6235.0142
792.61719	6282.8848
793.2265	6276.4238
793.83575	6258.0054
794.44507	6311.8716
795.05438	6280.6748
795.66364	6302.5762
796.27295	6368.2256
796.8822	6344.1782
797.49152	6287.5693
798.10077	6323.9126
798.71008	6327.9175
799.3194	6269.8247
799.92865	6258.564
800.53796	6363.6563
801.14722	6304.9097
801.75653	6246.124
802.36578	6297.0073
802.9751	6273.0034
803.58441	6294.1968
804.19366	6312.9102
804.80298	6269.4917
805.41223	6220.1143
806.02155	6227.439
806.6308	6215.793
807.24011	6286.248
807.84943	6269.5903
808.45868	6228.8823
809.06799	6154.5425
809.67725	6194.4111
810.28656	6210.8467
810.89581	6186.5181
811.50513	6120.8872
812.11438	6032.9189
812.72369	6154.1035
813.33301	6164.6528
813.94226	6121.0283
814.55157	6117.813
815.16083	6113.0977
815.77014	6129.6235
816.37939	6170.2285
816.98871	6116.6743
817.59802	6079.4673
818.20728	6035.2759
818.81659	6041.1592
819.42584	6056.3223
820.03516	6106.3701
820.64441	5999.7354
821.25372	6019.7363
821.86304	6033.8789
822.47229	5967.8555
823.0816	5981.7544
823.69086	5948.6201
824.30017	5979.0767
824.90942	5916.0542
825.51874	5908.5493
826.12805	5959.0313
826.7373	5932.6641
827.34662	5839.6172
827.95587	5840.9775
828.56519	5907.8916
829.17444	5742.937
829.78375	5753.9487
830.39301	5670.5093
831.00232	5778.1064
831.61163	5706.2393
832.22089	5733.7603
832.8302	5656.2051
833.43945	5664.7661
834.04877	5580.6577
834.65802	5680.894
835.26733	5625.4692
835.87665	5613.2002
836.4859	5591.272
837.09521	5582.793
837.70447	5558.5659
838.31378	5497.1094
838.92303	5457.1563
839.53235	5430.5522
840.14166	5429.2793
840.75092	5431.9878
841.36023	5348.9331
841.96948	5332.9541
842.5788	5297.4224
843.18805	5228.2031
843.79736	5208.6152
844.40668	5171.7573
845.01593	5172.8184
845.62524	5146.7725
846.2345	5155.7896
846.84381	5076.356
847.45306	5029.0498
848.06238	5026.2314
848.67163	4972.6372
849.28094	4927.2876
849.89026	4864.9028
850.49951	4864.6489
851.10883	4757.8999
851.71808	4702.1987
852.32739	4713.583
852.93665	4666.3589
853.54596	4634.9336
854.15527	4605.7329
854.76453	4516.9268
855.37384	4536.0762
855.98309	4496.9795
856.59241	4428.6851
857.20166	4386.3882
857.81097	4350.9521
858.42029	4309.5649
859.02954	4268.9609
859.63885	4219.9814
860.24811	4157.7192
860.85742	4130.1626
861.46667	4144.7163
862.07599	4140.8496
862.68524	4078.4441
863.29456	4045.2344
863.90387	4042.03
864.51312	4015.8833
865.12244	3970.3501
865.73169	3936.9431
866.341	3921.6179
866.95026	3887.8879
867.55957	3921.3193
868.16888	3894.9858
868.77814	3876.8677
869.38745	3860.8518
869.9967	3833.6531
870.60602	3838.4644
871.21527	3854.8657
871.82458	3849.7466
872.4339	3853.9954
873.04315	3824.6221
873.65247	3777.907
874.26172	3767.4705
874.87103	3746.0576
875.48029	3720.9026
876.0896	3760.7148
876.69891	3783.0491
877.30817	3784.563
877.91748	3754.9819
878.52673	3709.0898
879.13605	3729.1614
879.7453	3770.5142
880.35461	3775.3779
880.96387	3724.1548
881.57318	3711.7639
882.1825	3704.4949
882.79175	3687.5298
883.40106	3708.5024
884.01031	3771.2759
884.61963	3680.7402
885.22888	3686.457
885.8382	3701.5156
886.44751	3668.0117
887.05676	3624.738
887.66608	3662.0076
888.27533	3694.4141
888.88464	3669.3062
889.4939	3654.8674
890.10321	3704.502
890.71252	3707.3889
891.32178	3673.4714
891.93109	3645.5029
892.54034	3692.9463
893.14966	3621.1145
893.75891	3621.8394
894.36823	3654.4951
894.97754	3627.9448
895.58679	3663.2463
896.19611	3686.9395
896.80536	3646.6292
897.41467	3668.8855
898.02393	3666.5334
898.63324	3630.8999
899.24249	3600.0142
899.85181	3612.0881
900.46112	3594.9353
901.07037	3596.7415
901.67969	3652.5359
902.28894	3640.2051
902.89825	3628.3206
903.50751	3624.6106
904.11682	3615.3005
904.72614	3598.5859
905.33539	3595.3708
905.9447	3627.6055
906.55396	3618.5598
907.16327	3599.2734
907.77252	3580.5583
908.38184	3581.438
908.99115	3606.8274
909.6004	3599.3118
910.20972	3591.95
910.81897	3583.0798
911.42828	3584.0596
912.03754	3570.9751
912.64685	3556.8472
913.25616	3586.3137
913.86542	3580.2122
914.47473	3501.8459
915.08398	3561.6167
915.6933	3544.4431
916.30255	3547.2153
916.91187	3490.562
917.52112	3537.2078
918.13043	3500.0347
918.73975	3559.4722
919.349	3556.7478
919.95831	3516.4075
920.56757	3544.3411
921.17688	3544.6687
921.78613	3522.7803
922.39545	3502.678
923.00476	3501.1182
923.61401	3494.9915
924.22333	3520.9392
924.83258	3481.6042
925.44189	3500.7832
926.05115	3519.4207
926.66046	3533.7886
927.26978	3510.2759
927.87903	3481.9419
928.48834	3470.7668
929.0976	3433.7122
929.70691	3482.377
930.31616	3507.8621
930.92548	3459.4492
931.53479	3454.9697
932.14404	3469.3804
932.75336	3501.7473
933.36261	3466.7268
933.97192	3435.7549
934.58118	3453.2227
935.19049	3417.7485
935.79974	3370.3123
936.40906	3404.7822
937.01837	3431.5415
937.62762	3382.9148
938.23694	3363.9917
938.84619	3457.5339
939.45551	3411.1135
940.06476	3425.2107
940.67407	3411.4807
941.28339	3329.4851
941.89264	3379.8115
942.50195	3362.6941
943.11121	3385.8696
943.72052	3352.8606
944.32977	3342.8984
944.93909	3387.2029
945.5484	3358.8679
946.15765	3357.9844
946.76697	3358.4414
947.37622	3359.1775
947.98553	3335.6323
948.59479	3340.5701
949.2041	3300.3337
949.81335	3318.4275
950.42267	3308.4902
951.03198	3341.4043
951.64124	3331.2119
952.25055	3325.0361
952.8598	3326.0039
953.46912	3278.2246
954.07837	3281.4224
954.68768	3330.5249
955.297	3330.062
955.90625	3301.8911
956.51556	3290.1646
957.12482	3301.9351
957.73413	3316.1975
958.34338	3250.488
958.9527	3283.176
959.56201	3280.6094
960.17126	3233.4587
960.78058	3290.3953
961.38983	3250.4336
961.99915	3247.5078
962.6084	3279.3298
963.21771	3263.335
963.82703	3281.0432
964.43628	3289.0681
965.04559	3277.0076
965.65485	3264.4272
966.26416	3259.9182
966.87341	3234.595
967.48273	3281.5947
968.09198	3261.5129
968.70129	3278.3088
969.31061	3273.8108
969.91986	3259.5967
970.52917	3243.1816
971.13843	3229.9863
971.74774	3249.3882
972.35699	3268.2896
972.96631	3258.0872
973.57562	3256.9673
974.18488	3272.2664
974.79419	3254.3352
975.40344	3258.8657
976.01276	3274.3923
976.62201	3251.5222
977.23132	3234.1055
977.84064	3257.4724
978.44989	3264.1462
979.0592	3222.6445
979.66846	3228.123
980.27777	3218.8132
980.88702	3255.0134
981.49634	3290.5505
982.10565	3232.8997
982.7149	3262.5625
983.32422	3255.6838
983.93347	3279.905
984.54279	3250.3069
985.15204	3274.3965
985.76135	3270.9485
986.37061	3285.5059
986.97992	3256.6125
987.58923	3247.1616
988.19849	3234.7585
988.8078	3260.7346
989.41705	3268.4126
990.02637	3283.3372
990.63562	3286.5498
991.24493	3296.646
991.85425	3294.7007
992.4635	3295.9661
993.07281	3272.2529
993.68207	3285.0774
994.29138	3271.7397
994.90063	3286.3655
995.50995	3317.2454
996.11926	3288.9453
996.72852	3322.6934
997.33783	3300.3735
997.94708	3284.3477
998.5564	3269.2495
999.16565	3311.187
999.77496	3319.134
1000.3843	3326.3892
1000.9935	3328.4336
1001.6028	3358.2109
1002.2121	3310.2688
1002.8214	3378.0984
1003.4307	3355.8079
1004.04	3305.4138
1004.6492	3323.9138
1005.2585	3338.3694
1005.8679	3361.4189
1006.4771	3352.0581
1007.0864	3359.5313
1007.6957	3354.8857
1008.305	3381.7688
1008.9142	3388.9595
1009.5236	3388.3398
1010.1329	3385.2161
1010.7421	3405.7959
1011.3514	3411.9146
1011.9607	3401.3418
1012.57	3433.5605
1013.1793	3440.7932
1013.7886	3479.5015
1014.3979	3441.6426
1015.0071	3445.6663
1015.6165	3442.2417
1016.2257	3522.5444
1016.835	3515.5471
1017.4443	3438.134
1018.0536	3514.7317
1018.6629	3518.2217
1019.2722	3532.2847
1019.8815	3548.0771
1020.4907	3542.6211
1021.1	3586.9106
1021.7093	3596.7666
1022.3186	3609.0251
1022.9279	3620.8286
1023.5372	3622.5164
1024.1465	3593.6519
1024.7557	3629.8967
1025.365	3657.8574
1025.9744	3666.4351
1026.5836	3662.6799
1027.1929	3690.9153
1027.8022	3704.7603
1028.4115	3700.7368
1029.0208	3731.7209
1029.63	3720.9951
1030.2394	3737.4248
1030.8486	3791.1082
1031.4579	3789.9658
1032.0671	3849.7935
1032.6765	3813.1643
1033.2858	3862.6521
1033.895	3858.1038
1034.5044	3846.4111
1035.1136	3866.116
1035.7229	3910.3506
1036.3322	3904.2961
1036.9415	3936.0315
1037.5508	3920.5271
1038.16	3961.9893
1038.7694	3944.7388
1039.3787	3919.4038
1039.9879	3979.6038
1040.5972	3992.9619
1041.2065	3993.8794
1041.8158	4023.6028
1042.425	4027.3955
1043.0344	4049.6538
1043.6437	4073.5466
1044.2529	4021.5547
1044.8622	4075.1462
1045.4716	4090.6404
1046.0808	4042.1873
1046.6901	4103.5869
1047.2994	4109.5029
1047.9087	4078.6421
1048.5179	4101.3486
1049.1272	4109.0371
1049.7366	4110.4253
1050.3458	4157.0488
1050.9551	4149.5171
1051.5645	4124.7739
1052.1737	4173.4873
1052.783	4190.5288
1053.3922	4201.0508
1054.0016	4186.834
1054.6108	4210.0581
1055.2201	4208.7295
1055.8295	4182.2168
1056.4387	4228.9722
1057.048	4253.5532
1057.6572	4209.1152
1058.2666	4201.7065
1058.8759	4262.2437
1059.4851	4208.8892
1060.0945	4208.4692
1060.7037	4256.5693
1061.313	4254.0918
1061.9222	4206.1235
1062.5316	4191.8789
1063.1409	4261.6694
1063.7501	4241.5
1064.3594	4228.4702
1064.9688	4238.1079
1065.578	4203.9834
1066.1873	4212.8633
1066.7966	4224.9702
1067.4059	4248.1689
1068.0151	4231.2495
1068.6244	4213.8359
1069.2338	4232.7295
1069.843	4231.7251
1070.4523	4223.6577
1071.0616	4239.1992
1071.6709	4216.5278
1072.2802	4207.0347
1072.8894	4228.0034
1073.4988	4266.626
1074.108	4243.0381
1074.7173	4224.6543
1075.3267	4203.3447
1075.9359	4192.6758
1076.5452	4166.2476
1077.1544	4188.604
1077.7638	4177.7471
1078.373	4181.3359
1078.9823	4137.3853
1079.5917	4109.8721
1080.2009	4162.541
1080.8102	4110.5093
1081.4194	4140.3794
1082.0288	4151.3442
1082.6381	4142.8076
1083.2473	4105.8789
1083.8567	4072.49
1084.4659	4097.3467
1085.0752	4082.2771
1085.6844	4103.8955
1086.2938	4112.7505
1086.9031	4073.6194
1087.5123	4020.9871
1088.1217	4052.1543
1088.731	4023.8962
1089.3402	4030.6023
1089.9495	4059.6487
1090.5588	4027.0095
1091.1681	4019.27
1091.7773	4002.5278
1092.3867	4017.1553
1092.996	4013.1326
1093.6052	3975.9946
1094.2145	3920.7632
1094.8239	3919.5876
1095.4331	3889.1741
1096.0424	3896.4866
1096.6517	3910.3584
1097.261	3919.4727
1097.8702	3856.4775
1098.4795	3845.5842
1099.0889	3855.1411
1099.6981	3788.4756
1100.3074	3795.9102
1100.9166	3797.1733
1101.526	3835.9966
1102.1353	3829.1187
1102.7445	3813.4539
1103.3539	3758.6614
1103.9631	3793.938
1104.5724	3797.0845
1105.1816	3771.3787
1105.791	3730.9075
1106.4003	3727.3884
1107.0095	3739.0562
1107.6189	3723.7517
1108.2281	3678.717
1108.8374	3689.9429
1109.4467	3723.718
1110.056	3721.6084
1110.6653	3695.582
1111.2745	3716.7583
1111.8839	3648.2693
1112.4932	3742.6489
1113.1024	3684.6401
1113.7117	3698.1177
1114.321	3651.3352
1114.9303	3688.5803
1115.5396	3638.8752
1116.1489	3648.2856
1116.7582	3652.2097
1117.3674	3614.3862
1117.9767	3600.0605
1118.5861	3590.886
1119.1953	3648.6804
1119.8046	3601.2095
1120.4139	3617.9287
1121.0232	3617.938
1121.6324	3634.0535
1122.2417	3708.3667
1122.8511	3822.2556
1123.4603	3839.1516
1124.0696	3758.9036
1124.679	3654.5552
1125.2882	3620.7349
1125.8975	3606.1338
1126.5067	3637.5676
1127.1161	3660.7183
1127.7253	3632.8557
1128.3346	3635.0715
1128.944	3612.9526
1129.5532	3623.3445
1130.1625	3600.9031
1130.7717	3647.2966
1131.3811	3632.8738
1131.9904	3646.8499
1132.5996	3594.4473
1133.2089	3637.105
1133.8182	3633.1287
1134.4275	3636.166
1135.0367	3614.0647
1135.6461	3615.9746
1136.2554	3636.0505
1136.8646	3655.1909
1137.4739	3644.0569
1138.0833	3654.6741
1138.6925	3672.3755
1139.3018	3642.3147
1139.9111	3713.0059
1140.5204	3701.2876
1141.1296	3669.8635
1141.7389	3650.9214
1142.3483	3708.583
1142.9575	3678.5552
1143.5668	3742.4661
1144.1761	3701.3948
1144.7854	3676.3108
1145.3947	3713.6738
1146.0039	3736.2588
1146.6133	3730.2659
1147.2225	3748.9639
1147.8318	3713.5593
1148.4412	3722.4104
1149.0504	3739.3201
1149.6597	3720.5073
1150.2689	3727.7756
1150.8783	3743.8196
1151.4875	3707.8423
1152.0968	3728.0969
1152.7062	3754.6091
1153.3154	3763.5061
1153.9247	3754.6218
1154.5339	3786.3765
1155.1433	3773.8596
1155.7526	3728.949
1156.3618	3756.8896
1156.9712	3742.1399
1157.5804	3743.7903
1158.1897	3763.9893
1158.799	3748.1675
1159.4083	3775.8596
1160.0176	3817.0266
1160.6268	3818.1694
1161.2362	3796.979
1161.8455	3811.3328
1162.4547	3791.7827
1163.064	3792.9517
1163.6733	3794.8613
1164.2826	3819.355
1164.8918	3777.6563
1165.5012	3762.3445
1166.1105	3784.3228
1166.7197	3771.8296
1167.329	3793.7874
1167.9384	3851.2532
1168.5476	3813.8381
1169.1569	3809.1631
1169.7661	3806.5789
1170.3755	3798.3152
1170.9847	3787.6929
1171.594	3817.4294
1172.2034	3855.1804
1172.8126	3835.7126
1173.4219	3863.6331
1174.0311	3854.4958
1174.6405	3874.2603
1175.2498	3873.0859
1175.859	3829.5291
1176.4684	3860.8594
1177.0776	3847.4185
1177.6869	3785.5437
1178.2961	3799.0977
1178.9055	3847.0918
1179.5148	3882.4814
1180.124	3862.9255
1180.7334	3795.6018
1181.3427	3852.563
1181.9519	3875.8191
1182.5612	3847.73
1183.1705	3826.9536
1183.7798	3838.082
1184.389	3853.3682
1184.9984	3848.3926
1185.6077	3851.4399
1186.2169	3876.552
1186.8262	3861.0625
1187.4355	3841.0491
1188.0448	3882.8645
1188.6541	3908.1987
1189.2634	3866.1289
1189.8727	3879.5554
1190.4819	3828.4343
1191.0912	3870.7429
1191.7006	3870.3145
1192.3098	3866.4993
1192.9191	3889.436
1193.5284	3862.9287
1194.1377	3826.1453
1194.7469	3832.6133
1195.3562	3852.1133
1195.9656	3870.0627
1196.5748	3857.1108
1197.1841	3842.7883
1197.7935	3878.4941
1198.4027	3851.4875
1199.012	3806.2747
1199.6212	3844.0811
1200.2306	3871.249
1200.8398	3914.4014
1201.4491	3880.7537
1202.0585	3832.7476
1202.6677	3898.9956
1203.277	3895.5276
1203.8862	3852.3206
1204.4956	3855.6721
1205.1049	3843.7373
1205.7141	3856.6885
1206.3234	3829.79
1206.9327	3825.9106
1207.542	3859.4346
1208.1512	3859.6255
1208.7606	3807.6685
1209.3699	3789.3835
1209.9791	3855.0647
1210.5884	3824.043
1211.1978	3819.5835
1211.807	3836.8384
1212.4163	3833.2551
1213.0256	3821.1104
1213.6349	3806.2732
1214.2441	3838.1426
1214.8534	3787.2944
1215.4628	3816.3372
1216.072	3825.9646
1216.6813	3773.1228
1217.2906	3805.8733
1217.8999	3797.968
1218.5092	3804.2996
1219.1184	3816.0059
1219.7278	3774.6223
1220.337	3782.1184
1220.9463	3741.8379
1221.5557	3774.2834
1222.1649	3736.3181
1222.7742	3752.5911
1223.3834	3773.2966
1223.9928	3754.2446
1224.6021	3749.9307
1225.2113	3777.9897
1225.8207	3737.9312
1226.4299	3719.1807
1227.0392	3688.0635
1227.6484	3694.7949
1228.2578	3737.6543
1228.8671	3735.8972
1229.4763	3757.9617
1230.0857	3713.417
1230.6949	3738.0574
1231.3042	3694.3208
1231.9135	3672.9346
1232.5228	3664.7896
1233.1321	3735.407
1233.7413	3689.739
1234.3507	3699.4553
1234.96	3718.1272
1235.5692	3687.53
1236.1785	3697.572
1236.7878	3656.1199
1237.3971	3663.8005
1238.0063	3682.8027
1238.6156	3658.7224
1239.225	3666.3469
1239.8342	3664.5847
1240.4435	3634.0198
1241.0529	3649.6155
1241.6621	3640.1382
1242.2714	3648.1492
1242.8806	3619.1738
1243.49	3638.4885
1244.0992	3621.989
1244.7085	3601.2498
1245.3179	3603.2866
1245.9271	3628.8054
1246.5364	3621.3286
1247.1456	3592.7146
1247.755	3594.8948
1248.3643	3609.3843
1248.9735	3563.7451
1249.5829	3576.5347
1250.1921	3551.8926
1250.8014	3563.4189
1251.4106	3536.7014
1252.02	3553.0264
1252.6293	3509.6855
1253.2385	3541.2585
1253.8479	3531.1062
1254.4572	3538.2385
1255.0664	3505.3694
1255.6757	3501.772
1256.285	3508.884
1256.8943	3514.1545
1257.5035	3514.1489
1258.1129	3535.7651
1258.7222	3517.1768
1259.3314	3525.3552
1259.9407	3484.1855
1260.55	3518.8191
1261.1593	3488.4329
1261.7686	3488.8481
1262.3779	3430.0818
1262.9872	3475.7327
1263.5964	3485.2637
1264.2057	3460.6978
1264.8151	3443.2827
1265.4243	3436.8936
1266.0336	3450.8928
1266.6429	3432.9465
1267.2522	3439.8188
1267.8615	3411.0579
1268.4707	3419.7441
1269.0801	3427.8389
1269.6893	3389.3604
1270.2986	3389.8152
1270.908	3371.0996
1271.5172	3430.676
1272.1265	3436.1248
1272.7357	3395.0034
1273.3451	3402.4482
1273.9543	3383.0598
1274.5636	3363.4602
1275.1729	3399.8699
1275.7822	3391.4238
1276.3915	3380.6384
1277.0007	3406.7461
1277.6101	3394.6467
1278.2194	3353.9966
1278.8286	3365.7769
1279.4379	3435.9116
1280.0472	3427.7878
1280.6565	3360.5227
1281.2657	3373.644
1281.8751	3375.5935
1282.4844	3393.6682
1283.0936	3365.2371
1283.7029	3383.4756
1284.3123	3408.6948
1284.9215	3359.6729
1285.5308	3389.8835
1286.1401	3351.2781
1286.7494	3300.9722
1287.3586	3344.6372
1287.9679	3344.7021
1288.5773	3388.408
1289.1865	3406.1526
1289.7958	3407.7766
1290.4052	3375.9724
1291.0144	3385.8379
1291.6237	3373.4414
1292.2329	3313.447
1292.8423	3330.5181
1293.4515	3385.0046
1294.0608	3362.467
1294.6702	3358.9561
1295.2794	3344.2031
1295.8887	3368.2627
1296.4979	3330.8916
1297.1073	3372.1106
1297.7166	3364.7441
1298.3258	3331.4668
1298.9352	3396.26
1299.5444	3388.3098
1300.1537	3364.6328
1300.7629	3368.5725
1301.3723	3351.988
1301.9816	3295.5249
1302.5908	3324.6943
1303.2002	3361.0808
1303.8094	3390.1875
1304.4187	3339.821
1305.028	3352.9155
1305.6373	3348.0015
1306.2466	3334.0071
1306.8558	3337.8853
1307.4652	3344.5203
1308.0745	3306.0918
1308.6837	3343.3135
1309.293	3358.3843
1309.9023	3340.0532
1310.5116	3379.8757
1311.1208	3340.1943
1311.7301	3306.6763
1312.3395	3331.0125
1312.9487	3341.5835
1313.558	3368.7124
1314.1674	3353.842
1314.7766	3335.7754
1315.3859	3325.8232
1315.9951	3340.6697
1316.6045	3336.9324
1317.2137	3344.6057
1317.823	3363.7632
1318.4324	3325.6174
1319.0416	3330.0759
1319.6509	3371.8779
1320.2601	3343.7095
1320.8695	3331.5396
1321.4788	3347.0229
1322.088	3348.3284
1322.6974	3341.4421
1323.3066	3328.3696
1323.9159	3369.4661
1324.5251	3378.9504
1325.1345	3354.1335
1325.7438	3355.8892
1326.353	3305.3245
1326.9624	3388.8284
1327.5717	3372.7888
1328.1809	3309.0657
1328.7902	3362.6577
1329.3995	3350.9031
1330.0088	3360.9893
1330.618	3313.6917
1331.2274	3325.8521
1331.8367	3331.49
1332.4459	3349.2651
1333.0552	3328.811
1333.6646	3365.968
1334.2738	3390.5681
1334.8831	3333.9558
1335.4924	3321.2
1336.1017	3334.3713
1336.7109	3333.3386
1337.3202	3344.0752
1337.9296	3350.7114
1338.5388	3345.262
1339.1481	3358.4524
1339.7574	3370.2886
1340.3667	3348.7412
1340.976	3363.4795
1341.5852	3346.9463
1342.1946	3285.3721
1342.8038	3350.2017
1343.4131	3346.8591
1344.0223	3362.3584
1344.6317	3334.9253
1345.241	3334.7273
1345.8502	3323.4438
1346.4596	3331.0867
1347.0688	3374.032
1347.6781	3344.6826
1348.2874	3338.8286
1348.8967	3327.7852
1349.506	3340.2949
1350.1152	3274.9797
1350.7246	3348.7959
1351.3339	3346.1531
1351.9431	3376.189
1352.5524	3360.2729
1353.1617	3345.2642
1353.771	3368.5181
1354.3802	3372.658
1354.9896	3334.0818
1355.5989	3345.1323
1356.2081	3373.8914
1356.8174	3331.7407
1357.4268	3366.0715
1358.036	3365.5425
1358.6453	3369.4006
1359.2546	3345.4636
1359.8639	3367.2051
1360.4731	3348.457
1361.0824	3350.49
1361.6918	3337.2085
1362.301	3355.4343
1362.9103	3375.3821
1363.5197	3370.96
1364.1289	3355.6018
1364.7382	3359.7512
1365.3474	3367.5449
1365.9568	3330.8257
1366.566	3328.5271
1367.1753	3354.9214
1367.7847	3342.9019
1368.3939	3348.2307
1369.0032	3373.7068
1369.6124	3337.5898
1370.2218	3384.3975
1370.8311	3372.9841
1371.4403	3339.887
1372.0497	3373.2581
1372.6589	3368.8262
1373.2682	3339.0173
1373.8774	3321.2703
1374.4868	3348.3838
1375.0961	3315.645
1375.7053	3314.2666
1376.3147	3326.6138
1376.924	3390.5767
1377.5332	3377.9116
1378.1425	3353.8569
1378.7518	3308.4995
1379.3611	3360.1084
1379.9703	3377.3506
1380.5796	3333.6575
1381.189	3339.7927
1381.7982	3361.5881
1382.4075	3349.0479
1383.0168	3334.0466
1383.6261	3374.7136
1384.2354	3352.5559
1384.8446	3297.1072
1385.454	3325.0591
1386.0632	3354.5972
1386.6725	3320.7727
1387.2819	3336.0061
1387.8911	3327.6929
1388.5004	3321.3691
1389.1096	3315.7036
1389.719	3356.1492
1390.3282	3345.5276
1390.9375	3337.2163
1391.5469	3296.5818
1392.1561	3305.0708
1392.7654	3318.7322
1393.3746	3324.1116
1393.984	3307.3843
1394.5933	3309.3374
1395.2025	3347.2551
1395.8119	3357.7051
1396.4211	3340.7598
1397.0304	3293.6294
1397.6396	3362.1313
1398.249	3294.7725
1398.8583	3359.158
1399.4675	3310.7432
1400.0769	3309.1846
1400.6862	3351.3914
1401.2954	3305.9197
1401.9047	3321.2424
1402.514	3362.501
1403.1233	3342.8438
1403.7325	3374.2732
1404.3419	3319.45
1404.9512	3349.168
1405.5604	3312.8884
1406.1697	3365.0332
1406.7791	3332.5676
1407.3883	3335.0657
1407.9976	3307.1958
1408.6069	3321.9678
1409.2162	3332.1035
1409.8254	3302.5664
1410.4347	3321.1567
1411.0441	3353.6724
1411.6533	3327.5903
1412.2626	3291.5452
1412.8718	3324.3953
1413.4812	3338.9915
1414.0905	3339.9397
1414.6997	3317.2183
1415.3091	3316.8105
1415.9183	3363.2983
1416.5276	3329.9949
1417.1368	3322.3235
1417.7462	3322.9456
1418.3555	3364.5503
1418.9647	3338.8218
1419.5741	3311.6899
1420.1833	3322.8694
1420.7926	3323.7034
1421.4019	3333.8516
1422.0112	3341.417
1422.6205	3349.6792
1423.2297	3357.5759
1423.8391	3344.8054
1424.4484	3283.8157
1425.0576	3336.0769
1425.6669	3335.8594
1426.2762	3299.906
1426.8855	3325.5911
1427.4948	3359.5667
1428.1041	3348.8608
1428.7134	3321.3113
1429.3226	3296.5933
1429.9319	3280.0386
1430.5413	3332.4258
1431.1505	3344.0337
1431.7598	3330.9548
1432.3691	3317.939
1432.9784	3289.8335
1433.5876	3299.0186
1434.1969	3302.668
1434.8063	3326.437
1435.4155	3316.0723
1436.0248	3324.5139
1436.6342	3293.5803
1437.2434	3342.8176
1437.8527	3307.53
1438.4619	3282.1157
1439.0713	3321.9373
1439.6805	3285.4028
1440.2898	3284.9333
1440.8992	3310.4639
1441.5084	3336.043
1442.1177	3324.8315
1442.7269	3273.2405
1443.3363	3345.9268
1443.9456	3302.2803
1444.5548	3290.1677
1445.1642	3309.6421
1445.7734	3291.9851
1446.3827	3323.1084
1446.9919	3336.7661
1447.6013	3308.3296
1448.2106	3301.0842
1448.8198	3278.4973
1449.4291	3297.9973
1450.0385	3292.7227
1450.6477	3294.1777
1451.257	3318.4524
1451.8663	3328.001
1452.4756	3310.9871
1453.0848	3278.3823
1453.6941	3287.0093
1454.3035	3334.2698
1454.9127	3336.2068
1455.522	3300.4026
1456.1313	3290.0818
1456.7406	3330.0093
1457.3499	3292.8547
1457.9591	3289.0168
1458.5685	3293.3308
1459.1777	3348.2373
1459.787	3345.6404
1460.3964	3368.2852
1461.0056	3352.3596
1461.6149	3312.4395
1462.2241	3311.0461
1462.8335	3277.1218
1463.4427	3267.7571
1464.052	3273.8069
1464.6614	3298.1052
1465.2706	3308.7576
1465.8799	3350.1116
1466.4891	3329.5298
1467.0985	3366.5164
1467.7078	3336.5107
1468.317	3299.4983
1468.9264	3278.1719
1469.5356	3306.0603
1470.1449	3301.7939
1470.7542	3318.4265
1471.3635	3267.384
1471.9728	3304.9424
1472.582	3329.5427
1473.1914	3298.1716
1473.8007	3309.0056
1474.4099	3318.6482
1475.0192	3320.3511
1475.6285	3298.9089
1476.2378	3296.4526
1476.847	3291.8577
1477.4564	3340.1211
1478.0657	3321.0095
1478.6749	3305.4385
1479.2842	3330.7825
1479.8936	3316.3474
1480.5028	3303.1614
1481.1121	3288.9834
1481.7214	3306.9922
1482.3307	3298.512
1482.9399	3299.8477
1483.5492	3301.2676
1484.1586	3334.2029
1484.7678	3349.7358
1485.3771	3329.1353
1485.9863	3329.4927
1486.5957	3294.8806
1487.205	3346.9502
1487.8142	3261.6331
1488.4236	3336.0654
1489.0328	3343.1116
1489.6421	3339.6475
1490.2513	3339.2874
1490.8607	3305.4431
1491.47	3292.499
1492.0792	3284.6685
1492.6886	3303.4705
1493.2979	3301.5483
1493.9071	3310.4666
1494.5164	3292.9778
1495.1257	3255.3792
1495.735	3270.8186
1496.3442	3309.4446
1496.9536	3325.4573
1497.5629	3294.9272
1498.1721	3314.1318
1498.7814	3397.4873
1499.3907	3281.0999
1500	3279.4834
