20.040655	3614.4497
20.649942	4988.4287
21.25923	6465.0093
21.868517	7868.3252
22.477806	8512.4854
23.087093	8751.4189
23.696381	8961.8174
24.305668	9152.707
24.914955	9323.0898
25.524242	9550.6143
26.13353	9723.9033
26.742817	9765.6572
27.352106	10065.603
27.961393	10202.214
28.570681	10189.596
29.179968	10250.406
29.789255	10381.969
30.398542	10537.033
31.00783	10766.165
31.617117	10896.106
32.226406	11126.091
32.835693	11210.838
33.444981	11419.725
34.054268	11578.888
34.663555	11820.068
35.272842	12102.592
35.88213	12358.413
36.491417	12528.357
37.100704	12600.341
37.709991	12687.659
38.319279	12603.898
38.928566	12795.017
39.537857	12832.145
40.147144	12975.423
40.756432	13118.402
41.365719	13281.201
41.975006	13430.46
42.584293	13613.634
43.193581	13844.691
43.802868	13885.802
44.412155	14011.569
45.021442	13951.946
45.63073	14046.563
46.240017	14107.177
46.849304	14226.967
47.458591	14433.837
48.067879	14605.147
48.677166	14708.606
49.286457	14765.221
49.895744	14745.406
50.505032	14877.908
51.114319	14790.336
51.723606	14903.396
52.332893	14941.251
52.942181	14999.995
53.551468	15008.913
54.160755	15011.502
54.770042	15076.543
55.37933	15093.351
55.988617	15024.963
56.597904	15271.71
57.207191	15245.919
57.816479	15354.711
58.425766	15667.204
59.035057	15885.908
59.644344	16051.415
60.253632	15960.854
60.862919	15692.716
61.472206	15503.105
62.081493	15484.386
62.690781	15544.238
63.300068	15656.381
63.909355	15600.887
64.518646	15831.929
65.12793	15728.906
65.737221	15783.705
66.346504	15742.59
66.955795	15727.159
67.565079	15866.796
68.17437	15909.643
68.783653	15699.19
69.392944	15744.68
70.002228	15779.131
70.611519	15904.984
71.220802	15869.658
71.830093	16007.37
72.439377	15856.185
73.048668	15799.88
73.657959	15910.24
74.267242	16024.23
74.876534	16144.206
75.485817	16473.717
76.095108	17137.861
76.704391	17143.447
77.313683	16202.322
77.922966	15797.971
78.532257	15826.532
79.141541	15821.64
79.750832	15772.414
80.360115	15663.423
80.969406	15654.063
81.57869	15872.091
82.187981	16022.696
82.797272	16160.823
83.406555	15987.953
84.015846	15798.725
84.62513	15683.271
85.234421	15597.908
85.843704	15728.529
86.452995	15802.051
87.062279	15748.481
87.67157	15678.239
88.280853	15667.839
88.890144	15758.641
89.499428	15634.679
90.108719	15625.609
90.718002	15918.836
91.327293	16026.139
91.936577	15902.581
92.545868	15685.979
93.155159	15686.974
93.764442	15764.255
94.373734	15730.982
94.983017	15671.067
95.592308	15612.293
96.201591	15706.154
96.810883	15677.104
97.420166	15681.015
98.029457	15644.445
98.638741	15622.256
99.248032	15642.213
99.857315	15535.982
100.46661	15445.44
101.07589	15464.218
101.68518	15465.643
102.29447	15442.858
102.90376	15287.539
103.51305	15308.818
104.12233	15181.922
104.73162	15449.093
105.3409	15507.432
105.9502	15498.523
106.55948	15453.279
107.16877	15464.073
107.77805	15425.473
108.38734	15252.214
108.99663	15210.052
109.60592	15245.832
110.2152	15175.924
110.82449	15143.094
111.43378	15127.425
112.04307	15085.359
112.65236	15117.354
113.26164	15024.411
113.87093	15049.448
114.48022	15191.148
115.08951	15308.615
115.69879	15408.034
116.30808	15159.97
116.91737	15099.424
117.52666	14985.26
118.13594	14834.562
118.74523	14907.411
119.35452	14945.94
119.96381	14877.486
120.57309	14828.134
121.18238	14733.379
121.79167	14670.13
122.40096	14765.981
123.01025	14754.268
123.61953	14779.466
124.22882	14677.648
124.8381	14704.224
125.4474	14689.34
126.05668	14558.269
126.66597	14527.247
127.27525	14527.81
127.88454	14550.768
128.49384	14584.673
129.10312	14609.021
129.7124	14592.424
130.32169	14416.999
130.93098	14420.534
131.54027	14375.707
132.14955	14212.91
132.75885	14442.461
133.36813	14358.178
133.97742	14304.705
134.5867	14239.847
135.196	14243.01
135.80528	14250.583
136.41457	14093.235
137.02385	14017.686
137.63315	14240.892
138.24243	14228.364
138.85172	14274.461
139.461	14264.382
140.0703	14075.346
140.67958	13928.814
141.28886	13994.491
141.89816	13999.433
142.50745	13930.616
143.11673	13930.607
143.72601	13963.585
144.33531	13934.089
144.9446	13767.539
145.55388	13634.395
146.16316	13698.685
146.77246	13642.325
147.38174	13687.816
147.99103	13754.918
148.60031	13684.448
149.20961	13614.738
149.81889	13565.672
150.42818	13527.711
151.03748	13542.229
151.64676	13506.712
152.25604	13427.549
152.86533	13429.268
153.47462	13480.564
154.08391	13410.354
154.69319	13413.863
155.30247	13353.806
155.91177	13343.396
156.52106	13297.066
157.13034	13261.069
157.73962	13257.066
158.34892	13247.055
158.95821	13242.653
159.56749	13013.449
160.17679	13063.023
160.78607	13106.762
161.39536	13161.23
162.00464	13154.003
162.61394	13066.574
163.22322	12990.33
163.8325	12956.087
164.44179	12946.103
165.05109	12916.657
165.66037	12909.958
166.26965	12984.734
166.87894	12968.321
167.48824	12884.443
168.09752	12832.986
168.7068	12816.176
169.31609	12739.396
169.92538	12715.404
170.53467	12723.155
171.14395	12762.315
171.75325	12749.762
172.36253	12677.414
172.97182	12570.918
173.5811	12519.311
174.1904	12638.538
174.79968	12504.128
175.40897	12403.725
176.01825	12598.117
176.62755	12482.995
177.23683	12533.565
177.84612	12384.871
178.4554	12492.146
179.0647	12423.218
179.67398	12307.584
180.28326	12304.511
180.89256	12307.311
181.50185	12392.425
182.11113	12348.931
182.72041	12221.861
183.32971	12249.426
183.939	12217.94
184.54828	12288.348
185.15756	12223.268
185.76686	12156.678
186.37614	12157.693
186.98543	12008.337
187.59471	11942.402
188.20401	12053.326
188.81329	12066.801
189.42258	12025.89
190.03188	12049.383
190.64116	12000.955
191.25044	12060.334
191.85973	11974.571
192.46902	11989.506
193.07831	11924.86
193.68759	11942.19
194.29688	11871.049
194.90617	11871.868
195.51546	11927.112
196.12474	11863.425
196.73402	11775.077
197.34332	11813.358
197.95261	11743.338
198.56189	11670.479
199.17119	11736.833
199.78047	11808.364
200.38976	11703.314
200.99904	11728.383
201.60834	11575.809
202.21762	11534.703
202.8269	11621.56
203.43619	11654.663
204.04549	11635.374
204.65477	11632.688
205.26405	11580.725
205.87334	11529
206.48264	11550.021
207.09192	11416.54
207.7012	11467.792
208.3105	11503.211
208.91978	11462.965
209.52907	11461.211
210.13835	11483.593
210.74765	11350.295
211.35693	11270.468
211.96622	11335.12
212.5755	11421.483
213.1848	11485.146
213.79408	11389.072
214.40337	11252.237
215.01265	11257.701
215.62195	11262.28
216.23123	11167.21
216.84052	11226.713
217.4498	11360.199
218.0591	11301.373
218.66838	11204.419
219.27766	11208.467
219.88696	11245.093
220.49625	11232.014
221.10553	11163.943
221.71481	11090.943
222.32411	11133.401
222.9334	11049.679
223.54268	11030.829
224.15196	11140.322
224.76126	11111.977
225.37054	11054.834
225.97983	11096.307
226.58911	11062.524
227.19841	11061.01
227.80769	11077.937
228.41698	11093.902
229.02628	11040.761
229.63556	10922.936
230.24484	10974.208
230.85413	10978.743
231.46342	11023.448
232.07271	10934.478
232.68199	10960.563
233.29128	10995.112
233.90057	10912.008
234.50986	10915.595
235.11914	10907.462
235.72842	10905.863
236.33772	10943.159
236.94701	10943.645
237.55629	10886.63
238.16559	10838.863
238.77487	10817.843
239.38416	10884.565
239.99344	10880.221
240.60274	10762.502
241.21202	10988.625
241.8213	10856.831
242.43059	10769.54
243.03989	10896.728
243.64917	10866.606
244.25845	10777.103
244.86774	10781.896
245.47704	10777.608
246.08632	10791.58
246.6956	10877.153
247.3049	10843.355
247.91418	10849.102
248.52347	10775.204
249.13275	10636.84
249.74205	10750.957
250.35133	10821.941
250.96062	10730.877
251.5699	10773.621
252.1792	10822.123
252.78848	10829.735
253.39777	10675.553
254.00705	10614.128
254.61635	10697.191
255.22563	10703.527
255.83492	10672.856
256.44421	10682.521
257.0535	10754.486
257.66278	10633.948
258.27206	10545.597
258.88135	10712.553
259.49063	10568.702
260.09995	10645.14
260.70923	10691.639
261.31851	10679.822
261.9278	10635.935
262.53708	10572.174
263.14636	10562.284
263.75565	10584.488
264.36493	10622.924
264.97424	10711.473
265.58353	10669.169
266.19281	10683.853
266.80209	10626.297
267.41138	10653.269
268.02066	10562.084
268.62994	10495.096
269.23926	10635.936
269.84854	10607.708
270.45782	10595.026
271.06711	10634.722
271.67639	10617.032
272.28568	10610.091
272.89496	10607.76
273.50424	10597.684
274.11356	10666.35
274.72284	10591.205
275.33212	10520.578
275.94141	10363.805
276.55069	10621.937
277.15997	10484.093
277.76926	10721.678
278.37857	10635.857
278.98785	10728.735
279.59714	10678.712
280.20642	10559.681
280.8157	10565.282
281.42499	10617.343
282.03427	10611.821
282.64355	10555.116
283.25287	10530.878
283.86215	10627.046
284.47144	10590.354
285.08072	10537.97
285.69	10599.538
286.29929	10615.996
286.90857	10660.29
287.51788	10573.984
288.12717	10637.004
288.73645	10720.868
289.34573	10823.49
289.95502	10762.603
290.5643	10681.588
291.17358	10563.581
291.78287	10482.404
292.39218	10612.101
293.00146	10708.259
293.61075	10674.776
294.22003	10717.334
294.82932	10619.104
295.4386	10679.122
296.04788	10639.762
296.6572	10670.655
297.26648	10695.703
297.87576	10728.465
298.48505	10745.155
299.09433	10699.997
299.70361	10595.267
300.3129	10609.942
300.92218	10719.982
301.53149	10777.63
302.14078	10773.69
302.75006	10742.257
303.35934	10735.721
303.96863	10800.884
304.57791	10694.863
305.18719	10756.711
305.79651	10716.89
306.40579	10761.236
307.01508	10792.976
307.62436	10777.973
308.23364	10799.303
308.84293	10751.762
309.45221	10692.33
310.06149	10726.034
310.67081	10760.864
311.28009	10785.777
311.88937	10849.047
312.49866	10832.891
313.10794	10769.036
313.71722	10832.844
314.32651	10731.29
314.93582	10911.986
315.5451	10926.898
316.15439	10875.181
316.76367	10890.439
317.37296	10882.229
317.98224	10784.3
318.59152	10788.563
319.20081	10796.869
319.81012	10846.349
320.4194	10924.806
321.02869	10867.47
321.63797	10822.842
322.24725	10966.527
322.85654	11010.553
323.46582	10907.301
324.07513	10984.04
324.68442	10969.342
325.2937	11021.523
325.90298	11070.518
326.51227	10995.59
327.12155	10976.407
327.73083	10922.65
328.34012	10966.59
328.94943	10912.716
329.55872	10847.112
330.168	10993.884
330.77728	11087.559
331.38657	11044.381
331.99585	11048.572
332.60513	11076.844
333.21442	11040.433
333.82373	11020.552
334.43301	11052.001
335.0423	11173.759
335.65158	11169.652
336.26086	11201.165
336.87015	11028.677
337.47943	11120.813
338.08875	11103.97
338.69803	11142.427
339.30731	11163.135
339.9166	11157.657
340.52588	11153.832
341.13516	11164.599
341.74445	11201.914
342.35373	11192.367
342.96304	11219.408
343.57233	11305.684
344.18161	11282.685
344.79089	11293.641
345.40018	11224.329
346.00946	11189.071
346.61874	11196.559
347.22806	11158.036
347.83734	11187.644
348.44662	11288.426
349.05591	11295.201
349.66519	11284.188
350.27448	11394.94
350.88376	11357.619
351.49304	11201.998
352.10236	11241.261
352.71164	11355.212
353.32092	11383.39
353.93021	11399.973
354.53949	11408.741
355.14877	11419.854
355.75806	11506.332
356.36737	11473.584
356.97665	11483.061
357.58594	11378.387
358.19522	11255.253
358.8045	11498.238
359.41379	11502.549
360.02307	11447.157
360.63235	11441.92
361.24167	11383.86
361.85095	11438.396
362.46024	11367.222
363.06952	11439.677
363.6788	11511.484
364.28809	11497.072
364.89737	11476.957
365.50668	11490.193
366.11597	11505.205
366.72525	11498.551
367.33453	11584.007
367.94382	11565.311
368.5531	11454.468
369.16238	11539.925
369.77167	11603.058
370.38098	11566.963
370.99026	11580.869
371.59955	11528.607
372.20883	11559.742
372.81812	11598.705
373.4274	11639.512
374.03668	11705.988
374.646	11650.087
375.25528	11616.942
375.86456	11636.007
376.47385	11676.825
377.08313	11735.007
377.69241	11689.259
378.3017	11623.08
378.91098	11734.412
379.52029	11705.414
380.12958	11739.564
380.73886	11789.104
381.34814	11688.938
381.95743	11809.058
382.56671	11918.916
383.17599	11849.686
383.78531	11931.632
384.39459	11789.497
385.00388	11742.4
385.61316	11880.39
386.22244	11962.923
386.83173	11945.9
387.44101	11895.883
388.05029	11883.975
388.65961	11915.495
389.26889	11942.52
389.87817	11971.42
390.48746	12016.454
391.09674	12033.54
391.70602	12044.205
392.31531	12043.342
392.92462	12087.985
393.53391	11959.189
394.14319	12088.519
394.75247	11978.807
395.36176	12159.423
395.97104	11981.354
396.58032	12025.613
397.18961	12095.775
397.79892	12188.155
398.4082	12122.907
399.01749	12052.375
399.62677	12146.948
400.23605	12194.877
400.84534	12211.811
401.45462	12305.831
402.06393	12356.358
402.67322	12289.684
403.2825	12282.267
403.89178	12380.408
404.50107	12346.785
405.11035	12465.599
405.71964	12392.584
406.32892	12328.214
406.93823	12275.972
407.54752	12306.821
408.1568	12398.698
408.76608	12366.301
409.37537	12410.797
409.98465	12499.341
410.59393	12563.64
411.20325	12413.398
411.81253	12443.874
412.42181	12429.548
413.0311	12457.33
413.64038	12507.739
414.24966	12525.923
414.85895	12481.738
415.46823	12463.449
416.07755	12558.889
416.68683	12605.672
417.29611	12669.012
417.9054	12742.105
418.51468	12639.688
419.12396	12833.476
419.73325	12683.522
420.34256	12736.769
420.95184	12623.387
421.56113	12878.308
422.17041	12701.397
422.77969	12756.025
423.38898	12888.874
423.99826	12912.841
424.60754	12932.485
425.21686	12992.474
425.82614	12951.332
426.43542	12896.016
427.04471	12921.496
427.65399	12928.343
428.26328	13021.004
428.87256	13172.514
429.48184	13203.888
430.09116	13115.247
430.70044	13015.949
431.30972	13127.313
431.91901	13147.173
432.52829	13150.797
433.13757	13210.625
433.74686	13332.529
434.35617	13226.382
434.96545	13343.776
435.57474	13453.333
436.18402	13247.612
436.7933	13265.159
437.40259	13494.059
438.01187	13515.476
438.62115	13583.883
439.23047	13452.843
439.83975	13513.219
440.44904	13601.967
441.05832	13583.919
441.6676	13563.01
442.27689	13676.68
442.88617	13775.275
443.49548	13807.086
444.10477	13814.799
444.71405	13762.022
445.32333	13815.31
445.93262	13896.154
446.5419	13954.671
447.15118	13977.188
447.76047	14075.458
448.36978	14073.472
448.97906	14171.124
449.58835	14099.067
450.19763	13900.663
450.80692	14115.962
451.4162	14172.531
452.02548	14317.956
452.6348	14248.968
453.24408	14259.745
453.85336	14440.736
454.46265	14444.189
455.07193	14408.424
455.68121	14475.606
456.2905	14412.005
456.89978	14477.331
457.50909	14658.272
458.11838	14669.504
458.72766	14627.65
459.33694	14695.509
459.94623	14750.392
460.55551	14780.733
461.16479	14924.874
461.77411	15020.762
462.38339	14981.629
462.99268	14963.668
463.60196	14967.037
464.21124	15096.434
464.82053	15040.142
465.42981	15311.21
466.03909	15237.456
466.64841	15243.993
467.25769	15266.349
467.86697	15152.62
468.47626	15136.383
469.08554	15338.691
469.69482	15466.502
470.30411	15558.604
470.91342	15675.897
471.52271	15706.657
472.13199	15757.472
472.74127	15712.363
473.35056	15638.382
473.95984	15742.462
474.56912	15875.921
475.17841	15980.958
475.78772	16090.64
476.397	16114.496
477.00629	16139.149
477.61557	16096.747
478.22485	16081.802
478.83414	16106.565
479.44342	16180.244
480.05273	16427.291
480.66202	16524.9
481.2713	16488.064
481.88058	16425.223
482.48987	16462.264
483.09915	16532.535
483.70844	16584.17
484.31772	16762.818
484.92703	16809.432
485.53632	16889.156
486.1456	17020.549
486.75488	16955.219
487.36417	16881.918
487.97345	16956.404
488.58273	17047.66
489.19205	17121.818
489.80133	17230.33
490.41061	17294.412
491.0199	17265.709
491.62918	17303.23
492.23846	17365.275
492.84775	17441.551
493.45703	17522.461
494.06635	17536.115
494.67563	17558.176
495.28491	17580.459
495.8942	17713.779
496.50348	17524.963
497.11276	17479.924
497.72205	17626.682
498.33136	17977.402
498.94064	17790.252
499.54993	17867.229
500.15921	17899.783
500.76849	17876.156
501.37778	17669.291
501.98706	17826.205
502.59634	17768.408
503.20566	17929.57
503.81494	17885.492
504.42422	17984.211
505.03351	17974.012
505.64279	17732.367
506.25208	17795.604
506.86136	17810.879
507.47067	17770.51
508.07996	17888.416
508.68924	17954.16
509.29852	17846.691
509.90781	17742.967
510.51709	17745.355
511.12637	17832.611
511.73566	17838.912
512.34497	17834
512.95422	17870.051
513.56354	17749.646
514.17279	17766.215
514.7821	17768.939
515.39142	17546.268
516.00067	17400.533
516.60999	17536.547
517.21924	17579.344
517.82855	17510.551
518.43781	17498.631
519.04712	17464.189
519.65643	17237.34
520.26569	17314.887
520.875	17269.742
521.48425	17163.764
522.09357	17242.143
522.70282	17153.51
523.31213	17210.051
523.92145	17124.055
524.5307	16841.23
525.14001	16869.521
525.74927	16892.217
526.35858	16749.131
526.96783	16736.18
527.57715	16678.768
528.18646	16681.271
528.79572	16532.357
529.40503	16460.41
530.01428	16357.805
530.6236	16209.732
531.23285	16234.063
531.84216	16265.053
532.45142	16114.146
533.06073	16037.135
533.67004	15928.786
534.2793	15804.039
534.88861	15767.667
535.49786	15750.414
536.10718	15725.9
536.71643	15689.747
537.32574	15494.152
537.93506	15388.921
538.54431	15352.605
539.15363	15198.289
539.76288	15194.741
540.37219	15051.614
540.98145	15083.665
541.59076	15045.338
542.20007	15039.837
542.80933	14965.425
543.41864	14811.104
544.02789	14749.356
544.63721	14648.617
545.24646	14717.277
545.85577	14679.206
546.46509	14622.93
547.07434	14620.069
547.68365	14434.448
548.29291	14397.188
548.90222	14486.315
549.51147	14390.834
550.12079	14408.785
550.73004	14400.231
551.33936	14390.648
551.94867	14404.742
552.55792	14370.396
553.16724	14281.912
553.77649	14280.505
554.3858	14324.493
554.99506	14393.881
555.60437	14406.859
556.21368	14365.886
556.82294	14396.959
557.43225	14382.827
558.0415	14310.299
558.65082	14324.355
559.26007	14472.459
559.86938	14582.028
560.4787	14588.093
561.08795	14608.053
561.69727	14574.883
562.30652	14598.115
562.91583	14688.544
563.52509	14665.315
564.1344	14678.38
564.74365	14798.308
565.35297	14816.144
565.96228	14836.955
566.57153	14861.898
567.18085	14844.07
567.7901	14837.464
568.39941	14848.065
569.00867	14901.223
569.61798	14995.472
570.22729	15056.063
570.83655	15071.726
571.44586	14940.636
572.05511	15002.111
572.66443	14964.896
573.27368	14952.356
573.883	14938.548
574.49231	14933.119
575.10156	14956.576
575.71088	14986.013
576.32013	14966.249
576.92944	14827.95
577.5387	14818.337
578.14801	14867.005
578.75732	14857.869
579.36658	14880.41
579.97589	14878.749
580.58514	14844.024
581.19446	14801.863
581.80371	14687.306
582.41302	14699.832
583.02228	14707.979
583.63159	14724.395
584.24091	14658.558
584.85016	14593.26
585.45947	14544.015
586.06873	14517.457
586.67804	14364.339
587.28729	14272.928
587.89661	14395.317
588.50592	14433.864
589.11517	14393.069
589.72449	14295.218
590.33374	14280.436
590.94305	14252.965
591.55231	14254.246
592.16162	14172.103
592.77094	14169.727
593.38019	14191.456
593.9895	14109.385
594.59875	14010.498
595.20807	13989.445
595.81732	13855.271
596.42664	13821.215
597.03595	13889.239
597.6452	13864.853
598.25452	13855.207
598.86377	13764.839
599.47308	13732.102
600.08234	13586.509
600.69165	13606.993
601.3009	13519.751
601.91022	13488.239
602.51953	13513.079
603.12878	13431.813
603.7381	13425.5
604.34735	13271.095
604.95667	13152.87
605.56592	13134.784
606.17523	13126.361
606.78455	13105.751
607.3938	13056.15
608.00311	13064.053
608.61237	12955.688
609.22168	12829.321
609.83093	12816.451
610.44025	12713.524
611.04956	12697.427
611.65881	12673.312
612.26813	12643.515
612.87738	12612.972
613.48669	12476.853
614.09595	12345.636
614.70526	12367.39
615.31458	12313.603
615.92383	12271.088
616.53314	12257.257
617.1424	12230.818
617.75171	12194.572
618.36096	12046.685
618.97028	11980.24
619.57953	11909.007
620.18884	11839.604
620.79816	11868.808
621.40741	11870.326
622.01672	11832.539
622.62598	11770.061
623.23529	11627.422
623.84454	11559.261
624.45386	11458.25
625.06317	11434.361
625.67242	11480.102
626.28174	11439.238
626.89099	11281.776
627.50031	11289.414
628.10956	11207.721
628.71887	11202.286
629.32819	11047.951
629.93744	10962.418
630.54675	10942.051
631.15601	11021.202
631.76532	10813.009
632.37457	10829.852
632.98389	10735.467
633.5932	10666.278
634.20245	10620.045
634.81177	10552.639
635.42102	10504.587
636.03033	10462.655
636.63959	10336.619
637.2489	10306.926
637.85815	10226.978
638.46747	10151.341
639.07678	10129.092
639.68604	10110.196
640.29535	10013.355
640.9046	10021.763
641.51392	9953.8037
642.12317	9858.1123
642.73248	9771.043
643.3418	9654.6152
643.95105	9548.6748
644.56036	9575.8857
645.16962	9535.5859
645.77893	9424.3447
646.38818	9371.334
646.9975	9265.5547
647.60681	9186.0742
648.21606	9135.5918
648.82538	9084.3203
649.43463	9097.3564
650.04395	9086.4932
650.6532	9003.6641
651.26251	8851.9434
651.87183	8740.4863
652.48108	8690.4111
653.09039	8628.3311
653.69965	8528.8604
654.30896	8493.9434
654.91821	8496.4961
655.52753	8247.8096
656.13678	8380.0967
656.74609	8205.8926
657.35541	8103.0562
657.96466	8102.6162
658.57397	7991.6465
659.18323	8127.3096
659.79254	7887.2144
660.40179	7822.2695
661.01111	7707.292
661.62042	7636.7188
662.22968	7575.5122
662.83899	7522.4756
663.44824	7528.918
664.05756	7529.1519
664.66681	7322.0601
665.27612	7248.7056
665.88544	7269.6665
666.49469	7142.7524
667.104	7070.3828
667.71326	7003.062
668.32257	7045.7021
668.93182	7011.8149
669.54114	6914.3252
670.15039	6795.6118
670.7597	6748.2583
671.36902	6721.4409
671.97827	6646.6821
672.58759	6615.0391
673.19684	6567.27
673.80615	6469.2202
674.41541	6421.9189
675.02472	6344.2627
675.63403	6251.0151
676.24329	6217.7041
676.8526	6165.9756
677.46185	6146.708
678.07117	6134.9878
678.68042	6054.0947
679.28973	5973.5449
679.89905	5916.2651
680.5083	5830.0908
681.11761	5767.7505
681.72687	5840.2095
682.33618	5767.9375
682.94543	5720.1221
683.55475	5695.8242
684.16406	5617.6519
684.77332	5513.3867
685.38263	5458.1807
685.99188	5428.1572
686.6012	5306.9585
687.21045	5364.0576
687.81976	5347.6479
688.42902	5326.4517
689.03833	5221.5771
689.64764	5214.7402
690.2569	5177.2085
690.86621	5107.3032
691.47546	5227.5874
692.08478	5097.9814
692.69403	5082.3105
693.30334	4982.7798
693.91266	4934.3901
694.52191	4931.8262
695.13123	4903.7793
695.74048	4819.6807
696.34979	4760.6538
696.95905	4822.8501
697.56836	4831.3438
698.17767	4851.3662
698.78693	4747.1533
699.39624	4670.5635
700.00549	4683.6074
700.61481	4597.9487
701.22406	4621.9224
701.83337	4576.1484
702.44269	4515.2559
703.05194	4551.9941
703.66125	4509.8906
704.27051	4488.3452
704.87982	4449.1533
705.48907	4443.502
706.09839	4454.8438
706.70764	4489.0166
707.31696	4466.8579
707.92627	4401.7017
708.53552	4386.1729
709.14484	4391.9927
709.75409	4330.9712
710.3634	4275.2793
710.97266	4317.8018
711.58197	4304.438
712.19128	4256.2427
712.80054	4229.8862
713.40985	4217.5347
714.0191	4211.6265
714.62842	4187.3345
715.23767	4209.7173
715.84698	4226.2979
716.4563	4151.4243
717.06555	4144.1108
717.67487	4158.4268
718.28412	4067.5864
718.89343	4071.9963
719.50269	4137.124
720.112	4168.9375
720.72131	4126.5474
721.33057	4075.291
721.93988	4034.3779
722.54913	4011.7249
723.15845	4041.2666
723.7677	4089.8049
724.37701	4050.9092
724.98627	4058.3433
725.59558	4021.2695
726.2049	4034.4082
726.81415	4030.7961
727.42346	4005.0188
728.03271	4023.2434
728.64203	4050.3389
729.25128	3986.5129
729.8606	3990.3091
730.46991	4001.4631
731.07916	3960.6011
731.68848	3963.0654
732.29773	3994.3374
732.90704	3997.084
733.5163	3960.3633
734.12561	3947.3901
734.73492	3925.8105
735.34418	3958.042
735.95349	3959.5872
736.56274	3954.4941
737.17206	3905.0513
737.78131	3985.8223
738.39063	3939.9771
738.99994	3918.9482
739.60919	3942.0774
740.21851	3941.0752
740.82776	3908.7756
741.43707	3895.4788
742.04633	3886.7947
742.65564	3836.8137
743.26489	3920.3083
743.87421	3899.3208
744.48352	3921.4023
745.09277	3907.8066
745.70209	3925.9319
746.31134	3928.5803
746.92065	3870.8101
747.52991	3864.875
748.13922	3909.2114
748.74854	3883.1753
749.35779	3833.8398
749.9671	3853.4202
750.57635	3860.6416
751.18567	3814.1252
751.79492	3899.926
752.40424	3874.7712
753.01355	3859.2065
753.6228	3823.0239
754.23212	3723.6611
754.84137	3812.2798
755.45068	3777.186
756.05994	3838.2451
756.66925	3849.3557
757.2785	3826.6917
757.88782	3869.6973
758.49713	3847.3481
759.10638	3813.4434
759.7157	3772.333
760.32495	3741.2578
760.93427	3767.9182
761.54352	3780.6658
762.15283	3811.1755
762.76215	3779.2224
763.3714	3839.377
763.98071	3762.72
764.58997	3755.3391
765.19928	3739.7158
765.80853	3726.2603
766.41785	3690.8647
767.02716	3760.9446
767.63641	3763.0776
768.24573	3724.8235
768.85498	3740.8079
769.46429	3663.6772
770.07355	3646.084
770.68286	3632.9785
771.29218	3648.0774
771.90143	3670.762
772.51074	3683.8794
773.12	3614.6763
773.72931	3574.801
774.33856	3567.3359
774.94788	3544.1829
775.55713	3572.03
776.16644	3563.3003
776.77576	3560.5391
777.38501	3469.1711
777.99432	3489.3972
778.60358	3457.3306
779.21289	3369.9839
779.82214	3389.2432
780.43146	3420.3511
781.04077	3414.7673
781.65002	3336.4663
782.25934	3300.2075
782.86859	3348.9233
783.47791	3272.6748
784.08716	3292.7822
784.69647	3241.1272
785.30579	3253.9485
785.91504	3225.1982
786.52435	3211.7996
787.13361	3222.686
787.74292	3170.9121
788.35217	3128.6819
788.96149	3075.0393
789.5708	3053.3564
790.18005	3015.9885
790.78937	3043.3425
791.39862	2967.6724
792.00793	2959.2517
792.61719	2951.001
793.2265	2862.979
793.83575	2885.4688
794.44507	2845.0061
795.05438	2828.6663
795.66364	2782.3164
796.27295	2727.6509
796.8822	2691.2361
797.49152	2680.0627
798.10077	2602.7498
798.71008	2599.2917
799.3194	2556.79
799.92865	2581.1963
800.53796	2543.8323
801.14722	2543.552
801.75653	2434.0425
802.36578	2387.5291
802.9751	2332.6885
803.58441	2305.8206
804.19366	2316.4255
804.80298	2286.5952
805.41223	2242.4434
806.02155	2204.7612
806.6308	2169.46
807.24011	2143.6616
807.84943	2064.5374
808.45868	2095.0278
809.06799	2045.8273
809.67725	1987.1129
810.28656	1947.0663
810.89581	1901.6478
811.50513	1846.8619
812.11438	1860.7413
812.72369	1825.3436
813.33301	1775.5554
813.94226	1775.9907
814.55157	1736.1011
815.16083	1715.2179
815.77014	1592.877
816.37939	1635.1953
816.98871	1602.8907
817.59802	1606.123
818.20728	1576.6748
818.81659	1548.0442
819.42584	1528.7279
820.03516	1526.8922
820.64441	1449.015
821.25372	1520.0914
821.86304	1485.0309
822.47229	1392.4186
823.0816	1416.6002
823.69086	1413.9658
824.30017	1386.7003
824.90942	1363.3564
825.51874	1315.7664
826.12805	1299.043
826.7373	1289.8951
827.34662	1297.8606
827.95587	1314.1808
828.56519	1286.178
829.17444	1243.8324
829.78375	1285.1278
830.39301	1292.6049
831.00232	1273.0763
831.61163	1277.5466
832.22089	1269.1165
832.8302	1230.0614
833.43945	1207.2635
834.04877	1246.7263
834.65802	1201.614
835.26733	1220.5686
835.87665	1220.0896
836.4859	1197.0831
837.09521	1210.9178
837.70447	1233.9858
838.31378	1186.6582
838.92303	1188.4082
839.53235	1175.7202
840.14166	1216.9956
840.75092	1200.9877
841.36023	1195.2523
841.96948	1188.0469
842.5788	1193.8004
843.18805	1207.995
843.79736	1188.0475
844.40668	1205.748
845.01593	1208.3083
845.62524	1217.7607
846.2345	1174.6328
846.84381	1206.808
847.45306	1170.8634
848.06238	1180.6139
848.67163	1156.2809
849.28094	1166.6964
849.89026	1190.9717
850.49951	1175.5029
851.10883	1160.1587
851.71808	1166.9282
852.32739	1185.6949
852.93665	1198.303
853.54596	1184.7197
854.15527	1188.0444
854.76453	1192.0511
855.37384	1195.6356
855.98309	1191.9408
856.59241	1187.1281
857.20166	1191.9365
857.81097	1183.6823
858.42029	1217.5043
859.02954	1225.6223
859.63885	1210.4336
860.24811	1214.6268
860.85742	1211.0751
861.46667	1196.2939
862.07599	1210.576
862.68524	1258.4287
863.29456	1223.9713
863.90387	1214.5667
864.51312	1238.2874
865.12244	1226.7252
865.73169	1224.092
866.341	1239.2531
866.95026	1258.2673
867.55957	1274.2542
868.16888	1269.1129
868.77814	1279.3729
869.38745	1295.0834
869.9967	1275.7075
870.60602	1253.713
871.21527	1276.559
871.82458	1301.3126
872.4339	1298.4546
873.04315	1308.187
873.65247	1300.4779
874.26172	1271.3915
874.87103	1326.1622
875.48029	1291.2621
876.0896	1346.0597
876.69891	1334.4166
877.30817	1367.3491
877.91748	1356.9476
878.52673	1318.8495
879.13605	1391.5955
879.7453	1431.4215
880.35461	1375.3329
880.96387	1420.3495
881.57318	1407.291
882.1825	1481.1796
882.79175	1470.038
883.40106	1411.9028
884.01031	1459.1764
884.61963	1495.1527
885.22888	1555.2653
885.8382	1458.4851
886.44751	1506.457
887.05676	1535.4448
887.66608	1553.4276
888.27533	1586.6494
888.88464	1553.7515
889.4939	1647.2217
890.10321	1657.7069
890.71252	1640.8694
891.32178	1640.0535
891.93109	1660.7889
892.54034	1711.6958
893.14966	1728.3066
893.75891	1775.4821
894.36823	1784.7041
894.97754	1762.0693
895.58679	1785.2659
896.19611	1796.8568
896.80536	1843.3318
897.41467	1864.6294
898.02393	1846.6857
898.63324	1902.046
899.24249	1950.1422
899.85181	1944.0865
900.46112	1922.3707
901.07037	1968.3336
901.67969	2048.3047
902.28894	2089.6926
902.89825	2121.2847
903.50751	2133.2966
904.11682	2200.9316
904.72614	2215.3347
905.33539	2264.6855
905.9447	2270.5278
906.55396	2302.9141
907.16327	2377.6475
907.77252	2392.7881
908.38184	2396.7896
908.99115	2423.2871
909.6004	2465.761
910.20972	2519.6875
910.81897	2587.4587
911.42828	2567.2361
912.03754	2646.7888
912.64685	2666.0266
913.25616	2746.1333
913.86542	2734.1418
914.47473	2767.3186
915.08398	2805.1045
915.6933	2850.8369
916.30255	2870.2097
916.91187	3033.8389
917.52112	3073.834
918.13043	2994.1477
918.73975	3115.3142
919.349	3188.4954
919.95831	3238.8135
920.56757	3259.1267
921.17688	3310.8315
921.78613	3363.8469
922.39545	3470.48
923.00476	3521.5032
923.61401	3514.3708
924.22333	3592.8154
924.83258	3612.8115
925.44189	3710.9224
926.05115	3784.1738
926.66046	3824.3345
927.26978	3865.8594
927.87903	3947.4363
928.48834	4019.1692
929.0976	4082.5554
929.70691	4124.2192
930.31616	4219.9409
930.92548	4235.1255
931.53479	4265.6118
932.14404	4320.9634
932.75336	4402.0933
933.36261	4464.5674
933.97192	4492.6934
934.58118	4588.5615
935.19049	4648.4155
935.79974	4697.6221
936.40906	4795.3877
937.01837	4871.8052
937.62762	4838.6147
938.23694	4829.292
938.84619	4860.3574
939.45551	4967.519
940.06476	5035.4771
940.67407	5102.5161
941.28339	5155.9307
941.89264	5219.103
942.50195	5119.5815
943.11121	5233.3438
943.72052	5233.8569
944.32977	5291.855
944.93909	5292.8994
945.5484	5351.5347
946.15765	5368.6504
946.76697	5489.7661
947.37622	5463.7808
947.98553	5468.6392
948.59479	5461.4761
949.2041	5457.2178
949.81335	5590.3916
950.42267	5604.8975
951.03198	5621.8013
951.64124	5620.6514
952.25055	5636.3081
952.8598	5658.1426
953.46912	5677.521
954.07837	5698.6885
954.68768	5747.9639
955.297	5784.1025
955.90625	5812.0371
956.51556	5796.9854
957.12482	5760.3271
957.73413	5804.377
958.34338	5775.0825
958.9527	5812.7729
959.56201	5875.5767
960.17126	5886.416
960.78058	5846.3936
961.38983	5833.3403
961.99915	5831.2368
962.6084	5858.9121
963.21771	5903.2808
963.82703	5946.5835
964.43628	6027.8369
965.04559	6025.1055
965.65485	5994.3638
966.26416	5996.8901
966.87341	6026.7119
967.48273	6079.688
968.09198	6088.3809
968.70129	6155.3213
969.31061	6217.936
969.91986	6230.4253
970.52917	6197.3071
971.13843	6157.6406
971.74774	6183.4526
972.35699	6288.0566
972.96631	6340.4585
973.57562	6343.3765
974.18488	6418.5288
974.79419	6427.478
975.40344	6423.3794
976.01276	6486.7681
976.62201	6515.1284
977.23132	6547.2949
977.84064	6600.6621
978.44989	6649.2827
979.0592	6694.0684
979.66846	6686.0249
980.27777	6705.6113
980.88702	6664.082
981.49634	6706.3984
982.10565	6819.4297
982.7149	6936.8979
983.32422	6983.5659
983.93347	6989.7778
984.54279	7035.4175
985.15204	6883.1665
985.76135	7071.353
986.37061	7150.9272
986.97992	7283.1719
987.58923	7328.1865
988.19849	7320.4395
988.8078	7378.9214
989.41705	7395.2847
990.02637	7387.2705
990.63562	7475.4229
991.24493	7546.6724
991.85425	7610.1143
992.4635	7720.7124
993.07281	7738.8174
993.68207	7781.9961
994.29138	7823.7559
994.90063	7878.1899
995.50995	7865.6401
996.11926	7970.6177
996.72852	8053.6699
997.33783	8134.3027
997.94708	8109.3125
998.5564	8162.624
999.16565	8207.582
999.77496	8256.6143
1000.3843	8268.9043
1000.9935	8381.2715
1001.6028	8428.0537
1002.2121	8478.9785
1002.8214	8526.8428
1003.4307	8625.377
1004.04	8674.8525
1004.6492	8689.6777
1005.2585	8788.9473
1005.8679	8927.2471
1006.4771	8971.4395
1007.0864	9019.3945
1007.6957	9097.3516
1008.305	9176.3896
1008.9142	9207.7012
1009.5236	9274.6895
1010.1329	9327.2373
1010.7421	9435.1641
1011.3514	9520.3408
1011.9607	9536.5078
1012.57	9558.7031
1013.1793	9658.7861
1013.7886	9730.9375
1014.3979	9837.5811
1015.0071	9948.207
1015.6165	10057.964
1016.2257	10007.222
1016.835	10148.884
1017.4443	10275.716
1018.0536	10308.87
1018.6629	10343.767
1019.2722	10432.249
1019.8815	10538.048
1020.4907	10680.057
1021.1	10712.612
1021.7093	10796.073
1022.3186	10863.583
1022.9279	10948.036
1023.5372	10988.56
1024.1465	11156.536
1024.7557	11319.323
1025.365	11428.689
1025.9744	11416.396
1026.5836	11502.145
1027.1929	11597.545
1027.8022	11690.136
1028.4115	11776.826
1029.0208	11903.253
1029.63	12024.66
1030.2394	12116.715
1030.8486	12141.388
1031.4579	12251.674
1032.0671	12370.488
1032.6765	12388.666
1033.2858	12550.884
1033.895	12691.551
1034.5044	12839.161
1035.1136	13004.245
1035.7229	13020.194
1036.3322	13169.01
1036.9415	13213.494
1037.5508	13312.91
1038.16	13409.88
1038.7694	13533.613
1039.3787	13636.015
1039.9879	13782.975
1040.5972	13881.383
1041.2065	13923.773
1041.8158	13922.386
1042.425	14128.513
1043.0344	14198.935
1043.6437	14422.545
1044.2529	14644.003
1044.8622	14678.245
1045.4716	14666.782
1046.0808	14763.209
1046.6901	14870.819
1047.2994	14963.024
1047.9087	15142.077
1048.5179	15207.134
1049.1272	15346.603
1049.7366	15338.569
1050.3458	15470.528
1050.9551	15507.818
1051.5645	15601.849
1052.1737	15713.533
1052.783	15866.396
1053.3922	15979.895
1054.0016	16092.662
1054.6108	16193.003
1055.2201	16184.776
1055.8295	16218.855
1056.4387	16306.509
1057.048	16505.58
1057.6572	16673.887
1058.2666	16769.262
1058.8759	16844.123
1059.4851	16874.986
1060.0945	16845.244
1060.7037	17002.395
1061.313	17062.518
1061.9222	17100.674
1062.5316	17243.283
1063.1409	17304.287
1063.7501	17479.076
1064.3594	17349.408
1064.9688	17402.498
1065.578	17474.545
1066.1873	17482.322
1066.7966	17556.875
1067.4059	17725.23
1068.0151	17791.441
1068.6244	17789.211
1069.2338	17773.188
1069.843	17759.715
1070.4523	17786.68
1071.0616	17919.791
1071.6709	18065.705
1072.2802	18140.924
1072.8894	18236.879
1073.4988	18104.184
1074.108	18026.385
1074.7173	18038.768
1075.3267	18005.582
1075.9359	18073.412
1076.5452	18154.951
1077.1544	18184.453
1077.7638	18167.813
1078.373	18089.225
1078.9823	18047.807
1079.5917	18082.807
1080.2009	18131.977
1080.8102	18265.188
1081.4194	18193.877
1082.0288	18147.916
1082.6381	18105.271
1083.2473	18006.658
1083.8567	17932.635
1084.4659	17927.229
1085.0752	17935.531
1085.6844	17962.115
1086.2938	17951.156
1086.9031	17927.207
1087.5123	17803.988
1088.1217	17625.146
1088.731	17519.734
1089.3402	17525.004
1089.9495	17531.771
1090.5588	17521.301
1091.1681	17472.217
1091.7773	17403.266
1092.3867	17278.023
1092.996	17188.787
1093.6052	17086.842
1094.2145	16966.664
1094.8239	16882.674
1095.4331	16889.658
1096.0424	16825.336
1096.6517	16671.166
1097.261	16560.207
1097.8702	16356.553
1098.4795	16351.907
1099.0889	16254.056
1099.6981	16114.313
1100.3074	16150.371
1100.9166	15921.453
1101.526	15846.767
1102.1353	15703.962
1102.7445	15428.177
1103.3539	15378.302
1103.9631	15322.733
1104.5724	15261.262
1105.1816	15238.422
1105.791	15058.705
1106.4003	14892.209
1107.0095	14743.624
1107.6189	14567.854
1108.2281	14492.136
1108.8374	14360.985
1109.4467	14246.877
1110.056	14175.866
1110.6653	14026.589
1111.2745	13881.019
1111.8839	13749.338
1112.4932	13458.087
1113.1024	13463.929
1113.7117	13389.308
1114.321	13214.028
1114.9303	13161.147
1115.5396	13025.771
1116.1489	12813.876
1116.7582	12694.416
1117.3674	12611.413
1117.9767	12512.562
1118.5861	12395.922
1119.1953	12252.806
1119.8046	12134.747
1120.4139	11988.483
1121.0232	11815.158
1121.6324	11661.425
1122.2417	11510.059
1122.8511	11439.856
1123.4603	11385.944
1124.0696	11297.154
1124.679	11177.698
1125.2882	11029.657
1125.8975	10919.211
1126.5067	10780.688
1127.1161	10569.333
1127.7253	10472.956
1128.3346	10406.874
1128.944	10257.876
1129.5532	10263.74
1130.1625	10145.175
1130.7717	9923.2285
1131.3811	9917.5186
1131.9904	9721.5371
1132.5996	9647.0459
1133.2089	9621.666
1133.8182	9433.3291
1134.4275	9351.1914
1135.0367	9231.417
1135.6461	9078.5703
1136.2554	8958.4082
1136.8646	8908.7207
1137.4739	8823.1152
1138.0833	8754.7451
1138.6925	8588.6475
1139.3018	8507.4229
1139.9111	8357.1318
1140.5204	8336.2119
1141.1296	8221.3047
1141.7389	8099.917
1142.3483	8098.2598
1142.9575	7982.3003
1143.5668	7863.5337
1144.1761	7794.9189
1144.7854	7680.3408
1145.3947	7593.2925
1146.0039	7511.5288
1146.6133	7425.8745
1147.2225	7376.4673
1147.8318	7298.4404
1148.4412	7199.1147
1149.0504	7093.9136
1149.6597	7010.604
1150.2689	6976.9956
1150.8783	6901.1084
1151.4875	6856.8296
1152.0968	6787.5864
1152.7062	6719.4507
1153.3154	6608.4731
1153.9247	6484.9702
1154.5339	6393.2402
1155.1433	6347.6372
1155.7526	6287.4077
1156.3618	6182.3008
1156.9712	6101.7236
1157.5804	6027.6704
1158.1897	5936.0664
1158.799	5854.1582
1159.4083	5761.9497
1160.0176	5699.6206
1160.6268	5619.3564
1161.2362	5511.2817
1161.8455	5471.7402
1162.4547	5416.8999
1163.064	5262.7046
1163.6733	5204.6279
1164.2826	5168.8296
1164.8918	5134.8081
1165.5012	4997.3452
1166.1105	4857.73
1166.7197	4929.3232
1167.329	4834.2998
1167.9384	4722.5347
1168.5476	4644.1045
1169.1569	4648.7236
1169.7661	4580.8608
1170.3755	4492.0591
1170.9847	4474.2153
1171.594	4434.9316
1172.2034	4373.2212
1172.8126	4298.1201
1173.4219	4256.4585
1174.0311	4257.2632
1174.6405	4617.4341
1175.2498	4359.9839
1175.859	4105.9756
1176.4684	3976.4321
1177.0776	3998.4189
1177.6869	3964.1702
1178.2961	3822.4429
1178.9055	3826.5393
1179.5148	3797.7729
1180.124	3738.2896
1180.7334	3715.9146
1181.3427	3617.8286
1181.9519	3568.3857
1182.5612	3584.9189
1183.1705	3567.4543
1183.7798	3509.218
1184.389	3492.8899
1184.9984	3490.8789
1185.6077	3448.5764
1186.2169	3400.5955
1186.8262	3338.6875
1187.4355	3328.2576
1188.0448	3291.9434
1188.6541	3270.7488
1189.2634	3254.6775
1189.8727	3216.7942
1190.4819	3235.4731
1191.0912	3189.1685
1191.7006	3153.0039
1192.3098	3110.8755
1192.9191	3103.6519
1193.5284	3068.0566
1194.1377	3107.0981
1194.7469	3078.9915
1195.3562	3047.9063
1195.9656	3005.6611
1196.5748	2983.2544
1197.1841	2956.6775
1197.7935	2962.4407
1198.4027	2936.3154
1199.012	2955.3357
1199.6212	2993.239
1200.2306	3233.6804
1200.8398	2921.0474
1201.4491	2821.3823
1202.0585	2857.5349
1202.6677	2806.6746
1203.277	2816.4487
1203.8862	2732.7434
1204.4956	2766.8149
1205.1049	2781.8752
1205.7141	2765.0144
1206.3234	2729.4709
1206.9327	2699.9246
1207.542	2717.2256
1208.1512	2709.4753
1208.7606	2681.123
1209.3699	2738.7251
1209.9791	3400.8608
1210.5884	2801.1531
1211.1978	2676.9514
1211.807	2661.1348
1212.4163	2626.3857
1213.0256	2658.7449
1213.6349	2654.0896
1214.2441	2657.761
1214.8534	2609.1833
1215.4628	2616.7063
1216.072	2616.3259
1216.6813	2587.511
1217.2906	2608.0999
1217.8999	2592.2017
1218.5092	2584.1599
1219.1184	2609.7319
1219.7278	2596.4763
1220.337	2564.009
1220.9463	2581.9119
1221.5557	2582.0349
1222.1649	2549.6523
1222.7742	2578.8804
1223.3834	2555.6448
1223.9928	2555.9019
1224.6021	2547.2495
1225.2113	2559.1865
1225.8207	2546.5361
1226.4299	2544.0649
1227.0392	2538.3943
1227.6484	2506.6367
1228.2578	2490.7717
1228.8671	2499.3638
1229.4763	2494.0098
1230.0857	2491.7537
1230.6949	2518.1809
1231.3042	2513.5061
1231.9135	2477.054
1232.5228	2540.8909
1233.1321	2491.406
1233.7413	2482.8489
1234.3507	2465.1099
1234.96	2478.6128
1235.5692	2481.3018
1236.1785	2466.9082
1236.7878	2480.1042
1237.3971	2470.6743
1238.0063	2488.0195
1238.6156	2477.8506
1239.225	2433.4854
1239.8342	2455.7913
1240.4435	2439.9414
1241.0529	2439.3418
1241.6621	2455.8848
1242.2714	2435.5645
1242.8806	2441.9971
1243.49	2432.8066
1244.0992	2457.2429
1244.7085	2428.1829
1245.3179	2420.0215
1245.9271	2437.1499
1246.5364	2452.5359
1247.1456	2436.7021
1247.755	2426.9265
1248.3643	2413.7505
1248.9735	2420.0127
1249.5829	2430.25
1250.1921	2441.9539
1250.8014	2403.7363
1251.4106	2426.5522
1252.02	2394.7261
1252.6293	2423.4175
1253.2385	2372.9475
1253.8479	2413.9976
1254.4572	2428.332
1255.0664	2417.5806
1255.6757	2404.9524
1256.285	2412.0208
1256.8943	2399.6877
1257.5035	2393.9148
1258.1129	2391.7761
1258.7222	2430.429
1259.3314	2347.3511
1259.9407	2422.8667
1260.55	2411.9902
1261.1593	2407.7561
1261.7686	2355.9475
1262.3779	2382.4045
1262.9872	2386.6216
1263.5964	2375.2004
1264.2057	2362.1738
1264.8151	2370.7417
1265.4243	2367.074
1266.0336	2366.8689
1266.6429	2395.2029
1267.2522	2385.3923
1267.8615	2355.3347
1268.4707	2375.2354
1269.0801	2354.925
1269.6893	2354.0129
1270.2986	2407.0486
1270.908	2378.9563
1271.5172	2357.3218
1272.1265	2366.1702
1272.7357	2358.647
1273.3451	2382.2231
1273.9543	2368.3281
1274.5636	2325.7664
1275.1729	2349.0361
1275.7822	2375.2515
1276.3915	2327.1094
1277.0007	2319.4622
1277.6101	2369.325
1278.2194	2326.0281
1278.8286	2364.7583
1279.4379	2347.7556
1280.0472	2322.6416
1280.6565	2331.4131
1281.2657	2343.2627
1281.8751	2352.0793
1282.4844	2329.8655
1283.0936	2320.7361
1283.7029	2333.2046
1284.3123	2297.7024
1284.9215	2347.4746
1285.5308	2715.7336
1286.1401	2371.4534
1286.7494	2318.1917
1287.3586	2328.6323
1287.9679	2325.2715
1288.5773	2325.3208
1289.1865	2326.1501
1289.7958	2323.3867
1290.4052	2298.2947
1291.0144	2309.5129
1291.6237	2319.7712
1292.2329	2332.4734
1292.8423	2328.2061
1293.4515	2348.8242
1294.0608	2351.2456
1294.6702	2321.8928
1295.2794	2307.3323
1295.8887	2333.658
1296.4979	2288.7781
1297.1073	2283.5872
1297.7166	2323.3579
1298.3258	2336.8369
1298.9352	2329.3687
1299.5444	2319.8469
1300.1537	2319.4553
1300.7629	2323.165
1301.3723	2298.5691
1301.9816	2332.9421
1302.5908	2328.3855
1303.2002	2323.5481
1303.8094	2328.5063
1304.4187	2330.9663
1305.028	2316.1272
1305.6373	2323.9622
1306.2466	2289.457
1306.8558	2297.4165
1307.4652	2313.5427
1308.0745	2318.8677
1308.6837	2309.4492
1309.293	2314.3228
1309.9023	2304.3477
1310.5116	2344.5828
1311.1208	2284.4011
1311.7301	2306.9353
1312.3395	2287.113
1312.9487	2329.8174
1313.558	2301.6614
1314.1674	2299.9248
1314.7766	2313.1201
1315.3859	2292.3755
1315.9951	2294.479
1316.6045	2299.6309
1317.2137	2295.8584
1317.823	2281.5208
1318.4324	2327.509
1319.0416	2312.6223
1319.6509	2276.3269
1320.2601	2306.636
1320.8695	2305.7087
1321.4788	2282.4531
1322.088	2257.3523
1322.6974	2304.7424
1323.3066	2315.6733
1323.9159	2294.7878
1324.5251	2283.1272
1325.1345	2294.7375
1325.7438	2300.8689
1326.353	2298.1497
1326.9624	2258.5051
1327.5717	2295.0654
1328.1809	2301.7383
1328.7902	2287.0132
1329.3995	2464.9207
1330.0088	2614.9998
1330.618	2342.324
1331.2274	2295.5972
1331.8367	2299.0547
1332.4459	2303.5745
1333.0552	2270.1572
1333.6646	2318.179
1334.2738	2285.8367
1334.8831	2319.3477
1335.4924	2270.2954
1336.1017	2296.6602
1336.7109	2301.5828
1337.3202	2270.1294
1337.9296	2286.2214
1338.5388	2293.6521
1339.1481	2299.7153
1339.7574	2287.8901
1340.3667	2309.8459
1340.976	2318.7427
1341.5852	2285.4895
1342.1946	2283.9165
1342.8038	2271.0715
1343.4131	2292.3879
1344.0223	2283.824
1344.6317	2268.3828
1345.241	2260.1946
1345.8502	2275.5208
1346.4596	2279.6355
1347.0688	2293.9241
1347.6781	2280.3945
1348.2874	2286.178
1348.8967	2305.5491
1349.506	2265.7417
1350.1152	2315.3225
1350.7246	2283.7192
1351.3339	2274.8872
1351.9431	2288.2322
1352.5524	2287.6052
1353.1617	2272.748
1353.771	2267.3901
1354.3802	2296.4827
1354.9896	2288.3335
1355.5989	2288.1731
1356.2081	2305.3
1356.8174	2741.9668
1357.4268	2613.77
1358.036	2333.5596
1358.6453	2298.6489
1359.2546	2292.6775
1359.8639	2293.9961
1360.4731	2287.5161
1361.0824	2306.2622
1361.6918	2288.1738
1362.301	2282.5466
1362.9103	2263.2534
1363.5197	2309.2996
1364.1289	2299.4597
1364.7382	2274.6675
1365.3474	2305.3867
1365.9568	2294.585
1366.566	2305.8843
1367.1753	2289.2896
1367.7847	2294.8337
1368.3939	2291.7002
1369.0032	2312.3096
1369.6124	2301.7803
1370.2218	2250.0525
1370.8311	2303.0862
1371.4403	2274.4619
1372.0497	2291.3047
1372.6589	2315.7031
1373.2682	2312.377
1373.8774	2289.8879
1374.4868	2287.1604
1375.0961	2297.574
1375.7053	2320.3877
1376.3147	2282.458
1376.924	2286.1511
1377.5332	2270.9609
1378.1425	2272.7036
1378.7518	2307.1265
1379.3611	2291.925
1379.9703	2295.9473
1380.5796	2286.1582
1381.189	2266.7473
1381.7982	2273.0884
1382.4075	2300.2456
1383.0168	2270.7349
1383.6261	2284.4785
1384.2354	2261.3381
1384.8446	2297.9326
1385.454	2283.9487
1386.0632	2283.1833
1386.6725	2305.3835
1387.2819	2298.2708
1387.8911	2286.9695
1388.5004	2287.5415
1389.1096	2284.3823
1389.719	2308.5681
1390.3282	2282.7905
1390.9375	2289.7378
1391.5469	2271.6768
1392.1561	2246.6511
1392.7654	2294.0923
1393.3746	2281.6533
1393.984	2283.0295
1394.5933	2305.0466
1395.2025	2303.9607
1395.8119	2310.4587
1396.4211	2292.1982
1397.0304	2276.8513
1397.6396	2294.821
1398.249	2298.0554
1398.8583	2269.1182
1399.4675	2277.0935
1400.0769	2279.877
1400.6862	2281.2258
1401.2954	2300.6875
1401.9047	2306.1943
1402.514	2282.386
1403.1233	2273.2695
1403.7325	2323.1296
1404.3419	2261.4331
1404.9512	2282.6277
1405.5604	2270.814
1406.1697	2270.5735
1406.7791	2287.1238
1407.3883	2288.9395
1407.9976	2291.9634
1408.6069	2298.7576
1409.2162	2266.8687
1409.8254	2305.8691
1410.4347	2270.3835
1411.0441	2339.8074
1411.6533	2288.4368
1412.2626	2257.3923
1412.8718	2266.2119
1413.4812	2286.0505
1414.0905	2304.4241
1414.6997	2298.1653
1415.3091	2303.9529
1415.9183	2290.2815
1416.5276	2325.7681
1417.1368	2300.4407
1417.7462	2276.2668
1418.3555	2250.0083
1418.9647	2291.1194
1419.5741	2294.6157
1420.1833	2271.8982
1420.7926	2294.7061
1421.4019	2286.3352
1422.0112	2279.9128
1422.6205	2296.6831
1423.2297	2305.8779
1423.8391	2282.7087
1424.4484	2266.5493
1425.0576	2302.9512
1425.6669	2310.531
1426.2762	2267.6089
1426.8855	2282.8757
1427.4948	2323.8
1428.1041	2334.0496
1428.7134	2304.8726
1429.3226	2331.7109
1429.9319	2263.2581
1430.5413	2323.26
1431.1505	2301.6924
1431.7598	2343.9832
1432.3691	2303.1724
1432.9784	2285.0034
1433.5876	2317.9341
1434.1969	2305.8352
1434.8063	2319.3997
1435.4155	2314.1707
1436.0248	2311.9529
1436.6342	2289.2302
1437.2434	2287.3918
1437.8527	2290.677
1438.4619	2268.1316
1439.0713	2304.3423
1439.6805	2288.5352
1440.2898	2281.2239
1440.8992	2292.7991
1441.5084	2289.6287
1442.1177	2303.9302
1442.7269	2316.1875
1443.3363	2316.8586
1443.9456	2303.1965
1444.5548	2307.5779
1445.1642	2309.7231
1445.7734	2319.4011
1446.3827	2327.3142
1446.9919	2280.6814
1447.6013	2256.158
1448.2106	2287.886
1448.8198	2303.8311
1449.4291	2299.9998
1450.0385	2308.843
1450.6477	2293.7549
1451.257	2286.0298
1451.8663	2299.3723
1452.4756	2334.2202
1453.0848	2308.6611
1453.6941	2308.4963
1454.3035	2309.8062
1454.9127	2319.5942
1455.522	2288.6067
1456.1313	2296.2332
1456.7406	2320.3042
1457.3499	2317.7065
1457.9591	2312.8711
1458.5685	2293.2295
1459.1777	2289.0796
1459.787	2278.2795
1460.3964	2314.0916
1461.0056	2320.9719
1461.6149	2312.498
1462.2241	2321.7856
1462.8335	2317.0627
1463.4427	2301.7285
1464.052	2339.4717
1464.6614	2310.6602
1465.2706	2363.9089
1465.8799	2292.8206
1466.4891	2339.301
1467.0985	2306.8782
1467.7078	2299.186
1468.317	2290.9609
1468.9264	2305.5464
1469.5356	2307.9495
1470.1449	2329.0454
1470.7542	2328.1375
1471.3635	2306.3145
1471.9728	2310.3662
1472.582	2302.6799
1473.1914	2293.9199
1473.8007	2291.7922
1474.4099	2285.7673
1475.0192	2297.7515
1475.6285	2277.0059
1476.2378	2284.1372
1476.847	2318.0776
1477.4564	2297.9236
1478.0657	2296.5044
1478.6749	2295.6458
1479.2842	2299.2866
1479.8936	2281.2874
1480.5028	2309.594
1481.1121	2298.7358
1481.7214	2314.4255
1482.3307	2313.3982
1482.9399	2310.1851
1483.5492	2323.1411
1484.1586	2312.6592
1484.7678	2305.9934
1485.3771	2338.1743
1485.9863	2314.2397
1486.5957	2303.5034
1487.205	2318.325
1487.8142	2351.2583
1488.4236	2279.6135
1489.0328	2297.6975
1489.6421	2323.4683
1490.2513	2319.5737
1490.8607	2286.3896
1491.47	2315.6191
1492.0792	2299.3965
1492.6886	2284.5327
1493.2979	2277.207
1493.9071	2306.72
1494.5164	2306.2571
1495.1257	2310.9558
1495.735	2313.041
1496.3442	2292.9009
1496.9536	2303.2312
1497.5629	2319.791
1498.1721	2311.8535
1498.7814	2338.7305
1499.3907	2298.001
1500	2306.1226
