15.028447	-283.34473
15.638814	-261.70752
16.24918	-78.446442
16.859547	419.77191
17.469913	1239.3162
18.08028	2369.7251
18.690645	3873.2415
19.301012	5690.249
19.911379	7494.356
20.521746	8892.999
21.132113	9576.3516
21.742477	9656.6406
22.352844	9902.0742
22.963211	10108.91
23.573578	10335.53
24.183945	10566.925
24.79431	10735.977
25.404676	10940.517
26.015043	11272.205
26.62541	11452.741
27.235777	11662.451
27.846144	11965.753
28.456509	11856.084
29.066875	12099.938
29.677242	12306.742
30.287609	12484.664
30.897976	12603.281
31.508341	12662.815
32.11871	12799.281
32.729076	13054.118
33.339439	13295.301
33.949806	13239.3
34.560173	13606.739
35.17054	13875.29
35.780907	13976.514
36.391273	14123.68
37.00164	14179.604
37.612007	14111.02
38.222374	14079.243
38.832741	14137.523
39.443104	14365.459
40.053471	14405.537
40.663837	14724.964
41.274204	14726.32
41.884571	14845.109
42.494938	14996.731
43.105305	15094.139
43.715672	15148.17
44.326038	15121.983
44.936405	15074.712
45.546772	15300.384
46.157135	15177.417
46.767502	15162.041
47.377869	15298.157
47.988235	15356.069
48.598602	15373.952
49.208969	15411.081
49.819336	15473.374
50.429703	15491.826
51.04007	15495.977
51.650436	15602.951
52.260803	15562.164
52.871166	15567.593
53.481533	15587.341
54.0919	15728.315
54.702267	15641.31
55.312634	15533.309
55.923	15576.413
56.533367	15664.283
57.143734	15623.301
57.754101	15575.337
58.364468	15848.725
58.974831	16049.676
59.585197	16280.302
60.195564	15925.113
60.805931	15718.258
61.416298	15634.11
62.026665	15503.845
62.637032	15476.213
63.247398	15538.204
63.857765	15645.804
64.468132	15837.311
65.078499	15719.702
65.688866	15656.052
66.299232	15310.167
66.909599	15499.75
67.519966	15588.009
68.130333	15600.731
68.740692	15550.634
69.351059	15579.17
69.961426	15617.465
70.571793	15608.533
71.182159	15720.17
71.792526	15657.844
72.402893	15614.132
73.01326	15541.579
73.623627	15678.164
74.233994	15761.665
74.84436	15790.442
75.454727	15904.182
76.065094	15961.027
76.675461	15834.764
77.285828	15638.796
77.896194	15514.762
78.506561	15437.342
79.116928	15336.793
79.727295	15282.752
80.337662	15283.692
80.948029	15390.173
81.558388	15585.106
82.168755	15627.849
82.779121	15628.44
83.389488	15636.5
83.999855	15474.174
84.610222	15197.676
85.220589	15158.656
85.830956	15165.896
86.441322	15280.715
87.051689	15288.166
87.662056	15270.627
88.272423	15171.338
88.88279	15196.951
89.493156	15269.546
90.103523	15240.734
90.71389	15242.89
91.324257	15398.021
91.934624	15299.388
92.544991	15163.293
93.155357	15174.834
93.765724	15215.464
94.376091	15195.593
94.98645	15103.403
95.596817	14914.738
96.207184	14853.581
96.817551	14872.195
97.427917	14915.151
98.038284	15035.732
98.648651	14812.548
99.259018	14848.372
99.869385	14982.198
100.47975	14890.82
101.09012	14849.465
101.70049	14979.124
102.31085	14946.141
102.92122	14777.202
103.53159	14650.362
104.14195	14621.988
104.75232	14685.809
105.36269	14834.372
105.97305	14845.734
106.58342	14983.619
107.19379	14892.02
107.80415	14699.255
108.41451	14554.19
109.02488	14541.891
109.63525	14487.399
110.24561	14545.095
110.85598	14647.462
111.46635	14597.923
112.07671	14514.706
112.68708	14369.409
113.29745	14513.464
113.90781	14351.714
114.51818	14514.284
115.12855	14640.828
115.73891	14521.553
116.34928	14444.929
116.95965	14363.123
117.57001	14280.982
118.18038	14227.766
118.79075	14177.332
119.40112	14189.864
120.01148	14149.833
120.62184	14303.569
121.23221	14224.318
121.84258	14122.049
122.45294	14148.624
123.06331	14264.098
123.67368	14116.934
124.28404	14099.297
124.89441	14145.177
125.50478	14049.11
126.11514	14049.948
126.72551	14021.94
127.33588	13996.122
127.94624	13916.501
128.55661	13931.46
129.16698	14053.002
129.77734	13937.959
130.38771	13926.125
130.99808	13888.133
131.60844	13885.516
132.21881	13846.495
132.82918	13768.603
133.43954	13877.525
134.04991	13946.466
134.66028	13835.377
135.27065	13742.558
135.88101	13604.101
136.49138	13643.213
137.10175	13564.745
137.71211	13613.203
138.32248	13715.723
138.93285	13820.55
139.54321	13825.182
140.15356	13690.552
140.76393	13586.93
141.3743	13574.928
141.98466	13467.841
142.59503	13385.987
143.2054	13511.038
143.81577	13630.097
144.42613	13566.443
145.0365	13547.769
145.64687	13431.093
146.25723	13357.924
146.8676	13339.141
147.47797	13363.547
148.08833	13444.591
148.6987	13317.26
149.30907	13372.123
149.91943	13245.724
150.5298	13319.678
151.14017	13293.5
151.75053	13295.449
152.3609	13390.313
152.97127	13334.906
153.58163	13298.193
154.192	13268.045
154.80237	13283.044
155.41273	13337.72
156.0231	13140.914
156.63347	13187.09
157.24384	13165.855
157.8542	13243.887
158.46457	13226.352
159.07494	13153.792
159.6853	13074.419
160.29567	12953.25
160.90604	12957.243
161.5164	13034.124
162.12677	13047.341
162.73714	13004.535
163.3475	12968.684
163.95787	12957.754
164.56824	13080.11
165.1786	13015.453
165.78897	12763.169
166.39932	12850.686
167.00969	12922.318
167.62006	12889.515
168.23042	12869.838
168.84079	12842.72
169.45116	12843.983
170.06152	12923.864
170.67189	13004.358
171.28226	13011.999
171.89262	13019.398
172.50299	12883.689
173.11336	12864.983
173.72372	12720.834
174.33409	12718.153
174.94446	12742.464
175.55482	12818.933
176.16519	12883.174
176.77556	12945.389
177.38593	12867.298
177.99629	12748.679
178.60666	12734.448
179.21703	12634.478
179.82739	12871.922
180.43776	12814.49
181.04813	12718.46
181.65849	12648.206
182.26886	12717.222
182.87923	12671.179
183.48959	12688.655
184.09996	12665.473
184.71033	12538.262
185.32069	12563.292
185.93106	12686.672
186.54143	12634.934
187.15179	12616.495
187.76216	12639.349
188.37253	12752.047
188.98289	12519.48
189.59326	12600.794
190.20363	12599.144
190.814	12623.919
191.42436	12722.563
192.03471	12641.622
192.64508	12602.916
193.25545	12621.637
193.86581	12592.239
194.47618	12629.792
195.08655	12713.251
195.69691	12619.11
196.30728	12620.838
196.91765	12610.934
197.52802	12597.984
198.13838	12608.672
198.74875	12624.961
199.35912	12601.968
199.96948	12662.493
200.57985	12619.867
201.19022	12551.834
201.80058	12528.02
202.41095	12479.702
203.02132	12473.357
203.63168	12530.466
204.24205	12513.511
204.85242	12505.544
205.46278	12602.14
206.07315	12330.421
206.68352	12389.438
207.29388	12340.557
207.90425	12452.878
208.51462	12584.974
209.12498	12541.434
209.73535	12476.654
210.34572	12453.612
210.95609	12386.436
211.56645	12400.953
212.17682	12483.649
212.78719	12619.797
213.39755	12616.208
214.00792	12513.329
214.61829	12603.227
215.22865	12558.208
215.83902	12582.652
216.44939	12441.107
217.05975	12466.271
217.67012	12399.166
218.28047	12315.661
218.89084	12449.2
219.50121	12514.146
220.11157	12429.867
220.72194	12439.907
221.33231	12305.903
221.94267	12446.969
222.55304	12442.926
223.16341	12451.607
223.77377	12452.726
224.38414	12401.261
224.99451	12412.38
225.60487	12323.411
226.21524	12309.57
226.82561	12439.579
227.43597	12457.852
228.04634	12349.373
228.65671	12382.395
229.26707	12370.276
229.87744	12345.054
230.48781	12446.742
231.09818	12356.707
231.70854	12476.498
232.31891	12452.452
232.92928	12403.015
233.53964	12358.035
234.15001	12336.669
234.76038	12385.167
235.37074	12386.211
235.98111	12318.021
236.59148	12354.879
237.20184	12473.463
237.81221	12439.329
238.42258	12401.804
239.03294	12402.056
239.64331	12219.661
240.25368	12333.692
240.86404	12369.955
241.47441	12351.563
242.08478	12330.612
242.69514	12453.083
243.30551	12417.327
243.91586	12402.334
244.52623	12360.795
245.1366	12297.283
245.74696	12441.487
246.35733	12443.691
246.9677	12484.435
247.57806	12396.381
248.18843	12494.341
248.7988	12481.643
249.40916	12493.098
250.01953	12444.971
250.6299	12570.686
251.24026	12544.333
251.85063	12578.527
252.461	12594.872
253.07137	12494.205
253.68173	12438.663
254.2921	12475.128
254.90247	12538.92
255.51283	12689.64
256.1232	12523.854
256.73355	12426.342
257.34393	12475.747
257.95428	12610.716
258.56467	12534.63
259.17502	12677.397
259.7854	12795.871
260.39575	12626.73
261.00613	12672.131
261.61649	12755.918
262.22687	12721.921
262.83722	12676.904
263.4476	12699.747
264.05795	12764.636
264.66833	12779.11
265.27869	12812.063
265.88907	12841.421
266.49942	12849.802
267.1098	12707.09
267.72015	12836.027
268.33054	12866.003
268.94089	12960.104
269.55127	12941.909
270.16162	12959.378
270.772	12960.799
271.38235	12929.08
271.99274	12936.479
272.60309	12990.635
273.21347	13051.536
273.82382	13067.32
274.4342	12994.535
275.04456	13084.532
275.65494	13145.726
276.26529	13187.548
276.87567	13162.604
277.48602	13140.558
278.09641	13202.282
278.70676	13157.398
279.31714	13309.016
279.92749	13218.685
280.53787	13252.692
281.14822	13284.436
281.75861	13205.059
282.36896	13181.545
282.97931	13239.72
283.58969	13480.604
284.20004	13601.566
284.81042	13504.709
285.42078	13438.143
286.03116	13333.843
286.64151	13399.436
287.25189	13387.433
287.86224	13480.503
288.47263	13677.247
289.08298	13611.926
289.69336	13667.995
290.30371	13645.166
290.91409	13671.895
291.52444	13731.451
292.13483	13735.966
292.74518	13826.33
293.35556	13864.625
293.96591	13909.33
294.57629	13895.478
295.18665	13811.979
295.79703	13764.611
296.40738	13951.547
297.01776	13879.386
297.62811	14024.356
298.23849	14027.852
298.84885	14131.293
299.45923	14066.15
300.06958	14058.979
300.67996	14106.675
301.29031	14073.081
301.9007	14060.984
302.51105	14184.068
303.12143	14316.425
303.73178	14270.467
304.34216	14085.014
304.95251	14091.725
305.5629	14210.065
306.17325	14234.796
306.78363	14338.698
307.39398	14300.288
308.00436	14478.121
308.61472	14330.453
309.22507	14282.898
309.83545	14345.044
310.4458	14463.893
311.05618	14583.65
311.66653	14770.003
312.27692	14813.109
312.88727	14633.504
313.49765	14571.522
314.108	14523.59
314.71838	14687.09
315.32874	14778.846
315.93912	14780.261
316.54947	14825.523
317.15985	14925.323
317.7702	14919.288
318.38058	14812.509
318.99094	14686.556
319.60132	14842.777
320.21167	14926.409
320.82205	14880.51
321.4324	15021.266
322.04279	15071.212
322.65314	14979.787
323.26352	14985.901
323.87387	14958.446
324.48425	15004.392
325.0946	15179.277
325.70499	15376.257
326.31534	15340.486
326.92572	15203.735
327.53607	15336.519
328.14645	15373.9
328.75681	15292.829
329.36719	15311.124
329.97754	15591.055
330.58792	15516.981
331.19827	15448.726
331.80865	15451.8
332.41901	15497.003
333.02939	15506.995
333.63974	15512.614
334.25012	15612.976
334.86047	15741.428
335.47083	15841.507
336.08121	15749.122
336.69156	15615.802
337.30194	15735.694
337.91229	15766.848
338.52267	15695.96
339.13303	15842.563
339.74341	15898.304
340.35376	16080.41
340.96414	15957.514
341.57449	15859.004
342.18488	15846.373
342.79523	15973.749
343.40561	16020.516
344.01596	16203.747
344.62634	16433.592
345.23669	16334.266
345.84708	16208.197
346.45743	16247.675
347.06781	16134.795
347.67816	16211.695
348.28854	16389.461
348.8989	16596.033
349.50928	16610.986
350.11963	16473.775
350.73001	16419.32
351.34036	16630.195
351.95074	16530.959
352.5611	16740.926
353.17148	16733.664
353.78183	16596.313
354.39221	16786.891
355.00256	16861.994
355.61295	16778.721
356.2233	16783.953
356.83368	16831.326
357.44403	16936.17
358.05441	16984.471
358.66476	16981.215
359.27515	17128.361
359.8855	17134.291
360.49585	17213.381
361.10623	17051.209
361.71658	17088.613
362.32697	17295.287
362.93732	17168.299
363.5477	17389.934
364.15805	17394.969
364.76843	17413.686
365.37878	17225.426
365.98917	17143.699
366.59952	17276.51
367.2099	17542.088
367.82025	17669.193
368.43063	17678.639
369.04099	17710.652
369.65137	17589.736
370.26172	17496.967
370.8721	17468.898
371.48245	17756.098
372.09283	17861.639
372.70319	17671.586
373.31357	17801.863
373.92392	17678.541
374.5343	17848.484
375.14465	17689.182
375.75504	17803.365
376.36539	18066.406
376.97577	18039.043
377.58612	18119.043
378.1965	18201.334
378.80685	18098.813
379.41724	18032.232
380.02759	18122.498
380.63797	18183.33
381.24832	18223.246
381.8587	18296.352
382.46906	18274.049
383.07944	18361.635
383.68979	18208.154
384.30017	18275.246
384.91052	18292.971
385.5209	18333.025
386.13126	18552.873
386.74161	18593.625
387.35199	18437.686
387.96234	18581.209
388.57272	18625.359
389.18307	18557.381
389.79346	18450.039
390.40381	18672.818
391.01419	18796.465
391.62454	18806.346
392.23492	18631.205
392.84528	18547.543
393.45566	18623.615
394.06601	18611.053
394.67639	18685.834
395.28674	18793.707
395.89713	18888.135
396.50748	18890.268
397.11786	19046.396
397.72821	18774.785
398.33859	18847.512
398.94894	18723.316
399.55933	19002.98
400.16968	18976.404
400.78006	19158.645
401.39041	19054.627
402.00079	19084.791
402.61115	18811.844
403.22153	18775.684
403.83188	18982.891
404.44226	19006.523
405.05261	19042.668
405.66299	19200.723
406.27335	19076.877
406.88373	18928.545
407.49408	19078.932
408.10446	19127.607
408.71481	19115.367
409.3252	19090.846
409.93555	19267.271
410.54593	19336.686
411.15628	19317.949
411.76666	19183.725
412.37701	19184.75
412.98737	19370.488
413.59775	19541.23
414.2081	19363.92
414.81848	19506.07
415.42883	19424.277
416.03922	19468.52
416.64957	19431.393
417.25995	19396.764
417.8703	19428.533
418.48068	19458.889
419.09103	19681.51
419.70142	19795.393
420.31177	19659.111
420.92215	19593.184
421.5325	19607.088
422.14288	19577.574
422.75323	19621.164
423.36362	19743.91
423.97397	19757.701
424.58435	19853.26
425.1947	19756.795
425.80508	19795.986
426.41544	19652.785
427.02582	19699.332
427.63617	19974.418
428.24655	20029.791
428.8569	19976.691
429.46729	19999.203
430.07764	19697.543
430.68802	19625.811
431.29837	19678.07
431.90875	19948.568
432.5191	20104.303
433.12949	20144.859
433.73984	20084.666
434.35022	20016.273
434.96057	20024.557
435.57095	20004.924
436.1813	19947.537
436.79169	20019.494
437.40204	20186.969
438.01242	20220.471
438.62277	20210.752
439.23312	20143.619
439.84351	20112.438
440.45386	20175.783
441.06424	20141.541
441.67459	20224.371
442.28497	20155.338
442.89532	20431.381
443.50571	20198.346
444.11606	20208.508
444.72644	20138.998
445.33679	20099.381
445.94717	20133.906
446.55753	20248.396
447.16791	20282.203
447.77826	20345.969
448.38864	20325.316
448.99899	20237.67
449.60938	20296.65
450.21973	20304.178
450.83011	20140.555
451.44046	20202.359
452.05084	20407.125
452.66119	20296.248
453.27158	20116.994
453.88193	20060.693
454.49231	20031.986
455.10266	20005.938
455.71304	20118.375
456.32339	20029.439
456.93378	20055.447
457.54413	20289.941
458.15451	19965.25
458.76486	20117.529
459.37524	20079.578
459.9856	20118.932
460.59598	20071.283
461.20633	20030.84
461.81671	19932.576
462.42706	20161.266
463.03745	19860.123
463.6478	19619.492
464.25815	19746.389
464.86853	19771.947
465.47888	19887.24
466.08926	19796.945
466.69962	19631.58
467.31	19684.236
467.92035	19616.949
468.53073	19498.992
469.14108	19541.254
469.75146	19495.512
470.36182	19470.693
470.9722	19585.688
471.58255	19511.998
472.19293	19409.336
472.80328	19219.309
473.41367	19305.223
474.02402	19428.361
474.6344	19345.516
475.24475	19515.32
475.85513	19742.221
476.46548	19778.303
477.07587	19518.484
477.68622	19384.869
478.2966	19521.41
478.90695	19600.137
479.51733	19580.895
480.12769	19733.105
480.73807	19655.027
481.34842	19647.186
481.9588	19662.547
482.56915	19799.051
483.17953	19922.092
483.78989	19979.764
484.40027	19976.672
485.01062	20072.453
485.621	20182.859
486.23135	20264.93
486.84174	20329.537
487.45209	20233.15
488.06247	20298.338
488.67282	20306.65
489.2832	20509.344
489.89355	20549.277
490.50391	20597.471
491.11429	20448.813
491.72464	20501.822
492.33502	20475.324
492.94537	20501.809
493.55576	20562.623
494.16611	20275.535
494.77649	20498.043
495.38684	20467.186
495.99722	20236.148
496.60757	20193.729
497.21796	20201.16
497.82831	20113.887
498.43869	20319.102
499.04904	20170.508
499.65942	19833.154
500.26978	19882.213
500.88016	19806.898
501.49051	19776.801
502.10089	19772.422
502.71124	19783.09
503.32162	19740.324
503.93198	19567.898
504.54236	19422.145
505.15271	19436.232
505.76309	19414.121
506.37344	19301.469
506.98383	19357.662
507.59418	19389.648
508.20456	19280.402
508.81491	19379.566
509.42529	19470.75
510.03564	19318.676
510.64603	19090.064
511.25638	19070.527
511.86676	19130.842
512.47711	19108.326
513.08746	19119.689
513.69788	19013.313
514.30823	18848.979
514.91858	18942.373
515.52893	18754.229
516.13928	18828.434
516.74969	18714.912
517.36005	18821.213
517.9704	18758.57
518.58075	18788.736
519.19116	18538.457
519.80151	18358.742
520.41187	18380.906
521.02222	18249.297
521.63263	18340.111
522.24298	18370.225
522.85333	18218.621
523.46368	17744.539
524.0741	17571.48
524.68445	17550.152
525.2948	17389.818
525.90515	17277.367
526.51556	17290.393
527.12592	17212.418
527.73627	17061.402
528.34662	16917.67
528.95703	16617.219
529.56738	16383.8
530.17773	16207.344
530.78809	16111.385
531.3985	16034.027
532.00885	16014.532
532.6192	15677.703
533.22955	15534.926
533.83997	15212.254
534.45032	15065.704
535.06067	15051.077
535.67102	14861.864
536.28143	14832.544
536.89178	14569.507
537.50214	14313.766
538.11249	14117.407
538.7229	13966.049
539.33325	13820.869
539.9436	13963.363
540.55396	13828.719
541.16437	13644.258
541.77472	13372.842
542.38507	13152.443
542.99542	13029.038
543.60577	12911.277
544.21619	12687.917
544.82654	12582.193
545.43689	12507.412
546.04724	12404.76
546.65765	12274.114
547.26801	12059.343
547.87836	11919.425
548.48871	11934.521
549.09912	11838.503
549.70947	11648.021
550.31982	11490.952
550.93018	11313.79
551.54059	11175.42
552.15094	11058.914
552.76129	10935.548
553.37164	10947.681
553.98206	10945.924
554.59241	10929.464
555.20276	10858.938
555.81311	10728.325
556.42352	10637.008
557.03387	10522.059
557.64423	10401.574
558.25458	10336.479
558.86499	10377.448
559.47534	10328.571
560.08569	10111.358
560.69604	10056.226
561.30646	10013.516
561.91681	9858.5381
562.52716	9774.8545
563.13751	9795.3799
563.74792	9791.7676
564.35828	9589.5918
564.96863	9736.8086
565.57898	9572.0176
566.18939	9500.7666
566.79974	9344.4453
567.4101	9426.9629
568.02045	9310.9258
568.6308	9167.7891
569.24121	9188.041
569.85156	9226.3301
570.46191	9040.2373
571.07227	9041.3379
571.68268	8871.1895
572.29303	8915.9102
572.90338	9008.3174
573.51373	9027.9326
574.12415	8997.4893
574.7345	8969.1787
575.34485	8855.9678
575.9552	8666.873
576.56561	8626.5742
577.17596	8701.8018
577.78632	8689.8984
578.39667	8643.8604
579.00708	8625.1992
579.61743	8581.3926
580.22778	8511.2402
580.83813	8422.7979
581.44855	8433.7471
582.0589	8481.4414
582.66925	8495.2451
583.2796	8446.04
583.89001	8418.8975
584.50037	8481.2305
585.11072	8435.7549
585.72107	8347.2021
586.33148	8322.7266
586.94183	8381.4238
587.55219	8330.4209
588.16254	8388.5039
588.77295	8378.2646
589.3833	8356.334
589.99365	8326.3604
590.604	8307.8027
591.21442	8328.9854
591.82477	8389.5938
592.43512	8410.2246
593.04547	8432.7598
593.65588	8360.8545
594.26624	8301.293
594.87659	8298.7197
595.48694	8291.9727
596.09729	8304.5088
596.7077	8250.9756
597.31805	8272.293
597.92841	8310.8232
598.53876	8314.9502
599.14917	8228.665
599.75952	8154.4478
600.36987	8137.9043
600.98022	8082.1069
601.59064	8075.2949
602.20099	8088.7046
602.81134	8072.707
603.42169	7927.7495
604.0321	7838.4229
604.64246	7765.1943
605.25281	7762.0317
605.86316	7737.8398
606.47357	7596.7773
607.08392	7481.355
607.69427	7407.8711
608.30463	7295.6968
608.91504	7256.5645
609.52539	7243.5737
610.13574	7241.2544
610.74609	7165.8872
611.35651	7060.0757
611.96686	6949.9312
612.57721	6991.6943
613.18756	6826.2144
613.79797	6731.9502
614.40833	6725.21
615.01868	6698.4751
615.62903	6653.5791
616.23944	6523.2051
616.84979	6514.2358
617.46014	6391.3384
618.0705	6350.5063
618.68091	6328.7085
619.29126	6261.0859
619.90161	6194.5107
620.51196	6136.2202
621.12231	6115.4141
621.73273	6124.2368
622.34308	6040.2471
622.95343	5949.7603
623.56378	5900.9482
624.17419	5853.769
624.78455	5900.9067
625.3949	5893.7031
626.00525	5748.1865
626.61566	5677.6797
627.22601	5643.4917
627.83636	5619.2822
628.44672	5571.4253
629.05713	5519.6162
629.66748	5515.4785
630.27783	5470.4116
630.88818	5419.8022
631.4986	5343.9648
632.10895	5334.9067
632.7193	5368.3877
633.32965	5248.4639
633.94006	5260.6333
634.55042	5259.207
635.16077	5136.6543
635.77112	5144.4473
636.38153	5118.8101
636.99188	4988.7788
637.60223	5026.1553
638.21259	4983.3369
638.823	4926.3418
639.43335	4926.9126
640.0437	4924.022
640.65405	4852.1558
641.26447	4794.3701
641.87482	4831.2139
642.48517	4802.8198
643.09552	4718.3911
643.70593	4709.9595
644.31628	4660.5483
644.92664	4663.3203
645.53699	4625.0659
646.14734	4578.2051
646.75775	4539.6831
647.3681	4526.3794
647.97845	4521.4341
648.58881	4521.4658
649.19922	4489.1855
649.80957	4433.5454
650.41992	4366.9546
651.03027	4330.0942
651.64069	4308.7441
652.25104	4300.6538
652.86139	4310.124
653.47174	4307.9609
654.08215	4262.7251
654.6925	4203.2852
655.30286	4191.6274
655.91321	4120.5308
656.52362	4168.1899
657.13397	4138.9717
657.74432	4119.5835
658.35468	4068.1619
658.96509	4109.4805
659.57544	4101.9365
660.18579	3974.2136
660.79614	3993.292
661.40656	4080.3877
662.01691	4061.6091
662.62726	4076.3867
663.23761	4031.4172
663.84802	3938.8691
664.45837	3876.8748
665.06873	3852.7229
665.67908	3815.4663
666.28949	3872.4634
666.89984	3921.9749
667.51019	3821.3525
668.12054	3812.959
668.73096	3755.4724
669.34131	3680.8821
669.95166	3711.3491
670.56201	3718.1541
671.17242	3753.2727
671.78278	3726.5188
672.39313	3680.2903
673.00348	3627.2766
673.61383	3616.9812
674.22424	3614.4646
674.83459	3603.8872
675.44495	3600.168
676.0553	3587.0596
676.66571	3597.0764
677.27606	3549.822
677.88641	3555.8726
678.49677	3555.6689
679.10718	3473.8457
679.71753	3453.3508
680.32788	3477.3198
680.93823	3475.9497
681.54865	3465.022
682.159	3415.8972
682.76935	3377.4819
683.3797	3397.1406
683.99011	3394.3162
684.60046	3346.7009
685.21082	3321.3088
685.82117	3337.8438
686.43158	3286.9761
687.04193	3322.6006
687.65228	3341.5698
688.26263	3284.4915
688.87305	3229.8379
689.4834	3238.929
690.09375	3278.0505
690.7041	3265.9988
691.31451	3261.0911
691.92487	3148.0583
692.53522	3168.3533
693.14557	3151.2327
693.75598	3145.0215
694.36633	3184.4895
694.97668	3120.4348
695.58704	3153.3662
696.19745	3118.8943
696.8078	3105.0696
697.41815	3118.4727
698.0285	3034.8987
698.63885	3084.3701
699.24927	3107.77
699.85962	3076.2568
700.46997	3084.4006
701.08032	3036.1335
701.69073	2968.759
702.30109	2995.7317
702.91144	2990.6348
703.52179	2958.6882
704.1322	2992.0435
704.74255	2976.355
705.35291	2938.6919
705.96326	2890.7319
706.57367	2880.7971
707.18402	2930.5205
707.79437	2889.0974
708.40472	2876.9438
709.01514	2819.4255
709.62549	2866.272
710.23584	2825.5706
710.84619	2862.147
711.4566	2867.4751
712.06696	2766.6238
712.67731	2787.6997
713.28766	2828.8391
713.89807	2832.3862
714.50842	2817.605
715.11877	2767.22
715.72913	2763.7332
716.33954	2743.8372
716.94989	2730.8591
717.56024	2756.4463
718.17059	2794.3984
718.78101	2776.9893
719.39136	2711.4717
720.00171	2717.4941
720.61206	2737.929
721.22247	2734.4475
721.83282	2732.2053
722.44318	2751.7305
723.05353	2762.4773
723.66388	2732.2305
724.27429	2679.9436
724.88464	2674.3787
725.495	2704.6067
726.10535	2712.1753
726.71576	2710.1882
727.32611	2697.2939
727.93646	2701.9668
728.54681	2689.3379
729.15723	2659.772
729.76758	2652.5144
730.37793	2628.0295
730.98828	2631.7932
731.59869	2675.8826
732.20905	2699.1296
732.8194	2656.9622
733.42975	2669.2168
734.04016	2687.4805
734.65051	2687.6868
735.26086	2686.7878
735.87122	2650.1028
736.48163	2670.1731
737.09198	2706.9104
737.70233	2697.7048
738.31268	2691.3252
738.9231	2699.373
739.53345	2692.0173
740.1438	2699.7092
740.75415	2687.999
741.36456	2688.9441
741.97491	2720.8474
742.58527	2713.002
743.19562	2700.9202
743.80603	2699.3945
744.41638	2693.7588
745.02673	2700.8601
745.63708	2758.5549
746.2475	2742.5859
746.85785	2779.9155
747.4682	2753.0957
748.07855	2773.8376
748.68896	2832.5427
749.29932	2811.0854
749.90967	2799.6479
750.52002	2839.1235
751.13037	2918.53
751.74078	2867.5427
752.35114	2854.2932
752.96149	2895.6365
753.57184	2886.7927
754.18225	2854.5996
754.7926	2942.4702
755.40295	2993.3242
756.01331	3021.8643
756.62372	3089.9839
757.23407	3056.1387
757.84442	3042.1235
758.45477	3057.3269
759.06519	3125.0256
759.67554	3082.2173
760.28589	3150.3875
760.89624	3185.1213
761.50665	3206.3308
762.117	3214.0442
762.72736	3290.3284
763.33771	3270.1775
763.94812	3274.7612
764.55847	3346.9209
765.16882	3340.6201
765.77917	3336.7346
766.38959	3369.637
766.99994	3428.2629
767.61029	3498.9424
768.22064	3465.8374
768.83105	3479.9587
769.44141	3564.9048
770.05176	3656.1648
770.66211	3710.2224
771.27252	3656.7717
771.88287	3663.1028
772.49323	3682.8706
773.10358	3751.7195
773.71399	3728.1309
774.32434	3873.8093
774.93469	3925.814
775.54504	3917.8057
776.1554	3950.4209
776.76581	3956.9492
777.37616	3978.197
777.98651	4030.4797
778.59686	4123.5093
779.20728	4093.8247
779.81763	4083.6177
780.42798	4164.0601
781.03833	4195.4009
781.64874	4200.4502
782.25909	4125.0054
782.86945	4220.0581
783.4798	4211.7124
784.09021	4115.2124
784.70056	4191.5605
785.31091	4207.4316
785.92126	4249.7256
786.53168	4176.1143
787.14203	4218.9775
787.75238	4210.6519
788.36273	4269.4526
788.97314	4236.8613
789.5835	4262.6172
790.19385	4193.6274
790.8042	4253.1733
791.41461	4287.4663
792.02496	4178.8838
792.63531	4241.542
793.24567	4243.9302
793.85608	4232.8276
794.46643	4187.4912
795.07678	4193.7061
795.68713	4109.2607
796.29755	4219.3232
796.9079	4158.9199
797.51825	4113.8394
798.1286	4073.7644
798.73901	4130.1294
799.34937	4140.2534
799.95972	4028.8599
800.57007	4078.4907
801.18048	4045.3206
801.79083	4067.5168
802.40118	4087.1987
803.01154	4074.1699
803.62189	3936.4048
804.2323	3948.3794
804.84265	3906.531
805.453	3903.73
806.06335	3852.8799
806.67377	3879.3171
807.28412	3927.9565
807.89447	3892.8645
808.50482	3925.5642
809.11523	3829.199
809.72559	3824.2444
810.33594	3792.05
810.94629	3705.7488
811.5567	3801.9695
812.16705	3699.9094
812.7774	3667.1714
813.38776	3578.9443
813.99817	3717.9917
814.60852	3603.8467
815.21887	3565.5623
815.82922	3606.1853
816.43964	3554.6943
817.04999	3555.116
817.66034	3515.1389
818.27069	3533.0691
818.8811	3476.6033
819.49146	3448.4929
820.10181	3391.6697
820.71216	3345.2051
821.32257	3405.6453
821.93292	3346.9238
822.54327	3282.2058
823.15363	3210.8689
823.76404	3220.7131
824.37439	3142.144
824.98474	3104.5454
825.59509	3134.863
826.20551	3066.3816
826.81586	3011.7524
827.42621	3020.0618
828.03656	2989.5769
828.64691	2931.7393
829.25732	2933.0303
829.86768	2898.9016
830.47803	2877.8555
831.08838	2916.0415
831.69879	2822.3547
832.30914	2756.6895
832.91949	2712.9741
833.52985	2654.4412
834.14026	2685.7053
834.75061	2708.7065
835.36096	2665.6199
835.97131	2622.8462
836.58173	2513.8293
837.19208	2460.8232
837.80243	2460.7344
838.41278	2440.3098
839.02319	2394.4155
839.63354	2372.2002
840.2439	2342.802
840.85425	2315.6038
841.46466	2316.2881
842.07501	2253.7903
842.68536	2193.5103
843.29572	2200.6338
843.90613	2198.7136
844.51648	2127.688
845.12683	2099.1516
845.73718	2061.812
846.3476	2038.2736
846.95795	1975.4294
847.5683	1903.8544
848.17865	1938.3634
848.78906	1922.3639
849.39941	1863.5883
850.00977	1847.8219
850.62012	1800.2255
851.23053	1751.5945
851.84088	1752.1035
852.45123	1748.6138
853.06158	1745.2855
853.67194	1721.3119
854.28235	1685.4299
854.8927	1653.8544
855.50305	1603.5571
856.1134	1576.5511
856.72382	1614.2378
857.33417	1588.655
857.94452	1565.1262
858.55487	1547.3285
859.16528	1534.4741
859.77563	1510.6096
860.38599	1526.6265
860.99634	1512.1161
861.60675	1475.9906
862.2171	1459.6592
862.82745	1509.198
863.43781	1492.2023
864.04822	1499.9235
864.65857	1462.0393
865.26892	1441.4821
865.87927	1448.5557
866.48969	1432.053
867.10004	1456.6428
867.71039	1398.0377
868.32074	1436.1953
868.93115	1418.3065
869.5415	1458.2803
870.15186	1453.6659
870.76221	1445.5383
871.37262	1444.2283
871.98297	1418.8243
872.59332	1460.3303
873.20367	1396.6592
873.81409	1436.3876
874.42444	1405.785
875.03479	1415.032
875.64514	1437.9996
876.25555	1386.0781
876.86591	1430.1541
877.47626	1379.5808
878.08661	1430.8392
878.69702	1401.7728
879.30737	1406.1914
879.91772	1412.4586
880.52808	1411.5973
881.13843	1396.5756
881.74884	1435.265
882.35919	1430.5054
882.96954	1381.0134
883.5799	1396.7328
884.19031	1413.6946
884.80066	1385.4679
885.41101	1377.3412
886.02136	1345.0083
886.63177	1346.0684
887.24213	1388.0038
887.85248	1390.2085
888.46283	1374.2825
889.07324	1364.7561
889.68359	1375.9158
890.29395	1427.6981
890.9043	1396.0841
891.51471	1378.7281
892.12506	1403.3314
892.73541	1393.699
893.34576	1377.9375
893.95618	1377.8336
894.56653	1381.7496
895.17688	1372.4362
895.78723	1397.6921
896.39764	1398.479
897.008	1390.6703
897.61835	1385.3182
898.2287	1377.3348
898.83911	1394.0073
899.44946	1385.8285
900.05981	1365.3477
900.67017	1425.3678
901.28058	1391.1855
901.89093	1388.3267
902.50128	1394.6157
903.11163	1388.007
903.72205	1367.118
904.3324	1346.2275
904.94275	1374.9171
905.5531	1409.1774
906.16345	1351.7755
906.77386	1412.073
907.38422	1374.0021
907.99457	1386.8593
908.60492	1361.4913
909.21533	1364.5454
909.82568	1385.1882
910.43604	1411.0215
911.04639	1434.9551
911.6568	1420.5139
912.26715	1443.3695
912.8775	1405.6307
913.48785	1395.2484
914.09827	1367.635
914.70862	1409.3145
915.31897	1435.8033
915.92932	1451.1646
916.53973	1390.5319
917.15009	1394.1775
917.76044	1405.5928
918.37079	1448.1788
918.9812	1465.9552
919.59155	1468.5001
920.2019	1463.2578
920.81226	1473.3684
921.42267	1465.5033
922.03302	1455.1494
922.64337	1461.0148
923.25372	1478.4181
923.86414	1494.0125
924.47449	1491.8304
925.08484	1485.4963
925.69519	1486.7605
926.3056	1482.5712
926.91595	1488.589
927.52631	1490.7092
928.13666	1505.1432
928.74707	1540.7448
929.35742	1564.1985
929.96777	1572.274
930.57813	1544.4829
931.18848	1568.5234
931.79889	1560.408
932.40924	1623.0851
933.01959	1615.0699
933.62994	1646.8409
934.24036	1619.5544
934.85071	1577.5259
935.46106	1599.5878
936.07141	1654.2012
936.68182	1673.0823
937.29218	1669.1134
937.90253	1679.5919
938.51288	1661.2404
939.12329	1705.9858
939.73364	1722.1853
940.34399	1731.7825
940.95435	1700.9146
941.56476	1773.7616
942.17511	1719.9967
942.78546	1746.1558
943.39581	1764.3109
944.00623	1746.8735
944.61658	1756.3875
945.22693	1782.9496
945.83728	1764.7141
946.44769	1771.1057
947.05804	1782.5002
947.6684	1795.6259
948.27875	1788.0103
948.88916	1786.3745
949.49951	1810.6691
950.10986	1820.2001
950.72021	1801.1576
951.33063	1778.2706
951.94098	1820.8877
952.55133	1834.5468
953.16168	1813.4918
953.77209	1817.0331
954.38245	1760.4695
954.9928	1765.5706
955.60315	1783.6918
956.21356	1788.1652
956.82391	1761.5264
957.43427	1810.9747
958.04462	1755.4288
958.65497	1845.5731
959.26538	1785.8503
959.87573	1753.2236
960.48608	1726.1089
961.09644	1783.3615
961.70685	1792.7042
962.3172	1720.5669
962.92755	1741.4541
963.5379	1743.7621
964.14832	1701.3418
964.75867	1675.5522
965.36902	1721.5996
965.97937	1722.1857
966.58978	1727.7369
967.20013	1733.4883
967.81049	1747.8429
968.42084	1711.9052
969.03125	1646.0624
969.6416	1668.381
970.25195	1683.9755
970.8623	1677.2063
971.47272	1747.8451
972.08307	1743.8826
972.69342	1692.6757
973.30377	1693.8729
973.91418	1682.8131
974.52454	1687.0444
975.13489	1661.0819
975.74524	1713.7673
976.35565	1723.7971
976.966	1751.6141
977.57635	1688.5527
978.18671	1692.8606
978.79712	1676.611
979.40747	1662.396
980.01782	1788.2411
980.62817	1736.228
981.23859	1686.9154
981.84894	1704.3708
982.45929	1734.655
983.06964	1727.9263
983.67999	1755.6023
984.29041	1762.8406
984.90076	1743.3124
985.51111	1761.8722
986.12146	1771.2225
986.73187	1759.5181
987.34222	1744.8016
987.95258	1775.3864
988.56293	1787.9703
989.17334	1782.2653
989.78369	1806.5651
990.39404	1820.7356
991.00439	1834.6985
991.61481	1795.111
992.22516	1825.889
992.83551	1872.8651
993.44586	1817.8853
994.05627	1851.067
994.66663	1928.9241
995.27698	1909.8577
995.88733	1957.2759
996.49774	1931.318
997.10809	1987.9491
997.71844	1962.2885
998.3288	1951.9431
998.93921	1985.9899
999.54956	1995.4309
1000.1599	2002.7777
1000.7703	2008.1139
1001.3807	2021.6429
1001.991	2033.1257
1002.6014	2074.3003
1003.2117	2092.1763
1003.8221	2148.6563
1004.4325	2137.4209
1005.0428	2168.1145
1005.6532	2188.2817
1006.2636	2180.7915
1006.874	2195.7952
1007.4843	2250.856
1008.0947	2252.8501
1008.7051	2305.084
1009.3154	2309.709
1009.9258	2351.6516
1010.5361	2334.7957
1011.1465	2299.0686
1011.7569	2411.6487
1012.3672	2449.3394
1012.9776	2489.2148
1013.588	2583.7561
1014.1984	2590.4563
1014.8087	2582.9087
1015.4191	2604.6533
1016.0294	2670.2097
1016.6398	2695.8105
1017.2502	2752.8545
1017.8605	2774.4563
1018.4709	2831.2109
1019.0813	2840.8748
1019.6917	2899.9609
1020.302	2894.0024
1020.9124	3007.9683
1021.5228	3100.8079
1022.1331	3110.4141
1022.7435	3171.7419
1023.3538	3287.344
1023.9642	3283.3162
1024.5746	3395.2205
1025.1849	3441.5715
1025.7953	3470.5671
1026.4056	3521.2842
1027.016	3607.1431
1027.6265	3655.4055
1028.2368	3757.1763
1028.8472	3799.3394
1029.4575	3782.762
1030.0679	3831.0664
1030.6782	3838.3845
1031.2886	4012.9326
1031.8989	4043.8223
1032.5094	4164.1904
1033.1198	4262.0947
1033.7301	4272.9287
1034.3405	4346.6963
1034.9508	4404.791
1035.5612	4579.1611
1036.1715	4601.4351
1036.7819	4729.104
1037.3922	4814.9058
1038.0027	4858.3496
1038.613	4896.3784
1039.2234	4980.29
1039.8337	5040.1094
1040.4441	5166.3047
1041.0544	5328.1875
1041.6648	5405.1392
1042.2751	5511.7021
1042.8856	5618.958
1043.496	5533.4248
1044.1063	5786.1152
1044.7167	5770.6475
1045.327	5952.4834
1045.9374	6034.1079
1046.5477	6186.3613
1047.1581	6239.9365
1047.7686	6331.7534
1048.3789	6342.9482
1048.9893	6447.7754
1049.5996	6591.8311
1050.21	6736.9526
1050.8203	6842.5288
1051.4307	6914.0898
1052.041	7027.0127
1052.6515	7136.7046
1053.2618	7314.3433
1053.8722	7410.2388
1054.4825	7490.5059
1055.0929	7702.4165
1055.7032	7855.4746
1056.3136	7964.6162
1056.924	7970.5557
1057.5344	8123.728
1058.1448	8200.9023
1058.7551	8433.8438
1059.3655	8489.3145
1059.9758	8703.7969
1060.5862	8822.5684
1061.1965	8865.5967
1061.8069	9060.3994
1062.4172	9116.5488
1063.0277	9277.4551
1063.6381	9449.6992
1064.2484	9503.0332
1064.8588	9682.3516
1065.4691	9862.8291
1066.0795	9989.7559
1066.6898	10124.071
1067.3002	10244.94
1067.9106	10423.005
1068.521	10614.541
1069.1313	10818.996
1069.7417	10996.578
1070.3521	11207.31
1070.9624	11193.259
1071.5728	11411.087
1072.1831	11457.616
1072.7936	11674.538
1073.4039	11861.854
1074.0143	12059.717
1074.6246	12315.214
1075.235	12368.581
1075.8453	12532.726
1076.4557	12692.37
1077.066	12889.162
1077.6765	13090.924
1078.2869	13270.61
1078.8972	13511.07
1079.5076	13663.992
1080.1179	13763.138
1080.7283	13891.281
1081.3386	14094.989
1081.949	14277.784
1082.5594	14516.304
1083.1698	14693.709
1083.7802	14714.679
1084.3905	14956.419
1085.0009	15085.529
1085.6112	15050.855
1086.2216	15250.899
1086.8319	15373.882
1087.4423	15602.076
1088.0527	15689.262
1088.6631	15802.141
1089.2734	15853.588
1089.8838	15832.229
1090.4941	15913.623
1091.1045	15927.089
1091.7148	16060.772
1092.3252	16016.707
1092.9357	16158.178
1093.546	16258.555
1094.1564	16153.917
1094.7667	16076.017
1095.3771	16000.157
1095.9874	15981.554
1096.5978	16047.615
1097.2081	16097.81
1097.8186	16056.557
1098.429	15897.576
1099.0393	15854.653
1099.6497	15621.523
1100.26	15469.011
1100.8704	15385.382
1101.4807	15364.907
1102.0911	15319.91
1102.7015	15170.357
1103.3119	14986.87
1103.9222	14757.81
1104.5326	14625.894
1105.1429	14494.415
1105.7533	14378.478
1106.3636	14290.325
1106.974	14099.77
1107.5845	13999.048
1108.1948	13687.73
1108.8052	13551.972
1109.4155	13386.389
1110.0259	13298.37
1110.6362	13125.808
1111.2466	12910.673
1111.8569	12751.344
1112.4674	12616.69
1113.0778	12429.435
1113.6881	12266.844
1114.2985	12190.715
1114.9088	12018.058
1115.5192	11846.649
1116.1295	11760.089
1116.7399	11639.97
1117.3502	11564.664
1117.9607	11326.805
1118.571	11214.817
1119.1814	11203.382
1119.7917	11021.872
1120.4021	10900.707
1121.0125	10819.82
1121.6228	10597.344
1122.2332	10560.095
1122.8436	10451.564
1123.454	10335.595
1124.0643	10281.898
1124.6747	10268.579
1125.285	10163.838
1125.8954	10032.047
1126.5057	10066.304
1127.1161	9902.0674
1127.7266	9772.0889
1128.3369	9741.7939
1128.9473	9725.3311
1129.5576	9654.4668
1130.168	9549.542
1130.7783	9507.1563
1131.3887	9408.999
1131.999	9281.6914
1132.6095	9190.0801
1133.2198	9184.5771
1133.8302	9086.4004
1134.4406	9110.7363
1135.0509	9037.8027
1135.6613	9012.9092
1136.2716	8873.3477
1136.882	8847.5322
1137.4924	8817.8711
1138.1028	8754.0088
1138.7131	8719.1133
1139.3235	8676.3174
1139.9338	8720.4111
1140.5442	8584.4619
1141.1545	8514.1084
1141.7649	8423.415
1142.3752	8347.4023
1142.9857	8395.1416
1143.5961	8394.3848
1144.2064	8246.1514
1144.8168	8201.3018
1145.4271	8203.5313
1146.0375	8138.0884
1146.6478	8083.3716
1147.2582	7992.5557
1147.8687	8059.8096
1148.479	8093.4346
1149.0894	7956.4819
1149.6997	7961.231
1150.3101	7931.644
1150.9204	7789.8867
1151.5308	7765.2817
1152.1411	7715.6763
1152.7516	7733.8354
1153.3619	7695.5698
1153.9723	7634.0425
1154.5826	7521.2822
1155.193	7494.5933
1155.8033	7572.0313
1156.4137	7520.9771
1157.024	7345.6089
1157.6345	7403.6357
1158.2449	7320.2915
1158.8552	7320.1035
1159.4656	7202.6089
1160.0759	7217.8403
1160.6863	7060.5791
1161.2966	7030.9502
1161.907	7191.7344
1162.5175	6985.1992
1163.1278	6943.8057
1163.7382	6934.5723
1164.3485	6836.4683
1164.9589	6823.4927
1165.5692	6763.1401
1166.1796	6718.29
1166.7899	6695.04
1167.4003	6659.561
1168.0107	6559.3818
1168.6211	6494.1782
1169.2314	6433.7441
1169.8418	6394.8374
1170.4521	6281.541
1171.0625	6351.8066
1171.6729	6256.8501
1172.2832	6169.874
1172.8937	6116.1279
1173.504	6046.2944
1174.1144	6047.1133
1174.7247	5888.353
1175.3351	5902.0547
1175.9454	5867.1338
1176.5558	5820.2744
1177.1661	5804.6924
1177.7766	5718.6016
1178.387	5612.2896
1178.9973	5518.438
1179.6077	5445.5874
1180.218	5443.7368
1180.8284	5372.0327
1181.4387	5402.7046
1182.0491	5255.144
1182.6595	5187.2437
1183.2699	5083.6733
1183.8802	5119.8228
1184.4906	5054.7998
1185.101	4995.5454
1185.7113	4985.5107
1186.3217	4962.25
1186.932	4907.4907
1187.5425	4865.6885
1188.1528	4684.9702
1188.7632	4649.2759
1189.3735	4608.8198
1189.9839	4545.8174
1190.5942	4483.3296
1191.2046	4499.8447
1191.8149	4432.8096
1192.4253	4373.7896
1193.0358	4294.2246
1193.6461	4290.188
1194.2565	4235.1704
1194.8668	4166.8369
1195.4772	4183.9028
1196.0875	4117.4595
1196.6979	3984.4971
1197.3082	3967.5605
1197.9187	3914.7253
1198.5291	3804.9575
1199.1394	3808.5818
1199.7498	3749.717
1200.3601	3740.3022
1200.9705	3676.9138
1201.5808	3637.6868
1202.1912	3596.4529
1202.8016	3528.4919
1203.412	3449.7141
1204.0223	3399.1265
1204.6327	3425.2742
1205.243	3367.095
1205.8534	3319.1057
1206.4637	3257.52
1207.0741	3173.7563
1207.6846	3154.6951
1208.2949	3143.0691
1208.9053	3060.8313
1209.5156	3066.6733
1210.126	3044.8318
1210.7363	2955.4404
1211.3467	2889.374
1211.957	2881.9275
1212.5675	2853.9409
1213.1779	2779.4556
1213.7882	2702.7454
1214.3986	2717.9004
1215.0089	2707.4851
1215.6193	2695.2827
1216.2296	2614.0715
1216.84	2536.9031
1217.4503	2519.6086
1218.0608	2482.5139
1218.6711	2459.0884
1219.2815	2456.3093
1219.8918	2397.4336
1220.5022	2357.5732
1221.1125	2343.7051
1221.7229	2308.2983
1222.3333	2273.6768
1222.9437	2229.1448
1223.5541	2231.7988
1224.1644	2201.5571
1224.7748	2134.7341
1225.3851	2106.4722
1225.9955	2063.8313
1226.6058	2069.6648
1227.2162	2029.9419
1227.8267	2000.6921
1228.437	2004.6619
1229.0474	2011.9479
1229.6577	1871.5753
1230.2681	1892.3179
1230.8784	1859.8427
1231.4888	1813.009
1232.0991	1763.1223
1232.7096	1762.7384
1233.3199	1763.6987
1233.9303	1743.9557
1234.5406	1714.908
1235.151	1681.8407
1235.7614	1638.1346
1236.3717	1639.177
1236.9821	1606.9482
1237.5925	1597.9249
1238.2029	1514.7057
1238.8132	1615.5494
1239.4236	1553.3752
1240.0339	1513.2473
1240.6443	1475.5785
1241.2546	1478.5049
1241.865	1470.4467
1242.4753	1400.0632
1243.0858	1383.704
1243.6962	1404.8395
1244.3065	1382.2035
1244.9169	1333.9668
1245.5272	1322.8788
1246.1376	1324.165
1246.7479	1316.4518
1247.3583	1317.4437
1247.9688	1214.7349
1248.5791	1246.9598
1249.1895	1244.8762
1249.7998	1224.5975
1250.4102	1179.4767
1251.0205	1187.2388
1251.6309	1161.7545
1252.2412	1173.5162
1252.8517	1126.1265
1253.462	1116.5632
1254.0724	1119.0156
1254.6827	1119.303
1255.2931	1110.4514
1255.9034	1110.4945
1256.5138	1094.1971
1257.1241	1068.5426
1257.7346	1066.9236
1258.345	1058.8829
1258.9553	1052.5537
1259.5657	1018.7895
1260.176	1024.7399
1260.7864	1034.301
1261.3967	1009.4512
1262.0071	998.25574
1262.6176	974.72296
1263.2279	967.47394
1263.8383	961.6402
1264.4486	946.19452
1265.059	980.99506
1265.6693	982.14478
1266.2797	933.2088
1266.89	921.12982
1267.5005	967.64661
1268.1108	950.1579
1268.7212	914.94135
1269.3315	913.62671
1269.9419	927.28186
1270.5522	913.18732
1271.1626	892.47705
1271.7729	877.36969
1272.3833	886.2464
1272.9938	889.14581
1273.6041	895.30597
1274.2145	870.82343
1274.8248	885.50928
1275.4352	883.71179
1276.0455	868.67438
1276.6559	855.32483
1277.2662	873.87622
1277.8767	873.70599
1278.4871	867.37769
1279.0974	872.65216
1279.7078	885.54315
1280.3181	864.73834
1280.9285	845.87549
1281.5388	849.80115
1282.1492	820.69635
1282.7596	825.39532
1283.37	824.065
1283.9803	804.08661
1284.5907	852.06036
1285.201	805.79248
1285.8114	827.53571
1286.4218	820.22498
1287.0321	804.4007
1287.6426	823.51379
1288.2529	818.09424
1288.8633	806.31702
1289.4736	824.88068
1290.084	797.35596
1290.6943	792.57751
1291.3047	791.59125
1291.915	797.64819
1292.5255	793.17041
1293.1359	793.58942
1293.7462	809.47113
1294.3566	799.83466
1294.9669	792.66705
1295.5773	765.672
1296.1876	791.10211
1296.798	772.69678
1297.4083	771.88049
1298.0188	791.33063
1298.6292	772.0929
1299.2395	778.29858
1299.8499	791.29181
1300.4602	769.75885
1301.0706	769.61584
1301.6809	792.68201
1302.2913	788.935
1302.9017	761.80841
1303.5121	778.32727
1304.1224	768.43945
1304.7328	786.89331
1305.3431	744.91107
1305.9535	764.08838
1306.5638	761.81683
1307.1742	752.53485
1307.7847	748.50842
1308.395	745.396
1309.0054	725.56152
1309.6157	738.82025
1310.2261	764.19006
1310.8364	759.73859
1311.4468	735.3559
1312.0571	768.46466
1312.6676	734.61371
1313.278	743.87506
1313.8883	761.04034
1314.4987	755.58398
1315.109	748.45807
1315.7194	744.34637
1316.3297	751.11774
1316.9401	733.1355
1317.5505	744.10413
1318.1609	751.42346
1318.7712	724.31305
1319.3816	732.32648
1319.9919	752.67651
1320.6023	735.3938
1321.2126	721.38995
1321.823	727.51727
1322.4333	739.10809
1323.0438	730.77148
1323.6542	731.37854
1324.2645	725.07861
1324.8749	732.47479
1325.4852	743.37402
1326.0956	730.38666
1326.7059	725.04993
1327.3163	708.75262
1327.9268	737.83575
1328.5371	709.56372
1329.1475	724.83276
1329.7578	706.26477
1330.3682	712.18292
1330.9785	735.09979
1331.5889	747.29126
1332.1992	735.9425
1332.8097	711.42035
1333.42	750.9173
1334.0304	728.8349
1334.6407	742.83142
1335.2511	703.35272
1335.8615	723.19275
1336.4718	719.73639
1337.0822	711.57672
1337.6926	702.11395
1338.303	714.46191
1338.9133	708.65973
1339.5237	724.3689
1340.134	738.1106
1340.7444	703.5733
1341.3547	717.10486
1341.9651	719.85468
1342.5756	722.8913
1343.1859	718.10736
1343.7963	700.26343
1344.4066	694.15753
1345.017	696.52319
1345.6273	703.599
1346.2377	706.67212
1346.848	682.69183
1347.4584	688.83105
1348.0688	708.01013
1348.6792	703.48328
1349.2896	720.16553
1349.8999	720.96808
1350.5103	692.47302
1351.1206	704.58862
1351.731	725.63177
1352.3413	719.66138
1352.9518	696.19104
1353.5621	707.99219
1354.1725	711.38007
1354.7828	688.0459
1355.3932	697.88379
1356.0035	679.54962
1356.6139	700.72784
1357.2242	677.35791
1357.8347	700.63501
1358.4451	695.6449
1359.0554	697.07458
1359.6658	713.48438
1360.2761	711.8288
1360.8865	700.85773
1361.4968	713.20856
1362.1072	711.96875
1362.7177	688.18774
1363.328	689.3587
1363.9384	699.89948
1364.5487	711.58142
1365.1591	676.26605
1365.7694	697.84601
1366.3798	705.60071
1366.9901	701.35315
1367.6006	675.22388
1368.2109	686.71155
1368.8213	693.14154
1369.4316	693.10919
1370.042	678.12604
1370.6523	682.7381
1371.2627	694.8512
1371.873	673.80133
1372.4834	685.61487
1373.0939	678.57526
1373.7042	664.98981
1374.3146	694.15607
1374.9249	690.50952
1375.5353	675.22015
1376.1456	673.87708
1376.756	695.64581
1377.3663	693.83289
1377.9768	704.90442
1378.5872	676.35345
1379.1975	680.13092
1379.8079	684.54517
1380.4182	687.01746
1381.0286	699.34845
1381.6389	697.70782
1382.2493	689.91272
1382.8597	686.13397
1383.4701	685.66498
1384.0804	691.06482
1384.6908	701.54865
1385.3011	679.11304
1385.9115	662.80951
1386.5219	690.31519
1387.1322	683.43274
1387.7427	678.85706
1388.353	677.53003
1388.9634	699.97937
1389.5737	709.60083
1390.1841	685.81671
1390.7944	672.13123
1391.4048	679.12866
1392.0151	666.57764
1392.6256	686.48126
1393.236	694.49207
1393.8463	684.65778
1394.4567	677.85394
1395.067	707.45868
1395.6774	698.0351
1396.2877	695.75751
1396.8981	686.99731
1397.5085	679.16956
1398.1189	690.43011
1398.7292	680.63226
1399.3396	679.75964
1399.95	680.12054
1400.5603	698.70959
1401.1707	689.3642
1401.781	695.57715
1402.3914	679.22266
1403.0018	690.56781
1403.6122	682.88519
1404.2225	687.16663
1404.8329	687.43835
1405.4432	679.65808
1406.0536	667.09674
1406.6639	673.51038
1407.2743	681.10748
1407.8848	668.46832
1408.4951	678.06647
1409.1055	686.04327
1409.7158	687.49554
1410.3262	690.89716
1410.9365	693.10724
1411.5469	680.88141
1412.1572	708.56952
1412.7677	682.92194
1413.3781	670.02319
1413.9884	683.50696
1414.5988	691.44238
1415.2091	708.17065
1415.8195	696.66113
1416.4298	668.20978
1417.0402	679.29309
1417.6506	681.72736
1418.261	699.89532
1418.8713	675.98053
1419.4817	695.04565
1420.092	701.12579
1420.7024	683.52539
1421.3127	685.78601
1421.9231	685.41486
1422.5336	704.90613
1423.1439	699.43939
1423.7543	656.96637
1424.3646	699.30554
1424.975	684.71912
1425.5853	695.62134
1426.1957	669.08636
1426.806	675.55548
1427.4164	689.23035
1428.0269	698.9884
1428.6372	697.3728
1429.2476	689.66138
1429.8579	697.89136
1430.4683	693.03961
1431.0786	714.66492
1431.689	676.43616
1432.2993	688.07117
1432.9098	690.10864
1433.5201	688.82794
1434.1305	700.11536
1434.7408	697.63916
1435.3512	692.89771
1435.9615	686.03912
1436.5719	692.35767
1437.1823	682.15369
1437.7927	680.80066
1438.4031	711.7381
1439.0134	697.26636
1439.6238	705.76807
1440.2341	696.63287
1440.8445	706.17938
1441.4548	695.59009
1442.0652	685.11523
1442.6757	682.13361
1443.286	700.74207
1443.8964	682.42596
1444.5067	724.68341
1445.1171	694.99487
1445.7274	696.01764
1446.3378	702.84131
1446.9481	708.91852
1447.5586	690.83282
1448.1689	692.36682
1448.7793	707.8634
1449.3896	719.8316
1450	704.72333
