23.078451	2353.8887
23.777752	2413.9556
24.477051	2527.9341
25.176352	2605.9348
25.87565	2680.9099
26.574951	2735.1248
27.27425	2810.9556
27.973551	2881.562
28.67285	2909.1836
29.37215	2951.2083
30.071451	2936.2417
30.77075	2936.6201
31.470051	3033.1445
32.16935	3135.9434
32.868649	3236.5745
33.567951	3226.2646
34.26725	3298.7991
34.966549	3453.7732
35.665852	3529.4644
36.36515	3542.7109
37.064449	3699.5752
37.763748	4202.4814
38.463051	3779.0347
39.16235	3779.0347
39.861649	3532.8142
40.560947	4073.3616
41.26025	3719.5999
41.959549	3689.5781
42.658848	3752.0012
43.35815	3816.7271
44.057449	3838.0681
44.756748	3822.1638
45.456047	3746.8274
46.15535	3828.2385
46.854649	3916.5508
47.553947	3870.6887
48.25325	3936.3306
48.952549	3936.1982
49.651848	3929.4729
50.351147	3959.8425
51.050449	3974.696
51.749748	3971.3391
52.449047	3973.3193
53.14835	3966.407
53.847649	3956.9509
54.546947	3888.03
55.246246	3873.3994
55.945549	3991.063
56.644848	3971.4839
57.344147	3960.3977
58.043446	3963.5276
58.742748	3974.6506
59.442047	3992.7437
60.141346	4057.3811
60.840649	4121.7979
61.539948	4056.8696
62.239246	3969.5029
62.938545	4018.8533
63.637848	3978.7959
64.337143	4002.7407
65.036446	4018.9949
65.735748	3999.2219
66.435043	3970.1482
67.134346	3981.072
67.833649	3994.7144
68.532944	4015.0806
69.232246	4031.0605
69.931549	3976.5444
70.630844	4001.0286
71.330147	4017.0049
72.029449	4031.3435
72.728745	3866.5911
73.428047	3877.386
74.127342	3953.8582
74.826645	3985.2588
75.525948	4003.4985
76.225243	3998.6694
76.924545	3929.864
77.623848	3870.4048
78.323143	3919.8389
79.022446	3939.9146
79.721748	3917.4106
80.421043	3934.3406
81.120346	3876.187
81.819641	3892.7173
82.518944	3903.5713
83.218246	3913.4478
83.917542	3934.2759
84.616844	3917.7158
85.316147	3902.4578
86.015442	3909.7563
86.714745	3870.9634
87.414047	3865.2063
88.113342	3875.0947
88.812645	3848.8406
89.511948	3885.0295
90.211243	3821.4998
90.910545	3767.5767
91.60984	3844.1492
92.309143	3882.8516
93.008446	3827.0396
93.707741	3808.2673
94.407043	3833.1914
95.106346	3822.9294
95.805641	3867.1685
96.504944	3803.8909
97.204247	3814.6116
97.903542	3797.3555
98.602844	3818.0254
99.302139	3807.5837
100.00144	3780.0898
100.70074	3721.967
101.40004	3719.167
102.09934	3740.6514
102.79865	3789.3687
103.49794	3738.7544
104.19724	3769.6338
104.89655	3769.6338
105.59584	3667.3616
106.29514	3788.155
106.99444	3755.116
107.69374	3747.6577
108.39304	3779.3906
109.09234	3730.4634
109.79164	3641.1194
110.49094	3637.7761
111.19024	3676.9385
111.88954	3671.832
112.58884	3652.6702
113.28814	3654.042
113.98744	3650.6619
114.68674	3580.5005
115.38604	3619.8789
116.08534	3587.928
116.78464	3612.0742
117.48394	3625.3845
118.18324	3613.0903
118.88254	3589.0454
119.58184	3535.6194
120.28114	3540.2866
120.98044	3594.3806
121.67974	3583.8218
122.37904	3589.5989
123.07834	3623.3643
123.77764	3635.1438
124.47694	3564.6982
125.17624	3556.9883
125.87554	3549.6851
126.57484	3561.448
127.27414	3555.7261
127.97344	3553.2444
128.67274	3519.9624
129.37204	3478.4219
130.07133	3465.5925
130.77065	3492.9409
131.46994	3552.9246
132.16924	3469.0818
132.86855	3470.6804
133.56784	3497.9529
134.26714	3485.5781
134.96645	3558.469
135.66574	3529.5029
136.36504	3510.8623
137.06433	3423.2063
137.76364	3404.4631
138.46294	3462.2107
139.16223	3480.7012
139.86154	3470.9849
140.56084	3467.1589
141.26013	3401.1367
141.95944	3433.0327
142.65874	3408.3818
143.35803	3401.4783
144.05734	3391.4851
144.75664	3406.5183
145.45593	3442.4626
146.15524	3441.7063
146.85454	3422.0623
147.55383	3414.8208
148.25314	3405.3831
148.95244	3372.0525
149.65173	3356.2439
150.35104	3395.616
151.05034	3367.9473
151.74963	3420.9485
152.44894	3305.0869
153.14824	3335.0249
153.84753	3420.6987
154.54683	3368.2427
155.24614	3329.1228
155.94543	3339.3604
156.64473	3371.3662
157.34404	3369.3752
158.04333	3342.4939
158.74263	3348.3313
159.44194	3355.3462
160.14124	3301.8574
160.84053	3318.4729
161.53984	3297.4543
162.23914	3300.2732
162.93843	3327.3303
163.63774	3340.7966
164.33704	3378.0068
165.03633	3325.4031
165.73564	3314.5718
166.43494	3284.7173
167.13423	3250.7771
167.83354	3273.3372
168.53284	3304.4736
169.23213	3300.3201
169.93144	3254.0007
170.63074	3288.5349
171.33003	3249.3494
172.02933	3249.6736
172.72864	3233.9204
173.42793	3253.3708
174.12723	3198.5618
174.82654	3225.4624
175.52583	3240.5488
176.22513	3225.3035
176.92444	3246.9875
177.62373	3290.679
178.32303	3276.9502
179.02234	3221.6248
179.72163	3220.4844
180.42093	3207.8953
181.12024	3137.3721
181.81953	3252.6907
182.51883	3235.6919
183.21814	3228.0215
183.91743	3240.3489
184.61673	3269.1218
185.31604	3242.8137
186.01534	3176.248
186.71463	3140.3174
187.41394	3171.7546
188.11324	3191.1958
188.81253	3163.436
189.51183	3217.2007
190.21114	3253.9619
190.91043	3204.9319
191.60973	3230.8657
192.30904	3219.0603
193.00833	3170.9128
193.70763	3179.728
194.40694	3181.9644
195.10623	3125.2212
195.80553	3166.8105
196.50484	3188.1628
197.20413	3160.2915
197.90343	3114.5627
198.60274	3078.3162
199.30203	3097.0835
200.00133	3074.3147
200.70064	3165.3491
201.39993	3145.2239
202.09923	3163.1162
202.79854	3103.3752
203.49783	3106.5007
204.19713	3168.843
204.89644	3148.7668
205.59573	3119.9797
206.29503	3147.6973
206.99432	3116.5071
207.69363	3035.1199
208.39293	3010.4365
209.09222	3062.408
209.79153	3121.6477
210.49083	3093.0063
211.19012	3025.5442
211.88943	3037.2241
212.58873	3062.209
213.28802	3048.532
213.98734	3042.6301
214.68663	3086.2292
215.38593	3025.3936
216.08524	3039.8572
216.78453	3026.4119
217.48383	2966.1653
218.18314	2989.5776
218.88243	3052.1692
219.58173	3055.1516
220.28104	3037.623
220.98033	3007.4307
221.67963	3035.3491
222.37894	3058.6306
223.07823	2978.4272
223.77753	2959.5649
224.47682	2923.8176
225.17613	2903.5532
225.87543	2930.4045
226.57472	2923.1702
227.27403	2921.6421
227.97333	2966.8269
228.67262	2965.1885
229.37193	2950.7102
230.07123	2956.3904
230.77052	2924.0613
231.46983	2882.8645
232.16913	2870.7986
232.86842	2929.9463
233.56773	2978.8643
234.26703	2928.0215
234.96632	2915.8555
235.66563	2838.698
236.36493	2918.1865
237.06422	2928.2288
237.76353	2921.4719
238.46283	2915.0781
239.16212	2876.0332
239.86143	2867.718
240.56073	2884.6638
241.26003	2884.6897
241.95932	2890.7515
242.65863	2899.9321
243.35793	2874.8794
244.05722	2831.0767
244.75653	2834.7671
245.45583	2829.5732
246.15512	2822.2893
246.85443	2882.9958
247.55373	2870.616
248.25302	2858.0515
248.95233	2877.5471
249.65163	2838.4211
250.35092	2810.7385
251.05023	2791.2583
251.74953	2818.3445
252.44882	2827.0706
253.14813	2772.8005
253.84743	2775.4353
254.54672	2807.7827
255.24603	2829.4277
255.94533	2809.751
256.64462	2810.0293
257.34393	2852.4021
258.04321	2823.6289
258.74252	2790.2888
259.44183	2727.0681
260.14111	2757.6484
260.84042	2776.4746
261.53973	2772.3193
262.23901	2769.0103
262.93832	2790.1438
263.63763	2797.717
264.33691	2795.5015
265.03622	2810.2861
265.73553	2796.2266
266.43481	2758.0798
267.13412	2726.116
267.83344	2713.0549
268.53271	2772.9924
269.23203	2698.4514
269.93134	2786.8621
270.63062	2777.1316
271.32993	2735.4753
272.02924	2763.1602
272.72852	2741.136
273.42783	2784.0779
274.12714	2790.519
274.82642	2754.7917
275.52573	2763.6243
276.22504	2772.1487
276.92432	2767.5718
277.62363	2780.0967
278.32294	2724.8872
279.02222	2734.4536
279.72153	2739.968
280.42084	2823.9512
281.12012	2801.4189
281.81943	2717.3533
282.51874	2693.5884
283.21802	2718.1384
283.91733	2694.2581
284.61661	2826.6504
285.31592	2800.3706
286.01523	2767.5842
286.71451	2767.74
287.41382	2740.7046
288.11313	2727.2888
288.81241	2736.8198
289.51172	2749.7593
290.21103	2774.5676
290.91031	2751.6987
291.60962	2760.821
292.30893	2816.1836
293.00821	2812.5842
293.70752	2815.1477
294.40683	2869.7419
295.10611	2897.5586
295.80542	2785.2932
296.50473	2756.0017
297.20401	2727.9912
297.90332	2773.8657
298.60263	2760.562
299.30191	2776.4907
300.00122	2807.1462
300.70053	2802.3657
301.39981	2779.3311
302.09912	2767.1619
302.79843	2778.4563
303.49771	2790.6123
304.19702	2833.5854
304.89633	2796.0364
305.59561	2768.4751
306.29492	2739.7134
306.99423	2711.5283
307.69351	2766.6121
308.39282	2798.6018
309.09213	2793.6714
309.79141	2751.6782
310.49072	2748.8354
311.19003	2768.6841
311.88931	2774.5176
312.58862	2810.9968
313.28793	2810.9124
313.98721	2771.8523
314.68652	2748.7708
315.38583	2756.0464
316.08511	2778.687
316.78442	2749.5247
317.4837	2764.8296
318.18301	2761.1704
318.88232	2812.0115
319.5816	2778.1907
320.28091	2701.8049
320.98022	2759.1086
321.6795	2780.937
322.37881	2780.5601
323.07813	2777.8875
323.7774	2765.957
324.47672	2746.0049
325.17603	2777.8699
325.87531	2777.5317
326.57462	2806.6956
327.27393	2816.2327
327.97321	2794.6909
328.67252	2785.2563
329.37183	2767.1296
330.07111	2804.9373
330.77042	2805.0215
331.46973	2809.5664
332.16901	2881.4543
332.86832	2777.4807
333.56763	2778.7686
334.26691	2765.0166
334.96622	2678.0483
335.66553	2780.1448
336.36481	2791.0981
337.06412	2811.3245
337.76343	2811.0684
338.46271	2771.4707
339.16202	2726.9343
339.86133	2787.6538
340.56061	2788.2903
341.25992	2785.7996
341.95923	2777.2405
342.65851	2749.2278
343.35782	2799.1926
344.05713	2789.2017
344.75641	2799.6411
345.45572	2807.2844
346.15503	2785.1809
346.85431	2776.0977
347.55362	2759.1626
348.25293	2746.5977
348.95221	2787.7708
349.65152	2809.6418
350.35083	2805.928
351.05011	2776.4153
351.74942	2781.0984
352.4487	2739.7773
353.14801	2716.7244
353.84732	2711.4246
354.5466	2742.2659
355.24591	2767.4285
355.94522	2765.5837
356.6445	2758.2725
357.34381	2727.9241
358.04312	2708.4675
358.7424	2768.8223
359.44171	2820.626
360.14102	2818.6692
360.8403	2824.5195
361.53961	2794.7412
362.23892	2770.0164
362.9382	2762.2039
363.63751	2734.5347
364.33682	2741.7444
365.0361	2754.8401
365.73541	2765.7192
366.43472	2784.656
367.134	2793.5747
367.83331	2771.897
368.53262	2784.0398
369.2319	2771.9712
369.93121	2783.7729
370.63052	2791.4746
371.3298	2745.5193
372.02911	2732.4998
372.72842	2772.4805
373.4277	2775.0349
374.12701	2767.968
374.82632	2788.6238
375.5256	2770.5837
376.22491	2759.332
376.92422	2752.7312
377.6235	2820.9456
378.32281	2804.3442
379.02213	2819.874
379.72141	2761.7354
380.42072	2759.3176
381.12003	2804.0298
381.81931	2827.3162
382.51862	2842.6428
383.21793	2823.2463
383.91721	2825.6494
384.61652	2803.5994
385.31583	2798.9509
386.01511	2829.0762
386.71442	2820.0662
387.4137	2817.7073
388.11301	2866.0276
388.81232	2857.2903
389.5116	2786.1536
390.21091	2784.9063
390.91022	2852.158
391.6095	2906.606
392.30881	2856.7095
393.00812	2865.3167
393.7074	2760.7576
394.40671	2879.9268
395.10602	2828.896
395.8053	2872.5366
396.50461	2870.5884
397.20392	2873.1169
397.9032	2861.7063
398.60251	2834.4854
399.30182	2884.7202
400.0011	2841.2683
400.70041	2846.9141
401.39972	2853.1594
402.099	2850.3311
402.79831	2837.9302
403.49762	2831.7686
404.1969	2842.1636
404.89621	2861.2935
405.59552	2889.9634
406.2948	2929.1638
406.99411	2913.7146
407.69342	2827.5854
408.3927	2827.3489
409.09201	2795.1091
409.79132	2860.1968
410.4906	2864.6765
411.18991	2935.2664
411.88922	2928.3818
412.5885	2930.7668
413.28781	2898.7686
413.98712	2862.324
414.6864	2855.6194
415.38571	2924.366
416.08502	2977.3774
416.7843	2956.0339
417.48361	2949.3987
418.18292	2949.5066
418.8822	2957.4302
419.58151	2979.6797
420.28082	2967.707
420.9801	2960.207
421.67941	2957.8523
422.37869	2968.6357
423.078	2993.0212
423.77731	2997.446
424.47659	3001.5449
425.1759	3005.5195
425.87521	2995.3594
426.57449	2986.4722
427.2738	3001.6753
427.97311	2999.4553
428.67239	2980.0313
429.3717	3007.7461
430.07101	3060.4355
430.77029	3051.615
431.4696	2995.7686
432.16891	2996.5745
432.86819	2984.8667
433.5675	3062.5107
434.26682	3030.8149
434.96609	3043.8027
435.66541	3017.6226
436.36472	3030.4495
437.064	3028.2783
437.76331	3046.4856
438.46262	3055.0635
439.1619	3097.0122
439.86121	3134.9521
440.56052	3112.76
441.2598	3044.7629
441.95911	3067.55
442.65842	3122.5881
443.3577	3109.748
444.05701	3127.1218
444.75632	3102.7346
445.4556	3114.2395
446.15491	3150.7773
446.85422	3121.9373
447.5535	3067.2019
448.25281	3192.0818
448.95212	3199.5784
449.6514	3133.6338
450.35071	3153.9893
451.05002	3146.7485
451.7493	3178.2092
452.44861	3135.9783
453.14792	3174.3291
453.8472	3125.9834
454.54651	3183.3987
455.24579	3209.9377
455.9451	3236.2197
456.64441	3186.8032
457.34369	3194.7075
458.043	3203.8362
458.74231	3233.1323
459.44159	3250.6213
460.1409	3217.2361
460.84021	3201.8708
461.53949	3231.7261
462.2388	3260.7629
462.93811	3261.0862
463.63739	3270.8457
464.3367	3285.8369
465.03601	3271.2854
465.73529	3281.8333
466.4346	3286.8643
467.13391	3316.0894
467.83319	3329.5442
468.5325	3273.614
469.23181	3296.3254
469.93109	3335.002
470.6304	3354.7983
471.32971	3380.8088
472.02899	3342.9258
472.7283	3426.5991
473.42761	3349.0959
474.12689	3277.7434
474.8262	3340.0239
475.52551	3373.0127
476.22479	3350.1772
476.9241	3363.0649
477.62341	3381.7795
478.32269	3389.9016
479.022	3433.1167
479.72131	3384.3745
480.42059	3427.54
481.1199	3441.7966
481.81921	3426.3374
482.51849	3478.0825
483.2178	3458.8767
483.91711	3442.8511
484.61639	3506.2466
485.3157	3564.6372
486.01501	3588.9653
486.71429	3583.5356
487.4136	3543.2502
488.11292	3488.1204
488.81219	3509.1023
489.51151	3578.7437
490.21078	3615.4819
490.9101	3625.0168
491.60941	3697.0857
492.30869	3639.2332
493.008	3620.5313
493.70731	3694.7297
494.40659	3690.6533
495.1059	3728.1558
495.80521	3687.8035
496.50449	3735.6946
497.2038	3829.0425
497.90311	3796.4573
498.60239	3865.2791
499.3017	3819.031
500.00101	3873.759
500.70029	3901.1055
501.3996	3851.0288
502.09891	3940.2771
502.79819	3894.6929
503.4975	3936.5703
504.19681	3984.853
504.89609	4004.7427
505.5954	4086.3293
506.29471	4117.1465
506.99399	4073.6406
507.6933	4079.4067
508.39261	4117.1553
509.09189	4152.5381
509.7912	4174.1084
510.49051	4177.2568
511.18979	4210.8354
511.8891	4293.8003
512.58838	4371.499
513.28772	4415.4756
513.987	4456.9629
514.68628	4493.5083
515.38562	4545.4272
516.0849	4632.3794
516.78418	4677.0391
517.48352	4756.2764
518.1828	4848.436
518.88208	4961.6499
519.58142	5056.5615
520.2807	5099.4204
520.97998	5154.5078
521.67932	5411.2114
522.3786	5537.312
523.07788	5697.147
523.77722	5872.6538
524.4765	5877.9639
525.17578	6063.1289
525.87512	6292.0112
526.5744	6363.6338
527.27368	6470.0005
527.97302	6689.0146
528.6723	6774.3291
529.37158	6924.1196
530.07092	7104.8296
530.7702	7087.627
531.46948	7311.9712
532.16882	7390.4297
532.8681	7518.1963
533.56738	7548.7627
534.26672	7527.9839
534.966	7518.4243
535.66528	7614.1665
536.36462	7683.5474
537.0639	7651.0288
537.76318	7522.7959
538.46252	7473.0537
539.1618	7487.396
539.86108	7432.1064
540.56042	7411.0269
541.2597	7403.6768
541.95898	7316.1172
542.65826	7238.3398
543.3576	7179.2544
544.05688	7129.4434
544.75616	7127.3906
545.45551	7108.0186
546.15479	6996.6831
546.85406	6870.5171
547.55341	6794.1484
548.25269	6656.6426
548.95197	6659.1411
549.65131	6584.7246
550.35059	6469.4526
551.04987	6452.5522
551.74921	6306.8423
552.44849	6265.4761
553.14777	6171.9844
553.84711	6100.6973
554.54639	5991.3721
555.24567	5921.1108
555.94501	5823.1006
556.64429	5799.5493
557.34357	5745.1602
558.04291	5703.687
558.74219	5636.9463
559.44147	5568.2979
560.14081	5512.5181
560.84009	5482.2241
561.53937	5368.7021
562.23871	5388.543
562.93799	5216.4814
563.63727	5190.6748
564.33661	5191.7344
565.03589	5170.4136
565.73517	5101.7617
566.43451	4973.5083
567.13379	4939.4385
567.83307	4893.3369
568.53241	4780.895
569.23169	4779.6504
569.93097	4770.2739
570.63031	4741.5996
571.32959	4679.3896
572.02887	4606.1025
572.72821	4606.856
573.42749	4607.1616
574.12677	4532.0293
574.82611	4484.3545
575.52539	4485.7363
576.22467	4477.2314
576.92401	4477.5537
577.62329	4457.8813
578.32257	4419.6753
579.02191	4406.5322
579.72119	4438.0645
580.42047	4431.9434
581.11981	4434.4224
581.81909	4394.396
582.51837	4374.377
583.21771	4400.7051
583.91699	4441.7876
584.61627	4463.5908
585.31561	4444.187
586.01489	4394.0308
586.71417	4466.7822
587.41351	4490.46
588.11279	4439.4321
588.81207	4372.1431
589.51141	4398.2363
590.21069	4419.2354
590.90997	4437.9614
591.60931	4438.0029
592.30859	4423.8066
593.00787	4420.3335
593.70721	4421.2056
594.40649	4410.0273
595.10577	4369.7129
595.80511	4355.1689
596.50439	4360.667
597.20367	4305.3306
597.90302	4272.3208
598.60229	4227.3232
599.30157	4188.7334
600.00092	4134.3672
600.7002	4129.1274
601.39948	4097.7515
602.09882	4146.5654
602.7981	4040.0635
603.49738	4030.2842
604.19672	3943.7048
604.896	3905.1345
605.59528	3847.4722
606.29462	3780.7517
606.9939	3800.2532
607.69318	3737.103
608.39252	3688.0386
609.0918	3647.197
609.79108	3596.3938
610.49036	3551.2993
611.1897	3493.1763
611.88898	3492.9255
612.58826	3510.1455
613.2876	3392.1895
613.98688	3376.9724
614.68616	3359.3284
615.3855	3328.4263
616.08478	3293.1782
616.78406	3265.1252
617.4834	3245.4751
618.18268	3197.9495
618.88196	3118.8147
619.5813	3110.8965
620.28058	3105.1658
620.97986	3078.4182
621.6792	3038.9229
622.37848	2991.5391
623.07776	2965.3987
623.7771	2941.926
624.47638	2892.4314
625.17566	2872.5996
625.875	2858.4236
626.57428	2841.4744
627.27356	2791.8372
627.9729	2743.6904
628.67218	2723.2837
629.37146	2708.3613
630.0708	2692.7024
630.77008	2673.873
631.46936	2624.7397
632.1687	2591.5698
632.86798	2567.7734
633.56726	2553.949
634.2666	2534.1111
634.96588	2523.0005
635.66516	2487.1589
636.3645	2465.4221
637.06378	2426.9529
637.76306	2392.5356
638.4624	2390.4241
639.16168	2385.7583
639.86096	2372.3269
640.5603	2325.2205
641.25958	2306.9744
641.95886	2271.937
642.6582	2242.1411
643.35748	2228.1235
644.05676	2214.1582
644.7561	2225.6741
645.45538	2172.8857
646.15466	2187.9448
646.854	2153.2322
647.55328	2111.8984
648.25256	2090.231
648.9519	2086.4778
649.65118	2079.9221
650.35046	2032.7968
651.0498	2055.8264
651.74908	2014.5978
652.44836	1981.4005
653.14771	1972.916
653.84698	1958.0708
654.54626	1957.2169
655.24561	1938.3816
655.94489	1878.8911
656.64417	1907.6857
657.34351	1878.6913
658.04279	1868.1835
658.74207	1865.0593
659.44141	1812.8868
660.14069	1795.4512
660.83997	1787.879
661.53931	1772.422
662.23859	1771.8082
662.93787	1754.5222
663.63721	1732.2042
664.33649	1725.9719
665.03577	1715.7303
665.73511	1719.6544
666.43439	1691.1958
667.13367	1669.8104
667.83301	1666.9279
668.53229	1641.9005
669.23157	1613.5991
669.93091	1613.5741
670.63019	1579.5496
671.32947	1591.838
672.02881	1586.5216
672.72809	1587.2069
673.42737	1569.0535
674.12671	1553.532
674.82599	1543.7367
675.52527	1546.6622
676.22461	1518.9669
676.92389	1495.4794
677.62317	1487.2532
678.32245	1475.9772
679.02179	1446.6494
679.72107	1442.2935
680.42035	1427.998
681.11969	1446.2605
681.81897	1451.8688
682.51825	1442.5619
683.21759	1404.8329
683.91687	1388.3129
684.61615	1382.7977
685.31549	1376.4795
686.01477	1362.2712
686.71405	1366.6339
687.41339	1340.3225
688.11267	1327.5114
688.81195	1329.1179
689.51129	1273.3597
690.21057	1280.1946
690.90985	1286.5398
691.60919	1275.5969
692.30847	1280.7557
693.00775	1258.2157
693.70709	1276.217
694.40637	1232.8168
695.10565	1251.502
695.80499	1252.3595
696.50427	1214.5662
697.20355	1252.4464
697.90289	1284.0806
698.60217	1211.6917
699.30145	1184.6504
700.00079	1180.8455
700.70007	1203.5972
701.39935	1189.8234
702.09869	1176.4303
702.79797	1150.8259
703.49725	1134.9467
704.19659	1123.8358
704.89587	1111.3254
705.59515	1114.6946
706.29449	1096.2903
706.99377	1092.9551
707.69305	1109.6022
708.3924	1108.0793
709.09167	1106.7175
709.79095	1095.2607
710.4903	1069.4016
711.18958	1084.1331
711.88885	1070.9103
712.5882	1075.3251
713.28748	1057.9645
713.98676	1055.2887
714.6861	1039.6669
715.38538	1032.3401
716.08466	1024.4126
716.784	1024.5511
717.48328	1031.9159
718.18256	1020.8679
718.8819	1046.3907
719.58118	1043.6296
720.28046	1003.5555
720.9798	995.55585
721.67908	1004.7078
722.37836	1010.4976
723.0777	1023.8657
723.77698	1045.2107
724.47626	1041.8857
725.1756	1009.2822
725.87488	1005.1741
726.57416	1001.571
727.2735	1001.0256
727.97278	1005.88
728.67206	998.74011
729.3714	985.95782
730.07068	992.0907
730.76996	982.17657
731.4693	971.23218
732.16858	987.78418
732.86786	1002.1697
733.5672	987.08691
734.26648	997.92145
734.96576	999.7851
735.6651	981.39673
736.36438	972.52722
737.06366	994.63086
737.763	1005.2924
738.46228	1018.0738
739.16156	1005.3233
739.8609	1001.7015
740.56018	1021.7349
741.25946	1031.5798
741.9588	1033.0951
742.65808	1031.6024
743.35736	1040.2374
744.0567	1039.8087
744.75598	1039.1436
745.45526	1049.1782
746.1546	1054.5238
746.85388	1056.0134
747.55316	1070.3275
748.25244	1074.9305
748.95178	1076.3419
749.65106	1086.2041
750.35034	1087.1537
751.04968	1113.2592
751.74896	1134.8927
752.44824	1119.1429
753.14758	1092.2968
753.84686	1059.4812
754.54614	1063.4724
755.24548	1092.0553
755.94476	1080.7026
756.64404	1073.0107
757.34338	1089.7889
758.04266	1097.2394
758.74194	1086.4629
759.44128	1072.1866
760.14056	1070.4401
760.83984	1080.5607
761.53918	1091.6571
762.23846	1100.1168
762.93774	1105.1991
763.63708	1129.4327
764.33636	1140.7716
765.03564	1140.7323
765.73499	1141.7361
766.43427	1160.4436
767.13354	1170.4186
767.83289	1161.3685
768.53217	1135.6255
769.23145	1126.4604
769.93079	1155.7585
770.63007	1174.8276
771.32935	1161.8505
772.02869	1134.6108
772.72797	1132.486
773.42725	1156.5306
774.12659	1136.7042
774.82587	1136.6349
775.52515	1174.9232
776.22449	1168.5387
776.92377	1136.0292
777.62305	1136.9688
778.32239	1141.3262
779.02167	1133.5642
779.72095	1120.3846
780.42029	1127.8712
781.11957	1129.2281
781.81885	1115.0493
782.51819	1101.123
783.21747	1093.5706
783.91675	1091.3352
784.61609	1113.4359
785.31537	1112.016
786.01465	1073.1952
786.71399	1071.2068
787.41327	1071.8539
788.11255	1056.5455
788.81189	1079.1283
789.51117	1093.7739
790.21045	1057.4059
790.90979	1039.7511
791.60907	1021.3539
792.30835	1016.1939
793.00769	1041.1786
793.70697	1081.0894
794.40625	1063.4684
795.10559	990.94788
795.80487	974.67908
796.50415	966.82849
797.20349	979.32874
797.90277	1000.4581
798.60205	984.15033
799.30139	971.64514
800.00067	949.76617
800.69995	910.85535
801.39929	920.06366
802.09857	902.68549
802.79785	893.19696
803.49719	900.53284
804.19647	885.59015
804.89575	854.25244
805.59509	846.81525
806.29437	848.9472
806.99365	818.61279
807.69299	809.76007
808.39227	812.26239
809.09155	807.57599
809.79089	817.00751
810.49017	786.38495
811.18945	780.35522
811.88879	785.57629
812.58807	760.63147
813.28735	765.67145
813.98669	745.92432
814.68597	722.74872
815.38525	723.70166
816.08453	704.73834
816.78387	700.47205
817.48315	678.70203
818.18243	688.77728
818.88177	673.73352
819.58105	680.88452
820.28033	664.02344
820.97968	664.08063
821.67896	644.72443
822.37823	639.7345
823.07758	637.7962
823.77686	630.80017
824.47614	622.76593
825.17548	600.48132
825.87476	609.91272
826.57404	622.26025
827.27338	619.82819
827.97266	584.83502
828.67194	574.51361
829.37128	551.54962
830.07056	565.79053
830.76984	584.4826
831.46918	568.97937
832.16846	576.04871
832.86774	573.81964
833.56708	556.91254
834.26636	561.32355
834.96564	538.52783
835.66498	574.59485
836.36426	564.36206
837.06354	558.32996
837.76288	616.41583
838.46216	616.50336
839.16144	590.15094
839.86078	555.51324
840.56006	559.35437
841.25934	550.72302
841.95868	536.67224
842.65796	534.22583
843.35724	548.13202
844.05658	562.71344
844.75586	568.52045
845.45514	555.76587
846.15448	542.80676
846.85376	565.20502
847.55304	544.11371
848.25238	553.22241
848.95166	586.72571
849.65094	561.2005
850.35028	553.80444
851.04956	553.97034
851.74884	551.0144
852.44818	561.67816
853.14746	561.59973
853.84674	558.48895
854.54608	558.47205
855.24536	576.50531
855.94464	558.36597
856.64398	558.54059
857.34326	527.89709
858.04254	547.125
858.74188	569.72192
859.44116	555.47699
860.14044	569.61615
860.83978	578.53436
861.53906	559.28088
862.23834	555.86511
862.93768	551.84302
863.63696	566.22174
864.33624	568.67682
865.03558	549.08685
865.73486	546.26697
866.43414	557.44989
867.13348	552.58368
867.83276	560.05713
868.53204	565.25464
869.23138	566.00372
869.93066	578.83325
870.62994	568.63184
871.32928	569.93787
872.02856	581.93561
872.72784	578.87079
873.42719	577.49036
874.12646	563.04578
874.82574	560.24725
875.52509	578.20959
876.22437	583.94104
876.92365	592.80957
877.62299	585.01178
878.32227	577.67969
879.02155	567.51813
879.72089	592.62091
880.42017	577.63623
881.11945	572.27301
881.81879	560.17725
882.51807	570.03601
883.21735	601.41486
883.91669	580.17804
884.61597	598.7204
885.31525	580.4339
886.01453	585.14923
886.71387	572.11121
887.41315	596.46631
888.11243	585.56866
888.81177	585.93939
889.51105	600.4649
890.21033	608.89606
890.90967	574.25391
891.60895	594.39227
892.30823	592.00629
893.00757	599.80664
893.70685	618.61792
894.40613	592.89587
895.10547	614.02271
895.80475	611.95508
896.50403	607.94403
897.20337	621.44556
897.90265	630.33179
898.60193	615.94446
899.30127	627.5
900.00055	622.29279
900.69983	615.14069
901.39917	632.17505
902.09845	629.57959
902.79773	641.12006
903.49707	624.54004
904.19635	627.27594
904.89563	630.86578
905.59497	631.53357
906.29425	626.57068
906.99353	642.0282
907.69287	642.91522
908.39215	631.82227
909.09143	639.53998
909.79077	652.91095
910.49005	660.30408
911.18933	674.1731
911.88867	673.50061
912.58795	655.69177
913.28723	686.43225
913.98657	701.01587
914.68585	715.85834
915.38513	705.15826
916.08447	677.29138
916.78375	687.10504
917.48303	685.4809
918.18237	714.31781
918.88165	702.78558
919.58093	711.58478
920.28027	709.02917
920.97955	742.23364
921.67883	698.78717
922.37817	717.72552
923.07745	750.59607
923.77673	748.11829
924.47607	758.93164
925.17535	752.75616
925.87463	757.41681
926.57397	783.38373
927.27325	776.32843
927.97253	772.87958
928.67188	757.34094
929.37115	808.30664
930.07043	794.46185
930.76978	812.46179
931.46906	825.24274
932.16833	817.63727
932.86768	836.22479
933.56696	866.1181
934.26624	874.28564
934.96558	880.98663
935.66486	859.30804
936.36414	854.68835
937.06348	869.84064
937.76276	871.15753
938.46204	899.12451
939.16138	911.11017
939.86066	923.03833
940.55994	938.93378
941.25928	920.54004
941.95856	907.5976
942.65784	930.61975
943.35718	920.5531
944.05646	932.7182
944.75574	955.72272
945.45508	953.13904
946.15436	950.23004
946.85364	971.39124
947.55298	992.52814
948.25226	959.92847
948.95154	1002.0334
949.65088	991.64868
950.35016	967.36328
951.04944	950.10541
951.74878	963.98224
952.44806	970.68341
953.14734	962.0625
953.84662	970.20062
954.54596	964.4068
955.24524	974.5387
955.94452	974.59009
956.64386	954.46356
957.34314	978.13422
958.04242	977.04144
958.74176	988.60168
959.44104	964.00317
960.14032	969.86505
960.83966	977.84631
961.53894	992.18506
962.23822	983.98981
962.93756	980.8017
963.63684	992.12732
964.33612	1012.4059
965.03546	1011.2737
965.73474	993.23108
966.43402	986.8045
967.13336	988.435
967.83264	974.82318
968.53192	987.98407
969.23126	965.70801
969.93054	964.75934
970.62982	1009.5233
971.32916	1003.1593
972.02844	1018.1783
972.72772	1034.3865
973.42706	1000.8318
974.12634	1037.697
974.82562	1023.8853
975.52496	1074.4409
976.22424	1091.7554
976.92352	1087.229
977.62286	1054.8353
978.32214	1034.7039
979.02142	1057.9666
979.72076	1046.0632
980.42004	1086.4548
981.11932	1083.3984
981.81866	1066.62
982.51794	1068.903
983.21722	1055.9358
983.91656	1035.7251
984.61584	1063.6755
985.31512	1079.085
986.01447	1079.2394
986.71375	1116.8567
987.41302	1157.7281
988.11237	1114.993
988.81165	1077.3328
989.51093	1073.3307
990.21027	1086.5497
990.90955	1088.0614
991.60883	1076.04
992.30817	1045.8373
993.00745	1056.0037
993.70673	1080.0349
994.40607	1076.0826
995.10535	1083.3951
995.80463	1102.7356
996.50397	1061.5681
997.20325	1067.553
997.90253	1097.3002
998.60187	1080.9254
999.30115	1120.7626
1000.0004	1111.5712
1000.6998	1112.1134
1001.399	1104.5948
1002.0983	1091.0033
1002.7977	1118.5474
1003.4969	1134.8583
1004.1962	1122.6771
1004.8956	1125.9935
1005.5948	1140.3688
1006.2941	1177.3778
1006.9935	1187.5837
1007.6927	1158.5162
1008.392	1179.5936
1009.0914	1218.1605
1009.7906	1212.0017
1010.4899	1207.1692
1011.1893	1223.2963
1011.8885	1228.4325
1012.5878	1248.0916
1013.2872	1242.9092
1013.9865	1281.4539
1014.6857	1253.8617
1015.3851	1268.7639
1016.0844	1313.9556
1016.7836	1312.5137
1017.483	1306.4742
1018.1823	1350.4983
1018.8815	1367.8148
1019.5809	1365.7159
1020.2802	1355.6615
1020.9794	1344.2891
1021.6788	1403.0203
1022.3781	1455.1288
1023.0773	1504.5328
1023.7766	1520.0853
1024.476	1534.5646
1025.1753	1506.5531
1025.8745	1506.4564
1026.5739	1547.0339
1027.2732	1570.9534
1027.9724	1583.269
1028.6718	1605.7058
1029.3711	1634.0098
1030.0703	1634.2147
1030.7697	1673.1472
1031.469	1705.7955
1032.1682	1717.869
1032.8676	1768.0656
1033.5669	1771.1575
1034.2661	1796.2076
1034.9655	1854.3268
1035.6648	1829.2963
1036.364	1892.48
1037.0634	1910.4166
1037.7627	1958.3132
1038.4619	2008.2424
1039.1613	2014.0671
1039.8606	2050.209
1040.5598	2074.2852
1041.2592	2121.1174
1041.9585	2152.3967
1042.6577	2178.0715
1043.3571	2227.2549
1044.0564	2274.3918
1044.7556	2310.8772
1045.455	2364.0081
1046.1543	2417.2654
1046.8535	2474.334
1047.5529	2492.0068
1048.2522	2558.3574
1048.9514	2609.0042
1049.6508	2627.2551
1050.3501	2700.8618
1051.0493	2781.4526
1051.7487	2863.366
1052.448	2888.7517
1053.1472	2935.8679
1053.8466	2961.5803
1054.5459	3009.8005
1055.2451	3132.3308
1055.9445	3168.9653
1056.6437	3278.7085
1057.343	3316.0833
1058.0424	3369.8853
1058.7416	3438.9348
1059.4409	3513.4631
1060.1403	3580.6123
1060.8395	3676.1472
1061.5388	3780.9983
1062.2382	3776.6743
1062.9374	3866.7395
1063.6367	3952.272
1064.3361	4052.05
1065.0353	4164.1133
1065.7346	4239.5186
1066.434	4330.3311
1067.1332	4383.498
1067.8325	4474.3516
1068.5319	4600.8745
1069.2311	4677.7212
1069.9304	4827.9629
1070.6298	4933.7422
1071.329	4955.0093
1072.0283	4994.5146
1072.7277	5077.0239
1073.4269	5171.2534
1074.1262	5341.5708
1074.8256	5519.2314
1075.5248	5627.4473
1076.2241	5682.6089
1076.9235	5785.3872
1077.6227	5850.5596
1078.322	6033.4248
1079.0214	6171.8755
1079.7206	6260.2285
1080.4199	6402.7046
1081.1193	6452.4541
1081.8185	6547.6128
1082.5178	6622.8096
1083.2172	6789.8833
1083.9164	6961.1431
1084.6157	7057.4463
1085.3151	7180.936
1086.0143	7259.4761
1086.7136	7310.8569
1087.413	7395.7236
1088.1122	7610.5498
1088.8115	7757.3555
1089.5109	7853.2363
1090.2101	7903.8643
1090.9094	7956.5171
1091.6088	8087.0537
1092.308	8238.2021
1093.0073	8351.1846
1093.7067	8490.7744
1094.4059	8560.1025
1095.1052	8554.2383
1095.8046	8648.0176
1096.5038	8666.125
1097.2031	8837.1943
1097.9025	8914.7813
1098.6017	8948.2959
1099.301	9006.6445
1100.0004	9037.6328
1100.6996	8887.3525
1101.3989	8923.9707
1102.0983	9092.3799
1102.7975	9189.5244
1103.4968	9198.3311
1104.1962	9203.2158
1104.8954	9136.8984
1105.5947	9107.6045
1106.2941	9132.5752
1106.9933	9099.1465
1107.6926	9101.2256
1108.392	9142.4854
1109.0912	9042.4775
1109.7905	8947.9199
1110.4899	8864.8252
1111.1891	8887.5146
1111.8884	8967.1006
1112.5878	8928.7773
1113.287	8787.9961
1113.9863	8681.9561
1114.6857	8581.5068
1115.3849	8546.3057
1116.0842	8515.6807
1116.7836	8564.6436
1117.4828	8485.1279
1118.1821	8377.9326
1118.8815	8240.126
1119.5807	8176.9478
1120.28	8150.0361
1120.9794	8107.9985
1121.6786	8068.0439
1122.3779	7998.1538
1123.0773	7948.4556
1123.7765	7805.7266
1124.4758	7700.209
1125.1752	7699.1421
1125.8744	7688.6924
1126.5737	7643.4795
1127.2731	7596.3267
1127.9723	7539.2764
1128.6716	7406.397
1129.371	7325.6479
1130.0702	7330.4795
1130.7695	7311.5923
1131.4689	7183.4858
1132.1681	7132.187
1132.8674	7019.2935
1133.5668	6932.0737
1134.266	6967.7646
1134.9653	6948.5303
1135.6647	6878.439
1136.3639	6806.4136
1137.0632	6810.7808
1137.7626	6699.2363
1138.4618	6604.0796
1139.1611	6576.6606
1139.8605	6551.2075
1140.5597	6491.959
1141.259	6391.1782
1141.9584	6334.3511
1142.6576	6263.0981
1143.3569	6163.2856
1144.0563	6127.0674
1144.7555	6107.73
1145.4548	6073.8979
1146.1542	6000.1533
1146.8534	5892.5264
1147.5527	5805.7344
1148.2521	5752.6533
1148.9513	5731.4888
1149.6506	5660.4019
1150.35	5616.3159
1151.0492	5520.1631
1151.7485	5404.4351
1152.4479	5303.8823
1153.1471	5298.4858
1153.8464	5251.9639
1154.5458	5192.0298
1155.245	5081.377
1155.9443	4977.6572
1156.6437	4914.1577
1157.3429	4796.8486
1158.0422	4728.083
1158.7416	4685.8188
1159.4408	4620.2388
1160.1401	4490.9321
1160.8395	4431.5654
1161.5387	4353.2524
1162.238	4297.25
1162.9374	4227.5298
1163.6366	4144.3921
1164.3359	4132.9561
1165.0353	3994.4326
1165.7345	3885.2617
1166.4338	3775.5876
1167.1332	3727.4556
1167.8324	3686.186
1168.5317	3604.6733
1169.2311	3533.7451
1169.9303	3469.6533
1170.6296	3331.5791
1171.329	3232.3113
1172.0282	3187.0359
1172.7275	3134.7029
1173.4269	3090.7463
1174.1261	2978.3425
1174.8254	2915.0752
1175.5248	2836.4395
1176.224	2764.542
1176.9233	2693.209
1177.6227	2614.9216
1178.3219	2525.1948
1179.0212	2494.03
1179.7206	2356.6084
1180.4198	2327.2393
1181.1191	2233.3723
1181.8185	2212.8665
1182.5177	2148.4578
1183.217	2099.2334
1183.9164	2020.5498
1184.6156	1963.6099
1185.3149	1904.9115
1186.0143	1859.4705
1186.7135	1812.0397
1187.4128	1786.5229
1188.1122	1748.7384
1188.8114	1626.8237
1189.5107	1567.6045
1190.2101	1504.1567
1190.9093	1535.3629
1191.6086	1521.1122
1192.308	1436.1693
1193.0072	1357.441
1193.7065	1334.3159
1194.4058	1301.6241
1195.1051	1217.6873
1195.8044	1235.7246
1196.5037	1205.6328
1197.203	1129.5199
1197.9023	1067.083
1198.6016	1070.2158
1199.3009	1031.0042
1200.0002	1046.5242
1200.6995	1020.5188
1201.3988	1002.7062
1202.0981	981.05688
1202.7974	927.16577
1203.4967	897.70135
1204.196	848.66504
1204.8953	824.01489
1205.5946	799.1438
1206.2939	807.07782
1206.9932	737.66425
1207.6925	722.11664
1208.3918	724.9613
1209.0911	713.62726
1209.7904	690.99847
1210.4897	657.73535
1211.189	630.08069
1211.8883	606.2724
1212.5876	608.85651
1213.2869	605.09534
1213.9862	575.612
1214.6855	560.59998
1215.3848	553.02222
1216.0841	574.64386
1216.7834	549.63947
1217.4827	507.93103
1218.182	523.43005
1218.8813	516.7757
1219.5806	497.44437
1220.2799	470.89536
1220.9792	472.65778
1221.6785	464.56824
1222.3778	469.00864
1223.0771	460.45651
1223.7764	472.42001
1224.4757	461.67453
1225.175	466.3006
1225.8743	446.11148
1226.5736	424.40259
1227.2729	423.43216
1227.9722	421.21994
1228.6715	421.31976
1229.3708	365.483
1230.0701	384.39325
1230.7694	390.03561
1231.4688	401.87967
1232.168	394.50797
1232.8673	402.79333
1233.5667	414.28537
1234.2659	392.39548
1234.9652	371.02341
1235.6646	386.04034
1236.3638	383.77634
1237.0631	377.92029
1237.7625	389.45718
1238.4617	372.3887
1239.161	395.00595
1239.8604	402.11658
1240.5596	333.68292
1241.2589	358.57474
1241.9583	358.46561
1242.6575	391.0293
1243.3568	372.57205
1244.0562	379.97162
1244.7554	367.60788
1245.4547	353.37943
1246.1541	349.77518
1246.8533	325.89856
1247.5526	341.56165
1248.252	353.32718
1248.9512	345.22607
1249.6505	321.30829
1250.3499	356.34799
1251.0491	378.92468
1251.7484	367.22549
1252.4478	390.58826
1253.147	321.7088
1253.8463	309.21249
1254.5457	345.44183
1255.2449	334.42838
1255.9442	329.55902
1256.6436	352.44513
1257.3428	345.00546
1258.0421	351.69189
1258.7415	343.63766
1259.4407	317.73367
1260.14	319.50754
1260.8394	319.65454
1261.5386	286.75635
1262.2379	343.88895
1262.9373	320.69382
1263.6365	324.99921
1264.3358	311.12222
1265.0352	306.71017
1265.7344	300.37949
1266.4337	328.87335
1267.1331	331.36038
1267.8323	313.4472
1268.5316	305.41464
1269.231	306.92041
1269.9302	305.93018
1270.6295	318.08569
1271.3289	299.5788
1272.0281	322.38757
1272.7274	327.47003
1273.4268	313.7027
1274.126	305.27359
1274.8253	296.09515
1275.5247	293.35654
1276.2239	310.23392
1276.9232	299.61337
1277.6226	309.27856
1278.3218	321.87387
1279.0211	303.42783
1279.7205	306.5726
1280.4197	307.54562
1281.119	311.64996
1281.8184	329.15738
1282.5176	326.33127
1283.2169	293.85794
1283.9163	293.9223
1284.6155	322.41043
1285.3148	302.62036
1286.0142	304.89233
1286.7134	305.54794
1287.4127	290.30402
1288.1121	310.41684
1288.8113	309.24411
1289.5106	305.14868
1290.21	305.64447
1290.9092	315.2601
1291.6085	279.58948
1292.3079	309.78189
1293.0071	315.93658
1293.7064	325.64432
1294.4058	300.7084
1295.105	310.85104
1295.8043	309.72623
1296.5037	315.93079
1297.2029	323.98572
1297.9022	300.50708
1298.6016	281.50488
1299.3008	304.49777
1300.0001	296.68405
1300.6995	304.55075
1301.3987	300.08099
1302.098	299.61569
1302.7974	296.53094
1303.4966	324.71402
1304.1959	318.95996
1304.8953	299.65588
1305.5945	290.53464
1306.2938	310.12854
1306.9932	302.27444
1307.6924	294.83966
1308.3917	325.12146
1309.0911	328.9801
1309.7903	319.44205
1310.4896	300.68384
1311.189	311.26935
1311.8882	289.68417
1312.5875	286.71158
1313.2869	300.01093
1313.9861	332.09155
1314.6854	305.05878
1315.3848	286.17517
1316.084	332.18671
1316.7833	322.26755
1317.4827	297.63535
1318.1819	296.44958
1318.8812	275.16705
1319.5806	276.082
1320.2798	305.81891
1320.9791	307.79614
1321.6785	324.10928
1322.3777	297.04095
1323.077	304.71411
1323.7764	324.28104
1324.4756	312.93201
1325.1749	300.60965
1325.8743	302.22403
1326.5735	318.79672
1327.2728	320.22629
1327.9722	316.04147
1328.6714	320.81192
1329.3707	324.24731
1330.0701	305.866
1330.7693	307.78708
1331.4686	290.94318
1332.1678	324.74896
1332.8672	304.15439
1333.5665	322.9794
1334.2657	321.24835
1334.9651	319.16467
1335.6644	303.27078
1336.3636	315.90765
1337.063	312.61703
1337.7623	336.34143
1338.4615	343.95718
1339.1609	328.46875
1339.8602	305.18777
1340.5594	299.46689
1341.2588	322.27347
1341.9581	337.48624
1342.6573	343.43408
1343.3567	313.86823
1344.056	311.77609
1344.7552	318.29816
1345.4546	318.69336
1346.1539	322.34875
1346.8531	313.71884
1347.5525	314.24881
1348.2518	339.40399
1348.951	324.75464
1349.6504	303.97009
1350.3497	307.17834
1351.049	335.80801
1351.7483	343.51944
1352.4476	341.99182
1353.1469	323.14136
1353.8462	338.16135
1354.5455	318.5267
1355.2448	301.29446
1355.9441	315.52463
1356.6434	337.34644
1357.3427	339.12683
1358.042	317.82132
1358.7413	294.19913
1359.4406	324.87369
1360.1399	339.03998
1360.8392	337.20532
1361.5385	322.4881
1362.2378	331.25885
1362.9371	338.58331
1363.6364	345.66858
1364.3357	322.48849
1365.035	325.08099
1365.7343	347.03836
1366.4336	327.45596
1367.1329	321.00064
1367.8322	323.91028
1368.5315	320.7937
1369.2308	344.78336
1369.9301	342.23227
1370.6294	340.87253
1371.3287	327.27518
1372.028	346.98331
1372.7273	358.70706
1373.4266	357.23218
1374.1259	359.94421
1374.8252	341.39606
1375.5245	356.25198
1376.2238	338.92065
1376.9231	341.47516
1377.6224	349.2388
1378.3217	343.20657
1379.021	319.04474
1379.7203	377.13647
1380.4196	340.13928
1381.1189	327.73468
1381.8182	346.88162
1382.5175	349.88223
1383.2168	355.08807
1383.9161	374.48413
1384.6154	335.45657
1385.3147	344.14484
1386.014	334.02524
1386.7133	354.3223
1387.4126	368.20016
1388.1119	361.33087
1388.8112	369.1279
1389.5105	382.09296
1390.2098	346.46722
1390.9091	353.11612
1391.6084	358.1778
1392.3077	360.8743
1393.007	340.414
1393.7063	342.78305
1394.4056	322.40891
1395.1049	314.92123
1395.8042	362.09326
1396.5035	351.22342
1397.2028	337.86835
1397.9021	344.31262
1398.6014	352.44641
1399.3007	346.6994
1400	368.46619
