16.115719	103.08566
16.81642	78.439323
17.51712	101.63489
18.217821	121.52912
18.918522	184.44035
19.619223	359.95514
20.319923	564.48743
21.020626	690.33807
21.721327	776.31842
22.422028	925.98883
23.122728	1081.5372
23.823429	1209.6892
24.52413	1336.5892
25.224831	1372.4807
25.925531	1446.3153
26.626232	1523.9786
27.326933	1597.804
28.027634	1676.26
28.728334	1729.2701
29.429035	1764.2677
30.129736	1815.1975
30.830439	1843.6471
31.531139	1895.3497
32.231838	1945.7443
32.932541	1976.9951
33.63324	1996.8767
34.333942	2080.3535
35.034645	2149.75
35.735344	2284.7786
36.436047	2463.3953
37.136745	2593.8242
37.837448	2656.4495
38.538147	2945.1311
39.23885	4103.2422
39.939548	5829.6924
40.640251	5806.6841
41.34095	4104.6318
42.041653	2890.6377
42.742352	2584.8577
43.443054	2549.894
44.143753	2585.2661
44.844456	2654.4263
45.545158	2704.7297
46.245857	2736.6694
46.94656	2756.1941
47.647259	2702.5334
48.347961	2713.698
49.04866	2731.9429
49.749363	2768.8586
50.450062	2815.801
51.150764	2856.1243
51.851463	2841.2273
52.552166	2844.4741
53.252865	2853.0271
53.953568	2831.759
54.65427	2819.2622
55.354969	2838.7173
56.055672	2856.939
56.756371	2831.0054
57.457073	2816.408
58.157772	2836.491
58.858475	2834.8342
59.559174	2850.2021
60.259876	2896.8708
60.960575	2945.793
61.661278	2960.6001
62.361977	2946.6448
63.062679	2920.4258
63.763382	2876.9829
64.464081	2864.8657
65.16478	2907.6992
65.865486	2883.1882
66.566185	2867.2495
67.266884	2886.4441
67.967583	2891.1538
68.668289	2896.4143
69.368988	2900.3804
70.069687	2911.0186
70.770386	2903.4961
71.471092	2871.8071
72.171791	2867.7222
72.87249	2878.5859
73.573196	2926.0583
74.273895	2932.604
74.974594	2873.4104
75.675293	2866.0039
76.375999	2871.2375
77.076698	2901.0757
77.777397	2926.1321
78.478096	2900.4548
79.178802	2866.4443
79.879501	2871.314
80.5802	2873.8125
81.280899	2843.1184
81.981606	2811.3542
82.682304	2814.438
83.383003	2827.1902
84.08371	2890.8635
84.784409	2894.2554
85.485107	2929.7146
86.185806	2917.6716
86.886513	2887.9968
87.587212	2856.5444
88.28791	2830.9614
88.988609	2827.9343
89.689316	2818.689
90.390015	2794.3303
91.090714	2790.751
91.79142	2810.1482
92.492119	2898.8899
93.192818	2867.5894
93.893517	2835.9412
94.594223	2847.5203
95.294922	2839.4949
95.995621	2821.9072
96.69632	2818.115
97.397026	2822.5588
98.097725	2818.0835
98.798424	2788.3872
99.499123	2762.6438
100.19983	2774.8577
100.90053	2807.6599
101.60123	2793.5293
102.30193	2778.1853
103.00263	2783.7485
103.70333	2763.731
104.40403	2768.6538
105.10474	2790.678
105.80544	2819.2649
106.50613	2826.9492
107.20683	2786.1533
107.90754	2770.1377
108.60824	2791.0566
109.30894	2749.72
110.00964	2754.728
110.71034	2745.9697
111.41104	2695.3564
112.11174	2718.8125
112.81245	2718.666
113.51315	2713.6252
114.21384	2687.1416
114.91454	2678.4905
115.61525	2712.9604
116.31595	2724.1636
117.01665	2694.0249
117.71735	2665.8396
118.41805	2656.1804
119.11875	2661.3398
119.81945	2690.636
120.52016	2648.8796
121.22086	2619.1956
121.92155	2641.9272
122.62225	2632.5999
123.32296	2634.4082
124.02366	2642.2668
124.72436	2629.499
125.42506	2627.075
126.12576	2630.8582
126.82646	2607.5737
127.52716	2587.251
128.22786	2589.5823
128.92856	2596.896
129.62927	2583.9216
130.32997	2601.9106
131.03067	2578.437
131.73137	2565.8296
132.43207	2577.906
133.13277	2583.552
133.83347	2566.3562
134.53416	2557.4041
135.23488	2571.4329
135.93558	2557.8623
136.63628	2535.8191
137.33698	2501.46
138.03767	2546.3157
138.73837	2528.9446
139.43907	2579.1409
140.13979	2563.2529
140.84048	2547.762
141.54118	2556.6621
142.24188	2534.2588
142.94258	2511.3079
143.64328	2520.1604
144.34398	2529.1526
145.04468	2528.231
145.74539	2517.8459
146.44609	2477.2161
147.14679	2463.0908
147.84749	2459.7676
148.54819	2492.0662
149.24889	2500.5
149.94958	2496.4412
150.6503	2492.8218
151.351	2504.7761
152.0517	2493.3049
152.7524	2474.0061
153.45309	2465.9436
154.15379	2463.6897
154.85449	2483.1653
155.55519	2489.7722
156.25591	2444.271
156.9566	2445.3342
157.6573	2487.9199
158.358	2504.0557
159.0587	2442.033
159.7594	2429.9761
160.4601	2417.74
161.16081	2415.3032
161.86151	2448.5005
162.56221	2458.7908
163.26291	2465.9983
163.96361	2478.054
164.66431	2433.7163
165.36501	2440.1035
166.0657	2443.5664
166.76642	2432.519
167.46712	2447.4744
168.16782	2430.7795
168.86852	2452.0901
169.56921	2441.3425
170.26991	2427.345
170.97061	2454.6848
171.67133	2457.479
172.37202	2454.3191
173.07272	2462.2622
173.77342	2464.2471
174.47412	2454.3784
175.17482	2433.0625
175.87552	2457.9958
176.57623	2470.4321
177.27693	2452.0271
177.97763	2477.1162
178.67833	2452.2004
179.37903	2460.0483
180.07973	2479.9897
180.78043	2471.1084
181.48112	2471.0364
182.18184	2440.3418
182.88254	2433.5129
183.58324	2450.615
184.28394	2445.3994
184.98463	2458.9402
185.68533	2488.0769
186.38603	2499.2261
187.08675	2468.4224
187.78745	2483.6792
188.48814	2452.834
189.18884	2459.5671
189.88954	2503.3179
190.59024	2493.0198
191.29094	2501.6074
191.99164	2507.7463
192.69235	2497.8801
193.39305	2480.5247
194.09375	2474.6575
194.79445	2494.2141
195.49515	2512.0327
196.19585	2505.8149
196.89655	2542.6106
197.59726	2545.8667
198.29796	2502.0212
198.99866	2525.6519
199.69936	2544.9351
200.40005	2552.1248
201.10075	2532.9683
201.80145	2555.8721
202.50215	2574.28
203.20287	2560.3547
203.90356	2540.0593
204.60426	2556.2166
205.30496	2567.5862
206.00566	2554.8486
206.70636	2585.2876
207.40706	2571.9216
208.10777	2589.0864
208.80847	2555.0505
209.50917	2602.4099
210.20987	2602.2244
210.91057	2575.7869
211.61127	2595.1523
212.31197	2577.3474
213.01266	2582.8743
213.71338	2600.781
214.41408	2629.5378
215.11478	2631.6155
215.81548	2632.8206
216.51617	2659.7222
217.21687	2659.405
217.91757	2644.3237
218.61829	2634.5557
219.31898	2661.7886
220.01968	2653.5132
220.72038	2669.6367
221.42108	2624.062
222.12178	2662.4324
222.82248	2691.9421
223.52319	2671.6282
224.22389	2670.8025
224.92459	2671.8066
225.62529	2686.9541
226.32599	2695.0349
227.02669	2710.1033
227.72739	2724.1235
228.42809	2713.7896
229.1288	2754.9146
229.8295	2751.1077
230.5302	2717.6138
231.2309	2775.6394
231.93159	2759.2849
232.63229	2813.7659
233.33299	2754.7737
234.03371	2758.8088
234.73441	2801.6116
235.4351	2817.2214
236.1358	2791.407
236.8365	2805.4424
237.5372	2830.8579
238.2379	2823.4663
238.9386	2828.105
239.63931	2838.7354
240.34001	2813.2061
241.04071	2839.6809
241.74141	2863.1042
242.44211	2881.6162
243.14281	2893.6709
243.84351	2866.5789
244.54422	2861.1104
245.24492	2883.272
245.94562	2865.1382
246.64632	2877.6548
247.34702	2911.3054
248.04771	2904.4312
248.74841	2902.4363
249.44911	2904.8406
250.14983	2915.5735
250.85052	2935.3657
251.55122	2944.032
252.25192	2967.3254
252.95262	2957.8721
253.65332	2930.7446
254.35402	2948.5818
255.05473	3012.4995
255.75543	2979.8252
256.45612	3005.8342
257.15683	3029.7434
257.85754	3035.3179
258.55823	3036.2151
259.25894	3030.0078
259.95963	3055.4319
260.66034	3075.1553
261.36102	3077.3452
262.06174	3056.2678
262.76245	3056.3633
263.46313	3097.1685
264.16385	3101.5801
264.86453	3107.0208
265.56525	3125.7043
266.26593	3136.551
266.96664	3134.5645
267.66733	3107.1924
268.36804	3141.0474
269.06876	3223.8303
269.76944	3191.5986
270.47015	3203.0938
271.17084	3164.7129
271.87155	3174.6843
272.57224	3167.0217
273.27295	3183.8799
273.97366	3233.0994
274.67435	3270.582
275.37506	3289.3413
276.07574	3291.9636
276.77646	3278.9343
277.47714	3253.0894
278.17786	3261.1211
278.87857	3294.8022
279.57925	3304.0955
280.27997	3291.738
280.98065	3278.6797
281.68137	3272.0544
282.38205	3366.7813
283.08276	3378.7437
283.78348	3349.0322
284.48416	3356.7798
285.18488	3364.1355
285.88556	3388.6375
286.58627	3381.0706
287.28696	3388.2117
287.98767	3436.2437
288.68835	3426.4429
289.38907	3382.8337
290.08978	3393.8738
290.79047	3438
291.49118	3459.4451
292.19186	3464.9629
292.89258	3507.9788
293.59326	3484.98
294.29398	3504.5684
294.99469	3505.8306
295.69537	3482.8345
296.39609	3518.2246
297.09677	3533.3557
297.79749	3550.4111
298.49817	3564.6694
299.19888	3561.9287
299.8996	3579.5615
300.60028	3596.7412
301.30099	3595.2017
302.00168	3597.1062
302.70239	3607.9143
303.40308	3649.2173
304.10379	3622.1499
304.8045	3610.728
305.50519	3650.7361
306.2059	3637.5244
306.90659	3666.1226
307.6073	3667.4749
308.30798	3679.4773
309.0087	3710.0771
309.70941	3679.4226
310.4101	3687.4658
311.11081	3699.5435
311.81149	3718.0295
312.51221	3730.6311
313.21289	3727.7351
313.9136	3725.2063
314.61429	3731.2991
315.315	3740.4009
316.01572	3765.9343
316.7164	3794.79
317.41711	3779.8279
318.1178	3807.1956
318.81851	3797.6682
319.5192	3774.583
320.21991	3804.3342
320.92062	3809.1348
321.62131	3888.0159
322.32202	3825.7705
323.02271	3873.2087
323.72342	3860.8843
324.4241	3864.2253
325.12482	3901.8132
325.82553	3913.5298
326.52621	3894.6973
327.22693	3889.2114
327.92761	3893.7329
328.62833	3881.3821
329.32901	3880.043
330.02972	3923.1482
330.73044	3954.8201
331.43112	3927.417
332.13184	3926.9949
332.83252	3942.2578
333.53323	3958.2163
334.23392	4001.0488
334.93463	4051.6001
335.63531	4078.595
336.33603	3991.897
337.03674	3992.5576
337.73743	4017.166
338.43814	4006.5818
339.13882	4021.5178
339.83954	4091.4124
340.54022	4072.1274
341.24094	4058.1667
341.94165	4045.0354
342.64233	4068.9246
343.34305	4102.8882
344.04373	4110.0391
344.74445	4142.1069
345.44513	4154.416
346.14584	4156.6445
346.84656	4142.1978
347.54724	4119.8696
348.24796	4179.4351
348.94864	4196.3237
349.64935	4163.3213
350.35004	4190.3096
351.05075	4171.8877
351.75146	4201.812
352.45215	4258.2158
353.15286	4273.2891
353.85355	4284.8545
354.55426	4288.8784
355.25494	4276.9263
355.95566	4281.3887
356.65637	4303.0342
357.35706	4283.0464
358.05777	4286.2095
358.75845	4320.6084
359.45917	4330.417
360.15985	4326.0205
360.86057	4324.7075
361.56125	4358.77
362.26196	4367.6309
362.96268	4382.3574
363.66336	4395.8608
364.36407	4390.1865
365.06476	4400.5347
365.76547	4412.7114
366.46616	4403.6704
367.16687	4402.2603
367.86758	4457.7788
368.56827	4424.7417
369.26898	4438.064
369.96967	4450.9478
370.67038	4478.2363
371.37106	4462.8618
372.07178	4512.3989
372.77249	4520.3599
373.47318	4499.6094
374.17389	4487.3032
374.87457	4480.98
375.57529	4495.166
376.27597	4512.9399
376.97668	4529.2935
377.6774	4568.8486
378.37808	4621.5757
379.0788	4574.1963
379.77948	4575.0693
380.48019	4616.936
381.18088	4597.6812
381.88159	4619.4526
382.58228	4578.4736
383.28299	4590.3657
383.9837	4600.8901
384.68439	4589.209
385.3851	4594.4282
386.08578	4654.8716
386.7865	4711.0762
387.48718	4637.8198
388.1879	4583.6914
388.88861	4633.7637
389.58929	4655.7739
390.29001	4637.9619
390.99069	4649.1235
391.69141	4702.2031
392.39209	4725.4966
393.0928	4718.1968
393.79352	4718.519
394.4942	4679.6855
395.19492	4682.9243
395.8956	4729.8857
396.59631	4762.7656
397.297	4740.6816
397.99771	4735.3091
398.69843	4711.5112
399.39911	4704.8237
400.09982	4735.5034
400.80051	4772.937
401.50122	4778.2822
402.2019	4843.9556
402.90262	4819.3232
403.60333	4793.4082
404.30402	4782.7793
405.00473	4804.8213
405.70541	4807.8828
406.40613	4834.8477
407.10681	4834.9204
407.80753	4824.4521
408.50821	4823.105
409.20892	4851.0977
409.90964	4858.6021
410.61032	4843.6738
411.31104	4839.5596
412.01172	4845.5288
412.71243	4880.853
413.41312	4856.0942
414.11383	4858.3984
414.81454	4891.6885
415.51523	4881.3481
416.21594	4855.6978
416.91663	4929.5151
417.61734	4903.4375
418.31802	4938.7461
419.01874	4954.3716
419.71945	4964.7642
420.42014	4901.3584
421.12085	4898.957
421.82153	4930.8242
422.52225	4971.5879
423.22293	4921.8618
423.92365	5004.8813
424.62436	5036.8652
425.32504	4985.6245
426.02576	4998.9932
426.72644	4999.4844
427.42715	5001.0859
428.12784	5032.9526
428.82855	5045.521
429.52924	5054.9111
430.22995	5032.4277
430.93066	4993.1943
431.63135	5021.5688
432.33206	5042.7319
433.03275	5059.4819
433.73346	5066.1279
434.43414	5055.4102
435.13486	5060.3457
435.83557	5059.2095
436.53625	5055.5991
437.23697	5062.5161
437.93765	5096.2793
438.63837	5083.1943
439.33905	5143.6699
440.03976	5100.7065
440.74048	5042.918
441.44116	5106.7046
442.14188	5118.624
442.84256	5107.5176
443.54327	5132.4365
444.24396	5070.7129
444.94467	5062.1348
445.64539	5085.3027
446.34607	5115.4644
447.04678	5090.8022
447.74747	5122.396
448.44818	5113.0781
449.14886	5094.02
449.84958	5102.1914
450.55029	5096.1577
451.25098	5086.9683
451.95169	5077.771
452.65237	5089.3511
453.35309	5076.667
454.05377	5030.9067
454.75449	5006.6025
455.45517	5013.9502
456.15588	5038.6523
456.8566	5081.6489
457.55728	5020.5493
458.258	5006.8135
458.95868	4990.7881
459.65939	4925.6279
460.36008	4999.8198
461.06079	4960.2305
461.76151	4972.4771
462.46219	4931.0391
463.1629	4929.3184
463.86359	4930.6943
464.5643	4893.1426
465.26498	4891.6978
465.9657	4870.9253
466.66641	4859.8857
467.3671	4828.1089
468.06781	4797.561
468.76849	4789.916
469.46921	4766.6704
470.16989	4785.4956
470.87061	4771.2246
471.57132	4749.6968
472.272	4696.5283
472.97272	4686.9277
473.6734	4685.4268
474.37411	4657.4751
475.0748	4684.853
475.77551	4701.1953
476.4762	4701.7798
477.17691	4679.021
477.87762	4655.2905
478.57831	4675.8232
479.27902	4705.6802
479.97971	4735.188
480.68042	4727.0757
481.3811	4685.0176
482.08182	4724.9883
482.78253	4789.9951
483.48322	4798.4971
484.18393	4837.7603
484.88461	4837.2183
485.58533	4796.9097
486.28601	4854.4688
486.98672	4860.2749
487.68744	4908.0146
488.38812	4905.3521
489.08884	4876.3711
489.78952	4855.2671
490.49023	4886.2788
491.19092	4844.5015
491.89163	4837.1777
492.59235	4828.4644
493.29303	4793.4429
493.99374	4781.9082
494.69443	4722.1475
495.39514	4659.5664
496.09583	4602.4976
496.79654	4547.9209
497.49725	4508.1201
498.19794	4454.8232
498.89865	4379.2515
499.59933	4310.0396
500.30005	4265.5439
501.00073	4203.8364
501.70145	4133.6689
502.40213	4079.9131
503.10284	3993.687
503.80356	3908.011
504.50424	3829.804
505.20496	3794.9282
505.90564	3719.2539
506.60635	3612.6716
507.30704	3592.0679
508.00775	3509.926
508.70847	3458.1235
509.40915	3380.2021
510.10986	3261.385
510.81055	3245.6353
511.51126	3176.7551
512.21198	3110.0813
512.91266	3014.2124
513.61334	2994.6836
514.31409	2920.8076
515.01477	2864.5513
515.71545	2819.5879
516.41614	2795.4326
517.11688	2709.6396
517.81757	2667.2195
518.51825	2605.2356
519.21899	2578.1152
519.91968	2549.6824
520.62036	2516.5728
521.32104	2450.1367
522.02179	2427.3328
522.72247	2387.7842
523.42316	2344.5708
524.1239	2313.3137
524.82458	2288.2947
525.52527	2253.5398
526.22595	2223.1765
526.9267	2206.1567
527.62738	2165.6079
528.32806	2120.2336
529.02881	2101.6467
529.72949	2086.7986
530.43018	2137.9683
531.13086	2135.1973
531.8316	2040.8198
532.53229	2004.1182
533.23297	1976.209
533.93372	1935.0306
534.6344	1916.0664
535.33508	1925.7103
536.03577	2147.031
536.73651	2396.0029
537.43719	1920.4045
538.13788	1848.5519
538.83856	1830.8575
539.53931	1795.3418
540.23999	1790.059
540.94067	1788.2401
541.64142	1747.3724
542.3421	1725.2555
543.04279	1714.3286
543.74347	1709.2019
544.44421	1692.6741
545.1449	1662.5833
545.84558	1652.1769
546.54633	1650.1787
547.24701	1618.4762
547.94769	1620.5493
548.64838	1625.8666
549.34912	1587.3439
550.0498	1558.7235
550.75049	1566.5265
551.45123	1531.9847
552.15192	1544.9163
552.8526	1534.4504
553.55328	1528.7521
554.25403	1513.855
554.95471	1502.1241
555.6554	1484.6149
556.35614	1461.204
557.05682	1445.9905
557.75751	1471.7968
558.45819	1452.4524
559.15894	1448.7502
559.85962	1420.2823
560.5603	1422.4833
561.26105	1415.2198
561.96173	1400.9877
562.66241	1398.0776
563.3631	1386.1975
564.06384	1375.9319
564.76453	1360.4188
565.46521	1356.0171
566.16595	1356.0673
566.86664	1354.9835
567.56732	1338.7723
568.26801	1332.2625
568.96875	1321.2772
569.66943	1308.0634
570.37012	1306.5825
571.07086	1289.3983
571.77155	1298.2256
572.47223	1303.9972
573.17291	1295.3395
573.87366	1290.9814
574.57434	1276.0352
575.27502	1270.5226
575.97577	1293.7239
576.67645	1282.319
577.37714	1276.4949
578.07782	1289.4414
578.77856	1277.8604
579.47925	1255.8125
580.17993	1257.9813
580.88062	1260.8923
581.58136	1274.8109
582.28204	1263.3524
582.98273	1266.9169
583.68347	1274.2733
584.38416	1269.6058
585.08484	1302.2085
585.78552	1300.5392
586.48627	1273.1163
587.18695	1282.5831
587.88763	1284.7468
588.58838	1304.6024
589.28906	1305.6713
589.98975	1329.476
590.69043	1320.2023
591.39117	1324.5365
592.09186	1349.1709
592.79254	1330.8326
593.49329	1355.0162
594.19397	1363.4144
594.89465	1379.1108
595.59534	1406.3016
596.29608	1424.5151
596.99677	1434.2635
597.69745	1454.474
598.39819	1464.6711
599.09888	1465.6346
599.79956	1487.2878
600.50024	1495.6476
601.20099	1488.3527
601.90167	1501.6671
602.60236	1489.1215
603.3031	1481.2123
604.00378	1488.2322
604.70447	1497.031
605.40515	1498.902
606.1059	1497.9213
606.80658	1498.2024
607.50726	1483.7742
608.20801	1482.5548
608.90869	1470.438
609.60938	1448.7029
610.31006	1424.0443
611.0108	1413.0028
611.71149	1394.1904
612.41217	1378.8861
613.11292	1359.7451
613.8136	1353.2949
614.51428	1338.1964
615.21497	1311.7883
615.91571	1278.6779
616.61639	1278.0619
617.31708	1276.5298
618.01782	1244.2882
618.71851	1215.4324
619.41919	1215.9569
620.11987	1193.3037
620.82062	1172.9188
621.5213	1146.09
622.22198	1107.6522
622.92273	1122.6267
623.62341	1110.7432
624.3241	1074.0935
625.02478	1053.6643
625.72552	1055.0315
626.42621	1046.9778
627.12689	1034.3959
627.82758	999.04803
628.52832	1011.377
629.229	996.75171
629.92969	973.03125
630.63043	970.08698
631.33112	958.12671
632.0318	954.7182
632.73248	940.83002
633.43323	934.49255
634.13391	928.3446
634.83459	904.26099
635.53534	892.0343
636.23602	889.51746
636.93671	890.54565
637.63739	872.44
638.33813	859.62939
639.03882	860.92151
639.7395	855.82526
640.44025	847.38403
641.14093	850.07635
641.84161	839.73279
642.5423	826.72675
643.24304	825.84961
643.94373	810.87231
644.64441	807.76489
645.34515	805.69647
646.04584	789.08752
646.74652	792.50299
647.4472	800.65179
648.14795	849.95416
648.84863	851.68774
649.54932	786.39697
650.25006	766.00995
650.95074	774.11517
651.65143	775.41754
652.35211	773.96991
653.05286	767.04462
653.75354	752.97919
654.45422	747.18787
655.15497	747.52435
655.85565	748.60486
656.55634	744.73969
657.25702	740.96057
657.95776	732.40027
658.65845	729.11273
659.35913	743.42487
660.05988	736.0957
660.76056	708.21094
661.46124	718.46649
662.16193	733.46826
662.86267	721.90527
663.56335	698.21954
664.26404	713.59882
664.96478	717.37225
665.66547	706.3454
666.36615	709.85553
667.06683	696.44287
667.76758	690.67615
668.46826	692.27014
669.16895	695.61761
669.86969	674.36395
670.57037	694.68073
671.27106	691.27698
671.97174	680.88019
672.67249	690.3335
673.37317	685.15643
674.07385	680.80676
674.77454	675.50336
675.47528	687.78448
676.17596	685.09656
676.87665	683.22986
677.57739	691.64569
678.27808	670.37366
678.97876	674.2168
679.67944	677.35425
680.38019	686.45221
681.08087	671.79285
681.78156	667.92242
682.4823	682.51727
683.18298	659.93451
683.88367	682.44556
684.58435	694.77991
685.2851	668.83264
685.98578	666.0379
686.68646	703.33466
687.38721	812.63416
688.08789	795.65533
688.78857	669.11328
689.48926	652.17969
690.19	664.12903
690.89069	656.10394
691.59137	651.86078
692.29211	651.40533
692.9928	665.05054
693.69348	650.99408
694.39417	660.9198
695.09491	660.38226
695.79559	642.84216
696.49628	651.75397
697.19702	645.67877
697.89771	657.45844
698.59839	657.56866
699.29907	653.79144
699.99982	652.65753
700.7005	651.54279
701.40118	644.27753
702.10193	648.14105
702.80261	662.18695
703.5033	654.20398
704.20398	659.09595
704.90472	649.71619
705.60541	651.81238
706.30609	655.58954
707.00684	653.01349
707.70752	658.03162
708.4082	648.34753
709.10889	653.01666
709.80963	648.07831
710.51031	657.48492
711.211	660.61627
711.91174	658.37787
712.61243	651.55676
713.31311	632.8847
714.01379	630.68304
714.71454	650.77484
715.41522	666.58618
716.11591	675.54926
716.81665	665.91272
717.51733	649.72699
718.21802	658.54315
718.9187	660.1806
719.61945	658.38312
720.32013	661.34943
721.02081	652.53986
721.7215	658.56055
722.42224	664.17676
723.12292	669.71277
723.82361	657.45929
724.52435	671.2688
725.22504	678.79657
725.92572	664.71057
726.6264	661.22656
727.32715	658.90051
728.02783	662.20886
728.72852	679.77942
729.42926	680.71771
730.12994	673.73816
730.83063	671.70166
731.53131	730.16632
732.23206	712.36035
732.93274	674.32593
733.63342	672.05591
734.33417	676.48938
735.03485	671.09094
735.73553	678.24817
736.43622	668.36792
737.13696	668.52704
737.83765	674.80554
738.53833	672.81555
739.23907	672.88654
739.93976	685.11414
740.64044	679.23395
741.34113	690.61761
742.04187	700.80273
742.74255	695.14111
743.44324	700.3847
744.14398	690.32971
744.84467	697.95331
745.54535	699.2832
746.24603	694.60034
746.94678	693.63635
747.64746	701.94366
748.34814	708.75079
749.04889	707.16553
749.74957	706.5929
750.45026	716.04486
751.15094	719.58673
751.85168	725.29608
752.55237	712.63513
753.25305	701.04974
753.9538	721.78992
754.65448	720.55914
755.35516	726.06915
756.05585	724.91364
756.75659	723.31812
757.45728	734.0672
758.15796	742.74152
758.8587	746.79205
759.55939	743.38147
760.26007	748.24603
760.96075	754.7002
761.6615	765.54932
762.36218	763.87982
763.06287	765.56268
763.76361	774.84521
764.46429	781.362
765.16498	791.60071
765.86566	794.55084
766.56641	791.23926
767.26709	802.8512
767.96777	829.05609
768.66846	845.36243
769.3692	855.4845
770.06989	855.59747
770.77057	890.83069
771.47131	906.67352
772.172	924.54578
772.87268	955.57971
773.57336	968.53107
774.27411	989.32489
774.97479	988.82166
775.67548	998.14868
776.37622	1023.2227
777.0769	1054.1531
777.77759	1055.8628
778.47827	1099.6211
779.17902	1107.5562
779.8797	1108.5925
780.58038	1131.1102
781.28113	1164.8427
781.98181	1170.4818
782.6825	1174.6088
783.38318	1196.3627
784.08392	1205.0532
784.78461	1207.9519
785.48529	1214.3395
786.18604	1232.4215
786.88672	1257.5201
787.5874	1248.1031
788.28809	1267.277
788.98883	1247.3429
789.68951	1260.069
790.3902	1264.4368
791.09094	1275.7388
791.79163	1276.4863
792.49231	1295.5911
793.19299	1281.8453
793.89374	1272.9338
794.59442	1286.1071
795.2951	1281.2373
795.99585	1283.0991
796.69653	1295.8477
797.39722	1315.0146
798.0979	1309.3274
798.79865	1324.0472
799.49933	1295.6307
800.20001	1321.2518
800.90076	1281.0988
801.60144	1299.2271
802.30212	1279.8199
803.00281	1305.5585
803.70355	1273.4209
804.40424	1300.6711
805.10492	1299.4792
805.80566	1270.618
806.50635	1276.7631
807.20703	1266.9547
807.90771	1262.9528
808.60846	1236.2877
809.30914	1274.3048
810.00983	1275.4656
810.71057	1270.1382
811.41125	1271.8939
812.11194	1240.3732
812.81262	1220.8698
813.51337	1224.5454
814.21405	1250.4532
814.91473	1245.1581
815.61542	1255.3735
816.31616	1230.939
817.01685	1218.9803
817.71753	1217.7532
818.41827	1229.1809
819.11896	1231.7657
819.81964	1231.0157
820.52032	1193.7488
821.22107	1195.7233
821.92175	1187.5052
822.62244	1182.2709
823.32318	1188.6274
824.02386	1187.0343
824.72455	1185.1332
825.42523	1181.7411
826.12598	1172.7876
826.82666	1151.3984
827.52734	1145.3623
828.22809	1128.4927
828.92877	1143.1946
829.62946	1143.7949
830.33014	1133.4377
831.03088	1111.8528
831.73157	1090.2595
832.43225	1072.1288
833.133	1078.5604
833.83368	1095.7404
834.53436	1078.8101
835.23505	1071.5427
835.93579	1063.4362
836.63647	1045.6791
837.33716	1009.4095
838.0379	1014.4582
838.73859	1041.6395
839.43927	1017.4511
840.13995	984.37592
840.8407	957.49609
841.54138	956.57861
842.24207	970.98761
842.94281	984.03876
843.64349	953.40784
844.34418	920.28802
845.04486	920.82013
845.74561	913.73981
846.44629	903.65527
847.14697	888.40466
847.84772	862.97089
848.5484	860.13702
849.24908	836.02954
849.94977	797.38843
850.65051	804.61609
851.3512	790.39526
852.05188	787.02997
852.75262	757.26733
853.45331	749.19135
854.15399	737.95386
854.85468	736.4516
855.55542	721.26898
856.2561	704.38568
856.95679	694.11426
857.65753	685.65253
858.35822	699.21893
859.0589	662.13141
859.75958	626.75049
860.46033	631.93506
861.16101	616.5083
861.86169	606.01245
862.56238	606.41498
863.26312	588.3501
863.96381	583.48224
864.66449	566.28442
865.36523	564.57611
866.06592	564.16205
866.7666	577.71564
867.46729	559.01312
868.16803	543.86621
868.86871	539.18829
869.5694	533.7868
870.27014	537.63354
870.97083	534.55225
871.67151	537.49896
872.37219	524.32434
873.07294	516.43207
873.77362	517.16669
874.4743	503.7066
875.17505	502.88666
875.87573	505.13455
876.57642	492.28665
877.2771	485.41724
877.97784	491.30978
878.67853	508.03885
879.37921	518.38879
880.07996	506.09039
880.78064	492.16284
881.48132	501.01425
882.18201	494.07083
882.88275	490.24954
883.58344	487.21429
884.28412	495.10037
884.98486	483.87744
885.68555	479.74106
886.38623	471.01678
887.08691	474.99677
887.78766	482.91852
888.48834	476.62808
889.18903	470.92102
889.88977	470.90048
890.59045	480.11984
891.29114	456.75748
891.99182	468.69553
892.69257	475.40887
893.39325	474.38309
894.09393	468.57883
894.79468	467.09186
895.49536	476.37976
896.19604	475.83554
896.89673	460.54013
897.59747	455.90182
898.29816	466.84784
898.99884	461.49118
899.69958	468.70557
900.40027	478.59048
901.10095	463.95908
901.80164	457.1517
902.50238	459.89246
903.20306	463.80524
903.90375	469.87234
904.60449	457.01071
905.30518	448.90848
906.00586	451.70105
906.70654	451.73224
907.40729	454.60507
908.10797	456.32867
908.80865	459.61661
909.50934	457.48795
910.21008	447.27121
910.91077	442.6676
911.61145	449.40836
912.31219	456.97159
913.01288	459.43359
913.71356	454.74313
914.41425	447.03439
915.11499	440.77475
915.81567	443.08905
916.51636	432.55786
917.2171	434.95898
917.91779	445.48914
918.61847	446.21121
919.31915	459.06027
920.0199	452.41846
920.72058	438.09067
921.42126	445.70996
922.12201	435.59375
922.82269	431.80136
923.52338	433.85214
924.22406	431.34805
924.9248	425.66821
925.62549	437.66562
926.32617	432.26978
927.02692	426.06406
927.7276	431.13724
928.42828	422.28543
929.12897	421.8114
929.82971	431.73114
930.5304	427.85959
931.23108	433.03574
931.93182	429.84641
932.63251	417.5665
933.33319	416.13632
934.03387	420.14722
934.73462	419.82349
935.4353	423.89297
936.13599	423.54538
936.83673	416.7605
937.53741	421.33618
938.2381	415.71686
938.93878	411.27078
939.63953	415.64459
940.34021	423.91071
941.04089	421.36569
941.74164	415.03735
942.44232	410.23969
943.14301	408.44595
943.84369	411.81372
944.54443	426.38467
945.24512	408.70425
945.9458	408.61273
946.64655	395.88394
947.34723	408.05185
948.04791	417.19418
948.7486	406.55618
949.44934	404.92145
950.15002	403.96371
950.85071	400.47366
951.55145	405.84326
952.25214	392.37729
952.95282	394.74454
953.6535	397.25204
954.35425	400.32388
955.05493	396.50525
955.75562	388.53217
956.4563	392.62512
957.15704	396.767
957.85773	398.35391
958.55841	397.81461
959.25916	388.28949
959.95984	395.3241
960.66052	396.71625
961.36121	391.3129
962.06195	391.96204
962.76263	389.99207
963.46332	401.36969
964.16406	394.73923
964.86475	396.83975
965.56543	391.38361
966.26611	389.7576
966.96686	373.88831
967.66754	383.31702
968.36823	392.0791
969.06897	396.29315
969.76965	403.00092
970.47034	395.25873
971.17102	386.61295
971.87177	379.89975
972.57245	391.23309
973.27313	390.44147
973.97388	389.35809
974.67456	395.43222
975.37524	392.48593
976.07593	391.31686
976.77667	392.78574
977.47736	389.74249
978.17804	398.62305
978.87878	397.83163
979.57947	392.0419
980.28015	390.27042
980.98083	392.34534
981.68158	389.19116
982.38226	394.50882
983.08295	398.11615
983.78369	399.71469
984.48438	392.18512
985.18506	401.57523
985.88574	397.5127
986.58649	385.64352
987.28717	386.89166
987.98785	391.63449
988.6886	381.58203
989.38928	391.23969
990.08997	396.04071
990.79065	401.5611
991.49139	391.92947
992.19208	401.5144
992.89276	403.98019
993.59351	394.07101
994.29419	391.72598
994.99487	394.97461
995.69556	393.62125
996.3963	398.21115
997.09698	404.51041
997.79767	410.61243
998.49841	402.46393
999.1991	402.96936
999.89978	409.55591
1000.6005	418.67914
1001.3012	411.88455
1002.0019	406.10861
1002.7026	405.48102
1003.4033	409.41098
1004.104	406.73538
1004.8047	403.93341
1005.5054	413.9343
1006.2061	420.40082
1006.9068	427.98529
1007.6075	425.33307
1008.3082	428.48349
1009.0089	435.40527
1009.7096	435.56146
1010.4103	435.05319
1011.111	435.49765
1011.8117	429.62048
1012.5124	443.2196
1013.2131	452.51843
1013.9138	447.82834
1014.6145	449.77902
1015.3152	459.40576
1016.0159	453.86505
1016.7166	463.96088
1017.4173	460.6481
1018.118	470.41003
1018.8187	476.87991
1019.5194	475.68869
1020.2201	477.6705
1020.9208	487.47916
1021.6215	483.0051
1022.3222	485.83975
1023.0229	486.90009
1023.7236	478.47079
1024.4243	493.11191
1025.125	501.29861
1025.8257	504.4249
1026.5264	508.07678
1027.2272	508.15268
1027.9279	516.79346
1028.6285	530.33008
1029.3292	532.3902
1030.0299	535.14667
1030.7306	529.82983
1031.4313	536.91779
1032.1321	545.69128
1032.8328	556.13574
1033.5334	552.35736
1034.2341	554.5321
1034.9348	564.79553
1035.6355	561.83307
1036.3362	573.38208
1037.037	563.73724
1037.7377	577.87354
1038.4384	579.06952
1039.139	585.09204
1039.8397	593.92578
1040.5404	587.26855
1041.2411	604.89838
1041.9419	588.39783
1042.6426	590.45581
1043.3433	595.58923
1044.0439	594.42603
1044.7446	595.80951
1045.4453	605.98474
1046.146	607.7182
1046.8468	615.54358
1047.5475	621.9884
1048.2482	617.94678
1048.9489	631.55371
1049.6495	631.05609
1050.3502	638.27032
1051.0509	649.323
1051.7517	649.75391
1052.4524	639.8717
1053.1531	649.146
1053.8538	629.38629
1054.5544	632.22174
1055.2551	626.90558
1055.9558	639.315
1056.6566	637.20715
1057.3573	646.32855
1058.058	642.07391
1058.7587	654.47101
1059.4594	641.43719
1060.16	648.68268
1060.8607	643.59808
1061.5615	641.54126
1062.2622	645.00104
1062.9629	635.54193
1063.6636	627.79071
1064.3643	627.88739
1065.0649	628.92407
1065.7656	634.61151
1066.4664	646.77362
1067.1671	639.82013
1067.8678	636.50262
1068.5685	632.02081
1069.2692	632.50275
1069.9698	620.47382
1070.6705	623.42291
1071.3713	630.38049
1072.072	639.9942
1072.7727	628.35828
1073.4734	612.92627
1074.1741	621.43994
1074.8748	609.5968
1075.5754	615.24719
1076.2761	617.71118
1076.9769	704.30298
1077.6776	791.42883
1078.3783	627.52051
1079.079	611.6723
1079.7797	609.55627
1080.4803	605.56567
1081.181	602.31091
1081.8818	597.51904
1082.5825	590.13928
1083.2832	590.26556
1083.9839	599.09973
1084.6846	589.35913
1085.3853	580.40845
1086.0859	572.2962
1086.7867	574.08258
1087.4874	557.5658
1088.1881	570.18787
1088.8888	595.33252
1089.5895	556.7735
1090.2902	574.73993
1090.9908	551.54059
1091.6917	541.45251
1092.3923	549.84479
1093.093	545.00793
1093.7937	536.78961
1094.4944	547.46136
1095.1951	549.58282
1095.8958	541.71692
1096.5966	529.8844
1097.2972	530.96399
1097.9979	529.19409
1098.6986	531.40344
1099.3993	524.51416
1100.1	521.22565
1100.8007	544.50519
1101.5015	543.88324
1102.2021	521.36865
1102.9028	523.19739
1103.6035	508.51846
1104.3042	525.71313
1105.0049	512.1051
1105.7056	486.375
1106.4064	491.78357
1107.1071	489.51825
1107.8077	486.25732
1108.5084	509.5752
1109.2091	502.92429
1109.9098	499.75623
1110.6105	498.78107
1111.3113	488.91721
1112.012	481.23608
1112.7126	480.55521
1113.4133	475.91867
1114.114	478.58075
1114.8147	488.21634
1115.5154	484.98679
1116.2162	478.41534
1116.9169	481.47415
1117.6176	493.82367
1118.3182	485.53119
1119.0189	483.47406
1119.7196	472.73953
1120.4203	481.21011
1121.1211	483.66086
1121.8218	483.5968
1122.5225	495.71057
1123.2231	483.04782
1123.9238	469.85513
1124.6245	484.22256
1125.3252	492.56531
1126.026	476.36258
1126.7267	472.02866
1127.4274	484.79858
1128.1281	482.04373
1128.8287	477.37509
1129.5294	476.10864
1130.2301	474.26132
1130.9309	484.36658
1131.6316	482.64322
1132.3323	475.16147
1133.033	479.68109
1133.7336	597.13049
1134.4343	547.79041
1135.135	496.09631
1135.8358	485.53525
1136.5365	487.56635
1137.2372	489.84698
1137.9379	489.034
1138.6385	477.13849
1139.3392	482.38083
1140.0399	472.48657
1140.7407	471.50436
1141.4414	473.79059
1142.1421	455.7699
1142.8428	456.61349
1143.5435	471.59106
1144.2441	470.14911
1144.9448	470.17136
1145.6456	475.31705
1146.3463	477.67648
1147.047	471.82419
1147.7477	459.08328
1148.4484	468.47314
1149.149	461.0853
1149.8497	469.56265
1150.5505	485.88562
1151.2512	475.8205
1151.9519	469.47699
1152.6526	470.00677
1153.3533	469.24622
1154.054	466.37335
1154.7546	473.55505
1155.4554	473.55911
1156.1561	472.69073
1156.8568	475.4082
1157.5575	472.85297
1158.2582	463.57458
1158.9589	475.96802
1159.6595	470.3898
1160.3604	483.97488
1161.061	474.42294
1161.7617	450.35513
1162.4624	478.75406
1163.1631	473.65765
1163.8638	459.3403
1164.5645	471.1651
1165.2653	476.03482
1165.9659	471.84732
1166.6666	470.37094
1167.3673	470.62598
1168.068	476.06305
1168.7687	477.91837
1169.4694	475.89297
1170.17	473.05032
1170.8708	477.75562
1171.5715	461.79541
1172.2722	460.17465
1172.9729	475.11679
1173.6736	481.77298
1174.3743	478.93958
1175.075	457.80676
1175.7758	452.3511
1176.4764	479.54785
1177.1771	472.57675
1177.8778	464.19818
1178.5785	472.14206
1179.2792	466.8255
1179.9799	471.07098
1180.6807	470.90402
1181.3813	467.13675
1182.082	468.47107
1182.7827	472.59375
1183.4834	474.02011
1184.1841	473.64166
1184.8848	486.47168
1185.5856	486.02097
1186.2863	477.34372
1186.9869	476.75244
1187.6876	480.40857
1188.3883	479.91696
1189.089	483.51935
1189.7897	495.60489
1190.4905	468.37405
1191.1912	460.21518
1191.8918	472.76532
1192.5925	472.90881
1193.2932	471.88513
1193.9939	465.09924
1194.6946	478.4223
1195.3954	467.5748
1196.0961	467.64337
1196.7968	464.026
1197.4974	464.32156
1198.1981	464.29102
1198.8988	464.93411
1199.5995	463.229
1200.3003	462.06271
1201.001	450.02798
1201.7017	465.06479
1202.4023	464.24274
1203.103	457.77042
1203.8037	459.18399
1204.5044	448.58353
1205.2052	463.28342
1205.9059	462.92273
1206.6066	457.26422
1207.3073	448.05472
1208.0079	438.22153
1208.7086	437.86649
1209.4093	433.57901
1210.1101	435.34875
1210.8108	429.02972
1211.5115	432.67114
1212.2122	451.76764
1212.9128	441.92438
1213.6135	437.12503
1214.3142	433.49557
1215.015	435.13757
1215.7157	444.30533
1216.4164	442.58817
1217.1171	439.98544
1217.8177	436.79797
1218.5184	420.39331
1219.2191	424.29269
1219.9199	414.56506
1220.6206	431.62003
1221.3213	444.82651
1222.022	415.20514
1222.7227	415.36761
1223.4233	420.85355
1224.124	407.95789
1224.8248	419.99277
1225.5255	414.23651
1226.2262	430.35962
1226.9269	428.6778
1227.6276	410.49985
1228.3282	401.6636
1229.0289	401.07648
1229.7297	400.68466
1230.4304	401.37357
1231.1311	399.56277
1231.8318	400.13437
1232.5325	390.48444
1233.2332	394.99661
1233.9338	382.65234
1234.6346	396.1958
1235.3353	383.37665
1236.036	386.64578
1236.7367	397.64252
1237.4374	398.76498
1238.1381	383.02347
1238.8387	375.1922
1239.5396	371.93445
1240.2402	375.96262
1240.9409	352.91385
1241.6416	361.55432
1242.3423	368.4144
1243.043	350.55954
1243.7437	352.32306
1244.4445	349.20139
1245.1451	351.17563
1245.8458	360.45123
1246.5465	352.85367
1247.2472	349.31479
1247.9479	356.2681
1248.6486	351.9696
1249.3494	347.40234
1250.05	342.61368
1250.7507	338.34006
1251.4514	335.26154
1252.1521	334.87805
1252.8528	331.89667
1253.5535	325.1571
1254.2543	333.12704
1254.955	330.50204
1255.6556	319.73462
1256.3563	312.27847
1257.057	314.49722
1257.7577	304.05298
1258.4584	307.56219
1259.1592	310.84009
1259.8599	302.93335
1260.5605	299.69928
1261.2612	307.18039
1261.9619	298.56161
1262.6626	305.97101
1263.3633	305.67841
1264.064	308.6073
1264.7648	281.71973
1265.4655	293.10938
1266.1661	289.80127
1266.8668	285.75256
1267.5675	283.37451
1268.2682	283.52686
1268.9689	284.8757
1269.6697	275.31824
1270.3704	272.64313
1271.071	276.00037
1271.7717	277.82529
1272.4724	282.70883
1273.1731	268.2319
1273.8738	262.72549
1274.5746	261.97549
1275.2753	273.77609
1275.976	277.80484
1276.6766	270.24463
1277.3773	275.84689
1278.078	263.21179
1278.7787	259.85452
1279.4795	258.87549
1280.1802	259.22156
1280.8809	260.57251
1281.5815	263.96313
1282.2822	259.72635
1282.9829	263.04395
1283.6836	255.82358
1284.3844	263.71857
1285.0851	258.63013
1285.7858	256.17517
1286.4865	259.37103
1287.1871	257.21152
1287.8878	258.77869
1288.5885	257.00626
1289.2893	253.05293
1289.99	258.78506
1290.6907	260.83438
1291.3914	255.71153
1292.092	259.63046
1292.7927	258.39139
1293.4934	261.41
1294.1942	260.5455
1294.8949	263.71869
1295.5956	260.81778
1296.2963	255.96721
1296.9969	256.65796
1297.6976	257.71252
1298.3983	260.98972
1299.0991	311.06601
1299.7998	288.86575
1300.5005	251.99728
1301.2012	243.29471
1301.9019	249.35425
1302.6025	251.86517
1303.3032	244.12187
1304.004	246.2944
1304.7047	251.00041
1305.4054	258.00067
1306.1061	250.51404
1306.8068	252.0229
1307.5074	255.59048
1308.2081	258.86063
1308.9089	247.32272
1309.6096	243.02638
1310.3103	249.67062
1311.011	271.42224
1311.7117	260.31131
1312.4124	259.62485
1313.113	259.52631
1313.8138	255.71733
1314.5145	249.10539
1315.2152	242.80544
1315.9159	236.33592
1316.6166	237.26387
1317.3173	240.82439
1318.0179	247.83401
1318.7188	244.53636
1319.4194	243.16817
1320.1201	248.78777
1320.8208	241.4046
1321.5215	241.94212
1322.2222	234.87834
1322.9229	249.41983
1323.6237	249.45459
1324.3243	244.32065
1325.025	249.68843
1325.7257	235.5468
1326.4264	244.07536
1327.1271	243.27373
1327.8278	241.03252
1328.5286	244.90433
1329.2292	242.87527
1329.9299	247.38803
1330.6306	247.44476
1331.3313	249.12839
1332.032	234.97092
1332.7327	234.54643
1333.4335	248.15483
1334.1342	245.03766
1334.8348	245.00523
1335.5355	241.91754
1336.2362	236.53763
1336.9369	249.10732
1337.6376	240.08762
1338.3384	232.46155
1339.0391	242.23897
1339.7397	239.90398
1340.4404	238.86613
1341.1411	247.86305
1341.8418	252.50795
1342.5425	250.29692
1343.2433	286.63434
1343.944	514.60852
1344.6447	345.36801
1345.3453	257.18991
1346.046	247.67906
1346.7467	248.72701
1347.4474	244.98839
1348.1482	235.11258
1348.8489	235.03587
1349.5496	238.0349
1350.2502	234.63293
1350.9509	232.39349
1351.6516	242.89352
1352.3523	241.76118
1353.0531	231.04286
1353.7538	237.32376
1354.4545	236.15393
1355.1552	236.39178
1355.8558	243.45543
1356.5565	242.34142
1357.2572	240.48579
1357.9579	241.92834
1358.6587	233.50241
1359.3594	237.29446
1360.0601	239.08919
1360.7607	239.77127
1361.4614	226.15062
1362.1621	240.44221
1362.8628	239.94061
1363.5636	244.55856
1364.2643	237.14682
1364.965	238.26491
1365.6656	240.96577
1366.3663	236.30435
1367.067	235.39198
1367.7677	234.94458
1368.4685	233.01671
1369.1692	246.05165
1369.8699	234.82596
1370.5706	231.7197
1371.2712	233.02594
1371.9719	232.42955
1372.6726	236.51012
1373.3734	241.17531
1374.0741	243.10486
1374.7748	236.03456
1375.4755	242.38396
1376.1761	242.83311
1376.8768	227.89905
1377.5775	250.10472
1378.2783	231.68861
1378.979	250.9399
1379.6797	251.35101
1380.3804	233.6859
1381.0811	231.72833
1381.7817	230.81592
1382.4824	238.59273
1383.1832	236.52614
1383.8839	225.56421
1384.5846	236.50101
1385.2853	241.88795
1385.986	231.69794
1386.6866	236.27074
1387.3873	246.79572
1388.0881	238.23866
1388.7888	230.84879
1389.4895	230.30293
1390.1902	226.63672
1390.8909	230.47188
1391.5916	238.89265
1392.2922	229.1769
1392.993	230.78836
1393.6937	248.23822
1394.3944	247.14503
1395.0951	243.45723
1395.7958	237.26595
1396.4965	238.52898
1397.1971	240.87817
1397.8979	230.237
1398.5986	230.37491
1399.2993	228.45512
1400	240.2025
