  124.500  .25882E+01
  125.200  .25123E+01
  125.900  .24502E+01
  126.600  .24343E+01
  127.300  .23782E+01
  128.000  .24047E+01
  128.600  .24045E+01
  129.300  .24479E+01
  130.000  .25187E+01
  130.700  .25466E+01
  131.400  .25733E+01
  132.100  .26001E+01
  132.800  .25689E+01
  133.500  .25775E+01
  134.200  .25083E+01
  134.900  .25216E+01
  135.600  .25436E+01
  136.300  .25692E+01
  136.900  .25483E+01
  137.600  .25869E+01
  138.300  .25939E+01
  139.000  .26901E+01
  139.700  .28217E+01
  140.400  .28741E+01
  141.100  .28559E+01
  141.800  .28291E+01
  142.500  .28065E+01
  143.200  .27670E+01
  143.900  .27547E+01
  144.500  .27222E+01
  145.200  .27156E+01
  145.900  .27274E+01
  146.600  .28074E+01
  147.300  .27736E+01
  148.000  .28401E+01
  148.700  .28742E+01
  149.400  .28520E+01
  150.100  .28422E+01
  150.800  .28547E+01
  151.500  .28760E+01
  152.100  .28896E+01
  152.800  .29018E+01
  153.500  .29125E+01
  154.200  .29396E+01
  154.900  .29648E+01
  155.600  .30912E+01
  156.300  .31203E+01
  157.000  .30466E+01
  157.700  .30667E+01
  158.400  .30847E+01
  159.000  .30011E+01
  159.700  .30252E+01
  160.400  .29894E+01
  161.100  .30125E+01
  161.800  .30837E+01
  162.500  .31073E+01
  163.200  .31102E+01
  163.900  .31861E+01
  164.600  .31454E+01
  165.200  .31470E+01
  165.900  .31812E+01
  166.600  .31917E+01
  167.300  .31173E+01
  168.000  .32029E+01
  168.700  .31694E+01
  169.400  .32370E+01
  170.100  .32299E+01
  170.800  .32328E+01
  171.400  .33590E+01
  172.100  .33945E+01
  172.800  .33781E+01
  173.500  .33059E+01
  174.200  .33501E+01
  174.900  .33515E+01
  175.600  .33312E+01
  176.300  .33662E+01
  177.000  .33867E+01
  177.600  .34113E+01
  178.300  .35086E+01
  179.000  .34712E+01
  179.700  .35161E+01
  180.400  .35433E+01
  181.100  .34662E+01
  181.800  .35112E+01
  182.500  .35399E+01
  183.100  .35454E+01
  183.800  .35724E+01
  184.500  .35872E+01
  185.200  .35953E+01
  185.900  .37315E+01
  186.600  .36881E+01
  187.300  .37564E+01
  188.000  .37736E+01
  188.600  .36863E+01
  189.300  .37026E+01
  190.000  .38038E+01
  190.700  .37995E+01
  191.400  .38262E+01
  192.100  .38541E+01
  192.800  .38553E+01
  193.500  .38894E+01
  194.100  .38373E+01
  194.800  .38355E+01
  195.500  .38418E+01
  196.200  .38660E+01
  196.900  .40263E+01
  197.600  .39663E+01
  198.300  .40833E+01
  199.000  .39775E+01
  199.600  .39793E+01
  200.300  .41411E+01
  201.000  .41086E+01
  201.700  .41348E+01
  202.400  .41634E+01
  203.100  .41567E+01
  203.800  .42162E+01
  204.400  .42293E+01
  205.100  .43208E+01
  205.800  .42648E+01
  206.500  .42702E+01
  207.200  .43677E+01
  207.900  .43911E+01
  208.600  .44553E+01
  209.200  .44433E+01
  209.900  .45458E+01
  210.600  .45283E+01
  211.300  .45213E+01
  212.000  .44978E+01
  212.700  .46046E+01
  213.400  .46059E+01
  214.000  .46354E+01
  214.700  .46529E+01
  215.400  .46792E+01
  216.100  .46735E+01
  216.800  .47411E+01
  217.500  .48797E+01
  218.200  .48336E+01
  218.800  .48692E+01
  219.500  .48193E+01
  220.200  .49206E+01
  220.900  .48953E+01
  221.600  .50356E+01
  222.300  .50944E+01
  222.900  .51654E+01
  223.600  .50382E+01
  224.300  .51290E+01
  225.000  .51928E+01
  225.700  .52656E+01
  226.400  .52135E+01
  227.100  .52710E+01
  227.700  .53030E+01
  228.400  .53741E+01
  229.100  .53477E+01
  229.800  .53657E+01
  230.500  .53529E+01
  231.200  .55115E+01
  231.800  .54897E+01
  232.500  .56088E+01
  233.200  .55975E+01
  233.900  .56024E+01
  234.600  .57173E+01
  235.300  .57390E+01
  235.900  .58108E+01
  236.600  .58128E+01
  237.300  .58949E+01
  238.000  .58657E+01
  238.700  .59984E+01
  239.400  .60318E+01
  240.000  .61108E+01
  240.700  .60969E+01
  241.400  .60491E+01
  242.100  .62189E+01
  242.800  .63532E+01
  243.500  .62936E+01
  244.100  .62656E+01
  244.800  .62389E+01
  245.500  .64065E+01
  246.200  .65174E+01
  246.900  .66060E+01
  247.600  .66801E+01
  248.200  .66161E+01
  248.900  .67260E+01
  249.600  .67482E+01
  250.300  .67309E+01
  251.000  .67717E+01
  251.700  .68629E+01
  252.300  .70208E+01
  253.000  .70174E+01
  253.700  .70084E+01
  254.400  .69529E+01
  255.100  .71404E+01
  255.700  .71934E+01
  256.400  .72325E+01
  257.100  .72698E+01
  257.800  .73491E+01
  258.500  .74873E+01
  259.200  .74467E+01
  259.800  .74827E+01
  260.500  .76080E+01
  261.200  .76001E+01
  261.900  .77211E+01
  262.600  .77620E+01
  263.200  .77820E+01
  263.900  .78649E+01
  264.600  .80209E+01
  265.300  .80092E+01
  266.000  .80124E+01
  266.700  .79882E+01
  267.300  .82150E+01
  268.000  .81909E+01
  268.700  .82136E+01
  269.400  .83650E+01
  270.100  .85115E+01
  270.700  .84390E+01
  271.400  .83798E+01
  272.100  .85256E+01
  272.800  .86827E+01
  273.500  .87207E+01
  274.100  .87668E+01
  274.800  .88750E+01
  275.500  .90542E+01
  276.200  .89522E+01
  276.900  .92207E+01
  277.500  .90000E+01
  278.200  .91125E+01
  278.900  .92681E+01
  279.600  .94888E+01
  280.300  .95422E+01
  280.900  .95783E+01
  281.600  .95068E+01
  282.300  .95992E+01
  283.000  .97160E+01
  283.700  .96212E+01
  284.300  .98573E+01
  285.000  .99296E+01
  285.700  .99046E+01
  286.400  .98254E+01
  287.100  .98976E+01
  287.700  .10123E+02
  288.400  .10240E+02
  289.100  .10266E+02
  289.800  .10187E+02
  290.500  .10110E+02
  291.100  .10200E+02
  291.800  .10581E+02
  292.500  .10683E+02
  293.200  .10659E+02
  293.900  .10657E+02
  294.500  .10550E+02
  295.200  .10701E+02
  295.900  .10903E+02
  296.600  .10954E+02
  297.300  .10878E+02
  297.900  .11054E+02
  298.600  .11028E+02
  299.300  .11381E+02
  300.000  .11463E+02
  300.600  .11417E+02
  301.300  .11529E+02
  302.000  .11498E+02
  302.700  .11550E+02
  303.400  .11716E+02
  304.000  .11704E+02
  304.700  .11790E+02
  305.400  .11755E+02
  306.100  .11841E+02
  306.800  .11864E+02
  307.400  .12138E+02
  308.100  .12192E+02
  308.800  .12214E+02
  309.500  .12331E+02
  310.100  .12263E+02
  310.800  .12216E+02
  311.500  .12373E+02
  312.200  .12581E+02
  312.900  .12663E+02
  313.500  .12530E+02
  314.200  .12756E+02
  314.900  .12855E+02
  315.600  .13036E+02
  316.200  .12684E+02
  316.900  .13183E+02
  317.600  .13298E+02
  318.300  .13290E+02
  318.900  .13215E+02
  319.600  .13427E+02
  320.300  .13427E+02
  321.000  .13543E+02
  321.700  .13731E+02
  322.300  .13393E+02
  323.000  .13806E+02
  323.700  .13970E+02
  324.400  .14018E+02
  325.000  .13941E+02
  325.700  .14170E+02
  326.400  .14195E+02
  327.100  .14061E+02
  327.700  .14101E+02
  328.400  .14306E+02
  329.100  .14463E+02
  329.800  .14658E+02
  330.500  .14699E+02
  331.100  .14642E+02
  331.800  .14980E+02
  332.500  .14872E+02
  333.200  .15066E+02
  333.800  .14839E+02
  334.500  .15260E+02
  335.200  .15141E+02
  335.900  .15344E+02
  336.500  .15254E+02
  337.200  .15577E+02
  337.900  .15817E+02
  338.600  .15587E+02
  339.200  .15899E+02
  339.900  .15597E+02
  340.600  .15735E+02
  341.300  .15836E+02
  341.900  .16260E+02
  342.600  .15917E+02
  343.300  .16013E+02
  344.000  .16272E+02
  344.600  .16299E+02
  345.300  .16663E+02
  346.000  .16649E+02
  346.700  .16496E+02
  347.300  .16575E+02
  348.000  .16751E+02
  348.700  .16680E+02
  349.400  .17164E+02
  350.000  .17070E+02
  350.700  .17293E+02
  351.400  .17048E+02
  352.100  .17422E+02
  352.700  .17487E+02
  353.400  .17438E+02
  354.100  .17543E+02
  354.800  .18025E+02
  355.400  .17952E+02
  356.100  .17940E+02
  356.800  .18177E+02
  357.500  .18038E+02
  358.100  .18139E+02
  358.800  .18216E+02
  359.500  .18411E+02
  360.200  .18690E+02
  360.800  .19010E+02
  361.500  .18820E+02
  362.200  .18504E+02
  362.800  .19169E+02
  363.500  .18897E+02
  364.200  .19314E+02
  364.900  .19477E+02
  365.500  .19587E+02
  366.200  .19257E+02
  366.900  .19604E+02
  367.600  .19768E+02
  368.200  .19737E+02
  368.900  .19811E+02
  369.600  .20193E+02
  370.300  .20180E+02
  370.900  .20148E+02
  371.600  .20501E+02
  372.300  .20350E+02
  372.900  .20732E+02
  373.600  .21044E+02
  374.300  .20427E+02
  375.000  .20965E+02
  375.600  .20891E+02
  376.300  .21199E+02
  377.000  .21414E+02
  377.700  .21687E+02
  378.300  .21464E+02
  379.000  .22023E+02
  379.700  .21956E+02
  380.300  .21935E+02
  381.000  .22092E+02
  381.700  .22386E+02
  382.400  .22072E+02
  383.000  .22583E+02
  383.700  .22956E+02
  384.400  .22793E+02
  385.000  .22962E+02
  385.700  .23184E+02
  386.400  .23430E+02
  387.100  .23469E+02
  387.700  .23686E+02
  388.400  .23762E+02
  389.100  .23736E+02
  389.800  .24292E+02
  390.400  .24157E+02
  391.100  .24295E+02
  391.800  .24171E+02
  392.400  .24573E+02
  393.100  .24701E+02
  393.800  .25003E+02
  394.500  .25082E+02
  395.100  .25169E+02
  395.800  .25089E+02
  396.500  .25180E+02
  397.100  .25095E+02
  397.800  .25495E+02
  398.500  .25744E+02
  399.100  .25658E+02
  399.800  .25922E+02
  400.500  .26071E+02
  401.200  .26250E+02
  401.800  .26603E+02
  402.500  .26603E+02
  403.200  .26794E+02
  403.800  .26985E+02
  404.500  .27753E+02
  405.200  .27843E+02
  405.900  .27423E+02
  406.500  .27512E+02
  407.200  .27755E+02
  407.900  .27915E+02
  408.500  .28173E+02
  409.200  .28103E+02
  409.900  .28417E+02
  410.500  .28570E+02
  411.200  .29084E+02
  411.900  .29285E+02
  412.600  .29029E+02
  413.200  .29358E+02
  413.900  .29925E+02
  414.600  .29608E+02
  415.200  .29930E+02
  415.900  .29785E+02
  416.600  .29819E+02
  417.200  .30463E+02
  417.900  .30489E+02
  418.600  .30589E+02
  419.200  .30862E+02
  419.900  .30728E+02
  420.600  .31450E+02
  421.300  .31231E+02
  421.900  .31688E+02
  422.600  .32109E+02
  423.300  .32280E+02
  423.900  .32427E+02
  424.600  .32671E+02
  425.300  .32257E+02
  425.900  .32847E+02
  426.600  .32847E+02
  427.300  .33413E+02
  427.900  .33169E+02
  428.600  .33339E+02
  429.300  .33705E+02
  430.000  .34210E+02
  430.600  .34299E+02
  431.300  .34349E+02
  432.000  .34329E+02
  432.600  .34596E+02
  433.300  .34725E+02
  434.000  .35190E+02
  434.600  .35070E+02
  435.300  .35723E+02
  436.000  .35286E+02
  436.600  .35927E+02
  437.300  .36532E+02
  438.000  .36377E+02
  438.600  .36673E+02
  439.300  .37002E+02
  440.000  .37600E+02
  440.600  .37006E+02
  441.300  .37472E+02
  442.000  .37453E+02
  442.600  .38030E+02
  443.300  .38367E+02
  444.000  .38637E+02
  444.600  .38445E+02
  445.300  .38563E+02
  446.000  .38613E+02
  446.600  .39021E+02
  447.300  .39655E+02
  448.000  .39319E+02
  448.600  .39886E+02
  449.300  .40141E+02
  450.000  .40124E+02
  450.600  .39626E+02
  451.300  .40868E+02
  452.000  .40905E+02
  452.600  .41163E+02
  453.300  .41293E+02
  454.000  .41652E+02
  454.600  .41300E+02
  455.300  .41736E+02
  456.000  .42379E+02
  456.600  .42267E+02
  457.300  .42786E+02
  458.000  .42681E+02
  458.600  .43257E+02
  459.300  .43068E+02
  460.000  .42883E+02
  460.600  .43626E+02
  461.300  .43997E+02
  462.000  .43896E+02
  462.600  .44466E+02
  463.300  .44211E+02
  464.000  .44819E+02
  464.600  .44687E+02
  465.300  .44664E+02
  466.000  .44382E+02
  466.600  .45385E+02
  467.300  .45200E+02
  468.000  .45489E+02
  468.600  .45950E+02
  469.300  .45991E+02
  470.000  .46119E+02
  470.600  .46310E+02
  471.300  .46626E+02
  472.000  .47331E+02
  472.600  .46535E+02
  473.300  .47503E+02
  474.000  .47811E+02
  474.600  .47169E+02
  475.300  .48151E+02
  475.900  .48036E+02
  476.600  .48342E+02
  477.300  .48979E+02
  477.900  .48942E+02
  478.600  .49251E+02
  479.300  .49567E+02
  479.900  .48904E+02
  480.600  .49561E+02
  481.300  .50593E+02
  481.900  .50428E+02
  482.600  .50147E+02
  483.300  .51261E+02
  483.900  .50590E+02
  484.600  .50979E+02
  485.200  .51555E+02
  485.900  .51886E+02
  486.600  .52138E+02
  487.200  .52238E+02
  487.900  .51664E+02
  488.600  .51808E+02
  489.200  .52209E+02
  489.900  .52538E+02
  490.600  .52215E+02
  491.200  .52612E+02
  491.900  .52943E+02
  492.500  .53451E+02
  493.200  .53030E+02
  493.900  .52439E+02
  494.500  .53772E+02
  495.200  .53372E+02
  495.900  .53525E+02
  496.500  .52990E+02
  497.200  .53603E+02
  497.900  .53933E+02
  498.500  .53204E+02
  499.200  .53277E+02
  499.800  .53382E+02
  500.500  .53804E+02
  501.200  .53198E+02
  501.800  .52476E+02
  502.500  .52711E+02
  503.200  .53147E+02
  503.800  .52484E+02
  504.500  .52559E+02
  505.100  .52017E+02
  505.800  .52540E+02
  506.500  .50978E+02
  507.100  .51656E+02
  507.800  .51524E+02
  508.500  .51385E+02
  509.100  .50830E+02
  509.800  .50884E+02
  510.400  .50228E+02
  511.100  .49328E+02
  511.800  .49260E+02
  512.400  .49111E+02
  513.100  .49208E+02
  513.800  .48868E+02
  514.400  .47987E+02
  515.100  .47363E+02
  515.700  .46718E+02
  516.400  .46940E+02
  517.100  .46685E+02
  517.700  .46426E+02
  518.400  .45894E+02
  519.000  .45270E+02
  519.700  .44930E+02
  520.400  .44126E+02
  521.000  .43315E+02
  521.700  .43543E+02
  522.400  .42364E+02
  523.000  .42373E+02
  523.700  .41953E+02
  524.300  .41154E+02
  525.000  .41594E+02
  525.700  .41543E+02
  526.300  .40469E+02
  527.000  .39964E+02
  527.600  .40839E+02
  528.300  .40054E+02
  529.000  .39624E+02
  529.600  .39815E+02
  530.300  .38226E+02
  530.900  .37626E+02
  531.600  .38329E+02
  532.300  .37124E+02
  532.900  .36850E+02
  533.600  .36610E+02
  534.200  .36690E+02
  534.900  .36269E+02
  535.600  .36542E+02
  536.200  .36359E+02
  536.900  .35677E+02
  537.500  .35936E+02
  538.200  .35158E+02
  538.900  .35088E+02
  539.500  .35081E+02
  540.200  .35422E+02
  540.800  .34911E+02
  541.500  .34472E+02
  542.200  .34736E+02
  542.800  .34212E+02
  543.500  .34892E+02
  544.100  .34458E+02
  544.800  .34917E+02
  545.500  .34042E+02
  546.100  .34116E+02
  546.800  .33515E+02
  547.400  .33846E+02
  548.100  .33672E+02
  548.800  .34424E+02
  549.400  .34530E+02
  550.100  .34174E+02
  550.700  .34754E+02
  551.400  .34579E+02
  552.100  .34403E+02
  552.700  .34134E+02
  553.400  .34315E+02
  554.000  .34636E+02
  554.700  .34738E+02
  555.300  .34804E+02
  556.000  .35333E+02
  556.700  .35412E+02
  557.300  .35965E+02
  558.000  .36313E+02
  558.600  .36633E+02
  559.300  .36015E+02
  560.000  .36569E+02
  560.600  .36457E+02
  561.300  .37621E+02
  561.900  .37807E+02
  562.600  .38278E+02
  563.200  .38729E+02
  563.900  .37980E+02
  564.600  .38612E+02
  565.200  .39191E+02
  565.900  .39003E+02
  566.500  .38508E+02
  567.200  .38994E+02
  567.800  .39327E+02
  568.500  .39934E+02
  569.200  .39997E+02
  569.800  .40088E+02
  570.500  .40286E+02
  571.100  .40268E+02
  571.800  .40364E+02
  572.400  .39988E+02
  573.100  .40075E+02
  573.800  .40642E+02
  574.400  .40142E+02
  575.100  .40848E+02
  575.700  .40260E+02
  576.400  .40020E+02
  577.000  .40110E+02
  577.700  .40405E+02
  578.400  .39928E+02
  579.000  .39800E+02
  579.700  .39703E+02
  580.300  .40351E+02
  581.000  .39580E+02
  581.600  .39564E+02
  582.300  .39481E+02
  583.000  .39001E+02
  583.600  .38903E+02
  584.300  .38942E+02
  584.900  .38266E+02
  585.600  .37947E+02
  586.200  .37373E+02
  586.900  .36881E+02
  587.600  .36332E+02
  588.200  .36898E+02
  588.900  .36023E+02
  589.500  .35780E+02
  590.200  .35349E+02
  590.800  .35203E+02
  591.500  .34343E+02
  592.100  .33966E+02
  592.800  .33144E+02
  593.500  .33295E+02
  594.100  .32648E+02
  594.800  .32706E+02
  595.400  .31707E+02
  596.100  .31431E+02
  596.700  .30857E+02
  597.400  .30430E+02
  598.000  .30472E+02
  598.700  .29857E+02
  599.400  .29842E+02
  600.000  .29305E+02
  600.700  .28412E+02
  601.300  .28066E+02
  602.000  .28375E+02
  602.600  .27276E+02
  603.300  .27057E+02
  603.900  .26714E+02
  604.600  .26180E+02
  605.200  .25674E+02
  605.900  .25799E+02
  606.600  .24993E+02
  607.200  .24957E+02
  607.900  .24470E+02
  608.500  .24126E+02
  609.200  .23559E+02
  609.800  .23346E+02
  610.500  .23409E+02
  611.100  .22848E+02
  611.800  .22350E+02
  612.400  .21968E+02
  613.100  .21776E+02
  613.800  .22059E+02
  614.400  .22044E+02
  615.100  .21577E+02
  615.700  .20886E+02
  616.400  .21002E+02
  617.000  .20729E+02
  617.700  .20826E+02
  618.300  .20058E+02
  619.000  .19907E+02
  619.600  .19896E+02
  620.300  .19575E+02
  620.900  .19176E+02
  621.600  .19130E+02
  622.200  .18768E+02
  622.900  .18991E+02
  623.600  .17822E+02
  624.200  .17907E+02
  624.900  .18512E+02
  625.500  .17580E+02
  626.200  .18317E+02
  626.800  .17533E+02
  627.500  .17147E+02
  628.100  .17659E+02
  628.800  .17169E+02
  629.400  .16591E+02
  630.100  .16066E+02
  630.700  .16333E+02
  631.400  .16843E+02
  632.000  .16228E+02
  632.700  .15925E+02
  633.300  .15884E+02
  634.000  .15900E+02
  634.700  .15822E+02
  635.300  .15978E+02
  636.000  .15546E+02
  636.600  .15628E+02
  637.300  .14953E+02
  637.900  .14647E+02
  638.600  .14503E+02
  639.200  .14699E+02
  639.900  .15249E+02
  640.500  .14572E+02
  641.200  .15165E+02
  641.800  .14655E+02
  642.500  .13786E+02
  643.100  .14196E+02
  643.800  .13621E+02
  644.400  .14234E+02
  645.100  .13754E+02
  645.700  .13759E+02
  646.400  .13361E+02
  647.000  .13409E+02
  647.700  .13967E+02
  648.300  .13476E+02
  649.000  .13485E+02
  649.600  .12710E+02
  650.300  .13173E+02
  650.900  .13134E+02
  651.600  .13403E+02
  652.200  .13637E+02
  652.900  .13110E+02
  653.500  .12686E+02
  654.200  .13044E+02
  654.800  .13488E+02
  655.500  .12460E+02
  656.200  .13173E+02
  656.800  .12833E+02
  657.500  .13106E+02
  658.100  .12610E+02
  658.800  .12983E+02
  659.400  .12830E+02
  660.100  .12971E+02
  660.700  .13320E+02
  661.400  .13025E+02
  662.000  .12814E+02
  662.700  .12764E+02
  663.300  .12642E+02
  664.000  .13733E+02
  664.600  .12492E+02
  665.300  .12826E+02
  665.900  .12555E+02
  666.600  .12583E+02
  667.200  .13520E+02
  667.900  .12979E+02
  668.500  .13038E+02
  669.200  .12941E+02
  669.800  .12954E+02
  670.500  .13409E+02
  671.100  .13423E+02
  671.800  .13164E+02
  672.400  .12992E+02
  673.000  .13040E+02
  673.700  .13336E+02
  674.300  .12908E+02
  675.000  .13624E+02
  675.600  .13312E+02
  676.300  .13657E+02
  676.900  .13425E+02
  677.600  .13208E+02
  678.200  .13762E+02
  678.900  .13792E+02
  679.500  .13795E+02
  680.200  .13009E+02
  680.800  .14135E+02
  681.500  .14012E+02
  682.100  .13693E+02
  682.800  .14045E+02
  683.400  .14883E+02
  684.100  .14927E+02
  684.700  .14056E+02
  685.400  .14051E+02
  686.000  .14390E+02
  686.700  .13855E+02
  687.300  .14978E+02
  688.000  .14394E+02
  688.600  .14179E+02
  689.300  .14331E+02
  689.900  .14297E+02
  690.600  .14632E+02
  691.200  .15183E+02
  691.900  .14348E+02
  692.500  .14350E+02
  693.200  .14369E+02
  693.800  .15464E+02
  694.400  .15074E+02
  695.100  .14823E+02
  695.700  .14653E+02
  696.400  .15698E+02
  697.000  .14599E+02
  697.700  .15698E+02
  698.300  .15030E+02
  699.000  .15224E+02
  699.600  .14890E+02
  700.300  .15397E+02
  700.900  .14899E+02
  701.600  .15897E+02
  702.200  .14920E+02
  702.900  .15519E+02
  703.500  .15824E+02
  704.200  .14948E+02
  704.800  .15608E+02
  705.500  .14905E+02
  706.100  .15415E+02
  706.700  .14985E+02
  707.400  .15641E+02
  708.000  .15822E+02
  708.700  .15497E+02
  709.300  .15384E+02
  710.000  .15468E+02
  710.600  .15406E+02
  711.300  .15992E+02
  711.900  .15221E+02
  712.600  .15059E+02
  713.200  .15565E+02
  713.900  .14975E+02
  714.500  .15561E+02
  715.100  .15797E+02
  715.800  .16116E+02
  716.400  .15662E+02
  717.100  .15590E+02
  717.700  .15500E+02
  718.400  .14430E+02
  719.000  .16283E+02
  719.700  .15052E+02
  720.300  .15185E+02
  721.000  .15520E+02
  721.600  .15468E+02
  722.200  .15589E+02
  722.900  .16152E+02
  723.500  .15782E+02
  724.200  .15455E+02
  724.800  .15495E+02
  725.500  .15086E+02
  726.100  .15354E+02
  726.800  .15963E+02
  727.400  .15749E+02
  728.100  .14880E+02
  728.700  .15108E+02
  729.300  .14959E+02
  730.000  .15045E+02
  730.600  .16114E+02
  731.300  .14654E+02
  731.900  .15129E+02
  732.600  .14915E+02
  733.200  .15664E+02
  733.900  .14808E+02
  734.500  .14561E+02
  735.100  .15751E+02
  735.800  .14822E+02
  736.400  .14601E+02
  737.100  .14852E+02
  737.700  .14671E+02
  738.400  .14563E+02
  739.000  .13979E+02
  739.700  .14896E+02
  740.300  .14852E+02
  740.900  .14670E+02
  741.600  .15564E+02
  742.200  .13874E+02
  742.900  .14071E+02
  743.500  .14516E+02
  744.200  .14742E+02
  744.800  .14234E+02
  745.500  .14446E+02
  746.100  .14485E+02
  746.700  .14553E+02
  747.400  .14060E+02
  748.000  .14056E+02
  748.700  .14198E+02
  749.300  .14379E+02
  750.000  .14010E+02
  750.600  .14890E+02
  751.200  .14316E+02
  751.900  .14203E+02
  752.500  .13841E+02
  753.200  .14242E+02
  753.800  .13606E+02
  754.500  .13864E+02
  755.100  .13831E+02
  755.700  .13681E+02
  756.400  .13767E+02
  757.000  .13197E+02
  757.700  .13863E+02
  758.300  .13437E+02
  759.000  .13930E+02
  759.600  .13896E+02
  760.200  .12913E+02
  760.900  .14066E+02
  761.500  .13445E+02
  762.200  .13414E+02
  762.800  .13673E+02
  763.500  .13612E+02
  764.100  .13031E+02
  764.700  .13113E+02
  765.400  .13687E+02
  766.000  .13667E+02
  766.700  .13412E+02
  767.300  .13644E+02
  767.900  .12283E+02
  768.600  .13203E+02
  769.200  .12808E+02
  769.900  .13387E+02
  770.500  .12647E+02
  771.200  .12673E+02
  771.800  .12454E+02
  772.400  .12777E+02
  773.100  .12547E+02
  773.700  .12554E+02
  774.400  .11324E+02
  775.000  .12798E+02
  775.600  .11501E+02
  776.300  .12497E+02
  776.900  .11286E+02
  777.600  .11356E+02
  778.200  .11635E+02
  778.900  .11720E+02
  779.500  .12430E+02
  780.100  .11777E+02
  780.800  .11525E+02
  781.400  .11437E+02
  782.100  .11322E+02
  782.700  .11574E+02
  783.300  .11146E+02
  784.000  .11061E+02
  784.600  .10863E+02
  785.300  .11057E+02
  785.900  .10672E+02
  786.500  .10909E+02
  787.200  .11759E+02
  787.800  .10561E+02
  788.500  .10598E+02
  789.100  .10398E+02
  789.700  .96162E+01
  790.400  .99667E+01
  791.000  .10000E+02
  791.700  .96903E+01
  792.300  .95342E+01
  792.900  .88241E+01
  793.600  .87482E+01
  794.200  .96686E+01
  794.900  .94030E+01
  795.500  .90860E+01
  796.100  .88955E+01
  796.800  .88349E+01
  797.400  .93787E+01
  798.100  .79417E+01
  798.700  .75398E+01
  799.300  .80842E+01
  800.000  .73622E+01
  800.600  .75213E+01
  801.300  .71026E+01
  801.900  .65510E+01
  801.100  .90990E+01
  801.700  .97454E+01
  802.400  .91675E+01
  803.000  .95082E+01
  803.600  .95092E+01
  804.300  .83108E+01
  804.900  .87168E+01
  805.600  .77904E+01
  806.200  .76910E+01
  806.900  .72177E+01
  807.500  .78537E+01
  808.100  .71801E+01
  808.800  .67859E+01
  809.400  .67500E+01
  810.100  .70455E+01
  810.700  .67459E+01
  811.400  .55886E+01
  812.000  .62619E+01
  812.600  .60924E+01
  813.300  .56091E+01
  813.900  .55543E+01
  814.600  .50354E+01
  815.200  .47297E+01
  815.900  .46084E+01
  816.500  .42677E+01
  817.100  .40935E+01
  817.800  .36520E+01
  818.400  .35267E+01
  819.100  .33185E+01
  819.700  .25693E+01
  820.300  .27454E+01
  821.000  .28558E+01
  821.600  .31850E+01
  822.300  .25003E+01
  822.900  .23890E+01
  823.600  .24994E+01
  824.200  .25919E+01
  824.800  .16965E+01
  825.500  .18234E+01
  826.100  .11293E+01
  826.800  .17348E+01
  827.400  .22040E+01
  828.000  .15589E+01
  828.700  .20645E+01
  829.300  .14690E+01
  830.000  .45893E+00
  830.600  .41182E+00
  831.200  .20900E+00
  831.900  .64693E+00
  832.500  .49585E+00
  833.200  .20619E+00
  833.800  .22795E+00
  834.400 -.18555E+00
  835.100  .51653E+00
  835.700  .67850E+00
  836.400  .82429E+00
  837.000  .60184E+00
  837.600 -.59676E-01
  838.300  .77064E+00
  838.900  .10397E+01
  839.600  .39428E+00
  840.200  .46952E+00
  840.900  .26308E+00
  841.500 -.86254E-01
  842.100  .21897E+00
  842.800  .82225E-01
  843.400 -.25108E+00
  844.100  .73730E-01
  844.700  .20274E+00
  845.300  .65329E+00
  846.000  .15853E-01
  846.600  .73768E-01
  847.200 -.35198E+00
  847.900  .22669E+00
  848.500 -.14617E+00
  849.200  .38525E-01
  849.800 -.11939E+00
  850.400  .15539E+00
  851.100 -.39973E+00
  851.700  .21934E+00
  852.400  .11589E+00
  853.000 -.44235E+00
  853.600  .72451E+00
  854.300 -.10671E+00
  854.900 -.24838E+00
  855.600  .11619E+01
  856.200  .32686E+00
  856.800 -.49205E+00
  857.500 -.84485E-01
  858.100  .56216E+00
  858.800  .99088E+00
  859.400  .51791E+00
  860.000  .79940E+00
  860.700  .10457E+01
  861.300  .73715E+00
  861.900  .89054E+00
  862.600  .12677E+01
  863.200  .75402E+00
  863.900  .11507E+01
  864.500  .67258E+00
  865.100  .14234E+01
  865.800  .90799E+00
  866.400  .12126E+01
  867.000  .10127E+01
  867.700  .92569E+00
  868.300  .19073E+01
  869.000  .54417E-01
  869.600  .11882E+01
  870.200  .13449E+01
  870.900  .99353E+00
  871.500  .22088E+01
  872.200  .20091E+01
  872.800  .17319E+01
  873.400  .16437E+01
  874.100  .14993E+01
  874.700  .18102E+01
  875.300  .18933E+01
  876.000  .20731E+01
  876.600  .19083E+01
  877.300  .18781E+01
  877.900  .26323E+01
  878.500  .19112E+01
  879.200  .26879E+01
  879.800  .28113E+01
  880.400  .27038E+01
  881.100  .63594E+01
  881.700  .99651E+01
  882.300  .79321E+01
  883.000  .28354E+01
  883.600  .35806E+01
  884.300  .33388E+01
  884.900  .32115E+01
  885.500  .28891E+01
  886.200  .35033E+01
  886.800  .40201E+01
  887.400  .34823E+01
  888.100  .35125E+01
  888.700  .36196E+01
  889.300  .38251E+01
  890.000  .44456E+01
  890.600  .43574E+01
  891.300  .47241E+01
  891.900  .49716E+01
  892.500  .55953E+01
  893.200  .61038E+01
  893.800  .51054E+01
  894.400  .49379E+01
  895.100  .56462E+01
  895.700  .58570E+01
  896.300  .56299E+01
  897.000  .72598E+01
  897.600  .60550E+01
  898.300  .69297E+01
  898.900  .63822E+01
  899.500  .77588E+01
  900.200  .69521E+01
  900.800  .73074E+01
  901.400  .79455E+01
  902.100  .76400E+01
  902.700  .67861E+01
  903.300  .87199E+01
  904.000  .90620E+01
  904.600  .84497E+01
  905.200  .90536E+01
  905.900  .91130E+01
  906.500  .98821E+01
  907.100  .10347E+02
  907.800  .10776E+02
  908.400  .11530E+02
  909.100  .11593E+02
  909.700  .10363E+02
  910.300  .12308E+02
  911.000  .12414E+02
  911.600  .13319E+02
  912.200  .17129E+02
  912.900  .22541E+02
  913.500  .23916E+02
  914.100  .24447E+02
  914.800  .15813E+02
  915.400  .14387E+02
  916.000  .14638E+02
  916.700  .15994E+02
  917.300  .15457E+02
  917.900  .16085E+02
  918.600  .15947E+02
  919.200  .16389E+02
  919.800  .16456E+02
  920.500  .18224E+02
  921.100  .18922E+02
  921.700  .19223E+02
  922.400  .19677E+02
  923.000  .18695E+02
  923.600  .20114E+02
  924.300  .19684E+02
  924.900  .20157E+02
  925.500  .21245E+02
  926.200  .22404E+02
  926.800  .22245E+02
  927.400  .23063E+02
  928.100  .23314E+02
  928.700  .23816E+02
  929.300  .24021E+02
  930.000  .25064E+02
  930.600  .24543E+02
  931.200  .25627E+02
  931.900  .26269E+02
  932.500  .26113E+02
  933.100  .28492E+02
  933.800  .27677E+02
  934.400  .28534E+02
  935.000  .27517E+02
  935.700  .29915E+02
  936.300  .29675E+02
  936.900  .28915E+02
  937.600  .30349E+02
  938.200  .30977E+02
  938.800  .32062E+02
  939.500  .31504E+02
  940.100  .31743E+02
  940.700  .32397E+02
  941.400  .33344E+02
  942.000  .33301E+02
  942.600  .34003E+02
  943.300  .35000E+02
  943.900  .35903E+02
  944.500  .36786E+02
  945.200  .37107E+02
  945.800  .36319E+02
  946.400  .39170E+02
  947.100  .38037E+02
  947.700  .38021E+02
  948.300  .37274E+02
  948.900  .39719E+02
  949.600  .40113E+02
  950.200  .40721E+02
  950.800  .40931E+02
  951.500  .40704E+02
  952.100  .42274E+02
  952.700  .42330E+02
  953.400  .42551E+02
  954.000  .43950E+02
  954.600  .44299E+02
  955.300  .45039E+02
  955.900  .44333E+02
  956.500  .45044E+02
  957.200  .46239E+02
  957.800  .46411E+02
  958.400  .47036E+02
  959.000  .46825E+02
  959.700  .47779E+02
  960.300  .47794E+02
  960.900  .48174E+02
  961.600  .47950E+02
  962.200  .48717E+02
  962.800  .48233E+02
  963.500  .49970E+02
  964.100  .50011E+02
  964.700  .49252E+02
  965.400  .51157E+02
  966.000  .51474E+02
  966.600  .51356E+02
  967.200  .54018E+02
  967.900  .52740E+02
  968.500  .53314E+02
  969.100  .53911E+02
  969.800  .54476E+02
  970.400  .55840E+02
  971.000  .55910E+02
  971.700  .56154E+02
  972.300  .55296E+02
  972.900  .55179E+02
  973.500  .56272E+02
  974.200  .57869E+02
  974.800  .57824E+02
  975.400  .56939E+02
  976.100  .59056E+02
  976.700  .59785E+02
  977.300  .59016E+02
  978.000  .60463E+02
  978.600  .59880E+02
  979.200  .61530E+02
  979.800  .60853E+02
  980.500  .60964E+02
  981.100  .61299E+02
  981.700  .60902E+02
  982.400  .62765E+02
  983.000  .61800E+02
  983.600  .63679E+02
  984.200  .63591E+02
  984.900  .63849E+02
  985.500  .64713E+02
  986.100  .64459E+02
  986.800  .65291E+02
  987.400  .64606E+02
  988.000  .67316E+02
  988.700  .64945E+02
  989.300  .65768E+02
  989.900  .66280E+02
  990.500  .67178E+02
  991.200  .67298E+02
  991.800  .66609E+02
  992.400  .66280E+02
  993.100  .69828E+02
  993.700  .68220E+02
  994.300  .67722E+02
  994.900  .69161E+02
  995.600  .70205E+02
  996.200  .70460E+02
  996.800  .70983E+02
  997.400  .70874E+02
  998.100  .71388E+02
  998.700  .72084E+02
  999.300  .71096E+02
 1000.000  .72444E+02
 1000.600  .72409E+02
 1001.200  .71221E+02
 1001.800  .71061E+02
 1002.500  .73250E+02
 1003.100  .75134E+02
 1003.700  .72982E+02
 1004.400  .76389E+02
 1005.000  .73912E+02
 1005.600  .74841E+02
 1006.200  .76688E+02
 1006.900  .74812E+02
 1007.500  .75596E+02
 1008.100  .76953E+02
 1008.700  .75950E+02
 1009.400  .77176E+02
 1010.000  .77268E+02
 1010.600  .77809E+02
 1011.300  .80190E+02
 1011.900  .77784E+02
 1012.500  .79428E+02
 1013.100  .78394E+02
 1013.800  .78578E+02
 1014.400  .80455E+02
 1015.000  .79191E+02
 1015.600  .79915E+02
 1016.300  .80277E+02
 1016.900  .82037E+02
 1017.500  .80971E+02
 1018.100  .82155E+02
 1018.800  .82267E+02
 1019.400  .83175E+02
 1020.000  .82486E+02
 1020.700  .81658E+02
 1021.300  .83841E+02
 1021.900  .84703E+02
 1022.500  .83093E+02
 1023.200  .84867E+02
 1023.800  .85068E+02
 1024.400  .85730E+02
 1025.000  .87086E+02
 1025.700  .86486E+02
 1026.300  .86330E+02
 1026.900  .85710E+02
 1027.500  .87483E+02
 1028.200  .85746E+02
 1028.800  .86516E+02
 1029.400  .86643E+02
 1030.000  .88036E+02
 1030.700  .88776E+02
 1031.300  .90149E+02
 1031.900  .90746E+02
 1032.500  .87942E+02
 1033.200  .89725E+02
 1033.800  .89334E+02
 1034.400  .89958E+02
 1035.000  .91314E+02
 1035.700  .89739E+02
 1036.300  .92980E+02
 1036.900  .91856E+02
 1037.500  .91490E+02
 1038.200  .93266E+02
 1038.800  .93504E+02
 1039.400  .93559E+02
 1040.000  .92455E+02
 1040.700  .93791E+02
 1041.300  .93898E+02
 1041.900  .93187E+02
 1042.500  .94854E+02
 1043.200  .96569E+02
 1043.800  .94691E+02
 1044.400  .95727E+02
 1045.000  .94561E+02
 1045.700  .95512E+02
 1046.300  .97431E+02
 1046.900  .97008E+02
 1047.500  .96025E+02
 1048.200  .97194E+02
 1048.800  .97304E+02
 1049.400  .96691E+02
 1050.000  .97552E+02
 1050.700  .98432E+02
 1051.300  .96475E+02
 1051.900  .95804E+02
 1052.500  .98012E+02
 1053.200  .96740E+02
 1053.800  .97470E+02
 1054.400  .96229E+02
 1055.000  .99015E+02
 1055.600  .97502E+02
 1056.300  .97414E+02
 1056.900  .96981E+02
 1057.500  .97579E+02
 1058.100  .98450E+02
 1058.800  .97817E+02
 1059.400  .97219E+02
 1060.000  .98037E+02
 1060.600  .95826E+02
 1061.300  .98850E+02
 1061.900  .97647E+02
 1062.500  .97702E+02
 1063.100  .10001E+03
 1063.800  .98543E+02
 1064.400  .98104E+02
 1065.000  .98489E+02
 1065.600  .96946E+02
 1066.200  .96889E+02
 1066.900  .98534E+02
 1067.500  .96045E+02
 1068.100  .97481E+02
 1068.700  .96814E+02
 1069.400  .95304E+02
 1070.000  .97770E+02
 1070.600  .97629E+02
 1071.200  .95039E+02
 1071.800  .94616E+02
 1072.500  .96049E+02
 1073.100  .94146E+02
 1073.700  .92128E+02
 1074.300  .94300E+02
 1075.000  .96299E+02
 1075.600  .94303E+02
 1076.200  .94717E+02
 1076.800  .94007E+02
 1077.400  .94084E+02
 1078.100  .93699E+02
 1078.700  .92760E+02
 1079.300  .93596E+02
 1079.900  .91299E+02
 1080.600  .93029E+02
 1081.200  .90642E+02
 1081.800  .91422E+02
 1082.400  .89481E+02
 1083.000  .92988E+02
 1083.700  .91800E+02
 1084.300  .90792E+02
 1084.900  .89468E+02
 1085.500  .89253E+02
 1086.100  .87867E+02
 1086.800  .87895E+02
 1087.400  .87535E+02
 1088.000  .87861E+02
 1088.600  .86926E+02
 1089.300  .86320E+02
 1089.900  .85927E+02
 1090.500  .86252E+02
 1091.100  .86175E+02
 1091.700  .86184E+02
 1092.400  .86439E+02
 1093.000  .85148E+02
 1093.600  .85444E+02
 1094.200  .84352E+02
 1094.800  .82706E+02
 1095.500  .81334E+02
 1096.100  .82875E+02
 1096.700  .83258E+02
 1097.300  .83059E+02
 1097.900  .80761E+02
 1098.600  .82090E+02
 1099.200  .79933E+02
 1099.800  .81453E+02
 1100.400  .79642E+02
 1101.000  .78734E+02
 1101.700  .78630E+02
 1102.300  .76545E+02
 1102.900  .78069E+02
 1103.500  .76979E+02
 1104.100  .75180E+02
 1104.800  .75248E+02
 1105.400  .76009E+02
 1106.000  .74794E+02
 1106.600  .74049E+02
 1107.200  .74101E+02
 1107.900  .74878E+02
 1108.500  .75109E+02
 1109.100  .72342E+02
 1109.700  .71946E+02
 1110.300  .73305E+02
 1111.000  .72804E+02
 1111.600  .69277E+02
 1112.200  .69563E+02
 1112.800  .68714E+02
 1113.400  .68760E+02
 1114.100  .67532E+02
 1114.700  .67217E+02
 1115.300  .67741E+02
 1115.900  .66946E+02
 1116.500  .68102E+02
 1117.200  .64669E+02
 1117.800  .64289E+02
 1118.400  .64783E+02
 1119.000  .62259E+02
 1119.600  .63809E+02
 1120.200  .63275E+02
 1120.900  .61812E+02
 1121.500  .61972E+02
 1122.100  .61798E+02
 1122.700  .61229E+02
 1123.300  .61085E+02
 1124.000  .59886E+02
 1124.600  .61476E+02
 1125.200  .58434E+02
 1125.800  .57400E+02
 1126.400  .57923E+02
 1127.000  .58171E+02
 1127.700  .55950E+02
 1128.300  .56657E+02
 1128.900  .55339E+02
 1129.500  .56814E+02
 1130.100  .55064E+02
 1130.800  .55290E+02
 1131.400  .53195E+02
 1132.000  .53224E+02
 1132.600  .52018E+02
 1133.200  .51212E+02
 1133.800  .50898E+02
 1134.500  .49479E+02
 1135.100  .50000E+02
 1135.700  .49560E+02
 1136.300  .49616E+02
 1136.900  .48118E+02
 1137.500  .49604E+02
 1138.200  .47925E+02
 1138.800  .46888E+02
 1139.400  .46816E+02
 1140.000  .46495E+02
 1140.600  .44327E+02
 1141.300  .45983E+02
 1141.900  .44782E+02
 1142.500  .42888E+02
 1143.100  .44507E+02
 1143.700  .42924E+02
 1144.300  .42879E+02
 1145.000  .42212E+02
 1145.600  .40589E+02
 1146.200  .42498E+02
 1146.800  .39735E+02
 1147.400  .38548E+02
 1148.000  .39511E+02
 1148.700  .38139E+02
 1149.300  .38469E+02
 1149.900  .37624E+02
 1150.500  .35380E+02
 1151.100  .36694E+02
 1151.700  .36133E+02
 1152.400  .36979E+02
 1153.000  .34310E+02
 1153.600  .35054E+02
 1154.200  .34583E+02
 1154.800  .34496E+02
 1155.400  .33128E+02
 1156.000  .33744E+02
 1156.700  .32571E+02
 1157.300  .31164E+02
 1157.900  .31459E+02
 1158.500  .29855E+02
 1159.100  .29924E+02
 1159.700  .29928E+02
 1160.400  .30164E+02
 1161.000  .29781E+02
 1161.600  .28328E+02
 1162.200  .27748E+02
 1162.800  .27393E+02
 1163.400  .28628E+02
 1164.000  .27494E+02
 1164.700  .26883E+02
 1165.300  .24963E+02
 1165.900  .27113E+02
 1166.500  .24472E+02
 1167.100  .25352E+02
 1167.700  .25874E+02
 1168.400  .23197E+02
 1169.000  .23489E+02
 1169.600  .23519E+02
 1170.200  .22237E+02
 1170.800  .22397E+02
 1171.400  .22328E+02
 1172.000  .22028E+02
 1172.700  .21238E+02
 1173.300  .21035E+02
 1173.900  .20106E+02
 1174.500  .19109E+02
 1175.100  .18209E+02
 1175.700  .20948E+02
 1176.300  .19617E+02
 1177.000  .18322E+02
 1177.600  .18347E+02
 1178.200  .18505E+02
 1178.800  .16967E+02
 1179.400  .15793E+02
 1180.000  .17548E+02
 1180.600  .16672E+02
 1181.300  .16600E+02
 1181.900  .15654E+02
 1182.500  .14473E+02
 1183.100  .14963E+02
 1183.700  .12270E+02
 1184.300  .11988E+02
 1184.900  .14458E+02
 1185.600  .14315E+02
 1186.200  .13025E+02
 1186.800  .12001E+02
 1187.400  .11784E+02
 1188.000  .11432E+02
 1188.600  .11788E+02
 1189.200  .11571E+02
 1189.800  .10879E+02
 1190.500  .10426E+02
 1191.100  .10410E+02
 1191.700  .98846E+01
 1192.300  .11193E+02
 1192.900  .10429E+02
 1193.500  .90516E+01
 1194.100  .10669E+02
 1194.800  .79279E+01
 1195.400  .92403E+01
 1196.000  .97694E+01
 1196.600  .86239E+01
 1197.200  .70656E+01
 1197.800  .70117E+01
 1198.400  .76092E+01
 1199.000  .71095E+01
 1199.700  .64738E+01
 1200.300  .70038E+01
 1200.900  .70184E+01
 1201.500  .67919E+01
 1202.100  .60130E+01
 1202.700  .56815E+01
 1203.300  .64896E+01
 1203.900  .48437E+01
 1204.600  .51354E+01
 1205.200  .61533E+01
 1205.800  .52653E+01
 1206.400  .51742E+01
 1207.000  .47354E+01
 1207.600  .44001E+01
 1208.200  .50390E+01
 1208.800  .28914E+01
 1209.500  .59739E+01
 1210.100  .49052E+01
 1210.700  .39394E+01
 1211.300  .42311E+01
 1211.900  .41031E+01
 1212.500  .42553E+01
 1213.100  .27592E+01
 1213.700  .43499E+01
 1214.300  .42216E+01
 1215.000  .39895E+01
 1215.600  .26282E+01
 1216.200  .28503E+01
 1216.800  .20499E+01
 1217.400  .12126E+01
 1218.000  .27064E+01
 1218.600  .33185E+01
 1219.200  .36131E+01
 1219.800  .28097E+01
 1220.500  .21484E+01
 1221.100  .24782E+01
 1221.700  .18136E+01
 1222.300  .14679E+01
 1222.900  .21185E+01
 1223.500  .10240E+01
 1224.100  .23531E+01
 1224.700  .17210E+01
 1225.300  .15880E+01
 1226.000  .11702E+01
 1226.600  .26836E+01
 1227.200  .18701E+01
 1227.800  .98349E+00
 1228.400  .26444E+01
 1229.000  .12537E+01
 1229.600  .40355E-01
 1230.200  .51688E+00
 1230.800 -.55522E+00
 1231.400  .12200E+01
 1232.100  .26393E+01
 1232.700 -.71061E+00
 1233.300  .67173E+00
 1233.900  .12963E+01
 1234.500  .17771E+01
 1235.100  .21136E+01
 1235.700 -.54048E-01
 1236.300  .93547E+00
 1236.900  .98122E+00
 1237.500  .24831E+01
 1238.200  .60087E+00
 1238.800 -.44767E+00
 1239.400 -.74460E-01
 1240.000 -.13902E+00
 1240.600  .45456E+00
 1241.200  .46357E+00
 1241.800 -.88291E+00
 1242.400  .10317E+01
 1243.000 -.96525E-01
 1243.600  .94058E+00
 1244.200 -.15295E+00
 1244.900  .99795E+00
 1245.500 -.83442E+00
 1246.100  .16902E+00
 1246.700 -.43577E-01
 1247.300 -.66287E+00
 1247.900  .10828E+01
 1248.500  .27842E+00
 1249.100 -.45960E-01
 1249.700  .25927E+00
 1250.300 -.12159E+01
 1250.900 -.39126E+00
 1251.600  .62223E+00
 1252.200  .59432E+00
 1252.800  .49188E+00
 1253.400 -.84077E+00
 1254.000 -.75814E+00
 1254.600 -.32444E-02
 1255.200  .64088E+00
 1255.800  .38839E+00
 1256.400  .60583E-01
 1257.000 -.71748E+00
 1257.600 -.18422E+00
 1258.200  .53767E+00
 1258.900  .10370E+01
 1259.500 -.23198E+00
 1260.100  .25294E-02
 1260.700  .46352E+00
 1261.300  .39737E+00
 1261.900  .44433E+00
 1262.500 -.18862E+00
 1263.100  .23602E+00
 1263.700 -.14957E+01
 1264.300  .97391E+00
 1264.900 -.26739E+00
 1265.500 -.31037E-01
 1266.100  .10412E+01
 1266.800  .17834E+00
 1267.400  .18745E+00
 1268.000 -.71745E+00
 1268.600  .16757E+00
 1269.200  .55819E+00
 1269.800 -.53969E+00
 1270.400 -.16395E+01
 1271.000  .51111E-01
 1271.600 -.11267E+01
 1272.200 -.74268E-02
 1272.800  .38509E+00
 1273.400 -.94904E+00
 1274.000 -.10177E+01
 1274.600 -.97640E-02
 1275.300  .69363E+00
 1275.900  .51066E+00
 1276.500  .17314E+00
 1277.100  .56829E+00
 1277.700  .75713E-01
 1278.300  .39415E+00
 1278.900  .40358E+00
 1279.500  .56795E+00
 1280.100 -.10117E+01
 1280.700  .78114E+00
 1281.300  .75212E+00
 1281.900  .64531E+00
 1282.500  .84950E+00
 1283.100  .62580E+00
 1283.700 -.26067E+00
 1284.400  .17389E+01
 1285.000  .11005E+00
 1285.600  .14087E+01
 1286.200 -.15529E+01
 1286.800  .52931E+00
 1287.400  .10091E+01
 1288.000  .82310E+00
 1288.600  .75456E+00
 1289.200 -.25669E+00
 1289.800  .22287E+01
 1290.400 -.15997E+00
 1291.000  .16605E+01
 1291.600  .15923E+01
 1292.200  .69576E+00
 1292.800  .10215E+01
 1293.400  .39943E+00
 1294.000  .40906E+00
 1294.600  .53746E+00
 1295.300  .90544E+00
 1295.900  .14310E+01
 1296.500  .20766E+01
 1297.100  .12138E+01
 1297.700  .11845E+01
 1298.300  .99588E+00
 1298.900  .56802E+00
 1299.500  .45829E+00
 1300.100  .10266E+01
 1300.700 -.20091E+00
 1301.300 -.59130E+00
 1301.900  .61744E+00
 1302.500  .17482E+01
 1303.100  .21197E+01
 1303.700  .13290E+01
 1304.300 -.30590E+00
 1304.900 -.65821E+00
 1305.500  .55669E+00
 1306.100  .21358E+01
 1306.700  .18249E+01
 1307.300  .19166E+01
 1308.000  .47939E+01
 1308.600  .12641E+02
 1309.200  .15773E+02
 1309.800  .30146E+01
 1310.400  .16503E+01
 1311.000  .18233E+01
 1311.600  .11856E+01
 1312.200  .21295E+01
 1312.800  .12473E+01
 1313.400  .68874E+00
 1314.000  .11058E+01
 1314.600  .26230E+01
 1315.200  .19012E+01
 1315.800  .23611E+01
 1316.400  .17603E+01
 1317.000  .14445E+01
 1317.600  .32547E+01
 1318.200  .26122E+01
 1318.800  .21734E+01
 1319.400  .13496E+00
 1320.000  .25246E+01
 1320.600  .93477E+00
 1321.200 -.13839E-03
 1321.800  .12436E+01
 1322.400  .27365E+01
 1323.000  .11827E+01
 1323.600  .15233E+01
 1324.300  .38479E+01
 1324.900  .28279E+01
 1325.500  .21370E+01
 1326.100  .23969E+01
 1326.700  .29057E+01
 1327.300  .19229E+01
 1327.900  .31790E+01
 1328.500  .16550E+01
 1329.100  .29129E+01
 1329.700  .34243E+01
 1330.300  .31455E+01
 1330.900  .23247E+01
 1331.500  .40044E+01
 1332.100  .13883E+01
 1332.700  .35712E+01
 1333.300  .33332E+01
 1333.900  .36805E+01
 1334.500  .31910E+01
 1335.100  .39159E+01
 1335.700  .23352E+01
 1336.300  .34384E+01
 1336.900  .24429E+01
 1337.500  .11513E+01
 1338.100  .17092E+01
 1338.700  .49215E+01
 1339.300  .40081E+01
 1339.900  .28401E+01
 1340.500  .32746E+01
 1341.100  .23576E+01
 1341.700  .24118E+01
 1342.300  .38205E+01
 1342.900  .36218E+01
 1343.500  .30412E+01
 1344.100  .38175E+01
 1344.700  .24717E+01
 1345.300  .33763E+01
 1345.900  .43675E+01
 1346.500  .42108E+01
 1347.100  .40112E+01
 1347.700  .30438E+01
 1348.300  .30990E+01
 1348.900  .44784E+01
 1349.500  .44494E+01
 1350.100  .44632E+01
 1350.700  .35348E+01
 1351.300  .26907E+01
 1351.900  .39897E+01
 1352.500  .45182E+01
 1353.100  .50905E+01
 1353.700  .27400E+01
 1354.300  .40433E+01
 1354.900  .44013E+01
 1355.500  .31651E+01
 1356.100  .56367E+01
 1356.700  .50038E+01
 1357.300  .38514E+01
 1357.900  .31296E+01
 1358.500  .44407E+01
 1359.100  .33284E+01
 1359.700  .58123E+01
 1360.300  .54367E+01
 1360.900  .50606E+01
 1361.500  .52922E+01
 1362.100  .40020E+01
 1362.700  .49296E+01
 1363.300  .38983E+01
 1363.900  .51761E+01
 1364.500  .39688E+01
 1365.100  .55545E+01
 1365.700  .32091E+01
 1366.300  .42718E+01
 1366.900  .59491E+01
 1367.500  .45622E+01
 1368.100  .59356E+01
 1368.700  .53363E+01
 1369.300  .60976E+01
 1369.900  .38712E+01
 1370.500  .69640E+01
 1371.100  .39862E+01
 1371.700  .60267E+01
 1372.300  .57773E+01
 1372.900  .77343E+01
 1373.500  .62933E+01
 1374.100  .68835E+01
 1374.700  .64128E+01
 1375.300  .66498E+01
 1375.900  .51146E+01
 1376.500  .61048E+01
 1377.100  .65197E+01
 1377.700  .56469E+01
 1378.300  .57064E+01
 1378.900  .62109E+01
 1379.500  .66716E+01
 1380.100  .79353E+01
 1380.700  .70156E+01
 1381.300  .58712E+01
 1381.900  .67798E+01
 1382.500  .59910E+01
 1383.100  .64986E+01
 1383.700  .65143E+01
 1384.300  .68438E+01
 1384.900  .38099E+01
 1385.500  .57088E+01
 1386.100  .61732E+01
 1386.700  .68631E+01
 1387.300  .77341E+01
 1387.900  .81111E+01
 1388.500  .56945E+01
 1389.100  .66118E+01
 1389.700  .76208E+01
 1390.300  .65532E+01
 1390.900  .73829E+01
 1391.500  .72637E+01
 1392.100  .84576E+01
 1392.700  .74779E+01
 1393.300  .74945E+01
 1393.900  .82375E+01
 1394.500  .89362E+01
 1395.100  .82720E+01
 1395.700  .62417E+01
 1396.300  .74869E+01
 1396.900  .71845E+01
 1397.500  .69729E+01
 1398.100  .69435E+01
 1398.700  .91069E+01
 1399.300  .60160E+01
 1399.900  .92344E+01
 1400.500  .83824E+01
 1401.100  .84457E+01
 1401.700  .71790E+01
 1402.300  .65528E+01
 1402.800  .69795E+01
 1403.400  .79612E+01
 1404.000  .88524E+01
 1404.600  .71207E+01
 1405.200  .81508E+01
 1405.800  .76609E+01
 1406.400  .77701E+01
 1407.000  .77409E+01
 1407.600  .87285E+01
 1408.200  .67571E+01
 1408.800  .81159E+01
 1409.400  .86429E+01
 1410.000  .10005E+02
 1410.600  .83999E+01
 1411.200  .92070E+01
 1411.800  .88998E+01
 1412.400  .72897E+01
 1413.000  .74460E+01
 1413.600  .74628E+01
 1414.200  .86919E+01
 1414.800  .84297E+01
 1415.400  .74666E+01
 1416.000  .72031E+01
 1416.600  .10073E+02
 1417.200  .71896E+01
 1417.800  .95016E+01
 1418.400  .82074E+01
 1419.000  .72865E+01
 1419.500  .10211E+02
 1420.100  .94786E+01
 1420.700  .90738E+01
 1421.300  .81978E+01
 1421.900  .79798E+01
 1422.500  .11768E+02
 1423.100  .97598E+01
 1423.700  .10959E+02
 1424.300  .83799E+01
 1424.900  .98160E+01
 1425.500  .11396E+02
 1426.100  .90959E+01
 1426.700  .10441E+02
 1427.300  .11409E+02
 1427.900  .11571E+02
 1428.500  .95014E+01
 1429.100  .96626E+01
 1429.700  .11632E+02
 1430.300  .94143E+01
 1430.900  .10148E+02
 1431.500  .85453E+01
