  124.500  .34325E+01
  125.200  .32826E+01
  125.900  .32009E+01
  126.600  .32756E+01
  127.300  .32638E+01
  128.000  .32350E+01
  128.600  .32241E+01
  129.300  .33408E+01
  130.000  .34102E+01
  130.700  .34146E+01
  131.400  .34430E+01
  132.100  .35379E+01
  132.800  .34891E+01
  133.500  .33808E+01
  134.200  .33884E+01
  134.900  .33379E+01
  135.600  .33583E+01
  136.300  .33905E+01
  136.900  .33512E+01
  137.600  .35022E+01
  138.300  .35811E+01
  139.000  .37165E+01
  139.700  .38774E+01
  140.400  .38901E+01
  141.100  .39551E+01
  141.800  .38128E+01
  142.500  .37339E+01
  143.200  .36635E+01
  143.900  .36434E+01
  144.500  .36746E+01
  145.200  .36885E+01
  145.900  .37358E+01
  146.600  .37909E+01
  147.300  .38938E+01
  148.000  .39344E+01
  148.700  .38591E+01
  149.400  .38934E+01
  150.100  .38577E+01
  150.800  .38945E+01
  151.500  .39512E+01
  152.100  .40022E+01
  152.800  .39651E+01
  153.500  .40879E+01
  154.200  .40621E+01
  154.900  .41972E+01
  155.600  .43115E+01
  156.300  .42032E+01
  157.000  .42198E+01
  157.700  .41554E+01
  158.400  .41387E+01
  159.000  .42584E+01
  159.700  .42034E+01
  160.400  .41831E+01
  161.100  .42085E+01
  161.800  .42461E+01
  162.500  .42951E+01
  163.200  .43922E+01
  163.900  .45019E+01
  164.600  .44629E+01
  165.200  .44488E+01
  165.900  .44395E+01
  166.600  .44403E+01
  167.300  .45514E+01
  168.000  .45425E+01
  168.700  .45003E+01
  169.400  .46145E+01
  170.100  .46267E+01
  170.800  .47926E+01
  171.400  .47861E+01
  172.100  .47495E+01
  172.800  .48833E+01
  173.500  .47205E+01
  174.200  .49172E+01
  174.900  .48252E+01
  175.600  .48664E+01
  176.300  .47795E+01
  177.000  .49666E+01
  177.600  .49452E+01
  178.300  .50395E+01
  179.000  .50640E+01
  179.700  .49964E+01
  180.400  .50906E+01
  181.100  .50422E+01
  181.800  .51695E+01
  182.500  .51357E+01
  183.100  .52861E+01
  183.800  .52848E+01
  184.500  .52744E+01
  185.200  .53347E+01
  185.900  .54042E+01
  186.600  .53222E+01
  187.300  .54245E+01
  188.000  .56044E+01
  188.600  .55571E+01
  189.300  .55222E+01
  190.000  .55675E+01
  190.700  .56856E+01
  191.400  .56153E+01
  192.100  .56375E+01
  192.800  .57132E+01
  193.500  .57371E+01
  194.100  .58093E+01
  194.800  .59106E+01
  195.500  .59092E+01
  196.200  .58829E+01
  196.900  .60611E+01
  197.600  .59833E+01
  198.300  .61422E+01
  199.000  .61519E+01
  199.600  .61399E+01
  200.300  .61251E+01
  201.000  .61866E+01
  201.700  .63760E+01
  202.400  .63299E+01
  203.100  .64102E+01
  203.800  .66283E+01
  204.400  .65646E+01
  205.100  .64475E+01
  205.800  .67225E+01
  206.500  .66039E+01
  207.200  .67393E+01
  207.900  .67390E+01
  208.600  .68137E+01
  209.200  .68509E+01
  209.900  .68221E+01
  210.600  .70774E+01
  211.300  .70111E+01
  212.000  .70706E+01
  212.700  .72166E+01
  213.400  .72119E+01
  214.000  .70531E+01
  214.700  .74184E+01
  215.400  .73000E+01
  216.100  .73098E+01
  216.800  .74999E+01
  217.500  .76080E+01
  218.200  .76005E+01
  218.800  .76401E+01
  219.500  .78982E+01
  220.200  .77765E+01
  220.900  .76179E+01
  221.600  .78503E+01
  222.300  .79914E+01
  222.900  .79464E+01
  223.600  .78232E+01
  224.300  .80947E+01
  225.000  .80789E+01
  225.700  .82986E+01
  226.400  .82418E+01
  227.100  .84317E+01
  227.700  .85197E+01
  228.400  .85015E+01
  229.100  .87347E+01
  229.800  .86744E+01
  230.500  .87203E+01
  231.200  .86649E+01
  231.800  .87504E+01
  232.500  .89965E+01
  233.200  .89267E+01
  233.900  .89340E+01
  234.600  .91610E+01
  235.300  .91385E+01
  235.900  .94541E+01
  236.600  .93898E+01
  237.300  .95186E+01
  238.000  .95244E+01
  238.700  .95034E+01
  239.400  .96890E+01
  240.000  .97833E+01
  240.700  .98766E+01
  241.400  .98946E+01
  242.100  .99492E+01
  242.800  .10304E+02
  243.500  .10308E+02
  244.100  .10386E+02
  244.800  .10259E+02
  245.500  .10454E+02
  246.200  .10511E+02
  246.900  .10629E+02
  247.600  .10635E+02
  248.200  .10678E+02
  248.900  .10827E+02
  249.600  .10725E+02
  250.300  .11153E+02
  251.000  .11091E+02
  251.700  .11038E+02
  252.300  .11347E+02
  253.000  .11573E+02
  253.700  .11477E+02
  254.400  .11575E+02
  255.100  .11688E+02
  255.700  .11896E+02
  256.400  .11872E+02
  257.100  .11967E+02
  257.800  .12007E+02
  258.500  .12399E+02
  259.200  .12128E+02
  259.800  .12526E+02
  260.500  .12499E+02
  261.200  .12563E+02
  261.900  .12791E+02
  262.600  .12801E+02
  263.200  .13019E+02
  263.900  .12857E+02
  264.600  .12925E+02
  265.300  .13060E+02
  266.000  .13292E+02
  266.700  .13459E+02
  267.300  .13463E+02
  268.000  .13494E+02
  268.700  .13763E+02
  269.400  .13737E+02
  270.100  .13881E+02
  270.700  .14101E+02
  271.400  .13934E+02
  272.100  .14188E+02
  272.800  .14462E+02
  273.500  .14289E+02
  274.100  .14539E+02
  274.800  .14755E+02
  275.500  .14820E+02
  276.200  .14962E+02
  276.900  .15197E+02
  277.500  .15253E+02
  278.200  .15300E+02
  278.900  .15600E+02
  279.600  .15485E+02
  280.300  .15667E+02
  280.900  .15823E+02
  281.600  .15891E+02
  282.300  .15906E+02
  283.000  .16024E+02
  283.700  .16059E+02
  284.300  .16386E+02
  285.000  .16663E+02
  285.700  .16676E+02
  286.400  .16753E+02
  287.100  .16875E+02
  287.700  .17035E+02
  288.400  .16864E+02
  289.100  .17144E+02
  289.800  .17107E+02
  290.500  .17435E+02
  291.100  .17390E+02
  291.800  .17625E+02
  292.500  .17809E+02
  293.200  .17886E+02
  293.900  .17891E+02
  294.500  .17964E+02
  295.200  .18248E+02
  295.900  .18428E+02
  296.600  .18515E+02
  297.300  .18951E+02
  297.900  .18583E+02
  298.600  .19119E+02
  299.300  .19062E+02
  300.000  .19191E+02
  300.600  .19230E+02
  301.300  .19496E+02
  302.000  .19316E+02
  302.700  .19759E+02
  303.400  .19585E+02
  304.000  .19989E+02
  304.700  .20234E+02
  305.400  .20117E+02
  306.100  .20204E+02
  306.800  .20530E+02
  307.400  .20613E+02
  308.100  .20825E+02
  308.800  .21089E+02
  309.500  .20940E+02
  310.100  .20969E+02
  310.800  .21600E+02
  311.500  .21539E+02
  312.200  .21748E+02
  312.900  .21743E+02
  313.500  .22225E+02
  314.200  .21913E+02
  314.900  .22557E+02
  315.600  .22669E+02
  316.200  .22658E+02
  316.900  .22445E+02
  317.600  .22802E+02
  318.300  .22898E+02
  318.900  .23139E+02
  319.600  .23498E+02
  320.300  .23331E+02
  321.000  .23287E+02
  321.700  .23688E+02
  322.300  .23943E+02
  323.000  .24037E+02
  323.700  .24244E+02
  324.400  .24243E+02
  325.000  .24274E+02
  325.700  .24277E+02
  326.400  .24750E+02
  327.100  .24767E+02
  327.700  .25114E+02
  328.400  .25287E+02
  329.100  .25394E+02
  329.800  .25437E+02
  330.500  .25824E+02
  331.100  .26262E+02
  331.800  .26239E+02
  332.500  .26358E+02
  333.200  .26462E+02
  333.800  .26326E+02
  334.500  .26620E+02
  335.200  .26846E+02
  335.900  .26728E+02
  336.500  .27408E+02
  337.200  .27332E+02
  337.900  .27279E+02
  338.600  .27736E+02
  339.200  .27843E+02
  339.900  .28009E+02
  340.600  .28060E+02
  341.300  .28179E+02
  341.900  .28760E+02
  342.600  .28444E+02
  343.300  .28865E+02
  344.000  .29289E+02
  344.600  .29778E+02
  345.300  .29823E+02
  346.000  .29576E+02
  346.700  .29883E+02
  347.300  .29542E+02
  348.000  .30259E+02
  348.700  .30223E+02
  349.400  .30847E+02
  350.000  .30794E+02
  350.700  .31347E+02
  351.400  .31068E+02
  352.100  .31389E+02
  352.700  .31356E+02
  353.400  .31355E+02
  354.100  .32398E+02
  354.800  .32244E+02
  355.400  .32705E+02
  356.100  .32775E+02
  356.800  .32891E+02
  357.500  .33213E+02
  358.100  .33191E+02
  358.800  .33388E+02
  359.500  .33377E+02
  360.200  .34061E+02
  360.800  .34318E+02
  361.500  .34578E+02
  362.200  .34423E+02
  362.800  .34210E+02
  363.500  .35391E+02
  364.200  .34880E+02
  364.900  .35292E+02
  365.500  .35197E+02
  366.200  .35556E+02
  366.900  .35679E+02
  367.600  .36602E+02
  368.200  .36446E+02
  368.900  .36879E+02
  369.600  .37017E+02
  370.300  .37381E+02
  370.900  .37562E+02
  371.600  .37997E+02
  372.300  .37904E+02
  372.900  .37887E+02
  373.600  .38405E+02
  374.300  .38541E+02
  375.000  .38845E+02
  375.600  .39042E+02
  376.300  .39185E+02
  377.000  .39404E+02
  377.700  .39947E+02
  378.300  .40224E+02
  379.000  .40205E+02
  379.700  .40529E+02
  380.300  .40797E+02
  381.000  .41195E+02
  381.700  .41344E+02
  382.400  .41577E+02
  383.000  .41699E+02
  383.700  .42012E+02
  384.400  .41908E+02
  385.000  .42298E+02
  385.700  .42187E+02
  386.400  .43237E+02
  387.100  .43336E+02
  387.700  .43049E+02
  388.400  .43523E+02
  389.100  .44279E+02
  389.800  .43744E+02
  390.400  .44557E+02
  391.100  .44721E+02
  391.800  .44878E+02
  392.400  .45000E+02
  393.100  .45177E+02
  393.800  .46205E+02
  394.500  .45569E+02
  395.100  .46223E+02
  395.800  .46044E+02
  396.500  .47079E+02
  397.100  .46703E+02
  397.800  .47389E+02
  398.500  .47267E+02
  399.100  .47256E+02
  399.800  .47589E+02
  400.500  .47858E+02
  401.200  .48555E+02
  401.800  .48579E+02
  402.500  .48838E+02
  403.200  .49749E+02
  403.800  .50008E+02
  404.500  .50251E+02
  405.200  .50912E+02
  405.900  .50700E+02
  406.500  .50462E+02
  407.200  .50911E+02
  407.900  .51647E+02
  408.500  .51980E+02
  409.200  .51415E+02
  409.900  .52357E+02
  410.500  .52514E+02
  411.200  .53056E+02
  411.900  .52553E+02
  412.600  .52840E+02
  413.200  .53674E+02
  413.900  .53460E+02
  414.600  .54129E+02
  415.200  .54662E+02
  415.900  .55161E+02
  416.600  .55016E+02
  417.200  .55584E+02
  417.900  .55082E+02
  418.600  .55856E+02
  419.200  .56028E+02
  419.900  .56491E+02
  420.600  .58011E+02
  421.300  .57157E+02
  421.900  .57019E+02
  422.600  .57918E+02
  423.300  .59071E+02
  423.900  .58905E+02
  424.600  .59081E+02
  425.300  .59596E+02
  425.900  .59036E+02
  426.600  .59863E+02
  427.300  .60673E+02
  427.900  .61392E+02
  428.600  .61289E+02
  429.300  .61673E+02
  430.000  .62532E+02
  430.600  .63005E+02
  431.300  .62986E+02
  432.000  .63193E+02
  432.600  .63700E+02
  433.300  .63375E+02
  434.000  .64449E+02
  434.600  .64846E+02
  435.300  .65266E+02
  436.000  .64582E+02
  436.600  .65438E+02
  437.300  .66562E+02
  438.000  .67301E+02
  438.600  .66831E+02
  439.300  .67362E+02
  440.000  .67327E+02
  440.600  .67854E+02
  441.300  .68659E+02
  442.000  .68618E+02
  442.600  .69986E+02
  443.300  .69627E+02
  444.000  .69834E+02
  444.600  .70276E+02
  445.300  .70588E+02
  446.000  .71040E+02
  446.600  .70878E+02
  447.300  .72038E+02
  448.000  .71435E+02
  448.600  .72095E+02
  449.300  .71815E+02
  450.000  .72289E+02
  450.600  .72831E+02
  451.300  .73672E+02
  452.000  .73779E+02
  452.600  .73854E+02
  453.300  .73702E+02
  454.000  .74041E+02
  454.600  .75356E+02
  455.300  .75566E+02
  456.000  .75303E+02
  456.600  .76241E+02
  457.300  .75112E+02
  458.000  .75711E+02
  458.600  .76664E+02
  459.300  .76259E+02
  460.000  .77104E+02
  460.600  .77300E+02
  461.300  .76874E+02
  462.000  .78805E+02
  462.600  .76811E+02
  463.300  .77151E+02
  464.000  .78416E+02
  464.600  .77582E+02
  465.300  .77565E+02
  466.000  .78426E+02
  466.600  .79293E+02
  467.300  .78190E+02
  468.000  .77922E+02
  468.600  .78499E+02
  469.300  .78603E+02
  470.000  .78957E+02
  470.600  .79423E+02
  471.300  .78332E+02
  472.000  .78532E+02
  472.600  .79287E+02
  473.300  .80305E+02
  474.000  .81073E+02
  474.600  .79250E+02
  475.300  .80419E+02
  475.900  .81048E+02
  476.600  .80876E+02
  477.300  .82195E+02
  477.900  .81307E+02
  478.600  .81539E+02
  479.300  .81605E+02
  479.900  .81981E+02
  480.600  .81776E+02
  481.300  .82130E+02
  481.900  .82902E+02
  482.600  .83569E+02
  483.300  .82683E+02
  483.900  .82883E+02
  484.600  .83117E+02
  485.200  .82861E+02
  485.900  .82437E+02
  486.600  .83787E+02
  487.200  .83404E+02
  487.900  .83359E+02
  488.600  .83727E+02
  489.200  .83541E+02
  489.900  .82622E+02
  490.600  .83406E+02
  491.200  .83634E+02
  491.900  .82295E+02
  492.500  .82628E+02
  493.200  .82572E+02
  493.900  .82063E+02
  494.500  .83431E+02
  495.200  .82090E+02
  495.900  .81186E+02
  496.500  .80642E+02
  497.200  .80575E+02
  497.900  .80217E+02
  498.500  .80135E+02
  499.200  .79220E+02
  499.800  .78259E+02
  500.500  .78221E+02
  501.200  .77149E+02
  501.800  .76742E+02
  502.500  .76544E+02
  503.200  .75896E+02
  503.800  .74826E+02
  504.500  .74035E+02
  505.100  .73909E+02
  505.800  .72452E+02
  506.500  .71244E+02
  507.100  .69919E+02
  507.800  .70782E+02
  508.500  .70401E+02
  509.100  .68394E+02
  509.800  .67993E+02
  510.400  .67217E+02
  511.100  .66578E+02
  511.800  .65251E+02
  512.400  .63807E+02
  513.100  .63967E+02
  513.800  .63225E+02
  514.400  .62328E+02
  515.100  .60745E+02
  515.700  .60649E+02
  516.400  .58721E+02
  517.100  .58330E+02
  517.700  .58742E+02
  518.400  .56707E+02
  519.000  .56068E+02
  519.700  .55143E+02
  520.400  .55593E+02
  521.000  .54553E+02
  521.700  .53321E+02
  522.400  .52476E+02
  523.000  .51584E+02
  523.700  .52689E+02
  524.300  .50238E+02
  525.000  .50989E+02
  525.700  .49893E+02
  526.300  .49538E+02
  527.000  .49412E+02
  527.600  .48049E+02
  528.300  .48533E+02
  529.000  .48178E+02
  529.600  .46228E+02
  530.300  .46518E+02
  530.900  .46362E+02
  531.600  .45055E+02
  532.300  .45752E+02
  532.900  .44568E+02
  533.600  .44935E+02
  534.200  .44121E+02
  534.900  .43628E+02
  535.600  .43649E+02
  536.200  .43377E+02
  536.900  .42543E+02
  537.500  .42637E+02
  538.200  .42052E+02
  538.900  .41625E+02
  539.500  .42009E+02
  540.200  .41825E+02
  540.800  .41121E+02
  541.500  .42600E+02
  542.200  .41298E+02
  542.800  .40056E+02
  543.500  .40833E+02
  544.100  .39537E+02
  544.800  .40339E+02
  545.500  .39430E+02
  546.100  .39398E+02
  546.800  .38613E+02
  547.400  .40280E+02
  548.100  .39890E+02
  548.800  .39425E+02
  549.400  .38751E+02
  550.100  .38438E+02
  550.700  .39504E+02
  551.400  .38912E+02
  552.100  .39461E+02
  552.700  .37947E+02
  553.400  .38643E+02
  554.000  .38813E+02
  554.700  .38825E+02
  555.300  .39105E+02
  556.000  .38648E+02
  556.700  .37657E+02
  557.300  .37949E+02
  558.000  .38330E+02
  558.600  .38026E+02
  559.300  .38546E+02
  560.000  .38642E+02
  560.600  .38474E+02
  561.300  .38231E+02
  561.900  .38464E+02
  562.600  .39254E+02
  563.200  .39212E+02
  563.900  .38700E+02
  564.600  .39305E+02
  565.200  .39325E+02
  565.900  .39345E+02
  566.500  .38827E+02
  567.200  .39629E+02
  567.800  .39494E+02
  568.500  .39540E+02
  569.200  .39095E+02
  569.800  .39423E+02
  570.500  .39884E+02
  571.100  .39578E+02
  571.800  .40157E+02
  572.400  .38975E+02
  573.100  .39515E+02
  573.800  .39638E+02
  574.400  .40076E+02
  575.100  .39923E+02
  575.700  .39518E+02
  576.400  .40699E+02
  577.000  .40081E+02
  577.700  .41029E+02
  578.400  .39917E+02
  579.000  .41320E+02
  579.700  .39829E+02
  580.300  .40541E+02
  581.000  .39337E+02
  581.600  .40804E+02
  582.300  .40201E+02
  583.000  .40041E+02
  583.600  .40950E+02
  584.300  .40464E+02
  584.900  .41065E+02
  585.600  .40181E+02
  586.200  .40728E+02
  586.900  .40223E+02
  587.600  .40580E+02
  588.200  .39921E+02
  588.900  .39920E+02
  589.500  .40968E+02
  590.200  .39944E+02
  590.800  .40026E+02
  591.500  .40635E+02
  592.100  .39284E+02
  592.800  .40326E+02
  593.500  .40897E+02
  594.100  .39887E+02
  594.800  .40585E+02
  595.400  .40316E+02
  596.100  .38958E+02
  596.700  .40874E+02
  597.400  .38973E+02
  598.000  .39322E+02
  598.700  .40267E+02
  599.400  .39393E+02
  600.000  .39601E+02
  600.700  .39064E+02
  601.300  .38440E+02
  602.000  .38975E+02
  602.600  .38146E+02
  603.300  .38293E+02
  603.900  .37908E+02
  604.600  .37301E+02
  605.200  .36533E+02
  605.900  .35920E+02
  606.600  .36150E+02
  607.200  .35697E+02
  607.900  .35560E+02
  608.500  .35661E+02
  609.200  .34112E+02
  609.800  .34887E+02
  610.500  .34924E+02
  611.100  .33441E+02
  611.800  .33074E+02
  612.400  .33022E+02
  613.100  .33530E+02
  613.800  .32400E+02
  614.400  .32121E+02
  615.100  .31102E+02
  615.700  .30849E+02
  616.400  .30455E+02
  617.000  .30245E+02
  617.700  .30179E+02
  618.300  .29015E+02
  619.000  .28824E+02
  619.600  .28928E+02
  620.300  .28234E+02
  620.900  .28428E+02
  621.600  .28188E+02
  622.200  .27647E+02
  622.900  .26730E+02
  623.600  .26162E+02
  624.200  .25999E+02
  624.900  .25735E+02
  625.500  .25787E+02
  626.200  .24793E+02
  626.800  .25122E+02
  627.500  .24683E+02
  628.100  .24748E+02
  628.800  .24587E+02
  629.400  .23979E+02
  630.100  .23361E+02
  630.700  .23376E+02
  631.400  .23557E+02
  632.000  .22374E+02
  632.700  .22980E+02
  633.300  .23184E+02
  634.000  .23270E+02
  634.700  .21813E+02
  635.300  .21682E+02
  636.000  .21206E+02
  636.600  .20897E+02
  637.300  .21106E+02
  637.900  .20924E+02
  638.600  .21697E+02
  639.200  .20596E+02
  639.900  .20790E+02
  640.500  .19699E+02
  641.200  .19194E+02
  641.800  .19119E+02
  642.500  .19441E+02
  643.100  .19105E+02
  643.800  .18562E+02
  644.400  .18305E+02
  645.100  .18594E+02
  645.700  .18205E+02
  646.400  .18692E+02
  647.000  .18466E+02
  647.700  .17468E+02
  648.300  .16875E+02
  649.000  .16616E+02
  649.600  .16900E+02
  650.300  .16257E+02
  650.900  .16924E+02
  651.600  .17516E+02
  652.200  .16346E+02
  652.900  .16837E+02
  653.500  .15544E+02
  654.200  .16103E+02
  654.800  .17418E+02
  655.500  .15481E+02
  656.200  .15772E+02
  656.800  .15533E+02
  657.500  .15621E+02
  658.100  .14870E+02
  658.800  .16151E+02
  659.400  .14799E+02
  660.100  .14252E+02
  660.700  .15294E+02
  661.400  .14488E+02
  662.000  .14931E+02
  662.700  .14380E+02
  663.300  .14375E+02
  664.000  .14028E+02
  664.600  .15047E+02
  665.300  .13465E+02
  665.900  .14504E+02
  666.600  .13334E+02
  667.200  .13327E+02
  667.900  .14112E+02
  668.500  .13545E+02
  669.200  .13648E+02
  669.800  .12954E+02
  670.500  .13197E+02
  671.100  .13649E+02
  671.800  .13009E+02
  672.400  .13018E+02
  673.000  .12992E+02
  673.700  .13023E+02
  674.300  .13157E+02
  675.000  .13332E+02
  675.600  .13449E+02
  676.300  .13338E+02
  676.900  .13240E+02
  677.600  .12605E+02
  678.200  .12848E+02
  678.900  .13349E+02
  679.500  .12924E+02
  680.200  .12139E+02
  680.800  .12837E+02
  681.500  .11612E+02
  682.100  .12019E+02
  682.800  .12889E+02
  683.400  .12531E+02
  684.100  .12928E+02
  684.700  .11927E+02
  685.400  .12931E+02
  686.000  .13105E+02
  686.700  .11825E+02
  687.300  .12405E+02
  688.000  .12231E+02
  688.600  .13074E+02
  689.300  .12566E+02
  689.900  .12405E+02
  690.600  .12641E+02
  691.200  .12237E+02
  691.900  .12791E+02
  692.500  .12855E+02
  693.200  .13073E+02
  693.800  .13157E+02
  694.400  .11203E+02
  695.100  .12516E+02
  695.700  .12598E+02
  696.400  .12913E+02
  697.000  .12693E+02
  697.700  .12970E+02
  698.300  .12025E+02
  699.000  .12302E+02
  699.600  .12672E+02
  700.300  .12396E+02
  700.900  .12575E+02
  701.600  .12759E+02
  702.200  .12033E+02
  702.900  .12101E+02
  703.500  .12629E+02
  704.200  .12233E+02
  704.800  .12879E+02
  705.500  .12754E+02
  706.100  .12001E+02
  706.700  .13235E+02
  707.400  .12876E+02
  708.000  .12706E+02
  708.700  .12383E+02
  709.300  .12880E+02
  710.000  .13284E+02
  710.600  .12976E+02
  711.300  .12434E+02
  711.900  .12440E+02
  712.600  .12965E+02
  713.200  .13706E+02
  713.900  .11909E+02
  714.500  .12949E+02
  715.100  .12397E+02
  715.800  .13385E+02
  716.400  .12492E+02
  717.100  .12962E+02
  717.700  .13370E+02
  718.400  .13401E+02
  719.000  .13166E+02
  719.700  .13722E+02
  720.300  .12577E+02
  721.000  .12667E+02
  721.600  .13403E+02
  722.200  .12902E+02
  722.900  .13237E+02
  723.500  .12999E+02
  724.200  .13989E+02
  724.800  .13690E+02
  725.500  .12881E+02
  726.100  .12989E+02
  726.800  .14521E+02
  727.400  .13107E+02
  728.100  .14252E+02
  728.700  .14384E+02
  729.300  .13667E+02
  730.000  .14030E+02
  730.600  .12999E+02
  731.300  .13716E+02
  731.900  .13076E+02
  732.600  .12772E+02
  733.200  .14241E+02
  733.900  .14630E+02
  734.500  .13651E+02
  735.100  .14077E+02
  735.800  .13394E+02
  736.400  .14812E+02
  737.100  .15353E+02
  737.700  .14853E+02
  738.400  .15141E+02
  739.000  .13833E+02
  739.700  .14120E+02
  740.300  .15639E+02
  740.900  .14368E+02
  741.600  .14913E+02
  742.200  .15905E+02
  742.900  .13839E+02
  743.500  .15348E+02
  744.200  .15726E+02
  744.800  .14809E+02
  745.500  .14950E+02
  746.100  .14460E+02
  746.700  .15224E+02
  747.400  .16169E+02
  748.000  .16221E+02
  748.700  .15953E+02
  749.300  .14676E+02
  750.000  .14905E+02
  750.600  .15830E+02
  751.200  .16101E+02
  751.900  .16422E+02
  752.500  .16606E+02
  753.200  .16555E+02
  753.800  .16740E+02
  754.500  .16931E+02
  755.100  .17295E+02
  755.700  .17460E+02
  756.400  .17054E+02
  757.000  .16397E+02
  757.700  .18391E+02
  758.300  .16620E+02
  759.000  .17973E+02
  759.600  .18253E+02
  760.200  .17771E+02
  760.900  .18370E+02
  761.500  .17955E+02
  762.200  .17701E+02
  762.800  .17598E+02
  763.500  .17794E+02
  764.100  .18302E+02
  764.700  .19105E+02
  765.400  .19145E+02
  766.000  .18521E+02
  766.700  .19244E+02
  767.300  .19256E+02
  767.900  .20249E+02
  768.600  .20154E+02
  769.200  .20374E+02
  769.900  .21953E+02
  770.500  .20453E+02
  771.200  .20864E+02
  771.800  .22053E+02
  772.400  .22022E+02
  773.100  .21259E+02
  773.700  .22153E+02
  774.400  .21874E+02
  775.000  .21401E+02
  775.600  .21555E+02
  776.300  .21856E+02
  776.900  .21661E+02
  777.600  .23342E+02
  778.200  .23757E+02
  778.900  .24321E+02
  779.500  .24668E+02
  780.100  .23276E+02
  780.800  .23559E+02
  781.400  .24449E+02
  782.100  .25018E+02
  782.700  .23949E+02
  783.300  .24914E+02
  784.000  .25344E+02
  784.600  .24246E+02
  785.300  .24247E+02
  785.900  .24956E+02
  786.500  .24808E+02
  787.200  .25384E+02
  787.800  .24062E+02
  788.500  .25358E+02
  789.100  .26482E+02
  789.700  .25468E+02
  790.400  .25157E+02
  791.000  .25900E+02
  791.700  .26217E+02
  792.300  .27569E+02
  792.900  .27542E+02
  793.600  .26357E+02
  794.200  .27594E+02
  794.900  .25845E+02
  795.500  .26010E+02
  796.100  .26299E+02
  796.800  .26350E+02
  797.400  .26615E+02
  798.100  .25808E+02
  798.700  .26835E+02
  799.300  .26289E+02
  800.000  .26809E+02
  800.600  .26928E+02
  801.300  .27278E+02
  801.900  .27273E+02
  801.100  .28115E+02
  801.700  .25637E+02
  802.400  .27795E+02
  803.000  .27568E+02
  803.600  .26594E+02
  804.300  .27418E+02
  804.900  .26017E+02
  805.600  .28017E+02
  806.200  .27062E+02
  806.900  .26889E+02
  807.500  .27210E+02
  808.100  .26979E+02
  808.800  .26276E+02
  809.400  .25967E+02
  810.100  .25083E+02
  810.700  .25530E+02
  811.400  .26036E+02
  812.000  .26231E+02
  812.600  .25335E+02
  813.300  .26631E+02
  813.900  .25478E+02
  814.600  .25426E+02
  815.200  .24395E+02
  815.900  .23419E+02
  816.500  .23792E+02
  817.100  .23832E+02
  817.800  .24548E+02
  818.400  .23662E+02
  819.100  .23992E+02
  819.700  .23258E+02
  820.300  .23091E+02
  821.000  .21971E+02
  821.600  .21801E+02
  822.300  .21767E+02
  822.900  .20530E+02
  823.600  .21144E+02
  824.200  .20268E+02
  824.800  .20041E+02
  825.500  .19245E+02
  826.100  .19200E+02
  826.800  .19265E+02
  827.400  .19299E+02
  828.000  .19359E+02
  828.700  .17554E+02
  829.300  .17638E+02
  830.000  .17701E+02
  830.600  .17627E+02
  831.200  .16969E+02
  831.900  .16368E+02
  832.500  .16397E+02
  833.200  .16059E+02
  833.800  .15129E+02
  834.400  .14115E+02
  835.100  .13104E+02
  835.700  .14120E+02
  836.400  .13587E+02
  837.000  .13640E+02
  837.600  .12671E+02
  838.300  .11649E+02
  838.900  .10594E+02
  839.600  .11376E+02
  840.200  .10235E+02
  840.900  .98269E+01
  841.500  .10200E+02
  842.100  .91623E+01
  842.800  .74171E+01
  843.400  .83064E+01
  844.100  .71005E+01
  844.700  .64346E+01
  845.300  .70527E+01
  846.000  .52916E+01
  846.600  .58276E+01
  847.200  .63926E+01
  847.900  .52007E+01
  848.500  .52429E+01
  849.200  .31903E+01
  849.800  .35062E+01
  850.400  .31036E+01
  851.100  .29511E+01
  851.700  .28518E+01
  852.400  .29487E+01
  853.000  .21811E+01
  853.600  .22197E+01
  854.300  .18973E+01
  854.900  .12648E+01
  855.600  .17517E+01
  856.200  .18179E+01
  856.800  .11266E+01
  857.500  .57533E+00
  858.100  .92169E+00
  858.800  .23135E+01
  859.400  .14212E+01
  860.000  .75273E+00
  860.700  .76311E+00
  861.300  .65867E+00
  861.900 -.98786E-01
  862.600  .10930E+00
  863.200  .11740E+00
  863.900 -.15643E-01
  864.500  .10648E+00
  865.100 -.85441E-01
  865.800  .15274E+00
  866.400 -.15430E+00
  867.000  .82921E+00
  867.700 -.42473E+00
  868.300 -.96401E+00
  869.000 -.17790E+00
  869.600 -.19892E+00
  870.200  .70469E+00
  870.900 -.15301E+00
  871.500  .28956E+00
  872.200 -.48411E+00
  872.800  .36610E+00
  873.400 -.90841E-01
  874.100 -.28545E+00
  874.700  .88945E+00
  875.300  .22303E-01
  876.000 -.14368E+00
  876.600  .45028E+00
  877.300  .49735E-01
  877.900 -.64708E+00
  878.500  .91942E+00
  879.200 -.42481E+00
  879.800  .55636E+00
  880.400  .15181E+00
  881.100  .84205E+00
  881.700  .40713E+00
  882.300  .77183E+00
  883.000  .63415E+00
  883.600  .14462E+01
  884.300  .17743E+00
  884.900  .10210E+01
  885.500  .17174E+01
  886.200 -.57289E+00
  886.800  .93481E-01
  887.400  .10314E+01
  888.100 -.66871E+00
  888.700  .18060E+00
  889.300 -.11176E+00
  890.000  .13750E+01
  890.600 -.12398E+00
  891.300  .76232E+00
  891.900  .25722E+00
  892.500 -.67335E-01
  893.200  .21561E+00
  893.800 -.14028E+00
  894.400 -.92302E+00
  895.100 -.18314E+00
  895.700  .38725E-01
  896.300 -.53310E+00
  897.000 -.49330E+00
  897.600  .14138E+01
  898.300  .11498E+01
  898.900  .18355E+01
  899.500  .98532E+00
  900.200  .25766E+00
  900.800  .17409E+00
  901.400  .89307E+00
  902.100  .74986E+00
  902.700  .63561E+00
  903.300  .12650E+01
  904.000  .10907E+01
  904.600  .15359E+01
  905.200  .30173E+00
  905.900  .87332E+00
  906.500  .11328E+01
  907.100  .80644E-01
  907.800  .18744E+01
  908.400  .60107E+00
  909.100  .27769E+01
  909.700  .20038E+01
  910.300  .16377E+01
  911.000  .26582E+01
  911.600  .27649E+01
  912.200  .15774E+01
  912.900  .26194E+00
  913.500  .13158E+01
  914.100  .59728E+00
  914.800  .29892E+01
  915.400  .28111E+01
  916.000  .16143E+01
  916.700  .30610E+01
  917.300  .27865E+01
  917.900  .16169E+01
  918.600  .24294E+01
  919.200  .26976E+01
  919.800  .27740E+01
  920.500  .26279E+01
  921.100  .10002E+01
  921.700  .32640E+01
  922.400  .45043E+01
  923.000  .24529E+01
  923.600  .35315E+01
  924.300  .26409E+01
  924.900  .39169E+01
  925.500  .32170E+01
  926.200  .37195E+01
  926.800  .37656E+01
  927.400  .31931E+01
  928.100  .35018E+01
  928.700  .38417E+01
  929.300  .44767E+01
  930.000  .45592E+01
  930.600  .53278E+01
  931.200  .46542E+01
  931.900  .46058E+01
  932.500  .47851E+01
  933.100  .48660E+01
  933.800  .55434E+01
  934.400  .51300E+01
  935.000  .55422E+01
  935.700  .69187E+01
  936.300  .67373E+01
  936.900  .59248E+01
  937.600  .50796E+01
  938.200  .79574E+01
  938.800  .66433E+01
  939.500  .58960E+01
  940.100  .73156E+01
  940.700  .73672E+01
  941.400  .75559E+01
  942.000  .75073E+01
  942.600  .71563E+01
  943.300  .94973E+01
  943.900  .81378E+01
  944.500  .75165E+01
  945.200  .90906E+01
  945.800  .10057E+02
  946.400  .93342E+01
  947.100  .10442E+02
  947.700  .98197E+01
  948.300  .10079E+02
  948.900  .10610E+02
  949.600  .11419E+02
  950.200  .10692E+02
  950.800  .12455E+02
  951.500  .11868E+02
  952.100  .11584E+02
  952.700  .10922E+02
  953.400  .11600E+02
  954.000  .11589E+02
  954.600  .13503E+02
  955.300  .13567E+02
  955.900  .13903E+02
  956.500  .13619E+02
  957.200  .13510E+02
  957.800  .14124E+02
  958.400  .16125E+02
  959.000  .14558E+02
  959.700  .16500E+02
  960.300  .17120E+02
  960.900  .17393E+02
  961.600  .17498E+02
  962.200  .18924E+02
  962.800  .18956E+02
  963.500  .18469E+02
  964.100  .18955E+02
  964.700  .17094E+02
  965.400  .16812E+02
  966.000  .18916E+02
  966.600  .20356E+02
  967.200  .20777E+02
  967.900  .20852E+02
  968.500  .20356E+02
  969.100  .21946E+02
  969.800  .22908E+02
  970.400  .23973E+02
  971.000  .24153E+02
  971.700  .22099E+02
  972.300  .22420E+02
  972.900  .25520E+02
  973.500  .22420E+02
  974.200  .24284E+02
  974.800  .25073E+02
  975.400  .25326E+02
  976.100  .24978E+02
  976.700  .27673E+02
  977.300  .28038E+02
  978.000  .27656E+02
  978.600  .26941E+02
  979.200  .26946E+02
  979.800  .28973E+02
  980.500  .28734E+02
  981.100  .28162E+02
  981.700  .28820E+02
  982.400  .30648E+02
  983.000  .29822E+02
  983.600  .31685E+02
  984.200  .31367E+02
  984.900  .31202E+02
  985.500  .32379E+02
  986.100  .31111E+02
  986.800  .32591E+02
  987.400  .32492E+02
  988.000  .36463E+02
  988.700  .35238E+02
  989.300  .32825E+02
  989.900  .33830E+02
  990.500  .33952E+02
  991.200  .35817E+02
  991.800  .34391E+02
  992.400  .36807E+02
  993.100  .35016E+02
  993.700  .36956E+02
  994.300  .35821E+02
  994.900  .37878E+02
  995.600  .37085E+02
  996.200  .37137E+02
  996.800  .36928E+02
  997.400  .40265E+02
  998.100  .38985E+02
  998.700  .38403E+02
  999.300  .39655E+02
 1000.000  .37919E+02
 1000.600  .38723E+02
 1001.200  .38815E+02
 1001.800  .41278E+02
 1002.500  .40779E+02
 1003.100  .39250E+02
 1003.700  .38776E+02
 1004.400  .41486E+02
 1005.000  .41165E+02
 1005.600  .40084E+02
 1006.200  .44162E+02
 1006.900  .41648E+02
 1007.500  .41173E+02
 1008.100  .41610E+02
 1008.700  .40295E+02
 1009.400  .40817E+02
 1010.000  .42593E+02
 1010.600  .42001E+02
 1011.300  .41800E+02
 1011.900  .43161E+02
 1012.500  .44870E+02
 1013.100  .45507E+02
 1013.800  .42769E+02
 1014.400  .45794E+02
 1015.000  .46627E+02
 1015.600  .45685E+02
 1016.300  .45796E+02
 1016.900  .45741E+02
 1017.500  .46267E+02
 1018.100  .45437E+02
 1018.800  .47683E+02
 1019.400  .46269E+02
 1020.000  .47304E+02
 1020.700  .48391E+02
 1021.300  .49821E+02
 1021.900  .48441E+02
 1022.500  .47097E+02
 1023.200  .49324E+02
 1023.800  .50643E+02
 1024.400  .47257E+02
 1025.000  .49519E+02
 1025.700  .51169E+02
 1026.300  .52417E+02
 1026.900  .51342E+02
 1027.500  .51607E+02
 1028.200  .53384E+02
 1028.800  .51555E+02
 1029.400  .51583E+02
 1030.000  .52007E+02
 1030.700  .51411E+02
 1031.300  .51478E+02
 1031.900  .53136E+02
 1032.500  .54958E+02
 1033.200  .54362E+02
 1033.800  .54672E+02
 1034.400  .54183E+02
 1035.000  .57374E+02
 1035.700  .55296E+02
 1036.300  .54686E+02
 1036.900  .56241E+02
 1037.500  .56715E+02
 1038.200  .56518E+02
 1038.800  .58725E+02
 1039.400  .59042E+02
 1040.000  .57704E+02
 1040.700  .57386E+02
 1041.300  .59037E+02
 1041.900  .60286E+02
 1042.500  .58214E+02
 1043.200  .60371E+02
 1043.800  .62926E+02
 1044.400  .60401E+02
 1045.000  .60803E+02
 1045.700  .61994E+02
 1046.300  .61582E+02
 1046.900  .61904E+02
 1047.500  .63905E+02
 1048.200  .63220E+02
 1048.800  .61454E+02
 1049.400  .63419E+02
 1050.000  .63498E+02
 1050.700  .62274E+02
 1051.300  .63711E+02
 1051.900  .65935E+02
 1052.500  .64572E+02
 1053.200  .64997E+02
 1053.800  .62719E+02
 1054.400  .65531E+02
 1055.000  .67602E+02
 1055.600  .65486E+02
 1056.300  .68490E+02
 1056.900  .67326E+02
 1057.500  .67284E+02
 1058.100  .68868E+02
 1058.800  .65919E+02
 1059.400  .66126E+02
 1060.000  .69052E+02
 1060.600  .69095E+02
 1061.300  .70787E+02
 1061.900  .67390E+02
 1062.500  .68019E+02
 1063.100  .68313E+02
 1063.800  .69590E+02
 1064.400  .71698E+02
 1065.000  .69676E+02
 1065.600  .71958E+02
 1066.200  .69550E+02
 1066.900  .71597E+02
 1067.500  .70582E+02
 1068.100  .70583E+02
 1068.700  .73260E+02
 1069.400  .75787E+02
 1070.000  .75538E+02
 1070.600  .74180E+02
 1071.200  .76146E+02
 1071.800  .73334E+02
 1072.500  .75191E+02
 1073.100  .75324E+02
 1073.700  .73701E+02
 1074.300  .74605E+02
 1075.000  .75826E+02
 1075.600  .73811E+02
 1076.200  .74373E+02
 1076.800  .76702E+02
 1077.400  .73991E+02
 1078.100  .77419E+02
 1078.700  .77685E+02
 1079.300  .76134E+02
 1079.900  .77264E+02
 1080.600  .74337E+02
 1081.200  .74426E+02
 1081.800  .75427E+02
 1082.400  .77214E+02
 1083.000  .81312E+02
 1083.700  .82078E+02
 1084.300  .82044E+02
 1084.900  .80612E+02
 1085.500  .82938E+02
 1086.100  .79490E+02
 1086.800  .82229E+02
 1087.400  .80659E+02
 1088.000  .84531E+02
 1088.600  .82872E+02
 1089.300  .84394E+02
 1089.900  .88150E+02
 1090.500  .83049E+02
 1091.100  .85972E+02
 1091.700  .84570E+02
 1092.400  .84597E+02
 1093.000  .85626E+02
 1093.600  .87988E+02
 1094.200  .86714E+02
 1094.800  .86194E+02
 1095.500  .86934E+02
 1096.100  .89261E+02
 1096.700  .86824E+02
 1097.300  .88532E+02
 1097.900  .88054E+02
 1098.600  .91214E+02
 1099.200  .89753E+02
 1099.800  .90708E+02
 1100.400  .90454E+02
 1101.000  .89077E+02
 1101.700  .91759E+02
 1102.300  .88175E+02
 1102.900  .93323E+02
 1103.500  .88560E+02
 1104.100  .90694E+02
 1104.800  .91313E+02
 1105.400  .92684E+02
 1106.000  .92791E+02
 1106.600  .92626E+02
 1107.200  .95318E+02
 1107.900  .93492E+02
 1108.500  .96191E+02
 1109.100  .94071E+02
 1109.700  .97732E+02
 1110.300  .94970E+02
 1111.000  .95919E+02
 1111.600  .98131E+02
 1112.200  .97190E+02
 1112.800  .94781E+02
 1113.400  .95806E+02
 1114.100  .94970E+02
 1114.700  .94389E+02
 1115.300  .97808E+02
 1115.900  .99116E+02
 1116.500  .98076E+02
 1117.200  .96037E+02
 1117.800  .98317E+02
 1118.400  .95701E+02
 1119.000  .95809E+02
 1119.600  .97632E+02
 1120.200  .95192E+02
 1120.900  .96247E+02
 1121.500  .98215E+02
 1122.100  .95302E+02
 1122.700  .94246E+02
 1123.300  .96217E+02
 1124.000  .98724E+02
 1124.600  .96126E+02
 1125.200  .97965E+02
 1125.800  .94706E+02
 1126.400  .96218E+02
 1127.000  .97968E+02
 1127.700  .97111E+02
 1128.300  .96704E+02
 1128.900  .10001E+03
 1129.500  .94708E+02
 1130.100  .96748E+02
 1130.800  .95365E+02
 1131.400  .97504E+02
 1132.000  .96668E+02
 1132.600  .97912E+02
 1133.200  .94895E+02
 1133.800  .92299E+02
 1134.500  .94082E+02
 1135.100  .93428E+02
 1135.700  .92677E+02
 1136.300  .95877E+02
 1136.900  .92791E+02
 1137.500  .93611E+02
 1138.200  .93400E+02
 1138.800  .90827E+02
 1139.400  .91648E+02
 1140.000  .91847E+02
 1140.600  .93485E+02
 1141.300  .91735E+02
 1141.900  .92031E+02
 1142.500  .91461E+02
 1143.100  .91660E+02
 1143.700  .91426E+02
 1144.300  .91818E+02
 1145.000  .93629E+02
 1145.600  .91752E+02
 1146.200  .89338E+02
 1146.800  .87404E+02
 1147.400  .90412E+02
 1148.000  .90417E+02
 1148.700  .89564E+02
 1149.300  .89762E+02
 1149.900  .89619E+02
 1150.500  .85919E+02
 1151.100  .85967E+02
 1151.700  .87871E+02
 1152.400  .87106E+02
 1153.000  .85541E+02
 1153.600  .88282E+02
 1154.200  .86126E+02
 1154.800  .85978E+02
 1155.400  .85682E+02
 1156.000  .85139E+02
 1156.700  .84316E+02
 1157.300  .81948E+02
 1157.900  .82682E+02
 1158.500  .84849E+02
 1159.100  .87316E+02
 1159.700  .81726E+02
 1160.400  .82825E+02
 1161.000  .80787E+02
 1161.600  .80234E+02
 1162.200  .81864E+02
 1162.800  .81012E+02
 1163.400  .81801E+02
 1164.000  .78158E+02
 1164.700  .81951E+02
 1165.300  .80497E+02
 1165.900  .79888E+02
 1166.500  .81329E+02
 1167.100  .75515E+02
 1167.700  .78457E+02
 1168.400  .77858E+02
 1169.000  .75688E+02
 1169.600  .78990E+02
 1170.200  .73647E+02
 1170.800  .74185E+02
 1171.400  .76034E+02
 1172.000  .72791E+02
 1172.700  .74858E+02
 1173.300  .74135E+02
 1173.900  .75231E+02
 1174.500  .72683E+02
 1175.100  .74693E+02
 1175.700  .72140E+02
 1176.300  .71156E+02
 1177.000  .71150E+02
 1177.600  .71282E+02
 1178.200  .70753E+02
 1178.800  .68183E+02
 1179.400  .69997E+02
 1180.000  .67063E+02
 1180.600  .66937E+02
 1181.300  .64058E+02
 1181.900  .68181E+02
 1182.500  .64516E+02
 1183.100  .66285E+02
 1183.700  .66722E+02
 1184.300  .63970E+02
 1184.900  .64560E+02
 1185.600  .62792E+02
 1186.200  .64465E+02
 1186.800  .61029E+02
 1187.400  .58413E+02
 1188.000  .61638E+02
 1188.600  .59225E+02
 1189.200  .61265E+02
 1189.800  .56979E+02
 1190.500  .58201E+02
 1191.100  .58634E+02
 1191.700  .56726E+02
 1192.300  .54294E+02
 1192.900  .55350E+02
 1193.500  .54320E+02
 1194.100  .54281E+02
 1194.800  .51900E+02
 1195.400  .52016E+02
 1196.000  .51869E+02
 1196.600  .49468E+02
 1197.200  .52258E+02
 1197.800  .50693E+02
 1198.400  .50124E+02
 1199.000  .47501E+02
 1199.700  .46990E+02
 1200.300  .50529E+02
 1200.900  .48005E+02
 1201.500  .46849E+02
 1202.100  .48071E+02
 1202.700  .47707E+02
 1203.300  .45064E+02
 1203.900  .43530E+02
 1204.600  .45080E+02
 1205.200  .42852E+02
 1205.800  .40886E+02
 1206.400  .43015E+02
 1207.000  .40991E+02
 1207.600  .40191E+02
 1208.200  .41364E+02
 1208.800  .37784E+02
 1209.500  .39714E+02
 1210.100  .39819E+02
 1210.700  .39013E+02
 1211.300  .37509E+02
 1211.900  .36753E+02
 1212.500  .32718E+02
 1213.100  .34431E+02
 1213.700  .33993E+02
 1214.300  .33016E+02
 1215.000  .33284E+02
 1215.600  .31494E+02
 1216.200  .30782E+02
 1216.800  .31041E+02
 1217.400  .32222E+02
 1218.000  .29774E+02
 1218.600  .28406E+02
 1219.200  .25516E+02
 1219.800  .27076E+02
 1220.500  .27993E+02
 1221.100  .26945E+02
 1221.700  .25295E+02
 1222.300  .25770E+02
 1222.900  .24007E+02
 1223.500  .23662E+02
 1224.100  .22659E+02
 1224.700  .20944E+02
 1225.300  .21745E+02
 1226.000  .21622E+02
 1226.600  .21657E+02
 1227.200  .20483E+02
 1227.800  .20407E+02
 1228.400  .15706E+02
 1229.000  .17664E+02
 1229.600  .17751E+02
 1230.200  .17065E+02
 1230.800  .15825E+02
 1231.400  .16463E+02
 1232.100  .18602E+02
 1232.700  .15421E+02
 1233.300  .13953E+02
 1233.900  .13259E+02
 1234.500  .11953E+02
 1235.100  .14427E+02
 1235.700  .12396E+02
 1236.300  .12144E+02
 1236.900  .83787E+01
 1237.500  .10634E+02
 1238.200  .10440E+02
 1238.800  .99061E+01
 1239.400  .79717E+01
 1240.000  .93950E+01
 1240.600  .73445E+01
 1241.200  .73107E+01
 1241.800  .63780E+01
 1242.400  .70179E+01
 1243.000  .53517E+01
 1243.600  .69494E+01
 1244.200  .49419E+01
 1244.900  .65456E+01
 1245.500  .44773E+01
 1246.100  .25749E+01
 1246.700  .44604E+01
 1247.300  .39705E+01
 1247.900  .18925E+01
 1248.500  .25341E+01
 1249.100  .49374E+01
 1249.700  .14905E+01
 1250.300  .16215E+01
 1250.900  .32902E+01
 1251.600  .12032E+01
 1252.200  .59267E+00
 1252.800  .89467E+00
 1253.400 -.46019E+00
 1254.000  .81384E+00
 1254.600  .15176E+01
 1255.200 -.12236E-01
 1255.800 -.34034E+00
 1256.400 -.10135E+01
 1257.000 -.94083E+00
 1257.600 -.98311E+00
 1258.200 -.46941E-01
 1258.900 -.14343E+00
 1259.500 -.10501E+01
 1260.100  .58123E+00
 1260.700 -.14819E+01
 1261.300 -.31056E+00
 1261.900 -.16836E+01
 1262.500 -.17268E+01
 1263.100 -.28137E+01
 1263.700 -.21036E+01
 1264.300  .23388E+00
 1264.900 -.19004E+01
 1265.500 -.16531E+01
 1266.100 -.37929E+01
 1266.800 -.13878E+01
 1267.400 -.78930E+00
 1268.000 -.38102E+01
 1268.600 -.46738E+01
 1269.200 -.24972E+01
 1269.800 -.14877E+01
 1270.400 -.31720E+01
 1271.000 -.20440E+01
 1271.600 -.15011E+01
 1272.200 -.33661E+01
 1272.800 -.15885E+01
 1273.400 -.41042E+01
 1274.000 -.22063E+01
 1274.600 -.33120E+01
 1275.300 -.38863E+01
 1275.900 -.31643E+01
 1276.500 -.35053E+01
 1277.100 -.26634E+01
 1277.700 -.26491E+01
 1278.300 -.23385E+01
 1278.900 -.26206E+01
 1279.500 -.24875E+01
 1280.100 -.20570E+01
 1280.700 -.10904E+01
 1281.300 -.39325E+01
 1281.900 -.25487E+01
 1282.500 -.30114E+01
 1283.100 -.44299E+01
 1283.700 -.25052E+01
 1284.400 -.55981E+01
 1285.000 -.47482E+01
 1285.600 -.53347E+01
 1286.200 -.30441E+01
 1286.800 -.24898E+01
 1287.400 -.33761E+01
 1288.000 -.57669E+01
 1288.600 -.68982E+01
 1289.200 -.28526E+01
 1289.800 -.26574E+01
 1290.400 -.28238E+01
 1291.000 -.41980E+01
 1291.600 -.18885E+01
 1292.200 -.44738E+01
 1292.800 -.48845E+01
 1293.400 -.44477E+01
 1294.000 -.41920E+01
 1294.600 -.35718E+01
 1295.300 -.45275E+01
 1295.900 -.42104E+01
 1296.500 -.47447E+01
 1297.100 -.30873E+01
 1297.700 -.36215E+01
 1298.300 -.24484E+01
 1298.900 -.37157E+01
 1299.500 -.51686E+01
 1300.100 -.17305E+01
 1300.700 -.26332E+01
 1301.300 -.50692E+01
 1301.900 -.24807E+01
 1302.500 -.46753E+01
 1303.100 -.21435E+01
 1303.700 -.48334E+01
 1304.300 -.53126E+01
 1304.900 -.36986E+01
 1305.500 -.57187E+01
 1306.100 -.28067E+01
 1306.700 -.56321E+01
 1307.300 -.23444E+01
 1308.000 -.46772E+01
 1308.600 -.22493E+01
 1309.200 -.50223E+01
 1309.800 -.40790E+01
 1310.400 -.23271E+01
 1311.000 -.13799E+01
 1311.600 -.44725E+01
 1312.200 -.40855E+01
 1312.800 -.35110E+01
 1313.400 -.23122E+01
 1314.000 -.27334E+01
 1314.600 -.25934E+01
 1315.200 -.11408E+01
 1315.800 -.40639E+01
 1316.400 -.30483E+01
 1317.000 -.22189E+01
 1317.600 -.38962E+01
 1318.200 -.29406E+01
 1318.800 -.32396E+01
 1319.400 -.51107E+01
 1320.000 -.39020E+01
 1320.600 -.30690E+01
 1321.200 -.97428E+00
 1321.800 -.32282E+01
 1322.400 -.11300E+01
 1323.000 -.29193E+00
 1323.600 -.11598E+01
 1324.300 -.34190E+01
 1324.900 -.34041E+01
 1325.500 -.17408E+01
 1326.100 -.12803E+01
 1326.700 -.17717E+01
 1327.300 -.34716E+01
 1327.900 -.24389E+01
 1328.500 -.24231E+01
 1329.100 -.27897E+01
 1329.700 -.66955E+00
 1330.300 -.34608E+01
 1330.900 -.15293E+01
 1331.500 -.15767E+01
 1332.100 -.19440E+01
 1332.700 -.33367E+01
 1333.300 -.40266E+01
 1333.900  .22188E+00
 1334.500 -.23282E+01
 1335.100 -.25692E+01
 1335.700 -.16530E+01
 1336.300 -.17007E+01
 1336.900 -.33590E+01
 1337.500 -.76488E+00
 1338.100 -.14573E+01
 1338.700  .10948E+00
 1339.300 -.19406E+01
 1339.900 -.16007E+01
 1340.500 -.10660E+01
 1341.100 -.16967E+01
 1341.700 -.33012E+01
 1342.300 -.12089E+01
 1342.900 -.32704E+01
 1343.500 -.26048E+01
 1344.100 -.27839E+01
 1344.700 -.18564E+01
 1345.300 -.38600E+01
 1345.900 -.27362E+01
 1346.500 -.89236E+00
 1347.100 -.41751E+00
 1347.700 -.17727E+01
 1348.300 -.22139E+01
 1348.900 -.56010E+00
 1349.500 -.19188E+01
 1350.100 -.13772E+01
 1350.700 -.57206E+00
 1351.300 -.28480E-01
 1351.900 -.22461E+01
 1352.500 -.38663E+00
 1353.100 -.76377E+00
 1353.700 -.16689E+01
 1354.300 -.23459E-02
 1354.900  .87458E+00
 1355.500 -.12872E+01
 1356.100 -.54217E+00
 1356.700 -.98749E+00
 1357.300 -.13010E+01
 1357.900  .90456E+00
 1358.500  .79114E+00
 1359.100 -.19127E+01
 1359.700  .32890E+01
 1360.300 -.14899E+00
 1360.900  .10679E+01
 1361.500  .35446E+00
 1362.100  .90690E+00
 1362.700 -.80986E-02
 1363.300 -.72419E+00
 1363.900  .83149E+00
 1364.500 -.95558E+00
 1365.100 -.26804E+00
 1365.700  .22300E+01
 1366.300  .13787E+01
 1366.900  .18013E+01
 1367.500  .16200E+01
 1368.100 -.17215E+01
 1368.700  .65097E+00
 1369.300  .26627E+00
 1369.900  .47335E+01
 1370.500  .70914E+00
 1371.100  .20787E+01
 1371.700  .13561E+01
 1372.300  .15790E+01
 1372.900  .38109E+00
 1373.500  .10099E+01
 1374.100  .17752E+01
 1374.700 -.30727E+00
 1375.300  .15445E+01
 1375.900  .68146E+00
 1376.500  .31490E+01
 1377.100  .44636E+01
 1377.700  .59142E-01
 1378.300  .35547E+01
 1378.900  .19393E+01
 1379.500  .73103E+00
 1380.100  .16390E+01
 1380.700  .11807E+01
 1381.300  .37956E+00
 1381.900  .27279E+01
 1382.500  .25436E+01
 1383.100  .13299E+01
 1383.700  .36160E+01
 1384.300 -.27873E+00
 1384.900  .17346E+01
 1385.500  .47836E+01
 1386.100  .40490E+01
 1386.700  .13830E+01
 1387.300  .38871E+01
 1387.900  .23215E+01
 1388.500  .10988E+01
 1389.100  .40236E+01
 1389.700  .41154E+01
 1390.300  .19908E+01
 1390.900  .13997E+00
 1391.500  .43700E+00
 1392.100  .24704E+01
 1392.700  .43680E+01
 1393.300  .50169E+01
 1393.900  .25347E+01
 1394.500  .33921E+01
 1395.100  .32051E+01
 1395.700  .36458E+01
 1396.300  .34587E+01
 1396.900  .21533E+01
 1397.500  .42726E+01
 1398.100  .32458E+01
 1398.700  .38283E+01
 1399.300  .44818E+01
 1399.900  .48558E+01
 1400.500  .45585E+00
 1401.100  .29353E+01
 1401.700  .23947E+01
 1402.300  .24866E+01
 1402.800  .47584E+01
 1403.400  .64029E+01
 1404.000  .29008E+01
 1404.600  .73440E+00
 1405.200  .78904E+01
 1405.800  .65730E+01
 1406.400  .27061E+01
 1407.000  .38611E+01
 1407.600  .26082E+01
 1408.200  .70278E+01
 1408.800  .52785E+01
 1409.400  .81442E+01
 1410.000  .35492E+01
 1410.600  .64180E+01
 1411.200  .46627E+01
 1411.800  .56841E+01
 1412.400  .41394E+01
 1413.000  .61612E+01
 1413.600  .50431E+01
 1414.200  .11350E+01
 1414.800  .33739E+01
 1415.400  .38978E+01
 1416.000  .49241E+01
 1416.600  .45894E+01
 1417.200  .47566E+01
 1417.800  .80845E+01
 1418.400  .54513E+01
 1419.000  .77058E+01
 1419.500  .47041E+01
 1420.100  .71054E+01
 1420.700  .72032E+01
 1421.300  .67961E+01
 1421.900  .60995E+01
 1422.500  .10244E+02
 1423.100  .99104E+01
 1423.700  .84183E+01
 1424.300  .54752E+01
 1424.900  .80371E+01
 1425.500  .39281E+01
 1426.100  .83080E+01
 1426.700  .95701E+01
 1427.300  .71981E+01
 1427.900  .98441E+01
 1428.500  .36082E+01
 1429.100  .64013E+01
 1429.700  .75209E+01
 1430.300  .69632E+01
 1430.900  .74274E+01
 1431.500  .68686E+01
