15.651	5320.8
16.327	5292.8
17.004	5218.8
17.681	5206.8
18.357	4995.8
19.034	5168.8
19.712	4969.8
20.389	5135.8
21.065	5208.8
21.741	5216.8
22.418	5055.8
23.094	5059.8
23.770	4876.8
24.446	5063.8
25.122	5004.8
25.798	5012.8
26.474	5102.8
27.150	5602.8
27.826	5600.8
28.502	5351.2
29.178	5383.3
29.853	5407.3
30.529	5656.8
31.205	5417.8
31.880	5191.8
32.556	5316.8
33.231	5261.8
33.907	5270.8
34.582	5412.8
35.258	5520.8
35.933	5576.8
36.608	5888.8
37.284	6032.8
37.959	5863.9
38.634	5869.2
39.307	5896.3
39.982	6154.8
40.657	5841.8
41.332	5854.8
42.007	5649.8
42.681	5846.8
43.354	6050.8
44.029	5995.8
44.703	6242.3
45.378	6253.9
46.053	6287.1
46.725	6254.8
47.399	6132.8
48.074	5984.8
48.748	6051.8
49.420	6553.8
50.095	6203.4
50.769	6255.6
51.443	6548.8
52.115	6408.8
52.789	6316.6
53.463	6419.8
54.135	6489.8
54.809	6264.8
55.483	6132.8
56.155	6135.8
56.829	6169.8
57.502	6266.8
58.174	6167.8
58.848	6171.8
59.521	6141.8
60.193	6338.4
60.866	6449.0
61.537	6435.6
62.211	6443.9
62.884	6326.6
63.556	6477.8
64.229	6272.8
64.900	6250.8
65.573	6115.8
66.244	6306.8
66.917	6204.8
67.588	6308.8
68.261	6504.8
68.932	6574.8
69.605	6475.8
70.275	6459.8
70.948	6340.8
71.619	6234.8
72.292	6520.8
72.962	6349.0
73.635	6637.8
74.305	6531.8
74.976	6356.8
75.648	6294.8
76.318	6331.0
76.991	6415.9
77.661	6413.0
78.331	6577.8
79.003	6132.8
79.673	6222.8
80.343	6104.8
81.016	6057.8
81.685	5981.8
82.355	5964.8
83.027	6032.8
83.697	6239.8
84.367	6185.7
85.038	6244.5
85.708	6131.3
86.378	6380.8
87.047	6044.8
87.719	5937.8
88.388	6036.8
89.058	6032.8
89.727	5974.8
90.396	5972.8
91.068	5854.8
91.737	6039.8
92.406	6100.2
93.075	6086.3
93.744	6235.8
94.415	6141.8
95.084	6108.8
95.753	6245.8
96.422	6162.8
97.091	6081.8
97.759	5902.8
98.428	5825.8
99.097	5848.8
99.768	5968.8
100.44	6047.8
101.11	6032.8
101.77	5904.8
102.44	5862.8
103.11	5936.8
103.78	5727.8
104.45	5752.8
105.11	5686.8
105.78	5729.8
106.45	5872.8
107.12	6024.8
107.79	5770.0
108.46	5799.1
109.12	5774.2
109.79	5805.8
110.46	5768.8
111.13	5538.8
111.79	5743.8
112.46	5569.8
113.13	5595.8
113.79	5602.8
114.46	5527.8
115.13	5666.8
115.80	5537.8
116.46	5812.8
117.13	5831.8
117.80	5817.8
118.47	5681.8
119.13	5544.8
119.80	5645.8
120.47	5374.8
121.13	5481.8
121.80	5364.8
122.47	5504.8
123.13	5495.8
123.80	5668.8
124.47	5720.8
125.13	5680.8
125.80	5537.8
126.46	5510.8
127.13	5456.8
127.80	5339.8
128.46	5224.8
129.13	5409.8
129.80	5253.8
130.46	5423.8
131.13	5626.8
131.79	5498.8
132.46	5435.8
133.12	5389.8
133.79	5408.8
134.45	5259.8
135.12	5245.8
135.78	5237.8
136.45	5474.8
137.12	5339.8
137.78	5224.8
138.45	5226.8
139.11	5206.8
139.77	5482.8
140.44	5406.8
141.10	5462.8
141.77	5342.8
142.43	5315.8
143.10	5177.8
143.76	5128.8
144.43	5068.8
145.09	5111.8
145.76	5158.8
146.42	5148.8
147.08	5072.8
147.75	5296.8
148.41	5264.8
149.07	5210.8
149.74	5109.8
150.40	4950.8
151.07	5156.8
151.73	5114.8
152.39	5066.8
153.06	4927.8
153.72	5010.8
154.38	5108.8
155.05	5049.8
155.71	5133.8
156.37	5100.8
157.04	5100.8
157.70	5064.8
158.36	5070.8
159.02	5134.8
159.69	5132.8
160.35	4986.8
161.01	4937.8
161.68	4995.8
162.34	4877.8
163.00	4971.8
163.66	5112.8
164.33	5073.8
164.99	5084.8
165.65	5003.8
166.31	5050.8
166.98	5032.8
167.64	4880.8
168.30	4847.8
168.96	4914.8
169.62	4884.8
170.29	4822.8
170.95	5134.8
171.61	5068.8
172.27	4792.8
172.93	4877.8
173.59	4924.8
174.26	4943.8
174.92	4920.8
175.58	4850.8
176.24	4870.8
176.90	4783.8
177.56	4829.8
178.22	4791.8
178.88	4810.8
179.54	4714.8
180.20	4758.8
180.87	4768.8
181.53	4648.8
182.19	4814.8
182.85	4854.8
183.51	4796.8
184.17	4630.8
184.83	4717.8
185.49	4598.8
186.15	4713.8
186.81	4812.8
187.47	4878.8
188.13	4674.8
188.79	4632.8
189.45	4606.8
190.11	4671.8
190.77	4657.8
191.43	4556.8
192.09	4595.8
192.75	4855.8
193.41	4634.8
194.07	4473.8
194.73	4536.8
195.38	4513.8
196.04	4694.8
196.71	4477.8
197.36	4571.8
198.02	4465.8
198.68	4480.8
199.34	4467.8
200.00	4426.8
200.66	4537.8
201.32	4539.8
201.98	4489.8
202.63	4440.8
203.29	4523.8
203.95	4534.8
204.61	4356.8
205.27	4359.8
205.93	4486.8
206.59	4558.8
207.24	4442.8
207.90	4480.8
208.56	4296.8
209.22	4462.8
209.87	4266.8
210.53	4334.8
211.19	4358.8
211.85	4438.8
212.51	4326.8
213.16	4471.8
213.82	4336.8
214.48	4300.8
215.13	4301.8
215.79	4305.8
216.45	4360.8
217.11	4343.8
217.76	4317.8
218.42	4312.8
219.08	4254.8
219.74	4275.8
220.39	4229.8
221.05	4259.8
221.70	4160.8
222.36	4218.8
223.02	4162.8
223.68	4212.8
224.33	4140.8
224.99	4177.8
225.64	4214.8
226.30	4090.8
226.96	4142.8
227.61	4092.8
228.27	4088.8
228.93	4170.8
229.58	4166.8
230.24	4211.8
230.89	4182.8
231.55	3980.8
232.20	3998.8
232.86	4046.8
233.51	3989.8
234.17	4007.8
234.83	4068.8
235.48	3919.8
236.14	4149.8
236.79	3997.8
237.45	4010.8
238.10	4024.8
238.76	3951.8
239.41	3998.8
240.07	3986.8
240.72	4011.8
241.38	4054.8
242.03	3878.8
242.68	3836.8
243.34	3863.8
243.99	3873.8
244.65	4021.8
245.30	3918.8
245.96	3873.8
246.61	3765.8
247.27	3840.8
247.92	3910.8
248.57	3917.8
249.23	3868.8
249.88	3920.8
250.54	3801.8
251.19	3714.8
251.84	3894.8
252.50	3792.8
253.15	3944.8
253.80	3764.8
254.46	3737.8
255.11	3769.8
255.76	3700.8
256.42	3857.8
257.07	3774.8
257.72	3744.8
258.38	3764.8
259.03	3660.8
259.68	3767.8
260.33	3652.8
260.99	3688.8
261.64	3707.8
262.29	3788.8
262.95	3722.8
263.60	3690.8
264.25	3618.8
264.90	3627.8
265.56	3610.8
266.21	3641.8
266.86	3560.8
267.51	3690.8
268.16	3653.8
268.82	3633.8
269.47	3577.8
270.12	3536.8
270.77	3579.8
271.42	3593.8
272.08	3631.8
272.73	3542.8
273.38	3496.8
274.03	3520.8
274.68	3449.8
275.33	3599.8
275.98	3552.8
276.64	3480.8
277.29	3559.8
277.94	3431.8
278.59	3532.8
279.24	3506.8
279.89	3404.8
280.54	3558.8
281.19	3460.8
281.84	3423.8
282.49	3414.8
283.14	3428.8
283.80	3501.8
284.45	3496.8
285.10	3395.8
285.74	3577.8
286.40	3480.8
287.05	3406.8
287.70	3432.8
288.35	3423.8
289.00	3456.8
289.65	3462.8
290.30	3577.8
290.95	3498.8
291.60	3596.8
292.25	3491.8
292.90	3421.8
293.54	3504.8
294.20	3522.8
294.84	3409.8
295.49	3431.8
296.14	3478.8
296.79	3298.8
297.44	3316.8
298.09	3401.8
298.74	3447.8
299.39	3556.8
300.04	3569.8
300.69	3398.8
301.33	3414.8
301.98	3373.8
302.63	3393.8
303.28	3417.8
303.93	3524.8
304.58	3431.8
305.23	3377.8
305.87	3380.8
306.52	3467.8
307.17	3430.8
307.82	3347.8
308.47	3390.8
309.11	3450.8
309.76	3439.8
310.41	3403.8
311.06	3382.8
311.71	3355.8
312.35	3474.8
313.00	3436.8
313.65	3473.8
314.30	3490.8
314.94	3199.8
315.59	3418.8
316.24	3382.8
316.89	3540.8
317.54	3379.8
318.18	3485.8
318.83	3473.8
319.48	3426.8
320.12	3379.8
320.77	3497.8
321.42	3422.8
322.06	3489.8
322.71	3417.8
323.36	3535.8
324.00	3367.8
324.65	3385.8
325.29	3294.8
325.94	3461.8
326.59	3482.8
327.23	3444.8
327.88	3428.8
328.53	3393.8
329.17	3383.8
329.82	3326.8
330.46	3462.8
331.11	3338.8
331.75	3562.8
332.40	3430.8
333.05	3499.8
333.69	3428.8
334.34	3568.8
334.98	3482.8
335.63	3332.8
336.27	3480.8
336.92	3431.8
337.56	3478.8
338.21	3450.8
338.86	3474.8
339.50	3409.8
340.14	3505.8
340.79	3519.8
341.43	3356.8
342.08	3479.8
342.72	3369.8
343.37	3375.8
344.01	3367.8
344.66	3474.8
345.30	3402.8
345.95	3422.8
346.59	3531.8
347.23	3531.8
347.88	3431.8
348.52	3364.8
349.17	3508.8
349.81	3489.8
350.45	3508.8
351.10	3441.8
351.74	3473.8
352.38	3512.8
353.03	3427.8
353.67	3425.8
354.32	3505.8
354.96	3447.8
355.60	3440.8
356.25	3365.8
356.89	3366.8
357.53	3422.8
358.17	3445.8
358.82	3446.8
359.46	3398.8
360.11	3438.8
360.75	3333.8
361.39	3400.8
362.03	3391.8
362.68	3406.8
363.32	3424.8
363.96	3496.8
364.60	3281.8
365.25	3505.8
365.89	3536.8
366.53	3436.8
367.17	3320.8
367.81	3427.8
368.46	3371.8
369.10	3414.8
369.74	3396.8
370.38	3375.8
371.02	3470.8
371.67	3313.8
372.31	3484.8
372.95	3434.8
373.59	3430.8
374.23	3398.8
374.87	3466.8
375.52	3390.8
376.16	3440.8
376.80	3526.8
377.44	3498.8
378.08	3358.8
378.72	3510.8
379.36	3306.8
380.00	3510.8
380.64	3455.8
381.29	3378.8
381.93	3424.8
382.57	3282.8
383.21	3350.8
383.85	3412.8
384.49	3427.8
385.13	3427.8
385.77	3390.8
386.41	3326.8
387.05	3379.8
387.69	3278.8
388.33	3382.8
388.97	3480.8
389.61	3482.8
390.25	3346.8
390.89	3373.8
391.53	3381.8
392.17	3387.8
392.81	3504.8
393.45	3393.8
394.09	3449.8
394.73	3448.8
395.37	3371.8
396.01	3364.8
396.64	3379.8
397.28	3467.8
397.92	3381.8
398.56	3258.8
399.20	3193.8
399.84	3296.8
400.48	3364.8
401.12	3367.8
401.76	3313.8
402.40	3357.8
403.03	3372.8
403.67	3315.8
404.31	3453.8
404.95	3346.8
405.59	3378.8
406.23	3384.8
406.86	3332.8
407.50	3300.8
408.14	3268.8
408.78	3352.8
409.42	3381.8
410.05	3296.8
410.69	3276.8
411.33	3372.8
411.97	3279.8
412.61	3321.8
413.24	3300.8
413.88	3346.8
414.52	3330.8
415.16	3347.8
415.80	3432.8
416.43	3345.8
417.07	3286.8
417.71	3262.8
418.34	3298.8
418.98	3346.8
419.62	3297.8
420.25	3359.8
420.89	3224.8
421.53	3368.8
422.17	3320.8
422.80	3386.8
423.44	3280.8
424.08	3366.8
424.71	3366.8
425.35	3364.8
425.98	3363.8
426.62	3354.8
427.26	3297.8
427.89	3262.8
428.53	3265.8
429.17	3369.8
429.80	3365.8
430.43	3131.8
431.07	3245.8
431.71	3298.8
432.34	3309.8
432.98	3241.8
433.61	3264.8
434.25	3357.8
434.89	3267.8
435.52	3272.8
436.16	3302.8
436.79	3185.8
437.43	3208.8
438.06	3248.8
438.70	3208.8
439.33	3251.8
439.97	3203.8
440.60	3318.8
441.24	3270.8
441.87	3307.8
442.51	3249.8
443.14	3365.8
443.78	3339.8
444.41	3160.8
445.04	3272.8
445.68	3244.8
446.31	3158.8
446.95	3252.8
447.58	3263.8
448.21	3274.8
448.85	3363.8
449.48	3345.8
450.12	3189.8
450.75	3196.8
451.39	3126.8
452.02	3078.8
452.65	3189.8
453.29	3306.8
453.92	3211.8
454.55	3264.8
455.19	3230.8
455.82	3197.8
456.45	3241.8
457.09	3239.8
457.72	3281.8
458.35	3316.8
458.99	3234.8
459.62	3151.8
460.25	3193.8
460.89	3101.8
461.52	3168.8
462.15	3109.8
462.78	3274.8
463.42	3312.8
464.05	3217.8
464.68	3187.8
465.31	3143.6
465.95	3281.7
466.58	3268.2
467.21	3228.3
467.84	3212.9
468.47	3225.3
469.11	3224.3
469.74	3098.3
470.37	3155.2
471.00	3210.9
471.63	3228.9
472.27	3225.3
472.90	3212.2
473.53	3234.4
474.16	3282.7
474.79	3145.5
475.42	3272.6
476.05	3213.4
476.69	3225.4
477.32	3259.8
477.95	3199.2
478.58	3141.7
479.21	3200.9
479.84	3287.8
480.47	3329.2
481.10	3246.8
481.73	3246.5
482.36	3212.5
483.00	3175.6
483.62	3217.3
484.26	3195.3
484.89	3200.1
485.52	3301.6
486.15	3246.1
486.78	3299.0
487.41	3234.1
488.04	3231.5
488.67	3178.2
489.30	3296.2
489.93	3286.9
490.56	3295.2
491.19	3214.4
491.82	3257.5
492.45	3054.9
493.08	3258.1
493.70	3103.2
494.34	3206.7
494.96	3218.7
495.60	3286.5
496.22	3314.9
496.85	3268.9
497.48	3162.3
498.11	3306.5
498.74	3313.2
499.37	3370.2
500.00	3330.6
500.63	3387.5
501.26	3180.9
501.89	3323.8
502.51	3225.5
503.14	3244.4
503.77	3238.0
504.40	3300.3
505.03	3270.5
505.66	3224.5
506.28	3219.5
506.91	3178.5
507.54	3324.0
508.17	3170.8
508.80	3388.9
509.43	3325.2
510.05	3244.3
510.68	3231.0
511.31	3296.8
511.94	3236.2
512.57	3180.2
513.19	3327.8
513.82	3298.6
514.45	3321.3
515.08	3333.3
515.70	3338.9
516.33	3258.9
516.96	3386.4
517.58	3294.9
518.21	3302.1
518.84	3325.3
519.46	3311.1
520.09	3306.8
520.72	3260.7
521.35	3237.6
521.97	3285.8
522.60	3207.2
523.23	3279.2
523.85	3224.6
524.48	3319.9
525.10	3303.2
525.73	3260.9
526.36	3317.4
526.98	3393.5
527.61	3328.4
528.24	3269.3
528.86	3307.1
529.49	3284.8
530.11	3318.8
530.74	3263.4
531.36	3249.0
531.99	3215.4
532.62	3226.9
533.24	3325.7
533.87	3238.8
534.49	3265.8
535.12	3293.9
535.75	3224.0
536.37	3287.6
536.99	3305.2
537.62	3186.0
538.25	3287.5
538.87	3222.3
539.49	3280.3
540.12	3284.1
540.75	3306.5
541.37	3275.9
541.99	3287.9
542.62	3249.9
543.24	3247.0
543.87	3182.0
544.49	3270.6
545.12	3259.8
545.74	3301.8
546.37	3328.0
546.99	3264.1
547.62	3456.6
548.24	3469.6
548.86	3366.0
549.49	3578.6
550.11	3586.5
550.73	3701.1
551.36	3780.0
551.98	3829.1
552.61	3900.8
553.23	4043.0
553.85	4266.5
554.48	4246.2
555.10	4407.4
555.72	4515.9
556.35	4709.0
556.97	4777.9
557.59	4877.8
558.22	5209.2
558.84	5179.0
559.46	5406.5
560.09	5543.5
560.71	5822.8
561.33	5979.2
561.95	6132.2
562.58	6377.7
563.20	6476.7
563.82	6778.4
564.45	6980.5
565.07	7035.7
565.69	7443.3
566.31	7548.6
566.93	7842.9
567.56	7984.0
568.18	8337.7
568.80	8538.4
569.42	8837.9
570.04	9145.3
570.66	9245.5
571.29	9544.7
571.91	9635.7
572.53	9902.9
573.15	9959.6
573.78	10286
574.40	10498
575.02	10774
575.64	10961
576.26	11198
576.88	11315
577.50	11533
578.12	11723
578.74	11983
579.36	12080
579.99	12214
580.61	12256
581.23	12457
581.85	12473
582.47	12658
583.09	12822
583.71	12958
584.33	13150
584.95	13009
585.57	12953
586.19	13180
586.81	13252
587.43	13496
588.05	13290
588.67	13507
589.29	13494
589.91	13787
590.53	13620
591.15	13626
591.77	13676
592.39	13561
593.01	13523
593.63	13610
594.25	13572
594.87	13488
595.49	13411
596.11	13408
596.73	13435
597.35	13336
597.97	13211
598.59	13095
599.20	13099
599.82	13045
600.44	12867
601.06	12917
601.68	12868
602.30	12768
602.92	12811
603.54	12598
604.16	12467
604.77	12441
605.39	12267
606.01	12202
606.63	11889
607.24	11903
607.86	11782
608.48	11650
609.10	11640
609.72	11518
610.34	11429
610.95	11503
611.57	11256
612.19	11102
612.81	10900
613.42	10920
614.04	10842
614.66	10864
615.28	10650
615.89	10466
616.51	10372
617.13	10203
617.75	10256
618.36	10110
618.98	10120
619.60	9947.1
620.21	9701.3
620.83	9530.8
621.45	9500.5
622.07	9422.1
622.68	9331.9
623.30	9364.1
623.91	9175.3
624.53	8890.7
625.15	8887.8
625.76	8724.8
626.38	8823.0
627.00	8713.6
627.61	8676.0
628.23	8514.8
628.84	8244.9
629.46	8158.8
630.08	8243.5
630.69	8194.7
631.31	7927.1
631.92	7956.6
632.54	7789.4
633.15	7859.2
633.77	7592.6
634.39	7479.5
635.00	7457.7
635.61	7453.3
636.23	7361.4
636.85	7283.8
637.46	7113.5
638.08	7035.7
638.69	6969.9
639.31	6912.4
639.92	6674.5
640.54	6771.5
641.15	6572.7
641.77	6561.0
642.38	6387.6
643.00	6352.9
643.61	6404.0
644.22	6286.5
644.84	6298.5
645.45	6102.0
646.07	5990.1
646.68	5991.3
647.29	5887.4
647.91	5783.6
648.53	5677.7
649.14	5704.5
649.75	5665.3
650.37	5419.9
650.98	5443.3
651.59	5471.5
652.21	5373.7
652.82	5385.2
653.44	5314.2
653.67	5208.2
654.29	5199.2
654.91	5187.2
655.54	5052.2
656.16	4951.2
656.78	4962.2
657.40	4946.2
658.02	4849.2
658.64	4875.2
659.26	4706.2
659.88	4733.2
660.50	4521.2
661.12	4598.2
661.74	4386.2
662.37	4433.2
662.99	4314.2
663.61	4449.2
664.23	4337.2
664.85	4352.2
665.47	4357.2
666.09	4219.2
666.71	4103.2
667.33	4301.2
667.95	4116.2
668.57	4107.2
669.19	4083.2
669.81	4127.2
670.43	4061.2
671.05	3905.2
671.67	3928.2
672.29	3875.2
672.91	3863.2
673.53	3873.2
674.14	3771.2
674.77	3817.2
675.38	3658.2
676.00	3751.2
676.62	3654.2
677.24	3615.2
677.86	3546.2
678.48	3543.2
679.10	3555.2
679.72	3518.2
680.34	3541.2
680.95	3435.2
681.57	3388.2
682.19	3409.2
682.81	3471.2
683.43	3081.2
684.05	3367.2
684.66	3272.2
685.28	3402.2
685.90	3325.2
686.52	3215.2
687.14	3139.2
687.76	3156.2
688.38	3218.2
688.99	3210.2
689.61	3050.2
690.23	3110.2
690.84	3081.2
691.46	3075.2
692.08	3108.2
692.70	3054.2
693.32	3105.2
693.93	3021.2
694.55	2994.2
695.17	2885.2
695.78	2966.2
696.40	2833.2
697.02	2900.2
697.64	2906.2
698.25	2947.2
698.87	2923.2
699.49	2847.2
700.10	2773.2
700.72	2788.2
701.34	2817.2
701.96	2772.2
702.57	2778.2
703.19	2668.2
703.80	2741.2
704.42	2605.2
705.04	2658.2
705.65	2641.2
706.27	2664.2
706.89	2701.2
707.50	2616.2
708.12	2596.2
708.73	2559.2
709.35	2654.2
709.97	2577.2
710.58	2446.2
711.20	2593.2
711.81	2545.2
712.43	2474.2
713.04	2507.2
713.66	2416.2
714.28	2447.2
714.89	2465.2
715.51	2553.2
716.12	2437.2
716.74	2444.2
717.35	2420.2
717.97	2494.2
718.58	2450.2
719.20	2463.2
719.81	2452.2
720.43	2384.2
721.04	2401.2
721.66	2399.2
722.27	2386.2
722.89	2351.2
723.50	2423.2
724.11	2407.2
724.73	2329.2
725.34	2379.2
725.96	2363.2
726.57	2375.2
727.19	2312.2
727.80	2322.2
728.42	2291.2
729.03	2270.2
729.64	2304.2
730.26	2159.2
730.87	2355.2
731.48	2258.2
732.10	2295.2
732.71	2267.2
733.33	2326.2
733.94	2253.2
734.55	2351.2
735.16	2285.2
735.78	2282.2
736.39	2243.2
737.01	2165.2
737.62	2323.2
738.23	2220.2
738.85	2240.2
739.46	2415.2
740.07	2228.2
740.68	2302.2
741.30	2241.2
741.91	2229.2
742.52	2241.2
743.14	2225.2
743.75	2285.2
744.36	2248.2
744.97	2185.2
745.59	2180.2
746.20	2204.2
746.81	2243.2
747.42	2219.2
748.03	2138.2
748.65	2170.2
749.26	2227.2
749.87	2267.2
750.48	2193.2
751.09	2162.2
751.70	2112.2
752.32	2161.2
752.93	2198.2
753.54	2091.2
754.15	2178.2
754.76	2226.2
755.37	2079.2
755.99	2147.2
756.60	2101.2
757.21	2126.2
757.82	2171.2
758.43	2160.2
759.04	2112.2
759.65	2036.2
760.26	2114.2
760.87	2062.2
761.48	2103.2
762.09	2138.2
762.71	2097.2
763.32	2101.2
763.93	2030.2
764.54	2055.2
765.15	2021.2
765.76	2098.2
766.37	2083.2
766.98	2094.2
767.59	1998.2
768.20	2009.2
768.81	2010.2
769.42	1935.2
770.03	2017.2
770.64	1928.2
771.25	1984.2
771.86	1958.2
772.47	1934.2
773.08	1932.2
773.69	1908.2
774.30	1912.2
774.91	1896.2
775.52	1891.2
776.13	1829.2
776.74	1970.2
777.35	1805.2
777.95	1915.2
778.56	1863.2
779.17	1833.2
779.78	1887.2
780.39	1804.2
781.00	1797.2
781.61	1836.2
782.22	1776.2
782.83	1830.2
783.44	1788.2
784.04	1844.2
784.65	1744.2
785.26	1800.2
785.87	1766.2
786.48	1757.2
787.09	1685.2
787.69	1695.2
788.30	1698.2
788.91	1691.2
789.52	1637.2
790.13	1681.2
790.73	1607.2
791.34	1589.2
791.95	1619.2
792.56	1705.2
793.17	1579.2
793.77	1608.2
794.38	1674.2
794.99	1542.2
795.60	1504.2
796.20	1507.2
796.81	1510.2
797.42	1542.2
798.03	1472.2
798.63	1500.2
799.24	1519.2
799.85	1540.2
800.45	1484.2
801.06	1506.2
801.67	1473.2
802.27	1485.2
802.88	1451.2
803.49	1459.2
804.09	1503.2
804.70	1496.2
805.31	1418.2
805.91	1444.2
806.52	1413.2
807.13	1373.2
807.73	1336.2
808.34	1381.2
808.95	1400.2
809.55	1368.2
810.16	1341.2
810.76	1439.2
811.37	1427.2
811.97	1392.2
812.58	1327.2
813.19	1372.2
813.79	1269.2
814.40	1289.2
815.00	1286.2
815.61	1340.2
816.21	1322.2
816.82	1407.2
817.43	1336.2
818.03	1323.2
818.64	1354.2
819.24	1391.2
819.85	1390.2
820.45	1400.2
821.05	1309.2
821.66	1342.2
822.27	1324.2
822.87	1320.2
823.47	1349.2
824.08	1365.2
824.68	1342.2
825.29	1392.2
825.89	1358.2
826.50	1365.2
827.10	1328.2
827.71	1384.2
828.31	1322.2
828.91	1320.2
829.52	1384.2
830.12	1349.2
830.73	1334.2
831.33	1370.2
831.94	1412.2
832.54	1357.2
833.14	1332.2
833.75	1358.2
834.35	1377.2
834.95	1335.2
835.56	1400.2
836.16	1441.2
836.76	1408.2
837.37	1394.2
837.97	1460.2
838.58	1370.2
839.18	1389.2
839.78	1443.2
840.38	1443.2
840.99	1351.2
841.59	1403.2
842.19	1438.2
842.79	1502.2
843.40	1400.2
844.00	1439.2
844.60	1367.7
845.20	1441.9
845.81	1439.5
846.41	1495.3
847.01	1471.4
847.61	1507.7
848.22	1477.8
848.82	1429.8
849.42	1449.1
850.03	1456.0
850.63	1471.4
851.23	1498.2
851.83	1467.2
852.43	1469.4
853.03	1480.1
853.64	1489.6
854.24	1500.5
854.84	1488.3
855.44	1544.3
856.04	1523.8
856.64	1534.1
857.24	1584.6
857.84	1476.0
858.45	1472.6
859.05	1498.3
859.65	1526.8
860.25	1529.0
860.85	1485.5
861.45	1563.0
862.05	1548.6
862.66	1566.2
863.26	1548.4
863.86	1519.4
864.46	1602.6
865.06	1535.4
865.66	1546.5
866.26	1588.0
866.86	1518.8
867.46	1520.5
868.06	1532.5
868.66	1605.2
869.26	1598.7
869.86	1509.1
870.46	1547.7
871.06	1521.6
871.66	1565.1
872.26	1604.1
872.86	1602.1
873.46	1569.6
874.06	1591.3
874.66	1591.5
875.26	1579.2
875.86	1594.5
876.46	1625.4
877.06	1600.3
877.66	1534.2
878.26	1612.3
878.86	1555.3
879.46	1569.8
880.05	1611.6
880.65	1626.6
881.25	1622.7
881.85	1656.1
882.45	1621.4
883.05	1660.8
883.65	1722.3
884.24	1587.9
884.84	1695.3
885.44	1752.4
886.04	1715.1
886.64	1763.9
887.24	1774.3
887.84	1723.6
888.43	1764.7
889.03	1807.9
889.63	1662.0
890.23	1833.6
890.83	1768.6
891.43	1842.2
892.02	1860.5
892.62	1875.9
893.22	1907.2
893.82	1878.1
894.42	1965.3
895.01	1946.4
895.61	2015.1
896.21	1959.7
896.81	1960.4
897.40	2076.8
898.00	2072.8
898.60	2017.9
899.20	2096.9
899.79	2141.0
900.39	2120.9
900.99	2167.7
901.58	2236.4
902.18	2256.3
902.78	2331.3
903.38	2391.3
903.97	2322.5
904.57	2386.5
905.16	2472.4
905.76	2546.8
906.36	2579.1
906.96	2509.8
907.55	2638.1
908.15	2674.4
908.74	2817.1
909.34	2861.7
909.94	2820.8
910.53	2938.2
911.13	3011.6
911.72	2995.7
912.32	3131.1
912.92	3172.7
913.51	3257.9
914.11	3306.8
914.70	3314.8
915.30	3426.1
915.90	3537.5
916.49	3591.2
917.09	3632.4
917.68	3780.7
918.28	3839.6
918.87	3857.6
919.47	3932.0
920.06	4044.6
920.66	4056.0
921.25	4243.2
921.85	4385.2
922.44	4463.4
923.04	4568.1
923.63	4673.1
924.23	4646.1
924.82	4811.2
925.42	5056.6
926.01	5191.1
926.60	5144.8
927.20	5292.8
927.79	5375.9
928.39	5445.5
928.98	5651.9
929.58	5758.3
930.17	5886.1
930.77	6024.6
931.36	6197.3
931.95	6333.0
932.55	6400.5
933.14	6506.3
933.74	6644.8
934.33	6773.5
934.92	6868.5
935.52	7030.4
936.11	7248.5
936.70	7446.4
937.30	7262.1
937.89	7648.9
938.48	7692.8
939.08	7877.2
939.67	8048.1
940.26	8115.9
940.86	8292.4
941.45	8431.1
942.04	8525.3
942.64	8843.8
943.23	8827.0
943.82	8941.8
944.41	9080.7
945.01	9164.6
945.60	9348.4
946.19	9533.8
946.78	9485.5
947.38	9658.2
947.97	9628.1
948.56	9708.8
949.15	9844.5
949.75	9860.9
950.34	9973.0
950.93	9976.8
951.52	9976.3
952.11	10120
952.71	9880.5
953.30	9940.8
953.89	9928.9
954.48	9863.6
955.07	9908.7
955.66	9822.3
956.26	9552.3
956.85	9597.1
957.44	9388.5
958.03	9259.1
958.62	9103.2
959.21	8944.3
959.81	8926.5
960.40	8811.2
960.99	8592.8
961.58	8540.0
962.17	8278.5
962.76	8029.6
963.35	7985.4
963.94	7881.2
964.53	7690.6
965.13	7519.9
965.72	7403.2
966.31	7288.1
966.90	7272.2
967.49	7114.1
968.08	6961.2
968.67	6865.6
969.26	6743.1
969.85	6509.2
970.44	6495.3
971.03	6337.1
971.62	6229.8
972.21	6110.8
972.80	6058.1
973.39	5918.9
973.98	5891.5
974.57	5809.2
975.16	5708.8
975.75	5640.5
976.34	5574.8
976.93	5418.8
977.52	5540.0
978.11	5347.7
978.70	5292.3
979.29	5168.1
979.87	5085.3
980.46	5122.9
981.05	5048.1
981.64	4954.5
982.23	4985.3
982.82	4932.6
983.41	4869.4
984.00	4784.6
984.59	4747.7
985.18	4765.8
985.76	4698.0
986.35	4603.4
986.94	4591.4
987.53	4671.5
988.12	4649.1
988.71	4530.1
989.29	4495.6
989.88	4477.0
990.47	4426.6
991.06	4380.7
991.65	4423.9
992.24	4387.6
992.82	4345.8
993.41	4389.1
994.00	4311.4
994.59	4352.9
995.18	4334.3
995.76	4314.2
996.35	4275.7
996.94	4311.3
997.53	4316.1
998.11	4258.6
998.70	4317.3
999.29	4287.9
999.88	4350.0
1000.5	4305.7
1001.0	4365.6
1001.6	4374.2
1002.2	4360.5
1002.8	4414.0
1003.4	4285.3
1004.0	4417.1
1004.6	4330.0
1005.2	4377.9
1005.8	4304.9
1006.3	4484.7
1006.9	4545.8
1007.5	4388.8
1008.1	4541.5
1008.7	4490.3
1009.3	4527.3
1009.8	4566.4
1010.4	4515.6
1011.0	4675.2
1011.6	4568.3
1012.2	4565.2
1012.8	4692.0
1013.4	4704.2
1014.0	4740.8
1014.5	4728.5
1015.1	4739.9
1015.7	4771.5
1016.3	4692.1
1016.9	4832.6
1017.5	4868.5
1018.0	4860.2
1018.6	4893.2
1019.2	4888.8
1019.8	4947.2
1020.4	5005.7
1021.0	5059.1
1021.6	5002.0
1022.2	5143.0
1022.7	5159.0
1023.3	5145.1
1023.9	5221.2
1024.5	5243.4
1025.1	5239.9
1025.7	5258.6
1026.2	5238.3
1026.8	5317.1
1027.4	5313.8
1028.0	5441.9
1028.6	5450.0
1029.2	5551.0
1029.8	5510.5
1030.3	5554.9
1030.9	5681.5
1031.5	5669.0
1032.1	5678.4
1032.7	5690.8
1033.3	5734.9
1033.8	5807.1
1034.4	5819.2
1035.0	5830.2
1035.6	5870.1
1036.2	5919.8
1036.8	5956.4
1037.3	6149.7
1037.9	6036.0
1038.5	6295.3
1039.1	6223.4
1039.7	6337.7
1040.3	6322.0
1040.8	6347.3
1041.4	6290.7
1042.0	6356.7
1042.6	6420.1
1043.2	6550.0
1043.8	6656.5
1044.3	6598.5
1044.9	6899.5
1045.5	6763.7
1046.1	6699.8
1046.7	6830.6
1047.3	6924.6
1047.8	6920.6
1048.4	7095.7
1049.0	7166.5
1049.6	7217.7
1050.2	7375.8
1050.8	7294.0
1051.3	7252.7
1051.9	7236.1
1052.5	7559.4
1053.1	7580.8
1053.7	7692.8
1054.2	7711.9
1054.8	7872.9
1055.4	7849.6
1056.0	7955.4
1056.6	7865.9
1057.2	8065.4
1057.7	8180.2
1058.3	8306.2
1058.9	8403.9
1059.5	8248.5
1060.1	8479.2
1060.6	8637.0
1061.2	8559.6
1061.8	8653.5
1062.4	8825.7
1063.0	8819.1
1063.5	8957.8
1064.1	9084.1
1064.7	9117.0
1065.3	9059.2
1065.9	8958.8
1066.4	9278.7
1067.0	9477.8
1067.6	9614.8
1068.2	9630.2
1068.8	9631.3
1069.3	9587.6
1069.9	9722.8
1070.5	9817.8
1071.1	9647.3
1071.7	9863.2
1072.3	10152
1072.8	10052
1073.4	10104
1074.0	10181
1074.6	10112
1075.2	10323
1075.7	10328
1076.3	10390
1076.9	10377
1077.5	10664
1078.1	10900
1078.6	10771
1079.2	10844
1079.8	11229
1080.4	11287
1080.9	11370
1081.5	11492
1082.1	11347
1082.7	11493
1083.3	11400
1083.8	11292
1084.4	11172
1085.0	11017
1085.2	11351
1085.8	11293
1086.4	11307
1087.0	11261
1087.6	11304
1088.1	11060
1088.7	11157
1089.3	11186
1089.9	11211
1090.5	11216
1091.1	11272
1091.7	11342
1092.2	11094
1092.8	11174
1093.4	11144
1094.0	11057
1094.6	11093
1095.2	11077
1095.7	10965
1096.3	11137
1096.9	10879
1097.5	10686
1098.1	10635
1098.7	10503
1099.3	10424
1099.8	10583
1100.4	10574
1101.0	10427
1101.6	10282
1102.2	10069
1102.8	9920.8
1103.3	9684.8
1103.9	9615.8
1104.5	9635.8
1105.1	9601.8
1105.7	9440.8
1106.3	9360.8
1106.8	9035.8
1107.4	9108.8
1108.0	8558.8
1108.6	8879.8
1109.2	8884.8
1109.8	8404.8
1110.3	8574.8
1110.9	8252.8
1111.5	8282.8
1112.1	8071.8
1112.7	7730.8
1113.3	7666.8
1113.8	7669.8
1114.4	7385.8
1115.0	7505.8
1115.6	7085.8
1116.2	7086.8
1116.8	6842.8
1117.3	6544.8
1117.9	6485.8
1118.5	6542.8
1119.1	6353.8
1119.7	6186.8
1120.3	6028.8
1120.8	5909.8
1121.4	5703.8
1122.0	5624.8
1122.6	5502.8
1123.2	5240.8
1123.7	5356.8
1124.3	5315.8
1124.9	5178.8
1125.5	5151.8
1126.1	4814.8
1126.7	4643.8
1127.2	4548.8
1127.8	4555.8
1128.4	4508.8
1129.0	4493.8
1129.6	4212.8
1130.1	4184.8
1130.7	4162.8
1131.3	3961.8
1131.9	3841.8
1132.5	3858.8
1133.1	3705.8
1133.6	3503.8
1134.2	3608.8
1134.8	3536.8
1135.4	3304.8
1135.9	3240.8
1136.5	3272.8
1137.1	3244.8
1137.7	3121.8
1138.3	2959.8
1138.9	2988.8
1139.4	2980.8
1140.0	2804.8
1140.6	2767.8
1141.2	2783.8
1141.8	2670.8
1142.3	2664.8
1142.9	2724.8
1143.5	2478.8
1144.1	2454.8
1144.7	2279.8
1145.2	2313.8
1145.8	2310.8
1146.4	2291.8
1147.0	2245.8
1147.6	2215.8
1148.1	2168.8
1148.7	2222.8
1149.3	2042.8
1149.9	2068.8
1150.5	2007.8
1151.0	1950.8
1151.6	1904.8
1152.2	1945.8
1152.8	1912.8
1153.3	1788.8
1153.9	1764.8
1154.5	1788.8
1155.1	1792.8
1155.7	1731.8
1156.3	1813.8
1156.8	1694.8
1157.4	1704.8
1158.0	1677.8
1158.6	1671.8
1159.1	1637.8
1159.7	1511.8
1160.3	1591.8
1160.9	1556.8
1161.4	1571.8
1162.0	1417.8
1162.6	1565.8
1163.2	1520.8
1163.8	1534.8
1164.3	1510.8
1164.9	1495.8
1165.5	1526.8
1166.1	1458.8
1166.7	1463.8
1167.2	1452.8
1167.8	1523.8
1168.4	1537.8
1169.0	1479.8
1169.6	1428.8
1170.1	1425.8
1170.7	1488.8
1171.3	1389.8
1171.9	1390.8
1172.4	1365.8
1173.0	1441.8
1173.6	1490.8
1174.2	1407.8
1174.7	1373.8
1175.3	1415.8
1175.9	1409.8
1176.5	1379.8
1177.1	1390.8
1177.6	1347.8
1178.2	1342.8
1178.8	1354.8
1179.4	1288.8
1179.9	1442.8
1180.5	1314.8
1181.1	1298.8
1181.7	1279.8
1182.2	1425.8
1182.8	1417.8
1183.4	1290.8
1184.0	1314.8
1184.6	1289.8
1185.1	1341.8
1185.7	1305.8
1186.3	1332.8
1186.8	1379.8
1187.4	1353.8
1188.0	1358.8
1188.6	1357.8
1189.2	1426.8
1189.7	1336.8
1190.3	1343.8
1190.9	1374.8
1191.4	1331.8
1192.0	1288.8
1192.6	1295.8
1193.2	1296.8
1193.8	1333.8
1194.3	1412.8
1194.9	1326.8
1195.5	1366.8
1196.1	1349.8
1196.6	1371.8
1197.2	1307.8
1197.8	1346.8
1198.4	1317.8
1198.9	1392.8
1199.5	1308.8
1200.1	1275.8
1200.7	1245.8
1201.2	1307.8
1201.8	1368.8
1202.4	1337.8
1202.9	1366.8
1203.5	1288.8
1204.1	1284.8
1204.7	1265.8
1205.3	1225.8
1205.8	1288.8
1206.4	1208.8
1207.0	1267.8
1207.5	1354.8
1208.1	1251.8
1208.7	1309.8
1209.3	1408.8
1209.8	1254.8
1210.4	1231.8
1211.0	1193.8
1211.6	1249.8
1212.1	1255.8
1212.7	1247.8
1213.3	1261.8
1213.8	1275.8
1214.4	1225.8
1215.0	1242.8
1215.6	1293.8
1216.2	1277.8
1216.7	1222.8
1217.3	1277.8
1217.9	1258.8
1218.4	1334.8
1219.0	1374.8
1219.6	1301.8
1220.2	1211.8
1220.7	1219.8
1221.3	1228.8
1221.9	1281.8
1222.4	1248.8
1223.0	1268.8
1223.6	1301.8
1224.2	1285.8
1224.7	1280.8
1225.3	1322.8
1225.9	1323.8
1226.4	1325.8
1227.0	1266.8
1227.6	1280.8
1228.2	1173.8
1228.7	1225.8
1229.3	1306.8
1229.9	1267.8
1230.4	1301.8
1231.0	1258.8
1231.6	1264.8
1232.2	1280.8
1232.7	1272.8
1233.3	1210.8
1233.9	1195.8
1234.4	1142.8
1235.0	1208.8
1235.6	1214.8
1236.2	1221.8
1236.7	1184.8
1237.3	1307.8
1237.9	1322.8
1238.4	1276.8
1239.0	1294.8
1239.6	1214.8
1240.2	1222.8
1240.7	1323.8
1241.3	1284.8
1241.9	1259.8
1242.4	1242.8
1243.0	1267.8
1243.6	1139.8
1244.2	1284.8
1244.7	1235.8
1245.3	1303.8
1245.9	1324.8
1246.4	1288.8
1247.0	1234.8
1247.6	1238.8
1248.2	1224.8
1248.7	1264.8
1249.3	1122.8
1249.9	1197.8
1250.4	1218.8
1251.0	1236.8
1251.6	1222.8
1252.1	1276.8
1252.7	1178.8
1253.3	1201.8
1253.8	1201.8
1254.4	1195.8
1255.0	1135.8
1255.6	1304.8
1256.1	1250.8
1256.7	1206.8
1257.3	1232.8
1257.8	1256.8
1258.4	1215.8
1259.0	1229.8
1259.5	1217.8
1260.1	1258.8
1260.7	1243.8
1261.2	1243.8
1261.8	1199.8
1262.4	1229.8
1262.9	1232.8
1263.5	1194.8
1264.1	1211.8
1264.7	1211.8
1265.2	1195.8
1265.8	1206.8
1266.4	1140.8
1266.9	1240.8
1267.5	1233.8
1268.1	1211.8
1268.6	1127.8
1269.2	1218.8
1269.8	1212.8
1270.3	1213.8
1270.9	1260.8
1271.5	1239.8
1272.0	1282.8
1272.6	1221.8
1273.2	1236.8
1273.7	1251.8
1274.3	1164.8
1274.9	1174.8
1275.4	1128.8
1276.0	1197.8
1276.6	1191.8
1277.1	1211.8
1277.7	1197.8
1278.3	1170.8
1278.8	1222.8
1279.4	1233.8
1280.0	1222.8
1280.5	1275.8
1281.1	1177.8
1281.7	1229.8
1282.2	1222.8
1282.8	1259.8
1283.4	1239.8
1283.9	1210.8
1284.5	1241.8
1285.1	1190.8
1285.6	1248.8
1286.2	1198.8
1286.8	1206.8
1287.3	1184.8
1287.9	1189.8
1288.5	1233.8
1289.0	1203.8
1289.6	1142.8
1290.2	1209.8
1290.7	1192.8
1291.3	1183.8
1291.9	1301.8
1292.4	1226.8
1293.0	1155.8
1293.6	1233.8
1294.1	1143.8
1294.7	1155.8
1295.3	1182.8
1295.8	1169.8
1296.4	1163.8
1297.0	1140.8
1297.5	1180.8
1298.1	1168.8
1298.7	1171.8
1299.2	1197.8
1299.8	1139.8
