 1440.51, 6599.00
 1438.80,  613.00
 1437.09,  639.00
 1435.38,  637.00
 1433.66,  627.00
 1431.95,  657.00
 1430.24,  654.00
 1428.52,  635.00
 1426.81,  653.00
 1425.09,  642.00
 1423.38,  647.00
 1421.66,  630.00
 1419.95,  651.00
 1418.23,  644.00
 1416.52,  626.00
 1414.80,  646.00
 1413.08,  642.00
 1411.37,  651.00
 1409.65,  643.00
 1407.93,  644.00
 1406.21,  643.00
 1404.49,  648.00
 1402.77,  634.00
 1401.05,  646.00
 1399.33,  634.00
 1397.61,  643.00
 1395.89,  655.00
 1394.17,  631.00
 1392.45,  642.00
 1390.73,  639.00
 1389.01,  645.00
 1387.28,  649.00
 1385.56,  645.00
 1383.84,  644.00
 1382.11,  645.00
 1380.39,  639.00
 1378.66,  639.00
 1376.94,  634.00
 1375.21,  644.00
 1373.49,  647.00
 1371.76,  655.00
 1370.04,  641.00
 1368.31,  649.00
 1366.58,  637.00
 1364.85,  613.00
 1363.13,  631.00
 1361.40,  643.00
 1359.67,  641.00
 1357.94,  635.00
 1356.21,  629.00
 1354.48,  635.00
 1352.75,  633.00
 1351.02,  639.00
 1349.29,  641.00
 1347.56,  638.00
 1345.83,  645.00
 1344.09,  637.00
 1342.36,  645.00
 1340.63,  648.00
 1338.90,  631.00
 1337.16,  642.00
 1335.43,  652.00
 1333.69,  635.00
 1331.96,  644.00
 1330.22,  647.00
 1328.49,  626.00
 1326.75,  632.00
 1325.02,  642.00
 1323.28,  631.00
 1321.54,  638.00
 1319.80,  620.00
 1318.07,  647.00
 1316.33,  639.00
 1314.59,  631.00
 1312.85,  635.00
 1311.11,  637.00
 1309.37,  643.00
 1307.63,  658.00
 1305.89,  639.00
 1304.15,  643.00
 1302.41,  642.00
 1300.67,  645.00
 1298.93,  657.00
 1297.18,  641.00
 1295.44,  656.00
 1293.70,  641.00
 1291.95,  650.00
 1290.21,  643.00
 1288.46,  657.00
 1286.72,  649.00
 1284.98,  665.00
 1283.23,  643.00
 1281.48,  643.00
 1279.74,  635.00
 1277.99,  639.00
 1276.24,  646.00
 1274.50,  649.00
 1272.75,  633.00
 1271.00,  647.00
 1269.25,  653.00
 1267.50,  639.00
 1265.75,  644.00
 1264.00,  660.00
 1262.25,  666.00
 1260.50,  653.00
 1258.75,  654.00
 1257.00,  655.00
 1255.25,  671.00
 1253.50,  675.00
 1251.75,  665.00
 1249.99,  655.00
 1248.24,  665.00
 1246.49,  667.00
 1244.73,  671.00
 1242.98,  667.00
 1241.22,  658.00
 1239.47,  665.00
 1237.71,  675.00
 1235.96,  661.00
 1234.20,  675.00
 1232.44,  689.00
 1230.69,  680.00
 1228.93,  676.00
 1227.17,  661.00
 1225.41,  686.00
 1223.66,  679.00
 1221.90,  696.00
 1220.14,  693.00
 1218.38,  709.00
 1216.62,  695.00
 1214.86,  695.00
 1213.10,  701.00
 1211.33,  699.00
 1209.57,  699.00
 1207.81,  712.00
 1206.05,  713.00
 1204.29,  728.00
 1202.52,  721.00
 1200.76,  729.00
 1199.00,  729.00
 1197.23,  730.00
 1195.47,  739.00
 1193.70,  762.00
 1191.94,  754.00
 1190.17,  768.00
 1188.40,  760.00
 1186.64,  778.00
 1184.87,  782.00
 1183.10,  758.00
 1181.33,  773.00
 1179.57,  792.00
 1177.80,  787.00
 1176.03,  818.00
 1174.26,  835.00
 1172.49,  837.00
 1170.72,  858.00
 1168.95,  847.00
 1167.18,  870.00
 1165.41,  888.00
 1163.64,  911.00
 1161.86,  918.00
 1160.09,  946.00
 1158.32,  968.00
 1156.54,  991.00
 1154.77, 1005.00
 1153.00, 1037.00
 1151.22, 1072.00
 1149.45, 1097.00
 1147.67, 1147.00
 1145.90, 1183.00
 1144.12, 1246.00
 1142.35, 1291.00
 1140.57, 1362.00
 1138.79, 1406.00
 1137.01, 1497.00
 1135.24, 1534.00
 1133.46, 1634.00
 1131.68, 1688.00
 1129.90, 1808.00
 1128.12, 1900.00
 1126.34, 1997.00
 1124.56, 2096.00
 1122.78, 2199.00
 1121.00, 2339.00
 1119.22, 2441.00
 1117.44, 2567.00
 1115.65, 2666.00
 1113.87, 2847.00
 1112.09, 2945.00
 1110.31, 3055.00
 1108.52, 3242.00
 1106.74, 3345.00
 1104.95, 3505.00
 1103.17, 3601.00
 1101.38, 3771.00
 1099.60, 3900.00
 1097.81, 4073.00
 1096.02, 4201.00
 1094.24, 4339.00
 1092.45, 4488.00
 1090.66, 4647.00
 1088.87, 4810.00
 1087.09, 4919.00
 1085.30, 5091.00
 1083.51, 5228.00
 1081.72, 5332.00
 1079.93, 5469.00
 1078.14, 5593.00
 1076.35, 5711.00
 1074.56, 5789.00
 1072.76, 5961.00
 1070.97, 6040.00
 1069.18, 6140.00
 1067.39, 6210.00
 1065.59, 6312.00
 1063.80, 6321.00
 1062.01, 6423.00
 1060.21, 6452.00
 1058.42, 6509.00
 1056.62, 6548.00
 1054.83, 6580.00
 1053.03, 6554.00
 1051.24, 6591.00
 1049.44, 6411.00
 1047.64, 6599.00
 1045.84, 6585.00
 1044.05, 6526.00
 1042.25, 6589.00
 1040.45, 6551.00
 1038.65, 6477.00
 1036.85, 6425.00
 1035.05, 6393.00
 1033.25, 6326.00
 1031.45, 6313.00
 1029.65, 6211.00
 1027.85, 6213.00
 1026.05, 6159.00
 1024.24, 6027.00
 1022.44, 6025.00
 1020.64, 5954.00
 1018.84, 5927.00
 1017.03, 5837.00
 1015.23, 5793.00
 1013.42, 5743.00
 1011.62, 5603.00
 1009.81, 5609.00
 1008.01, 5528.00
 1006.20, 5397.00
 1004.39, 5418.00
 1002.59, 5324.00
 1000.78, 5302.00
  998.97, 5214.00
  997.16, 5154.00
  995.36, 5079.00
  993.55, 5050.00
  991.74, 5004.00
  989.93, 4943.00
  988.12, 4866.00
  986.31, 4840.00
  984.50, 4753.00
  982.69, 4660.00
  980.87, 4566.00
  979.06, 4630.00
  977.25, 4556.00
  975.44, 4503.00
  973.62, 4379.00
  971.81, 4341.00
  970.00, 4265.00
  968.18, 4203.00
  966.37, 4174.00
  964.55, 4083.00
  962.74, 4039.00
  960.92, 4010.00
  959.10, 3905.00
  957.29, 3863.00
  955.47, 3827.00
  953.65, 3835.00
  951.83, 3791.00
  950.01, 3787.00
  948.20, 3681.00
  946.38, 3735.00
  944.56, 3718.00
  942.74, 3701.00
  940.92, 3692.00
  939.10, 3688.00
  937.27, 3633.00
  935.45, 3621.00
  933.63, 3581.00
  931.81, 3583.00
  929.99, 3543.00
  928.16, 3517.00
  926.34, 3411.00
  924.52, 3406.00
  922.69, 3318.00
  920.87, 3241.00
  919.04, 3179.00
  917.22, 3082.00
  915.39, 3016.00
  913.56, 2918.00
  911.74, 2842.00
  909.91, 2763.00
  908.08, 2670.00
  906.25, 2564.00
  904.43, 2503.00
  902.60, 2440.00
  900.77, 2338.00
  898.94, 2276.00
  897.11, 2209.00
  895.28, 2096.00
  893.45, 2057.00
  891.62, 1991.00
  889.78, 1939.00
  887.95, 1886.00
  886.12, 1796.00
  884.29, 1734.00
  882.45, 1683.00
  880.62, 1640.00
  878.79, 1599.00
  876.95, 1524.00
  875.12, 1475.00
  873.28, 1433.00
  871.45, 1373.00
  869.61, 1347.00
  867.77, 1324.00
  865.94, 1277.00
  864.10, 1253.00
  862.26, 1246.00
  860.42, 1166.36
  858.59, 1153.76
  856.75, 1106.68
  854.91, 1087.48
  853.07, 1061.80
  851.23, 1046.40
  849.39, 1010.44
  847.55,  982.88
  845.71,  962.84
  843.87,  941.00
  842.02,  930.24
  840.18,  912.88
  838.34,  886.84
  836.49,  891.76
  834.65,  868.40
  832.81,  837.68
  830.96,  830.76
  829.12,  825.48
  827.27,  819.28
  825.43,  803.20
  823.58,  807.32
  821.73,  798.28
  819.89,  778.60
  818.04,  772.56
  818.58,  774.00
  816.74,  781.00
  814.90,  767.00
  813.06,  777.00
  811.22,  769.00
  809.38,  793.00
  807.54,  792.00
  805.70,  817.00
  803.86,  818.00
  802.02,  825.00
  800.18,  839.00
  798.34,  848.00
  796.50,  859.00
  794.65,  896.00
  792.81,  895.00
  790.96,  941.00
  789.12,  952.00
  787.28,  978.00
  785.43, 1004.00
  783.59, 1020.00
  781.74, 1061.00
  779.89, 1081.00
  778.05, 1127.00
  776.20, 1138.00
  774.35, 1168.00
  772.50, 1185.00
  770.66, 1242.00
  768.81, 1255.00
  766.96, 1279.00
  765.11, 1293.00
  763.26, 1297.00
  761.41, 1341.00
  759.56, 1372.00
  757.71, 1403.00
  755.85, 1397.00
  754.00, 1411.00
  752.15, 1439.00
  750.30, 1465.00
  748.44, 1471.00
  746.59, 1468.00
  744.74, 1499.00
  742.88, 1519.00
  741.03, 1527.00
  739.17, 1553.00
  737.31, 1558.00
  735.46, 1595.00
  733.60, 1585.00
  731.74, 1591.00
  729.89, 1617.00
  728.03, 1601.00
  726.17, 1626.00
  724.31, 1622.00
  722.45, 1676.00
  720.59, 1675.00
  718.73, 1690.00
  716.87, 1691.00
  715.01, 1693.00
  713.15, 1723.00
  711.29, 1733.00
  709.43, 1763.00
  707.56, 1762.00
  705.70, 1799.00
  703.84, 1787.00
  701.97, 1820.00
  700.11, 1835.00
  698.25, 1846.00
  696.38, 1859.00
  694.51, 1906.00
  692.65, 1930.00
  690.78, 1963.00
  688.92, 1959.00
  687.05, 1989.00
  685.18, 2052.00
  683.31, 2058.00
  681.45, 2089.00
  679.58, 2131.00
  677.71, 2158.00
  675.84, 2193.00
  673.97, 2258.00
  672.10, 2267.00
  670.23, 2285.00
  668.36, 2367.00
  666.48, 2394.00
  664.61, 2423.00
  662.74, 2437.00
  660.87, 2476.00
  658.99, 2550.00
  657.12, 2583.00
  655.24, 2634.00
  653.37, 2665.00
  651.49, 2671.00
  649.62, 2751.00
  647.74, 2760.00
  645.87, 2792.00
  643.99, 2865.00
  642.11, 2906.00
  640.24, 2921.00
  638.36, 2973.00
  636.48, 2999.00
  634.60, 3019.00
  632.72, 3083.00
  630.84, 3127.00
  628.96, 3108.00
  627.08, 3165.00
  625.20, 3229.00
  623.32, 3244.00
  621.44, 3288.00
  619.55, 3283.00
  617.67, 3310.00
  615.79, 3370.00
  613.91, 3420.00
  612.02, 3419.00
  610.14, 3467.00
  608.25, 3505.00
  606.37, 3479.00
  604.48, 3517.00
  602.60, 3591.00
  600.71, 3605.00
  598.82, 3670.00
  596.93, 3723.00
  595.05, 3755.00
  593.16, 3795.00
  591.27, 3822.00
  589.38, 3863.00
  587.49, 3951.00
  585.60, 3992.00
  583.71, 4037.00
  581.82, 4111.00
  579.93, 4209.00
  578.04, 4293.00
  576.15, 4316.00
  574.25, 4400.00
  572.36, 4431.00
  570.47, 4515.00
  568.57, 4551.00
  566.68, 4562.00
  564.79, 4584.00
  562.89, 4625.00
  561.00, 4626.00
  559.10, 4599.00
  557.20, 4555.00
  555.31, 4543.00
  553.41, 4572.00
  551.51, 4521.00
  549.62, 4463.00
  547.72, 4467.00
  545.82, 4424.00
  543.92, 4425.00
  542.02, 4456.00
  540.12, 4457.00
  538.22, 4457.00
  536.32, 4428.00
  534.42, 4482.00
  532.51, 4529.00
  530.61, 4498.00
  528.71, 4510.00
  526.81, 4555.00
  524.90, 4575.00
  523.00, 4603.00
  521.10, 4578.00
  519.19, 4633.00
  517.29, 4638.00
  515.38, 4629.00
  513.47, 4634.00
  511.57, 4689.00
  509.66, 4673.00
  507.75, 4591.00
  505.85, 4678.00
  503.94, 4604.00
  502.03, 4590.00
  500.12, 4613.00
  498.21, 4576.00
  496.30, 4519.00
  494.39, 4529.00
  492.48, 4496.00
  490.57, 4482.00
  488.66, 4423.00
  486.74, 4321.00
  484.83, 4313.00
  482.92, 4288.00
  481.01, 4290.00
  479.09, 4199.00
  477.18, 4178.00
  475.26, 4175.00
  473.35, 4101.00
  471.43, 4073.00
  469.52, 3999.00
  467.60, 3960.00
  465.69, 3937.00
  463.77, 3869.00
  461.85, 3838.00
  459.93, 3825.00
  458.01, 3756.00
  456.10, 3766.00
  454.18, 3693.00
  452.26, 3689.00
  450.34, 3698.00
  448.42, 3646.00
  446.49, 3460.00
  444.57, 3614.00
  442.65, 3606.00
  440.73, 3571.00
  438.81, 3527.00
  436.88, 3499.00
  434.96, 3486.00
  433.04, 3473.00
  431.11, 3453.00
  429.19, 3436.00
  427.26, 3431.00
  425.34, 3388.00
  423.41, 3374.00
  421.48, 3386.00
  419.56, 3363.00
  417.63, 3393.00
  415.70, 3361.00
  413.77, 3337.00
  411.84, 3305.00
  409.91, 3294.00
  407.98, 3282.00
  406.05, 3292.00
  404.12, 3312.00
  402.19, 3276.00
  400.26, 3243.00
  398.33, 3254.00
  396.40, 3236.00
  394.46, 3207.00
  392.53, 3192.00
  390.60, 3191.00
  388.66, 3175.00
  386.73, 3137.00
  384.79, 3151.00
  382.86, 3154.00
  380.92, 3143.00
  378.99, 3136.00
  377.05, 3104.00
  375.11, 3096.00
  373.18, 3014.00
  371.24, 3105.00
  369.30, 3063.00
  367.36, 3052.00
  365.42, 3046.00
  363.48, 3083.00
  361.54, 3023.00
  359.60, 3023.00
  357.66, 3027.00
  355.72, 3018.00
  353.78, 3038.00
  351.84, 2986.00
  349.89, 2988.00
  347.95, 3021.00
  346.01, 2977.00
  344.06, 2973.00
  342.12, 3018.00
  340.17, 2992.00
  338.23, 2993.00
  336.28, 2992.00
  334.34, 2967.00
  332.39, 2970.00
  330.44, 2949.00
  328.50, 2947.00
  326.55, 2959.00
  324.60, 2911.00
  322.65, 2958.00
  320.70, 2949.00
  318.75, 2955.00
  316.80, 2953.00
  314.85, 2965.00
  312.90, 2954.00
  310.95, 2950.00
  309.00, 2905.00
  307.05, 2906.00
  305.09, 2862.00
  303.14, 2890.00
  301.19, 2850.00
  299.23, 2895.00
  297.28, 2899.00
  295.32, 2895.00
  293.37, 2855.00
  291.41, 2862.00
  289.46, 2850.00
  287.50, 2841.00
  285.54, 2881.00
  283.59, 2863.00
  281.63, 2859.00
  279.67, 2851.00
  277.71, 2820.00
  275.75, 2821.00
  273.79, 2842.00
  271.83, 2844.00
  269.87, 2839.00
  267.91, 2842.00
  265.95, 2873.00
  263.99, 2817.00
  262.02, 2854.00
  260.06, 2840.00
  258.10, 2897.00
  256.14, 2893.00
  254.17, 2859.00
  252.21, 2876.00
  250.24, 2888.00
  248.28, 2884.00
  246.31, 2879.00
  244.34, 2863.00
  242.38, 2879.00
  240.41, 2910.00
  238.44, 2908.00
  236.48, 2906.00
  234.51, 2919.00
  232.54, 2911.00
  230.57, 2887.00
  228.60, 2889.00
  226.63, 2935.00
  224.66, 2951.00
  222.69, 2975.00
  220.72, 2946.00
  218.74, 2976.00
  216.77, 3007.00
  214.80, 2959.00
  212.82, 2999.00
  210.85, 3040.00
  208.88, 3054.00
  206.90, 2996.00
  204.93, 3031.00
  202.95, 3067.00
  200.98, 3056.00
  199.00, 3077.00
