 1440.51, 9201.00
 1438.80, 1030.00
 1437.09, 1050.00
 1435.38, 1047.00
 1433.66, 1053.00
 1431.95, 1053.00
 1430.24, 1055.00
 1428.52, 1050.00
 1426.81, 1071.00
 1425.09, 1041.00
 1423.38, 1055.00
 1421.66, 1039.00
 1419.95, 1031.00
 1418.23, 1061.00
 1416.52, 1030.00
 1414.80, 1031.00
 1413.08, 1044.00
 1411.37, 1058.00
 1409.65, 1075.00
 1407.93, 1055.00
 1406.21, 1055.00
 1404.49, 1069.00
 1402.77, 1055.00
 1401.05, 1053.00
 1399.33, 1044.00
 1397.61, 1063.00
 1395.89, 1053.00
 1394.17, 1058.00
 1392.45, 1057.00
 1390.73, 1059.00
 1389.01, 1069.00
 1387.28, 1069.00
 1385.56, 1067.00
 1383.84, 1066.00
 1382.11, 1065.00
 1380.39, 1084.00
 1378.66, 1057.00
 1376.94, 1051.00
 1375.21, 1074.00
 1373.49, 1079.00
 1371.76, 1071.00
 1370.04, 1077.00
 1368.31, 1055.00
 1366.58, 1077.00
 1364.85, 1079.00
 1363.13, 1077.00
 1361.40, 1082.00
 1359.67, 1085.00
 1357.94, 1089.00
 1356.21, 1074.00
 1354.48, 1082.00
 1352.75, 1097.00
 1351.02, 1104.00
 1349.29, 1077.00
 1347.56, 1086.00
 1345.83, 1095.00
 1344.09, 1107.00
 1342.36, 1073.00
 1340.63, 1091.00
 1338.90, 1091.00
 1337.16, 1114.00
 1335.43, 1098.00
 1333.69, 1087.00
 1331.96, 1079.00
 1330.22, 1087.00
 1328.49, 1081.00
 1326.75, 1078.00
 1325.02, 1064.00
 1323.28, 1088.00
 1321.54, 1091.00
 1319.80, 1090.00
 1318.07, 1082.00
 1316.33, 1091.00
 1314.59, 1085.00
 1312.85, 1070.00
 1311.11, 1091.00
 1309.37, 1063.00
 1307.63, 1088.00
 1305.89, 1059.00
 1304.15, 1090.00
 1302.41, 1089.00
 1300.67, 1084.00
 1298.93, 1083.00
 1297.18, 1074.00
 1295.44, 1099.00
 1293.70, 1071.00
 1291.95, 1064.00
 1290.21, 1086.00
 1288.46, 1092.00
 1286.72, 1076.00
 1284.98, 1067.00
 1283.23, 1066.00
 1281.48, 1077.00
 1279.74, 1067.00
 1277.99, 1064.00
 1276.24, 1077.00
 1274.50, 1078.00
 1272.75, 1065.00
 1271.00, 1084.00
 1269.25, 1074.00
 1267.50, 1081.00
 1265.75, 1057.00
 1264.00, 1072.00
 1262.25, 1069.00
 1260.50, 1071.00
 1258.75, 1070.00
 1257.00, 1071.00
 1255.25, 1092.00
 1253.50, 1090.00
 1251.75, 1065.00
 1249.99, 1067.00
 1248.24, 1089.00
 1246.49, 1087.00
 1244.73, 1087.00
 1242.98, 1071.00
 1241.22, 1088.00
 1239.47, 1095.00
 1237.71, 1107.00
 1235.96, 1114.00
 1234.20, 1119.00
 1232.44, 1127.00
 1230.69, 1129.00
 1228.93, 1147.00
 1227.17, 1145.00
 1225.41, 1185.00
 1223.66, 1187.00
 1221.90, 1204.00
 1220.14, 1223.00
 1218.38, 1231.00
 1216.62, 1257.00
 1214.86, 1279.00
 1213.10, 1284.00
 1211.33, 1340.00
 1209.57, 1346.00
 1207.81, 1384.00
 1206.05, 1437.00
 1204.29, 1467.00
 1202.52, 1500.00
 1200.76, 1557.00
 1199.00, 1629.00
 1197.23, 1639.00
 1195.47, 1714.00
 1193.70, 1765.00
 1191.94, 1826.00
 1190.17, 1877.00
 1188.40, 1951.00
 1186.64, 2026.00
 1184.87, 2096.00
 1183.10, 2161.00
 1181.33, 2260.00
 1179.57, 2329.00
 1177.80, 2425.00
 1176.03, 2509.00
 1174.26, 2630.00
 1172.49, 2712.00
 1170.72, 2825.00
 1168.95, 2941.00
 1167.18, 3062.00
 1165.41, 3177.00
 1163.64, 3262.00
 1161.86, 3420.00
 1160.09, 3569.00
 1158.32, 3663.00
 1156.54, 3802.00
 1154.77, 3928.00
 1153.00, 4066.00
 1151.22, 4214.00
 1149.45, 4351.00
 1147.67, 4467.00
 1145.90, 4589.00
 1144.12, 4765.00
 1142.35, 4885.00
 1140.57, 5085.00
 1138.79, 5195.00
 1137.01, 5363.00
 1135.24, 5481.00
 1133.46, 5695.00
 1131.68, 5795.00
 1129.90, 5955.00
 1128.12, 6155.00
 1126.34, 6317.00
 1124.56, 6457.00
 1122.78, 6665.00
 1121.00, 6883.00
 1119.22, 7022.00
 1117.44, 7207.00
 1115.65, 7414.00
 1113.87, 7610.00
 1112.09, 7794.00
 1110.31, 7958.00
 1108.52, 8190.00
 1106.74, 8390.00
 1104.95, 8466.00
 1103.17, 8695.00
 1101.38, 8835.00
 1099.60, 9019.00
 1097.81, 9095.00
 1096.02, 9056.00
 1094.24, 9162.00
 1092.45, 9201.00
 1090.66, 9169.00
 1088.87, 9151.00
 1087.09, 9129.00
 1085.30, 8921.00
 1083.51, 8845.00
 1081.72, 8625.00
 1079.93, 8501.00
 1078.14, 8324.00
 1076.35, 8100.00
 1074.56, 7868.00
 1072.76, 7661.00
 1070.97, 7347.00
 1069.18, 7213.00
 1067.39, 6943.00
 1065.59, 6664.00
 1063.80, 6433.00
 1062.01, 6212.00
 1060.21, 5977.00
 1058.42, 5728.00
 1056.62, 5526.00
 1054.83, 5333.00
 1053.03, 5140.00
 1051.24, 4989.00
 1049.44, 4635.00
 1047.64, 4602.00
 1045.84, 4437.00
 1044.05, 4274.00
 1042.25, 4147.00
 1040.45, 3984.00
 1038.65, 3800.00
 1036.85, 3686.00
 1035.05, 3541.00
 1033.25, 3448.00
 1031.45, 3305.00
 1029.65, 3203.00
 1027.85, 3091.00
 1026.05, 2988.00
 1024.24, 2904.00
 1022.44, 2797.00
 1020.64, 2710.00
 1018.84, 2615.00
 1017.03, 2547.00
 1015.23, 2442.00
 1013.42, 2363.00
 1011.62, 2338.00
 1009.81, 2251.00
 1008.01, 2201.00
 1006.20, 2116.00
 1004.39, 2092.00
 1002.59, 2055.00
 1000.78, 2016.00
  998.97, 1957.00
  997.16, 1918.00
  995.36, 1888.00
  993.55, 1837.00
  991.74, 1793.00
  989.93, 1772.00
  988.12, 1749.00
  986.31, 1770.00
  984.50, 1711.00
  982.69, 1705.00
  980.87, 1601.00
  979.06, 1698.00
  977.25, 1668.00
  975.44, 1654.00
  973.62, 1679.00
  971.81, 1658.00
  970.00, 1651.00
  968.18, 1624.00
  966.37, 1663.00
  964.55, 1663.00
  962.74, 1633.00
  960.92, 1667.00
  959.10, 1683.00
  957.29, 1659.00
  955.47, 1682.00
  953.65, 1707.00
  951.83, 1725.00
  950.01, 1729.00
  948.20, 1749.00
  946.38, 1719.00
  944.56, 1779.00
  942.74, 1770.00
  940.92, 1795.00
  939.10, 1738.00
  937.27, 1749.00
  935.45, 1698.00
  933.63, 1693.00
  931.81, 1684.00
  929.99, 1653.00
  928.16, 1631.00
  926.34, 1565.00
  924.52, 1571.00
  922.69, 1519.00
  920.87, 1502.00
  919.04, 1461.00
  917.22, 1433.00
  915.39, 1397.00
  913.56, 1381.00
  911.74, 1353.00
  909.91, 1329.00
  908.08, 1298.00
  906.25, 1286.00
  904.43, 1281.00
  902.60, 1259.00
  900.77, 1247.00
  898.94, 1227.00
  897.11, 1212.00
  895.28, 1221.00
  893.45, 1207.00
  891.62, 1206.00
  889.78, 1199.00
  887.95, 1183.00
  886.12, 1187.00
  884.29, 1177.00
  882.45, 1157.00
  880.62, 1167.00
  878.79, 1156.00
  876.95, 1167.00
  875.12, 1153.00
  873.28, 1163.00
  871.45, 1125.00
  869.61, 1139.00
  867.77, 1143.00
  865.94, 1131.00
  864.10, 1149.00
  862.26, 1151.00
  860.42, 1118.68
  858.59, 1114.08
  856.75, 1124.20
  854.91, 1115.80
  853.07, 1119.80
  851.23, 1105.88
  849.39, 1111.36
  847.55, 1096.44
  845.71, 1078.80
  843.87, 1090.80
  842.02, 1083.56
  840.18, 1098.20
  838.34, 1108.56
  836.49, 1097.28
  834.65, 1114.20
  832.81, 1114.88
  830.96, 1107.96
  829.12, 1143.88
  827.27, 1158.52
  825.43, 1155.40
  823.58, 1188.12
  821.73, 1210.52
  819.89, 1209.24
  818.04, 1242.68
  818.58, 1268.00
  816.74, 1283.00
  814.90, 1301.00
  813.06, 1334.00
  811.22, 1357.00
  809.38, 1394.00
  807.54, 1427.00
  805.70, 1455.00
  803.86, 1471.00
  802.02, 1491.00
  800.18, 1528.00
  798.34, 1524.00
  796.50, 1542.00
  794.65, 1582.00
  792.81, 1604.00
  790.96, 1637.00
  789.12, 1618.00
  787.28, 1616.00
  785.43, 1676.00
  783.59, 1646.00
  781.74, 1679.00
  779.89, 1671.00
  778.05, 1688.00
  776.20, 1675.00
  774.35, 1710.00
  772.50, 1698.00
  770.66, 1689.00
  768.81, 1727.00
  766.96, 1688.00
  765.11, 1694.00
  763.26, 1695.00
  761.41, 1697.00
  759.56, 1675.00
  757.71, 1670.00
  755.85, 1628.00
  754.00, 1642.00
  752.15, 1651.00
  750.30, 1605.00
  748.44, 1596.00
  746.59, 1558.00
  744.74, 1576.00
  742.88, 1571.00
  741.03, 1527.00
  739.17, 1530.00
  737.31, 1523.00
  735.46, 1509.00
  733.60, 1509.00
  731.74, 1515.00
  729.89, 1518.00
  728.03, 1523.00
  726.17, 1517.00
  724.31, 1540.00
  722.45, 1533.00
  720.59, 1524.00
  718.73, 1531.00
  716.87, 1540.00
  715.01, 1543.00
  713.15, 1578.00
  711.29, 1577.00
  709.43, 1599.00
  707.56, 1601.00
  705.70, 1607.00
  703.84, 1627.00
  701.97, 1671.00
  700.11, 1667.00
  698.25, 1671.00
  696.38, 1692.00
  694.51, 1713.00
  692.65, 1739.00
  690.78, 1764.00
  688.92, 1799.00
  687.05, 1821.00
  685.18, 1844.00
  683.31, 1867.00
  681.45, 1907.00
  679.58, 1920.00
  677.71, 1952.00
  675.84, 1988.00
  673.97, 2009.00
  672.10, 2017.00
  670.23, 2065.00
  668.36, 2121.00
  666.48, 2143.00
  664.61, 2167.00
  662.74, 2198.00
  660.87, 2261.00
  658.99, 2283.00
  657.12, 2342.00
  655.24, 2395.00
  653.37, 2423.00
  651.49, 2456.00
  649.62, 2519.00
  647.74, 2555.00
  645.87, 2611.00
  643.99, 2642.00
  642.11, 2735.00
  640.24, 2780.00
  638.36, 2818.00
  636.48, 2859.00
  634.60, 2948.00
  632.72, 3015.00
  630.84, 3065.00
  628.96, 3094.00
  627.08, 3182.00
  625.20, 3303.00
  623.32, 3327.00
  621.44, 3377.00
  619.55, 3431.00
  617.67, 3544.00
  615.79, 3591.00
  613.91, 3653.00
  612.02, 3753.00
  610.14, 3811.00
  608.25, 3887.00
  606.37, 3969.00
  604.48, 4047.00
  602.60, 4194.00
  600.71, 4210.00
  598.82, 4318.00
  596.93, 4407.00
  595.05, 4467.00
  593.16, 4553.00
  591.27, 4613.00
  589.38, 4665.00
  587.49, 4678.00
  585.60, 4697.00
  583.71, 4756.00
  581.82, 4771.00
  579.93, 4801.00
  578.04, 4842.00
  576.15, 4902.00
  574.25, 5007.00
  572.36, 5008.00
  570.47, 5103.00
  568.57, 5199.00
  566.68, 5295.00
  564.79, 5386.00
  562.89, 5507.00
  561.00, 5673.00
  559.10, 5732.00
  557.20, 5871.00
  555.31, 6031.00
  553.41, 6143.00
  551.51, 6343.00
  549.62, 6465.00
  547.72, 6642.00
  545.82, 6845.00
  543.92, 7011.00
  542.02, 7224.00
  540.12, 7361.00
  538.22, 7543.00
  536.32, 7649.00
  534.42, 7729.00
  532.51, 7762.00
  530.61, 7639.00
  528.71, 7561.00
  526.81, 7455.00
  524.90, 7093.00
  523.00, 6804.00
  521.10, 6455.00
  519.19, 6191.00
  517.29, 5933.00
  515.38, 5658.00
  513.47, 5462.00
  511.57, 5317.00
  509.66, 5161.00
  507.75, 5053.00
  505.85, 4943.00
  503.94, 4851.00
  502.03, 4815.00
  500.12, 4710.00
  498.21, 4647.00
  496.30, 4629.00
  494.39, 4574.00
  492.48, 4530.00
  490.57, 4433.00
  488.66, 4486.00
  486.74, 4377.00
  484.83, 4391.00
  482.92, 4326.00
  481.01, 4317.00
  479.09, 4265.00
  477.18, 4289.00
  475.26, 4246.00
  473.35, 4209.00
  471.43, 4181.00
  469.52, 4174.00
  467.60, 4120.00
  465.69, 4139.00
  463.77, 4085.00
  461.85, 4093.00
  459.93, 4039.00
  458.01, 4027.00
  456.10, 4038.00
  454.18, 4007.00
  452.26, 3989.00
  450.34, 3961.00
  448.42, 3964.00
  446.49, 3796.00
  444.57, 3905.00
  442.65, 3880.00
  440.73, 3855.00
  438.81, 3839.00
  436.88, 3823.00
  434.96, 3800.00
  433.04, 3819.00
  431.11, 3749.00
  429.19, 3790.00
  427.26, 3736.00
  425.34, 3685.00
  423.41, 3722.00
  421.48, 3676.00
  419.56, 3651.00
  417.63, 3676.00
  415.70, 3626.00
  413.77, 3652.00
  411.84, 3609.00
  409.91, 3628.00
  407.98, 3591.00
  406.05, 3583.00
  404.12, 3545.00
  402.19, 3552.00
  400.26, 3514.00
  398.33, 3542.00
  396.40, 3507.00
  394.46, 3464.00
  392.53, 3481.00
  390.60, 3444.00
  388.66, 3443.00
  386.73, 3464.00
  384.79, 3405.00
  382.86, 3420.00
  380.92, 3427.00
  378.99, 3388.00
  377.05, 3381.00
  375.11, 3396.00
  373.18, 3299.00
  371.24, 3353.00
  369.30, 3353.00
  367.36, 3343.00
  365.42, 3324.00
  363.48, 3345.00
  361.54, 3312.00
  359.60, 3275.00
  357.66, 3288.00
  355.72, 3286.00
  353.78, 3249.00
  351.84, 3249.00
  349.89, 3242.00
  347.95, 3268.00
  346.01, 3227.00
  344.06, 3234.00
  342.12, 3248.00
  340.17, 3254.00
  338.23, 3200.00
  336.28, 3187.00
  334.34, 3164.00
  332.39, 3179.00
  330.44, 3207.00
  328.50, 3165.00
  326.55, 3215.00
  324.60, 3168.00
  322.65, 3194.00
  320.70, 3170.00
  318.75, 3171.00
  316.80, 3228.00
  314.85, 3221.00
  312.90, 3270.00
  310.95, 3251.00
  309.00, 3203.00
  307.05, 3129.00
  305.09, 3071.00
  303.14, 3046.00
  301.19, 3082.00
  299.23, 3093.00
  297.28, 3033.00
  295.32, 3030.00
  293.37, 3005.00
  291.41, 3034.00
  289.46, 3027.00
  287.50, 3041.00
  285.54, 2996.00
  283.59, 3024.00
  281.63, 3029.00
  279.67, 2992.00
  277.71, 2999.00
  275.75, 3007.00
  273.79, 2998.00
  271.83, 2987.00
  269.87, 2999.00
  267.91, 2980.00
  265.95, 2958.00
  263.99, 2993.00
  262.02, 3017.00
  260.06, 2974.00
  258.10, 3006.00
  256.14, 3001.00
  254.17, 3015.00
  252.21, 3019.00
  250.24, 3011.00
  248.28, 3038.00
  246.31, 3038.00
  244.34, 3030.00
  242.38, 3018.00
  240.41, 3062.00
  238.44, 3067.00
  236.48, 3095.00
  234.51, 3071.00
  232.54, 3162.00
  230.57, 3135.00
  228.60, 3089.00
  226.63, 3171.00
  224.66, 3149.00
  222.69, 3186.00
  220.72, 3203.00
  218.74, 3185.00
  216.77, 3204.00
  214.80, 3216.00
  212.82, 3248.00
  210.85, 3257.00
  208.88, 3261.00
  206.90, 3313.00
  204.93, 3284.00
  202.95, 3304.00
  200.98, 3318.00
  199.00, 3363.00
