 1361.90,  297.00
 1361.06,  267.00
 1360.22,  276.80
 1359.39,  250.20
 1358.55,  267.60
 1357.71,  256.00
 1356.87,  265.60
 1356.04,  259.60
 1355.20,  286.80
 1354.36,  297.60
 1353.52,  300.40
 1352.69,  299.40
 1351.85,  258.80
 1351.01,  259.40
 1350.17,  250.80
 1349.34,  254.40
 1348.50,  260.80
 1347.66,  260.60
 1346.82,  305.20
 1345.98,  310.20
 1345.14,  311.40
 1344.30,  310.00
 1343.46,  306.40
 1342.63,  285.20
 1341.79,  290.00
 1340.95,  247.60
 1340.11,  286.60
 1339.27,  264.80
 1338.43,  239.40
 1337.59,  263.80
 1336.75,  265.20
 1335.91,  218.40
 1335.07,  208.60
 1334.23,  244.60
 1333.39,  283.00
 1332.55,  226.80
 1331.71,  125.40
 1330.87,   59.80
 1330.03,  192.60
 1329.19,  221.40
 1328.35,  231.80
 1327.51,  272.60
 1326.67,  301.00
 1325.83,  265.00
 1324.99,  258.40
 1324.15,  254.80
 1323.30,  287.20
 1322.46,  305.60
 1321.62,  301.40
 1320.78,  294.60
 1319.94,  290.40
 1319.10,  262.80
 1318.26,  261.80
 1317.41,  279.80
 1316.57,  313.40
 1315.73,  288.00
 1314.89,  289.00
 1314.05,  292.20
 1313.21,  306.80
 1312.36,  272.60
 1311.52,  241.40
 1310.68,  218.00
 1309.84,  258.80
 1308.99,  269.40
 1308.15,  277.20
 1307.31,  299.40
 1306.46,  287.80
 1305.62,  292.60
 1304.78,  300.80
 1303.93,  287.40
 1303.09,  304.20
 1302.25,  298.00
 1301.40,  296.40
 1300.56,  281.00
 1299.71,  277.60
 1298.87,  329.40
 1298.03,  317.40
 1297.18,  318.00
 1296.34,  323.40
 1295.50,  297.80
 1294.65,  285.60
 1293.81,  295.60
 1292.96,  339.40
 1292.12,  332.40
 1291.27,  293.20
 1290.43,  271.20
 1289.58,  270.80
 1288.74,  276.80
 1287.89,  266.40
 1287.05,  270.80
 1286.20,  279.00
 1285.36,  320.80
 1284.51,  302.20
 1283.67,  300.40
 1282.82,  298.80
 1281.97,  271.20
 1281.13,  268.20
 1280.28,  268.00
 1279.44,  282.80
 1278.59,  285.80
 1277.74,  287.60
 1276.90,  286.20
 1276.05,  264.60
 1275.20,  245.60
 1274.36,  282.80
 1273.51,  304.60
 1272.66,  298.40
 1271.82,  288.20
 1270.97,  265.80
 1270.12,  281.00
 1269.27,  272.00
 1268.43,  271.20
 1267.58,  297.80
 1266.73,  309.00
 1265.88,  292.00
 1265.04,  285.00
 1264.19,  291.00
 1263.34,  303.60
 1262.49,  305.40
 1261.64,  303.40
 1260.80,  289.80
 1259.95,  274.60
 1259.10,  289.60
 1258.25,  295.20
 1257.40,  296.00
 1256.55,  313.80
 1255.71,  318.60
 1254.86,  300.60
 1254.01,  319.40
 1253.16,  303.80
 1252.31,  319.20
 1251.46,  305.20
 1250.61,  290.20
 1249.76,  303.80
 1248.91,  328.40
 1248.06,  338.60
 1247.21,  321.60
 1246.36,  310.80
 1245.51,  306.20
 1244.66,  295.40
 1243.81,  299.00
 1242.96,  323.80
 1242.11,  317.40
 1241.26,  337.60
 1240.41,  358.40
 1239.56,  347.80
 1238.71,  313.00
 1237.86,  319.20
 1237.00,  332.40
 1236.15,  339.80
 1235.30,  343.00
 1234.45,  299.60
 1233.60,  293.80
 1232.75,  334.20
 1231.90,  363.60
 1231.04,  343.80
 1230.19,  342.80
 1229.34,  362.20
 1228.49,  377.80
 1227.64,  358.40
 1226.79,  375.80
 1225.93,  368.40
 1225.08,  346.40
 1224.23,  349.00
 1223.37,  342.40
 1222.52,  344.20
 1221.67,  329.00
 1220.82,  332.20
 1219.96,  332.60
 1219.11,  349.60
 1218.26,  366.00
 1217.40,  357.60
 1216.55,  349.80
 1215.70,  407.40
 1214.84,  449.40
 1213.99,  424.80
 1213.14,  419.60
 1212.28,  405.80
 1211.43,  398.80
 1210.57,  410.20
 1209.72,  444.60
 1208.87,  433.40
 1208.01,  434.60
 1207.16,  425.80
 1206.30,  437.00
 1205.45,  470.80
 1204.59,  487.00
 1203.74,  480.40
 1202.88,  479.60
 1202.03,  469.60
 1201.17,  484.00
 1200.32,  475.20
 1199.46,  474.00
 1198.61,  453.60
 1197.75,  490.20
 1196.90,  526.00
 1196.04,  539.20
 1195.19,  493.40
 1194.33,  478.20
 1193.47,  493.60
 1192.62,  540.00
 1191.76,  551.60
 1190.90,  569.20
 1190.05,  587.20
 1189.19,  592.40
 1188.33,  619.40
 1187.48,  646.20
 1186.62,  640.80
 1185.76,  660.40
 1184.91,  666.20
 1184.05,  701.40
 1183.19,  712.40
 1182.34,  691.20
 1181.48,  704.40
 1180.62,  742.40
 1179.76,  796.80
 1178.91,  864.20
 1178.05,  836.80
 1177.19,  836.80
 1176.33,  791.80
 1175.47,  846.00
 1174.62,  889.40
 1173.76,  907.20
 1172.90,  945.80
 1172.04, 1001.60
 1171.18, 1022.20
 1170.32, 1068.00
 1169.46, 1068.40
 1168.61, 1094.40
 1167.75, 1168.80
 1166.89, 1197.60
 1166.03, 1201.00
 1165.17, 1174.40
 1164.31, 1229.00
 1163.45, 1317.60
 1162.59, 1330.80
 1161.73, 1358.40
 1160.87, 1448.20
 1160.01, 1470.20
 1159.15, 1524.80
 1158.29, 1566.00
 1157.43, 1616.60
 1156.57, 1667.20
 1155.71, 1692.80
 1154.85, 1754.00
 1153.99, 1827.80
 1153.13, 1946.00
 1152.27, 2005.80
 1151.41, 2019.20
 1150.55, 2020.20
 1149.69, 2110.40
 1148.82, 2216.20
 1147.96, 2274.80
 1147.10, 2360.20
 1146.24, 2435.00
 1145.38, 2526.80
 1144.52, 2626.00
 1143.65, 2642.80
 1142.79, 2704.00
 1141.93, 2710.60
 1141.07, 2877.00
 1140.21, 3125.80
 1139.34, 3122.20
 1138.48, 3108.00
 1137.62, 3119.00
 1136.76, 3361.80
 1135.89, 3503.20
 1135.03, 3628.40
 1134.17, 3767.80
 1133.31, 3973.60
 1132.44, 3967.60
 1131.58, 4011.40
 1130.72, 4209.40
 1129.85, 4227.00
 1128.99, 4263.80
 1128.13, 4457.80
 1127.26, 4623.20
 1126.40, 4677.20
 1125.53, 4836.00
 1124.67, 4954.00
 1123.81, 5176.40
 1122.94, 5357.40
 1122.08, 5525.20
 1121.21, 5587.40
 1120.35, 5621.40
 1119.48, 5750.40
 1118.62, 5984.60
 1117.76, 6079.00
 1116.89, 6231.20
 1116.03, 6405.80
 1115.16, 6561.20
 1114.30, 6816.80
 1113.43, 6956.80
 1112.56, 6985.20
 1111.70, 6986.80
 1110.83, 7058.80
 1109.97, 7344.20
 1109.10, 7662.40
 1108.24, 7710.60
 1107.37, 7905.40
 1106.50, 8064.00
 1105.64, 8042.00
 1104.77, 8098.40
 1103.91, 8156.60
 1103.04, 8245.60
 1102.17, 8395.80
 1101.31, 8467.00
 1100.44, 8691.80
 1099.57, 8885.40
 1098.71, 9119.80
 1097.84, 9106.80
 1096.97, 9236.40
 1096.11, 9419.60
 1095.24, 9704.20
 1094.37, 9665.00
 1093.50, 9780.60
 1092.63, 9802.20
 1091.77, 9878.00
 1090.90,10087.00
 1090.03,10229.80
 1089.16,10115.20
 1088.29,10196.20
 1087.43,10182.00
 1086.56,10314.00
 1085.69,10494.80
 1084.82,10607.40
 1083.95,10512.80
 1083.08,10467.40
 1082.21,10483.00
 1081.35,10406.60
 1080.47,10342.20
 1079.61,10471.80
 1078.74,10649.00
 1077.87,10422.00
 1077.00,10404.00
 1076.13,10222.40
 1075.26,10311.00
 1074.39,10222.40
 1073.52,10275.20
 1072.65,10371.00
 1071.78, 9904.00
 1070.91, 9923.20
 1070.04,10051.00
 1069.17, 9985.00
 1068.30,10032.20
 1067.43, 9958.60
 1066.56, 9742.20
 1065.69, 9811.60
 1064.82, 9864.20
 1063.95, 9728.40
 1063.07, 9702.80
 1062.20, 9515.40
 1061.33, 9436.80
 1060.46, 9440.00
 1059.59, 9374.80
 1058.72, 9083.80
 1057.85, 9104.80
 1056.97, 9138.00
 1056.10, 8979.00
 1055.23, 8967.40
 1054.36, 8892.40
 1053.49, 8862.20
 1052.61, 8719.80
 1051.74, 8391.20
 1050.87, 8343.20
 1050.00, 8396.80
 1049.12, 8269.00
 1048.25, 8161.00
 1047.38, 8177.00
 1046.51, 8125.00
 1045.63, 8036.20
 1044.76, 7941.40
 1043.88, 7900.20
 1043.01, 7719.60
 1042.14, 7687.20
 1041.27, 7550.40
 1040.39, 7428.80
 1039.52, 7342.20
 1038.64, 7249.60
 1037.77, 7225.00
 1036.90, 7169.80
 1036.02, 7063.80
 1035.15, 6931.60
 1034.27, 6715.80
 1033.40, 6591.40
 1032.52, 6671.60
 1031.65, 6506.60
 1030.77, 6453.20
 1029.90, 6289.40
 1029.02, 6174.60
 1028.15, 6108.20
 1027.27, 5997.60
 1026.40, 5943.80
 1025.52, 5827.80
 1024.65, 5847.80
 1023.77, 5771.60
 1022.90, 5808.20
 1022.02, 5792.60
 1021.14, 5561.80
 1020.27, 5553.80
 1019.39, 5628.00
 1018.52, 5582.20
 1017.64, 5521.60
 1016.76, 5367.80
 1015.89, 5413.60
 1015.01, 5397.60
 1014.13, 5326.60
 1013.26, 5297.80
 1012.38, 5282.80
 1011.50, 5167.00
 1010.63, 4966.40
 1009.75, 5008.20
 1008.87, 4981.40
 1007.99, 4854.40
 1007.12, 4923.00
 1006.24, 4892.20
 1005.36, 4847.40
 1004.48, 4711.60
 1003.61, 4551.40
 1002.72, 4574.40
 1001.85, 4628.40
 1000.97, 4617.40
 1000.09, 4621.60
  999.21, 4560.00
  998.33, 4387.00
  997.46, 4305.60
  996.58, 4231.00
  995.70, 4261.60
  994.82, 4220.00
  993.94, 4194.80
  993.06, 4265.80
  992.18, 4256.00
  991.30, 4208.20
  990.42, 4219.40
  989.54, 4085.00
  988.66, 4071.20
  987.78, 3997.00
  986.90, 3998.80
  986.02, 3911.00
  985.14, 3865.60
  984.26, 3764.40
  983.38, 3755.40
  982.50, 3709.60
  981.62, 3637.00
  980.74, 3640.00
  979.86, 3637.20
  978.98, 3572.00
  978.10, 3560.80
  977.22, 3469.60
  976.34, 3459.40
  975.46, 3487.00
  974.57, 3515.40
  973.69, 3409.20
  972.81, 3454.40
  971.93, 3465.20
  971.05, 3313.40
  970.16, 3273.20
  969.28, 3277.40
  968.40, 3290.40
  967.52, 3238.20
  966.64, 3243.20
  965.76, 3276.80
  964.87, 3153.20
  963.99, 3198.00
  963.11, 3264.80
  962.22, 3257.00
  961.34, 3306.60
  960.46, 3223.60
  959.58, 3247.80
  958.69, 3352.00
  957.81, 3267.20
  956.93, 3296.20
  956.04, 3332.00
  955.16, 3358.00
  954.28, 3231.20
  953.39, 3266.20
  952.51, 3389.80
  951.62, 3443.80
  950.74, 3382.60
  949.86, 3379.80
  948.97, 3414.80
  948.09, 3323.60
  947.20, 3334.80
  946.32, 3311.60
  945.43, 3349.60
  944.55, 3319.80
  943.66, 3322.80
  942.78, 3360.80
  941.89, 3470.20
  941.01, 3393.20
  940.12, 3348.40
  939.24, 3303.40
  938.35, 3242.40
  937.47, 3267.00
  936.58, 3369.00
  935.70, 3337.80
  934.81, 3283.00
  933.92, 3189.40
  933.04, 3105.00
  932.15, 3029.20
  931.26, 3017.00
  930.38, 3070.80
  929.49, 3101.00
  928.60, 2988.00
  927.72, 2861.60
  926.83, 2799.60
  925.94, 2803.80
  925.06, 2744.00
  924.17, 2659.00
  923.28, 2477.00
  922.39, 2414.40
  921.51, 2429.80
  920.62, 2435.80
  919.73, 2279.20
  918.84, 2210.40
  917.96, 2144.60
  917.07, 2121.20
  916.18, 2188.00
  915.29, 2114.40
  914.40, 1999.20
  913.52, 2027.40
  912.63, 2020.00
  911.74, 1975.40
  910.85, 1912.00
  909.96, 1853.00
  909.07, 1741.20
  908.18, 1696.00
  907.29, 1636.80
  906.40, 1600.00
  905.51, 1616.60
  904.63, 1536.40
  903.74, 1468.60
  902.84, 1509.20
  901.96, 1486.40
  901.06, 1448.40
  900.18, 1400.20
  899.29, 1363.40
  898.40, 1279.60
  897.50, 1243.40
  896.61, 1231.20
  895.72, 1255.40
  894.83, 1192.40
  893.94, 1162.20
  893.05, 1197.20
  892.16, 1138.20
  891.27, 1112.60
  890.38, 1083.20
  889.49, 1036.60
  888.60, 1028.80
  887.71, 1003.00
  886.81,  977.40
  885.92, 1011.60
  885.03,  993.80
  884.14,  940.80
  883.25,  922.40
  882.35,  894.20
  881.46,  865.40
  880.57,  852.40
  879.68,  783.00
  878.79,  773.40
  877.89,  818.40
  877.00,  844.60
  876.11,  843.60
  875.21,  823.00
  874.32,  790.60
  873.43,  807.40
  872.53,  786.60
  871.64,  732.40
  870.75,  763.40
  869.85,  782.80
  868.96,  755.80
  868.07,  760.20
  867.17,  760.00
  866.28,  743.00
  865.39,  680.80
  864.49,  657.40
  863.60,  693.80
  862.70,  729.20
  861.81,  727.00
  860.91,  693.80
  860.02,  678.40
  859.13,  666.60
  858.23,  690.00
  857.33,  658.40
  856.44,  649.80
  855.54,  663.60
  854.65,  677.80
  853.75,  689.60
  852.86,  701.40
  851.96,  665.60
  851.07,  681.60
  850.17,  674.00
  849.28,  697.80
  848.38,  712.20
  847.48,  686.60
  846.59,  643.80
  845.69,  647.60
  844.79,  612.00
  843.90,  669.60
  843.00,  670.00
  842.10,  675.60
  841.21,  658.80
  840.31,  652.60
  839.41,  660.80
  838.52,  666.60
  837.62,  689.40
  836.72,  708.00
  835.82,  707.60
  834.93,  683.40
  834.03,  651.80
  833.06,  651.51
  832.16,  624.83
  831.27,  618.32
  830.38,  645.12
  829.48,  654.40
  828.59,  656.55
  827.70,  647.83
  826.80,  640.83
  825.91,  621.56
  825.02,  624.25
  824.12,  617.11
  823.23,  603.87
  822.34,  629.52
  821.44,  622.08
  820.55,  641.22
  819.65,  651.48
  818.76,  651.57
  817.87,  650.46
  816.97,  631.60
  816.08,  657.68
  815.18,  694.01
  814.29,  697.27
  813.39,  711.96
  812.50,  691.76
  811.60,  723.22
  810.71,  749.56
  809.81,  741.52
  808.91,  755.27
  808.02,  745.00
  807.13,  752.97
  806.23,  748.71
  805.33,  786.16
  804.44,  829.82
  803.54,  857.38
  802.64,  862.49
  801.75,  901.58
  800.85,  905.60
  799.96,  892.32
  799.06,  902.62
  798.16,  947.10
  797.27,  968.76
  796.37, 1007.30
  795.47,  954.35
  794.58,  867.10
  793.68,  991.38
  792.78, 1102.87
  791.88, 1134.93
  790.98, 1115.39
  790.09, 1123.02
  789.19, 1157.10
  788.29, 1125.88
  787.40, 1173.41
  786.50, 1203.42
  785.60, 1248.14
  784.70, 1309.04
  783.80, 1309.13
  782.90, 1322.14
  782.01, 1244.97
  781.11, 1306.02
  780.21, 1339.73
  779.31, 1300.45
  778.41, 1273.25
  777.51, 1300.37
  776.61, 1332.03
  775.71, 1302.15
  774.81, 1329.35
  773.91, 1336.11
  773.01, 1362.46
  772.11, 1420.97
  771.21, 1373.09
  770.31, 1360.86
  769.41, 1431.37
  768.51, 1408.66
  767.62, 1431.00
  766.71, 1498.40
  765.81, 1462.20
  764.91, 1473.60
  764.01, 1517.60
  763.11, 1455.80
  762.21, 1436.20
  761.31, 1512.80
  760.41, 1516.40
  759.51, 1526.20
  758.61, 1598.60
  757.71, 1572.20
  756.80, 1492.80
  755.90, 1494.20
  755.00, 1521.20
  754.10, 1550.00
  753.20, 1509.40
  752.29, 1543.60
  751.39, 1558.80
  750.49, 1554.40
  749.59, 1599.40
  748.69, 1611.60
  747.78, 1644.40
  746.88, 1655.40
  745.98, 1685.40
  745.07, 1676.00
  744.17, 1680.60
  743.27, 1641.20
  742.37, 1596.80
  741.46, 1596.40
  740.56, 1584.60
  739.65, 1594.40
  738.75, 1668.00
  737.85, 1684.80
  736.94, 1570.80
  736.04, 1547.60
  735.13, 1565.20
  734.23, 1584.40
  733.33, 1613.00
  732.42, 1668.60
  731.52, 1662.20
  730.61, 1647.40
  729.71, 1700.80
  728.80, 1762.20
  727.90, 1752.80
  726.99, 1711.00
  726.09, 1699.80
  725.19, 1703.60
  724.28, 1756.80
  723.37, 1765.20
  722.47, 1664.60
  721.56, 1659.80
  720.66, 1700.20
  719.75, 1797.40
  718.85, 1777.80
  717.94, 1830.20
  717.03, 1838.40
  716.13, 1858.80
  715.22, 1775.40
  714.31, 1806.60
  713.41, 1819.60
  712.50, 1808.60
  711.60, 1833.20
  710.69, 1873.60
  709.78, 1863.80
  708.87, 1886.60
  707.96, 1913.80
  707.06, 1873.60
  706.15, 1896.80
  705.24, 2033.00
  704.33, 2035.80
  703.43, 2059.80
  702.52, 2117.80
  701.61, 2125.20
  700.70, 2146.40
  699.79, 2150.40
  698.89, 2124.60
  697.98, 2124.00
  697.07, 2186.60
  696.16, 2246.60
  695.25, 2243.80
  694.34, 2262.40
  693.43, 2264.60
  692.53, 2251.60
  691.62, 2261.40
  690.71, 2286.60
  689.80, 2374.60
  688.89, 2492.60
  687.98, 2491.80
  687.07, 2471.00
  686.16, 2499.00
  685.25, 2543.40
  684.34, 2585.00
  683.43, 2656.40
  682.52, 2679.20
  681.61, 2749.00
  680.70, 2818.40
  679.79, 2760.20
  678.88, 2657.40
  677.97, 2717.00
  677.06, 2873.60
  676.14, 2859.80
  675.23, 3010.00
  674.32, 3022.60
  673.41, 3095.60
  672.50, 3153.20
  671.59, 3188.80
  670.68, 3246.60
  669.77, 3259.80
  668.85, 3282.60
  667.94, 3385.60
  667.03, 3419.40
  666.12, 3567.20
  665.21, 3620.80
  664.29, 3545.60
  663.38, 3604.40
  662.47, 3698.80
  661.55, 3732.00
  660.64, 3853.00
  659.73, 3919.80
  658.82, 3979.40
  657.90, 4033.20
  656.99, 4095.80
  656.08, 4069.80
  655.16, 4039.40
  654.25, 4139.00
  653.34, 4300.60
  652.42, 4260.60
  651.51, 4275.20
  650.59, 4312.80
  649.68, 4419.60
  648.77, 4567.40
  647.85, 4692.80
  646.94, 4745.80
  646.02, 4743.40
  645.11, 4802.00
  644.19, 4768.80
  643.28, 4860.20
  642.37, 4995.80
  641.45, 5086.40
  640.53, 5075.60
  639.62, 5238.60
  638.70, 5489.60
  637.79, 5525.20
  636.87, 5470.40
  635.96, 5563.80
  635.04, 5614.80
  634.13, 5870.00
  633.21, 5934.40
  632.29, 5993.20
  631.38, 5808.60
  630.46, 5915.60
  629.54, 5948.00
  628.63, 6058.20
  627.71, 6046.00
  626.79, 6185.20
  625.88, 6250.20
  624.96, 6309.80
  624.04, 6312.40
  623.13, 6388.80
  622.21, 6646.40
  621.29, 6633.00
  620.37, 6418.00
  619.46, 6352.20
  618.54, 6447.40
  617.62, 6412.00
  616.70, 6589.80
  615.79, 6741.40
  614.87, 6769.20
  613.95, 6879.20
  613.03, 6958.20
  612.11, 7111.20
  611.19, 7131.60
  610.27, 7057.80
  609.36, 7019.20
  608.44, 7102.60
  607.52, 6955.60
  606.60, 7013.00
  605.68, 7141.60
  604.76, 7253.00
  603.84, 7523.00
  602.92, 7512.80
  602.00, 7515.80
  601.08, 7386.00
  600.16, 7435.60
  599.24, 7505.00
  598.32, 7520.00
  597.40, 7533.40
  596.48, 7536.60
  595.56, 7441.00
  594.64, 7565.40
  593.72, 7705.60
  592.80, 7799.80
  591.88, 7820.60
  590.96, 7750.80
  590.03, 7685.40
  589.11, 7680.20
  588.19, 7621.80
  587.27, 7734.60
  586.35, 7716.80
  585.43, 7598.60
  584.51, 7718.40
  583.58, 8010.60
  582.66, 8112.40
  581.74, 7954.80
  580.82, 7970.60
  579.89, 8041.00
  578.97, 8219.00
  578.05, 8053.80
  577.13, 8127.40
  576.21, 8076.20
  575.28, 8052.80
  574.36, 8172.00
  573.44, 8199.60
  572.51, 8244.40
  571.59, 8152.80
  570.66, 8031.80
  569.74, 7985.80
  568.82, 8165.00
  567.89, 8072.80
  566.97, 7784.40
  566.05, 7716.80
  565.12, 7737.00
  564.20, 7703.20
  563.27, 7674.20
  562.35, 7633.00
  561.43, 7583.20
  560.50, 7781.80
  559.58, 7805.80
  558.65, 7662.80
  557.73, 7411.80
  556.80, 7558.00
  555.88, 7570.40
  554.95, 7538.00
  554.03, 7536.60
  553.10, 7404.80
  552.18, 7464.20
  551.25, 7544.80
  550.32, 7493.60
  549.40, 7393.40
  548.47, 7530.40
  547.54, 7547.40
  546.62, 7435.00
  545.69, 7392.00
  544.76, 7566.80
  543.84, 7614.60
  542.91, 7823.00
  541.99, 7758.80
  541.06, 7753.60
  540.13, 7630.20
  539.21, 7798.60
  538.28, 7829.40
  537.35, 7860.20
  536.42, 7723.60
  535.50, 7728.80
  534.57, 7685.80
  533.64, 7704.20
  532.71, 7747.00
  531.78, 7681.00
  530.86, 7503.60
  529.93, 7426.40
  529.00, 7571.40
  528.07, 7495.20
  527.14, 7584.40
  526.21, 7486.00
  525.29, 7420.20
  524.36, 7583.60
  523.43, 7468.20
  522.50, 7523.20
  521.57, 7551.00
  520.64, 7571.00
  519.71, 7477.40
  518.78, 7345.80
  517.85, 7258.40
  516.92, 7354.40
  515.99, 7247.40
  515.06, 7139.20
  514.13, 7113.00
  513.20, 7257.40
  512.27, 7387.00
  511.34, 7285.40
  510.41, 7158.60
  509.48, 7008.20
  508.55, 7086.00
  507.62, 7140.40
  506.69, 7053.60
  505.76, 7069.60
  504.83, 7018.00
  503.89, 6967.20
  502.96, 7055.00
  502.03, 7079.20
  501.10, 7064.40
  500.17, 7189.00
  499.23, 7032.20
  498.30, 7077.60
  497.37, 7101.80
  496.44, 7145.20
  495.51, 6999.80
  494.57, 6827.20
  493.64, 6731.00
  492.71, 6790.00
  491.78, 6899.40
  490.84, 6606.00
  489.91, 6546.20
  488.98, 6528.20
  488.05, 6500.00
  487.11, 6617.20
  486.18, 6515.80
  485.24, 6552.00
  484.31, 6595.40
  483.38, 6501.80
  482.45, 6534.20
  481.51, 6438.00
  480.58, 6302.80
  479.64, 6461.80
  478.71, 6409.60
  477.77, 6346.80
  476.84, 6247.60
  475.90, 6096.80
  474.97, 6147.60
  474.03, 6186.80
  473.10, 6152.80
  472.17, 6067.40
  471.23, 5938.80
  470.29, 5939.00
  469.36, 5919.80
  468.42, 5986.60
  467.49, 6049.00
  466.55, 6051.80
  465.62, 6136.00
  464.68, 6026.40
  463.74, 5902.00
  462.81, 5779.20
  461.87, 5766.40
  460.94, 5749.40
  460.00, 5785.80
  459.06, 5676.00
  458.13, 5662.60
  457.19, 5638.80
  456.25, 5706.20
  455.32, 5619.80
  454.38, 5687.20
  453.44, 5700.00
  452.50, 5581.20
  451.57, 5589.80
  450.63, 5638.40
  449.69, 5614.40
  448.75, 5547.40
  447.82, 5470.80
  446.88, 5436.80
  445.94, 5382.00
  445.00, 5380.00
  444.06, 5421.60
  443.12, 5432.60
  442.18, 5431.60
  441.25, 5435.20
  440.31, 5290.60
  439.37, 5264.80
  438.43, 5379.40
  437.49, 5513.40
  436.55, 5470.60
  435.61, 5337.80
  434.67, 5238.80
  433.73, 5339.80
  432.79, 5475.80
  431.85, 5401.20
  430.91, 5262.40
  429.97, 5122.80
  429.03, 5277.20
  428.09, 5266.80
  427.15, 5265.20
  426.21, 5267.20
  425.27, 5205.80
  424.33, 5209.40
  423.39, 5249.00
  422.45, 5234.20
  421.51, 5176.00
  420.57, 4985.20
  419.63, 4914.80
  418.69, 5098.40
  417.74, 5223.40
  416.80, 5071.60
  415.86, 5051.40
  414.92, 5036.20
  413.98, 4894.20
  413.04, 4950.00
  412.09, 5075.20
  411.15, 5157.80
  410.21, 5177.80
  409.26, 4908.20
  408.32, 4891.20
  407.38, 4979.60
  406.44, 4913.80
  405.49, 4880.20
  404.55, 4839.40
  403.61, 4856.80
  402.66, 4832.40
  401.72, 4867.20
  400.78, 4750.40
  399.83, 4874.20
  398.89, 4861.00
  397.95, 4773.40
  397.00, 4732.20
  396.06, 4771.60
  395.11, 4834.60
  394.17, 4836.00
  393.22, 4763.40
  392.28, 4727.60
  391.34, 4736.20
  390.39, 4777.80
  389.45, 4767.00
  388.50, 4841.60
  387.56, 4737.40
  386.61, 4719.80
  385.67, 4755.00
  384.72, 4755.20
  383.78, 4678.40
  382.83, 4800.60
  381.88, 4881.20
  380.94, 4805.80
  379.99, 4883.60
  379.04, 4960.60
  378.10, 4860.00
  377.15, 4836.00
  376.21, 4936.00
  375.26, 4859.20
  374.31, 4806.60
  373.37, 4812.60
  372.42, 4630.00
  371.47, 4490.60
  370.53, 4510.80
  369.58, 4554.20
  368.63, 4602.80
  367.68, 4702.00
  366.74, 4679.00
  365.79, 4735.80
  364.84, 4743.00
  363.89, 4682.80
  362.95, 4655.00
  362.00, 4755.20
  361.05, 4730.20
  360.10, 4683.40
  359.15, 4596.20
  358.21, 4515.60
  357.26, 4576.00
  356.30, 4536.20
  355.36, 4477.20
  354.41, 4598.80
  353.46, 4656.60
  352.51, 4712.40
  351.56, 4668.00
  350.61, 4519.00
  349.66, 4487.00
  348.71, 4437.40
  347.76, 4351.40
  346.81, 4435.20
  345.86, 4614.40
  344.91, 4664.60
  343.96, 4550.80
  343.01, 4583.20
  342.06, 4627.20
  341.11, 4685.40
  340.16, 4726.00
  339.21, 4650.00
  338.26, 4623.40
  337.31, 4675.00
  336.36, 4605.00
  335.40, 4571.60
  334.45, 4665.40
  333.50, 4658.60
  332.55, 4491.60
  331.60, 4540.80
  330.65, 4536.60
  329.69, 4429.40
  328.74, 4436.80
  327.79, 4470.00
  326.84, 4468.80
  325.88, 4613.80
  324.93, 4587.80
  323.98, 4537.40
  323.03, 4574.80
  322.08, 4561.00
  321.12, 4513.80
  320.17, 4525.00
  319.21, 4452.00
  318.26, 4476.00
  317.31, 4535.60
  316.36, 4490.80
  315.40, 4555.00
  314.45, 4556.00
  313.49, 4359.80
  312.54, 4269.40
  311.59, 4425.00
  310.63, 4475.40
  309.68, 4534.60
  308.72, 4527.20
  307.77, 4472.20
  306.81, 4426.40
  305.86, 4454.20
  304.90, 4360.40
  303.95, 4345.80
  302.99, 4385.80
  302.04, 4457.80
  301.08, 4442.60
  300.13, 4415.40
  299.17, 4511.60
  298.22, 4512.20
  297.26, 4411.80
  296.30, 4414.60
  295.35, 4531.60
  294.39, 4477.20
  293.44, 4389.80
  292.48, 4451.80
  291.52, 4640.00
  290.57, 4529.40
  289.61, 4563.40
  288.65, 4618.00
  287.70, 4690.20
  286.74, 4599.60
  285.78, 4559.00
  284.82, 4593.20
  283.87, 4615.20
  282.91, 4694.60
  281.95, 4768.80
  280.99, 4753.20
  280.04, 4664.80
  279.08, 4597.00
  278.12, 4701.20
  277.16, 4763.00
  276.20, 4804.80
  275.24, 4713.20
  274.29, 4640.60
  273.33, 4633.00
  272.37, 4617.20
  271.41, 4728.40
  270.45, 4813.00
  269.49, 4747.80
  268.53, 4387.40
  267.57, 4450.20
  266.62, 4439.20
  265.65, 4468.60
  264.70, 4604.80
  263.73, 4723.40
  262.78, 4754.60
  261.82, 4742.40
  260.86, 4687.80
  259.89, 4649.60
  258.94, 4723.00
  257.97, 4680.40
  257.01, 4756.40
  256.05, 4773.40
  255.09, 4590.00
  254.13, 4727.40
  253.17, 4774.40
  252.21, 4620.80
  251.25, 4660.40
  250.29, 4719.60
  249.32, 4811.00
  248.36, 4749.60
  247.40, 4734.80
  246.44, 4851.60
  245.48, 4805.40
  244.52, 4800.20
  243.55, 4902.00
  242.59, 4973.40
  241.63, 4975.00
  240.67, 4942.20
  239.70, 5018.20
  238.74, 4998.40
  237.78, 4956.20
  236.81, 4950.20
  235.85, 4973.60
  234.89, 4920.80
  233.92, 4981.40
  232.96, 4973.40
  232.00, 5054.20
  231.03, 5208.20
  230.07, 5160.60
  229.11, 5076.40
  228.14, 4976.20
  227.18, 4994.20
  226.21, 5111.00
  225.25, 5080.40
  224.29, 5192.40
  223.32, 5070.00
  222.36, 5134.20
  221.39, 5212.20
  220.42, 5256.00
  219.46, 5235.80
  218.49, 5200.80
  217.53, 5227.60
  216.56, 5224.80
  215.60, 5348.20
  214.63, 5483.60
  213.67, 5452.60
  212.70, 5381.40
  211.74, 5399.20
  210.77, 5327.60
  209.80, 5372.60
  208.84, 5476.60
  207.87, 5565.20
  206.90, 5478.20
  205.94, 5443.80
  204.97, 5454.80
  204.00, 5529.20
  203.04, 5631.60
  202.07, 5627.60
  201.10, 5587.40
  200.13, 5639.80
  199.17, 5665.40
