 1467.21,   999.0
 1466.61,   989.0
 1466.02,   982.0
 1465.43,   989.0
 1464.84,   989.0
 1464.25,   966.0
 1463.65,   954.0
 1463.06,   995.0
 1462.47,   964.0
 1461.87,   975.0
 1461.28,   968.0
 1460.69,   977.0
 1460.10,   977.0
 1459.50,   971.0
 1458.91,   968.0
 1458.32,   979.0
 1457.72,   965.0
 1457.13,   984.0
 1456.54,   978.0
 1455.95,   968.0
 1455.35,  1012.0
 1454.76,   996.0
 1454.17,   971.0
 1453.57,  1000.0
 1452.98,   968.0
 1452.39,  1009.0
 1451.79,   990.0
 1451.20,   976.0
 1450.60,  1000.0
 1450.01,   950.0
 1449.42,   957.0
 1448.82,   970.0
 1448.23,   963.0
 1447.64,   977.0
 1447.04,   986.0
 1446.45,   955.0
 1445.85,   941.0
 1445.26,   962.0
 1444.67,   977.0
 1444.07,   982.0
 1443.48,   937.0
 1442.88,   968.0
 1442.29,   984.0
 1441.70,   951.0
 1441.10,   958.0
 1440.51,   972.0
 1439.91,   969.0
 1439.32,   986.0
 1438.72,   970.0
 1438.13,   958.0
 1437.53,   962.0
 1436.94,   995.0
 1436.35,   940.0
 1435.75,   991.0
 1435.16,   962.0
 1434.56,   950.0
 1433.97,   970.0
 1433.37,   950.0
 1432.78,   941.0
 1432.18,   972.0
 1431.59,   970.0
 1430.99,   944.0
 1430.40,   934.0
 1429.80,   983.0
 1429.21,   919.0
 1428.61,   977.0
 1428.02,   988.0
 1427.42,   950.0
 1426.83,   943.0
 1426.23,   945.0
 1425.63,   969.0
 1425.04,   949.0
 1424.44,   949.0
 1423.85,   924.0
 1423.25,   950.0
 1422.66,   959.0
 1422.06,  1005.0
 1421.46,   950.0
 1420.87,   965.0
 1420.27,   956.0
 1419.68,   933.0
 1419.08,   958.0
 1418.48,   963.0
 1417.89,   957.0
 1417.29,   946.0
 1416.70,   953.0
 1416.10,   966.0
 1415.50,   950.0
 1414.91,   962.0
 1414.31,   940.0
 1413.71,   955.0
 1413.12,   969.0
 1412.52,   957.0
 1411.93,   929.0
 1411.33,   930.0
 1410.73,   950.0
 1410.14,   926.0
 1409.54,   957.0
 1408.94,   962.0
 1408.35,   943.0
 1407.75,   957.0
 1407.15,   939.0
 1406.55,   941.0
 1405.96,   928.0
 1405.36,   943.0
 1404.76,   899.0
 1404.17,   977.0
 1403.57,   905.0
 1402.97,   939.0
 1402.37,   913.0
 1401.78,   924.0
 1401.18,   927.0
 1400.58,   951.0
 1399.98,   924.0
 1399.39,   916.0
 1398.79,   925.0
 1398.19,   941.0
 1397.60,   950.0
 1397.00,   897.0
 1396.40,   936.0
 1395.80,   897.0
 1395.20,   930.0
 1394.61,   943.0
 1394.01,   947.0
 1393.41,   952.0
 1392.81,   933.0
 1392.21,   931.0
 1391.62,   905.0
 1391.02,   908.0
 1390.42,   888.0
 1389.82,   937.0
 1389.22,   900.0
 1388.62,   926.0
 1388.03,   906.0
 1387.43,   931.0
 1386.83,   958.0
 1386.23,   886.0
 1385.63,   920.0
 1385.03,   894.0
 1384.44,   901.0
 1383.84,   903.0
 1383.24,   920.0
 1382.64,   882.0
 1382.04,   902.0
 1381.44,   897.0
 1380.84,   893.0
 1380.24,   924.0
 1379.65,   913.0
 1379.05,   902.0
 1378.45,   900.0
 1377.85,   909.0
 1377.25,   912.0
 1376.65,   900.0
 1376.05,   908.0
 1375.45,   895.0
 1374.85,   912.0
 1374.25,   874.0
 1373.65,   912.0
 1373.05,   898.0
 1372.45,   894.0
 1371.85,   894.0
 1371.25,   895.0
 1370.65,   877.0
 1370.05,   884.0
 1369.45,   895.0
 1368.86,   883.0
 1368.26,   878.0
 1367.66,   897.0
 1367.06,   908.0
 1366.46,   907.0
 1365.86,   902.0
 1365.26,   909.0
 1364.66,   908.0
 1364.05,   918.0
 1363.45,   895.0
 1362.85,   884.0
 1362.25,   901.0
 1361.65,   879.0
 1361.05,   882.0
 1360.45,   859.0
 1359.85,   906.0
 1359.25,   907.0
 1358.65,   924.0
 1358.05,   859.0
 1357.45,   878.0
 1356.85,   882.0
 1356.25,   887.0
 1355.65,   872.0
 1355.05,   879.0
 1354.45,   877.0
 1353.84,   873.0
 1353.24,   881.0
 1352.64,   884.0
 1352.04,   886.0
 1351.44,   862.0
 1350.84,   870.0
 1350.24,   859.0
 1349.64,   857.0
 1349.04,   881.0
 1348.43,   857.0
 1347.83,   868.0
 1347.23,   905.0
 1346.63,   889.0
 1346.03,   858.0
 1345.43,   869.0
 1344.82,   861.0
 1344.22,   856.0
 1343.62,   880.0
 1343.02,   876.0
 1342.42,   885.0
 1341.82,   889.0
 1341.21,   863.0
 1340.61,   889.0
 1340.01,   870.0
 1339.41,   879.0
 1338.81,   842.0
 1338.20,   884.0
 1337.60,   855.0
 1337.00,   915.0
 1336.40,   879.0
 1335.79,   886.0
 1335.19,   859.0
 1334.59,   877.0
 1333.99,   856.0
 1333.38,   870.0
 1332.78,   858.0
 1332.18,   850.0
 1331.58,   870.0
 1330.97,   873.0
 1330.37,   866.0
 1329.77,   875.0
 1329.16,   867.0
 1328.56,   885.0
 1327.96,   847.0
 1327.36,   870.0
 1326.75,   863.0
 1326.15,   855.0
 1325.55,   897.0
 1324.94,   847.0
 1324.34,   867.0
 1323.74,   863.0
 1323.13,   846.0
 1322.53,   857.0
 1321.93,   879.0
 1321.32,   876.0
 1320.72,   866.0
 1320.12,   848.0
 1319.51,   844.0
 1318.91,   850.0
 1318.31,   859.0
 1317.70,   813.0
 1317.10,   858.0
 1316.49,   872.0
 1315.89,   846.0
 1315.29,   866.0
 1314.68,   877.0
 1314.08,   841.0
 1313.47,   836.0
 1312.87,   828.0
 1312.27,   846.0
 1311.66,   848.0
 1311.06,   823.0
 1310.45,   861.0
 1309.85,   834.0
 1309.24,   870.0
 1308.64,   865.0
 1308.04,   845.0
 1307.43,   855.0
 1306.83,   830.0
 1306.22,   845.0
 1305.62,   841.0
 1305.01,   808.0
 1304.41,   845.0
 1303.80,   832.0
 1303.20,   848.0
 1302.59,   830.0
 1301.99,   855.0
 1301.38,   837.0
 1300.78,   834.0
 1300.17,   852.0
 1299.57,   839.0
 1298.96,   816.0
 1298.36,   852.0
 1297.75,   866.0
 1297.15,   839.0
 1296.54,   842.0
 1295.94,   839.0
 1295.33,   841.0
 1294.73,   850.0
 1294.12,   834.0
 1293.51,   827.0
 1292.91,   861.0
 1292.30,   870.0
 1291.70,   840.0
 1291.09,   825.0
 1290.49,   834.0
 1289.88,   829.0
 1289.27,   852.0
 1288.67,   825.0
 1288.06,   852.0
 1287.46,   822.0
 1286.85,   810.0
 1286.24,   834.0
 1285.64,   879.0
 1285.03,   856.0
 1284.43,   848.0
 1283.82,   819.0
 1283.21,   841.0
 1282.61,   843.0
 1282.00,   862.0
 1281.39,   823.0
 1280.79,   834.0
 1280.18,   834.0
 1279.57,   848.0
 1278.97,   830.0
 1278.36,   846.0
 1277.75,   861.0
 1277.15,   822.0
 1276.54,   848.0
 1275.93,   813.0
 1275.33,   842.0
 1274.72,   857.0
 1274.11,   863.0
 1273.50,   840.0
 1272.90,   819.0
 1272.29,   834.0
 1271.68,   834.0
 1271.07,   844.0
 1270.47,   839.0
 1269.86,   847.0
 1269.25,   844.0
 1268.65,   856.0
 1268.04,   852.0
 1267.43,   861.0
 1266.82,   867.0
 1266.22,   855.0
 1265.61,   840.0
 1265.00,   839.0
 1264.39,   845.0
 1263.78,   850.0
 1263.18,   830.0
 1262.57,   841.0
 1261.96,   845.0
 1261.35,   815.0
 1260.74,   835.0
 1260.14,   828.0
 1259.53,   842.0
 1258.92,   862.0
 1258.31,   856.0
 1257.70,   855.0
 1257.09,   803.0
 1256.49,   862.0
 1255.88,   840.0
 1255.27,   842.0
 1254.66,   834.0
 1254.05,   863.0
 1253.44,   842.0
 1252.83,   881.0
 1252.23,   845.0
 1251.62,   827.0
 1251.01,   877.0
 1250.40,   867.0
 1249.79,   877.0
 1249.18,   855.0
 1248.57,   853.0
 1247.96,   874.0
 1247.35,   853.0
 1246.74,   894.0
 1246.14,   830.0
 1245.53,   863.0
 1244.92,   878.0
 1244.31,   889.0
 1243.70,   872.0
 1243.09,   861.0
 1242.48,   843.0
 1241.87,   872.0
 1241.26,   860.0
 1240.65,   853.0
 1240.04,   863.0
 1239.43,   879.0
 1238.82,   859.0
 1238.21,   866.0
 1237.60,   857.0
 1236.99,   870.0
 1236.38,   879.0
 1235.77,   893.0
 1235.16,   869.0
 1234.55,   877.0
 1233.94,   854.0
 1233.33,   898.0
 1232.72,   881.0
 1232.11,   872.0
 1231.50,   898.0
 1230.89,   874.0
 1230.28,   875.0
 1229.67,   891.0
 1229.06,   916.0
 1228.45,   883.0
 1227.84,   864.0
 1227.23,   912.0
 1226.62,   912.0
 1226.01,   918.0
 1225.39,   887.0
 1224.78,   877.0
 1224.17,   894.0
 1223.56,   895.0
 1222.95,   939.0
 1222.34,   926.0
 1221.73,   906.0
 1221.12,   918.0
 1220.51,   919.0
 1219.89,   941.0
 1219.28,   907.0
 1218.67,   950.0
 1218.06,   913.0
 1217.45,   928.0
 1216.84,   936.0
 1216.23,   953.0
 1215.62,   908.0
 1215.00,   932.0
 1214.39,   948.0
 1213.78,   979.0
 1213.17,   958.0
 1212.56,   949.0
 1211.94,   954.0
 1211.33,   962.0
 1210.72,   975.0
 1210.11,   993.0
 1209.50,   983.0
 1208.88,   975.0
 1208.27,   975.0
 1207.66,   972.0
 1207.05,   998.0
 1206.44,   989.0
 1205.82,   966.0
 1205.21,  1003.0
 1204.60,   975.0
 1203.99,   995.0
 1203.37,   982.0
 1202.76,   983.0
 1202.15,   990.0
 1201.54,  1002.0
 1200.92,  1007.0
 1200.31,  1003.0
 1199.70,  1038.0
 1199.09,  1031.0
 1198.47,  1009.0
 1197.86,  1039.0
 1197.25,  1027.0
 1196.63,  1034.0
 1196.02,  1035.0
 1195.41,  1062.0
 1194.79,  1050.0
 1194.18,  1063.0
 1193.57,  1088.0
 1192.95,  1105.0
 1192.34,  1056.0
 1191.73,  1075.0
 1191.11,  1105.0
 1190.50,  1115.0
 1189.89,  1109.0
 1189.27,  1117.0
 1188.66,  1121.0
 1188.05,  1131.0
 1187.43,  1176.0
 1186.82,  1147.0
 1186.21,  1119.0
 1185.59,  1136.0
 1184.98,  1160.0
 1184.36,  1142.0
 1183.75,  1186.0
 1183.14,  1217.0
 1182.52,  1185.0
 1181.91,  1202.0
 1181.29,  1207.0
 1180.68,  1190.0
 1180.07,  1221.0
 1179.45,  1238.0
 1178.84,  1265.0
 1178.22,  1256.0
 1177.61,  1256.0
 1176.99,  1298.0
 1176.38,  1283.0
 1175.76,  1297.0
 1175.15,  1297.0
 1174.53,  1309.0
 1173.92,  1328.0
 1173.30,  1337.0
 1172.69,  1381.0
 1172.08,  1369.0
 1171.46,  1379.0
 1170.85,  1407.0
 1170.23,  1459.0
 1169.62,  1446.0
 1169.00,  1474.0
 1168.38,  1470.0
 1167.77,  1504.0
 1167.15,  1515.0
 1166.54,  1532.0
 1165.92,  1540.0
 1165.31,  1595.0
 1164.69,  1577.0
 1164.08,  1650.0
 1163.46,  1669.0
 1162.85,  1684.0
 1162.23,  1710.0
 1161.62,  1726.0
 1161.00,  1786.0
 1160.38,  1753.0
 1159.77,  1803.0
 1159.15,  1826.0
 1158.54,  1895.0
 1157.92,  1917.0
 1157.30,  1942.0
 1156.69,  1985.0
 1156.07,  2053.0
 1155.46,  2071.0
 1154.84,  2111.0
 1154.22,  2115.0
 1153.61,  2233.0
 1152.99,  2262.0
 1152.37,  2307.0
 1151.76,  2336.0
 1151.14,  2384.0
 1150.53,  2483.0
 1149.91,  2442.0
 1149.29,  2525.0
 1148.68,  2597.0
 1148.06,  2702.0
 1147.44,  2713.0
 1146.82,  2835.0
 1146.21,  2829.0
 1145.59,  2969.0
 1144.97,  3022.0
 1144.36,  3045.0
 1143.74,  3160.0
 1143.12,  3229.0
 1142.51,  3312.0
 1141.89,  3372.0
 1141.27,  3466.0
 1140.65,  3548.0
 1140.04,  3676.0
 1139.42,  3727.0
 1138.80,  3809.0
 1138.18,  3946.0
 1137.57,  4008.0
 1136.95,  4079.0
 1136.33,  4151.0
 1135.71,  4316.0
 1135.10,  4392.0
 1134.48,  4530.0
 1133.86,  4592.0
 1133.24,  4726.0
 1132.63,  4910.0
 1132.01,  4966.0
 1131.39,  5080.0
 1130.77,  5109.0
 1130.15,  5314.0
 1129.54,  5455.0
 1128.92,  5629.0
 1128.30,  5618.0
 1127.68,  5796.0
 1127.06,  6021.0
 1126.44,  6042.0
 1125.82,  6240.0
 1125.21,  6307.0
 1124.59,  6545.0
 1123.97,  6579.0
 1123.35,  6730.0
 1122.73,  6978.0
 1122.11,  7170.0
 1121.49,  7219.0
 1120.88,  7304.0
 1120.26,  7564.0
 1119.64,  7652.0
 1119.02,  7804.0
 1118.40,  7919.0
 1117.78,  8139.0
 1117.16,  8296.0
 1116.54,  8428.0
 1115.92,  8601.0
 1115.30,  8750.0
 1114.69,  8926.0
 1114.07,  9077.0
 1113.45,  9119.0
 1112.83,  9341.0
 1112.21,  9538.0
 1111.59,  9651.0
 1110.97,  9923.0
 1110.35, 10096.0
 1109.73, 10183.0
 1109.11, 10329.0
 1108.49, 10550.0
 1107.87, 10713.0
 1107.25, 10922.0
 1106.63, 10877.0
 1106.01, 11209.0
 1105.39, 11361.0
 1104.77, 11530.0
 1104.15, 11545.0
 1103.53, 11746.0
 1102.91, 11947.0
 1102.29, 12072.0
 1101.67, 12166.0
 1101.05, 12418.0
 1100.43, 12545.0
 1099.81, 12577.0
 1099.19, 12832.0
 1098.57, 12912.0
 1097.95, 12944.0
 1097.33, 13073.0
 1096.71, 13316.0
 1096.09, 13430.0
 1095.46, 13560.0
 1094.84, 13691.0
 1094.22, 13740.0
 1093.60, 13773.0
 1092.98, 13839.0
 1092.36, 14037.0
 1091.74, 14103.0
 1091.12, 14219.0
 1090.50, 14219.0
 1089.88, 14402.0
 1089.26, 14402.0
 1088.63, 14469.0
 1088.01, 14536.0
 1087.39, 14637.0
 1086.77, 14637.0
 1086.15, 14670.0
 1085.53, 14754.0
 1084.91, 14839.0
 1084.28, 14754.0
 1083.66, 14855.0
 1083.04, 14805.0
 1082.42, 14754.0
 1081.80, 14704.0
 1081.17, 14872.0
 1080.55, 14805.0
 1079.93, 14754.0
 1079.31, 14788.0
 1078.69, 14754.0
 1078.07, 14754.0
 1077.44, 14771.0
 1076.82, 14754.0
 1076.20, 14570.0
 1075.58, 14519.0
 1074.95, 14586.0
 1074.33, 14654.0
 1073.71, 14603.0
 1073.09, 14519.0
 1072.46, 14419.0
 1071.84, 14352.0
 1071.22, 14236.0
 1070.60, 14236.0
 1069.97, 14004.0
 1069.35, 14020.0
 1068.73, 14103.0
 1068.11, 13954.0
 1067.48, 13921.0
 1066.86, 13773.0
 1066.24, 13691.0
 1065.61, 13626.0
 1064.99, 13691.0
 1064.37, 13397.0
 1063.74, 13430.0
 1063.12, 13300.0
 1062.50, 13219.0
 1061.87, 12944.0
 1061.25, 13057.0
 1060.63, 12993.0
 1060.00, 12784.0
 1059.38, 12704.0
 1058.76, 12672.0
 1058.13, 12656.0
 1057.51, 12497.0
 1056.89, 12434.0
 1056.26, 12276.0
 1055.64, 12213.0
 1055.02, 12072.0
 1054.39, 12072.0
 1053.77, 11979.0
 1053.14, 11823.0
 1052.52, 11668.0
 1051.90, 11653.0
 1051.27, 11499.0
 1050.65, 11499.0
 1050.02, 11270.0
 1049.40, 11209.0
 1048.77, 11209.0
 1048.15, 11043.0
 1047.53, 11013.0
 1046.90, 10758.0
 1046.28, 10728.0
 1045.65, 10728.0
 1045.03, 10565.0
 1044.40, 10461.0
 1043.78, 10447.0
 1043.15, 10285.0
 1042.53, 10139.0
 1041.90, 10212.0
 1041.28, 10067.0
 1040.65,  9980.0
 1040.03,  9822.0
 1039.40,  9751.0
 1038.78,  9751.0
 1038.15,  9637.0
 1037.53,  9552.0
 1036.90,  9383.0
 1036.28,  9341.0
 1035.65,  9299.0
 1035.03,  9160.0
 1034.40,  9119.0
 1033.78,  9077.0
 1033.15,  8940.0
 1032.53,  8899.0
 1031.90,  8763.0
 1031.27,  8709.0
 1030.65,  8750.0
 1030.02,  8601.0
 1029.40,  8508.0
 1028.77,  8401.0
 1028.15,  8322.0
 1027.52,  8152.0
 1026.89,  8152.0
 1026.27,  8230.0
 1025.64,  8100.0
 1025.02,  8009.0
 1024.39,  8009.0
 1023.76,  7817.0
 1023.14,  7804.0
 1022.51,  7804.0
 1021.88,  7690.0
 1021.26,  7614.0
 1020.63,  7502.0
 1020.01,  7464.0
 1019.38,  7415.0
 1018.75,  7341.0
 1018.13,  7329.0
 1017.50,  7267.0
 1016.87,  7206.0
 1016.25,  7109.0
 1015.62,  7146.0
 1014.99,  7085.0
 1014.36,  6966.0
 1013.74,  6930.0
 1013.11,  6990.0
 1012.48,  6859.0
 1011.86,  6824.0
 1011.23,  6765.0
 1010.60,  6730.0
 1009.97,  6649.0
 1009.35,  6637.0
 1008.72,  6545.0
 1008.09,  6511.0
 1007.47,  6454.0
 1006.84,  6454.0
 1006.21,  6363.0
 1005.58,  6363.0
 1004.96,  6218.0
 1004.33,  6229.0
 1003.70,  6196.0
 1003.07,  6196.0
 1002.44,  6130.0
 1001.82,  6021.0
 1001.19,  6097.0
 1000.56,  6010.0
  999.93,  5977.0
  999.30,  5988.0
  998.68,  5796.0
  998.05,  5838.0
  997.42,  5849.0
  996.79,  5817.0
  996.16,  5754.0
  995.53,  5670.0
  994.91,  5701.0
  994.28,  5649.0
  993.65,  5577.0
  993.02,  5505.0
  992.39,  5435.0
  991.76,  5424.0
  991.13,  5495.0
  990.51,  5384.0
  989.88,  5295.0
  989.25,  5265.0
  988.62,  5265.0
  987.99,  5187.0
  987.36,  5196.0
  986.73,  5119.0
  986.10,  5004.0
  985.47,  5109.0
  984.85,  5004.0
  984.22,  5023.0
  983.59,  4929.0
  982.96,  4873.0
  982.33,  4873.0
  981.70,  4808.0
  981.07,  4735.0
  980.44,  4763.0
  979.81,  4663.0
  979.18,  4627.0
  978.55,  4663.0
  977.92,  4592.0
  977.29,  4583.0
  976.66,  4522.0
  976.03,  4401.0
  975.40,  4384.0
  974.77,  4375.0
  974.14,  4258.0
  973.51,  4266.0
  972.88,  4233.0
  972.25,  4209.0
  971.62,  4200.0
  970.99,  4135.0
  970.36,  4135.0
  969.73,  4119.0
  969.10,  4031.0
  968.47,  4008.0
  967.84,  4031.0
  967.21,  3953.0
  966.58,  3922.0
  965.95,  3930.0
  965.32,  3930.0
  964.69,  3831.0
  964.06,  3764.0
  963.42,  3809.0
  962.79,  3764.0
  962.16,  3749.0
  961.53,  3734.0
  960.90,  3757.0
  960.27,  3749.0
  959.64,  3720.0
  959.01,  3713.0
  958.38,  3691.0
  957.74,  3720.0
  957.11,  3691.0
  956.48,  3633.0
  955.85,  3691.0
  955.22,  3655.0
  954.59,  3640.0
  953.96,  3590.0
  953.33,  3647.0
  952.69,  3633.0
  952.06,  3633.0
  951.43,  3633.0
  950.80,  3598.0
  950.17,  3612.0
  949.53,  3598.0
  948.90,  3655.0
  948.27,  3633.0
  947.64,  3598.0
  947.01,  3633.0
  946.37,  3698.0
  945.74,  3626.0
  945.11,  3583.0
  944.48,  3683.0
  943.85,  3698.0
  943.21,  3655.0
  942.58,  3691.0
  941.95,  3764.0
  941.32,  3749.0
  940.68,  3698.0
  940.05,  3713.0
  939.42,  3691.0
  938.79,  3757.0
  938.15,  3720.0
  937.52,  3749.0
  936.89,  3713.0
  936.25,  3691.0
  935.62,  3749.0
  934.99,  3734.0
  934.35,  3683.0
  933.72,  3749.0
  933.09,  3647.0
  932.46,  3655.0
  931.82,  3633.0
  931.19,  3633.0
  930.56,  3633.0
  929.92,  3555.0
  929.29,  3527.0
  928.66,  3534.0
  928.02,  3521.0
  927.39,  3438.0
  926.75,  3445.0
  926.12,  3398.0
  925.49,  3339.0
  924.85,  3306.0
  924.22,  3306.0
  923.59,  3248.0
  922.95,  3185.0
  922.32,  3167.0
  921.68,  3160.0
  921.05,  3117.0
  920.42,  3022.0
  919.78,  3010.0
  919.15,  2981.0
  918.51,  2946.0
  917.88,  2964.0
  917.24,  2829.0
  916.61,  2744.0
  915.98,  2770.0
  915.34,  2744.0
  914.71,  2636.0
  914.07,  2622.0
  913.44,  2622.0
  912.80,  2553.0
  912.17,  2511.0
  911.53,  2406.0
  910.90,  2401.0
  910.26,  2384.0
  909.63,  2328.0
  908.99,  2299.0
  908.36,  2278.0
  907.72,  2229.0
  907.09,  2175.0
  906.45,  2190.0
  905.82,  2198.0
  905.18,  2085.0
  904.55,  2082.0
  903.91,  2022.0
  903.28,  2050.0
  902.64,  1985.0
  902.01,  1949.0
  901.37,  1904.0
  900.74,  1846.0
  900.10,  1892.0
  899.46,  1820.0
  898.83,  1753.0
  898.19,  1761.0
  897.56,  1731.0
  896.92,  1705.0
  896.28,  1662.0
  895.65,  1679.0
  895.01,  1672.0
  894.38,  1650.0
  893.74,  1612.0
  893.10,  1546.0
  892.47,  1546.0
  891.83,  1532.0
  891.20,  1494.0
  890.56,  1459.0
  889.92,  1467.0
  889.29,  1465.0
  888.65,  1434.0
  888.01,  1431.0
  887.38,  1414.0
  886.74,  1367.0
  886.10,  1405.0
  885.47,  1312.0
  884.83,  1367.0
  884.19,  1309.0
  883.56,  1333.0
  882.92,  1295.0
  882.28,  1278.0
  881.64,  1273.0
  881.01,  1243.0
  880.37,  1238.0
  879.73,  1196.0
  879.10,  1229.0
  878.46,  1209.0
  877.82,  1186.0
  877.18,  1170.0
  876.55,  1213.0
  875.91,  1140.0
  875.27,  1157.0
  874.63,  1125.0
  874.00,  1147.0
  873.36,  1133.0
  872.72,  1102.0
  872.08,  1128.0
  871.45,  1102.0
  870.81,  1112.0
  870.17,  1088.3
  869.53,  1108.2
  868.89,  1081.1
  868.26,  1069.9
  867.62,  1113.9
  866.98,  1118.5
  866.34,  1103.6
  865.70,  1116.5
  865.06,  1118.5
  864.43,  1083.0
  863.79,  1088.3
  863.15,  1084.5
  862.51,  1105.6
  861.87,  1085.5
  861.23,  1104.4
  860.59,  1091.4
  859.96,  1068.6
  859.32,  1102.4
  858.68,  1113.4
  858.04,  1097.4
  857.40,  1104.7
  856.76,  1118.1
  856.12,  1108.3
  855.48,  1117.2
  854.84,  1090.0
  854.21,  1110.0
  853.57,  1084.0
  852.93,  1094.4
  852.29,  1129.1
  851.65,  1121.8
  851.01,  1116.9
  850.37,  1148.8
  849.73,  1130.6
  849.09,  1113.8
  848.45,  1131.1
  847.81,  1156.4
  847.17,  1139.3
  846.53,  1107.9
  845.89,  1141.6
  845.25,  1189.6
  844.61,  1155.6
  843.97,  1166.8
  843.33,  1161.7
  842.69,  1192.4
  842.05,  1187.0
  841.41,  1191.4
  840.77,  1172.5
  840.13,  1170.6
  839.49,  1164.3
  840.22,  1196.0
  839.59,  1166.0
  838.95,  1177.0
  838.31,  1182.0
  837.68,  1193.0
  837.04,  1166.0
  836.40,  1166.0
  835.77,  1159.0
  835.13,  1154.0
  834.49,  1178.0
  833.86,  1147.0
  833.22,  1171.0
  832.58,  1125.0
  831.94,  1186.0
  831.31,  1166.0
  830.67,  1147.0
  830.03,  1158.0
  829.39,  1163.0
  828.76,  1159.0
  828.12,  1138.0
  827.48,  1150.0
  826.84,  1147.0
  826.21,  1149.0
  825.57,  1138.0
  824.93,  1125.0
  824.29,  1169.0
  823.65,  1166.0
  823.02,  1170.0
  822.38,  1134.0
  821.74,  1158.0
  821.10,  1117.0
  820.46,  1166.0
  819.83,  1158.0
  819.19,  1137.0
  818.55,  1166.0
  817.91,  1138.0
  817.27,  1170.0
  816.63,  1157.0
  816.00,  1147.0
  815.36,  1151.0
  814.72,  1154.0
  814.08,  1161.0
  813.44,  1166.0
  812.80,  1158.0
  812.16,  1164.0
  811.52,  1166.0
  810.88,  1172.0
  810.25,  1174.0
  809.61,  1190.0
  808.97,  1180.0
  808.33,  1222.0
  807.69,  1191.0
  807.05,  1171.0
  806.41,  1172.0
  805.77,  1242.0
  805.13,  1278.0
  804.49,  1187.0
  803.85,  1196.0
  803.21,  1214.0
  802.57,  1209.0
  801.94,  1252.0
  801.30,  1239.0
  800.66,  1253.0
  800.02,  1285.0
  799.38,  1249.0
  798.74,  1279.0
  798.10,  1266.0
  797.46,  1253.0
  796.82,  1273.0
  796.18,  1285.0
  795.54,  1337.0
  794.90,  1329.0
  794.26,  1334.0
  793.62,  1372.0
  792.97,  1312.0
  792.33,  1375.0
  791.69,  1345.0
  791.05,  1400.0
  790.41,  1416.0
  789.77,  1407.0
  789.13,  1436.0
  788.49,  1434.0
  787.85,  1402.0
  787.21,  1434.0
  786.57,  1463.0
  785.93,  1507.0
  785.29,  1502.0
  784.65,  1513.0
  784.00,  1542.0
  783.36,  1540.0
  782.72,  1551.0
  782.08,  1575.0
  781.44,  1598.0
  780.80,  1575.0
  780.16,  1602.0
  779.52,  1657.0
  778.87,  1645.0
  778.23,  1645.0
  777.59,  1682.0
  776.95,  1672.0
  776.31,  1674.0
  775.67,  1718.0
  775.03,  1736.0
  774.38,  1723.0
  773.74,  1786.0
  773.10,  1797.0
  772.46,  1763.0
  771.82,  1817.0
  771.17,  1817.0
  770.53,  1852.0
  769.89,  1843.0
  769.25,  1829.0
  768.60,  1892.0
  767.96,  1895.0
  767.32,  1920.0
  766.68,  1907.0
  766.04,  1942.0
  765.39,  1968.0
  764.75,  1923.0
  764.11,  1949.0
  763.46,  1958.0
  762.82,  1995.0
  762.18,  2015.0
  761.54,  1972.0
  760.89,  1952.0
  760.25,  2050.0
  759.61,  2022.0
  758.96,  2050.0
  758.32,  2050.0
  757.68,  2071.0
  757.04,  2050.0
  756.39,  2082.0
  755.75,  2075.0
  755.11,  2111.0
  754.46,  2078.0
  753.82,  2202.0
  753.18,  2137.0
  752.53,  2122.0
  751.89,  2118.0
  751.24,  2152.0
  750.60,  2133.0
  749.96,  2229.0
  749.31,  2186.0
  748.67,  2167.0
  748.03,  2186.0
  747.38,  2206.0
  746.74,  2198.0
  746.09,  2218.0
  745.45,  2229.0
  744.81,  2222.0
  744.16,  2245.0
  743.52,  2198.0
  742.87,  2210.0
  742.23,  2262.0
  741.58,  2254.0
  740.94,  2266.0
  740.30,  2229.0
  739.65,  2250.0
  739.01,  2307.0
  738.36,  2307.0
  737.72,  2270.0
  737.07,  2307.0
  736.43,  2278.0
  735.78,  2362.0
  735.14,  2294.0
  734.49,  2294.0
  733.85,  2324.0
  733.20,  2307.0
  732.56,  2371.0
  731.91,  2362.0
  731.27,  2336.0
  730.62,  2367.0
  729.98,  2415.0
  729.33,  2362.0
  728.69,  2380.0
  728.04,  2367.0
  727.40,  2380.0
  726.75,  2406.0
  726.10,  2380.0
  725.46,  2410.0
  724.81,  2362.0
  724.17,  2341.0
  723.52,  2384.0
  722.88,  2415.0
  722.23,  2397.0
  721.58,  2371.0
  720.94,  2410.0
  720.29,  2455.0
  719.65,  2419.0
  719.00,  2451.0
  718.35,  2419.0
  717.71,  2455.0
  717.06,  2451.0
  716.42,  2433.0
  715.77,  2469.0
  715.12,  2433.0
  714.48,  2469.0
  713.83,  2469.0
  713.18,  2455.0
  712.54,  2464.0
  711.89,  2451.0
  711.24,  2474.0
  710.60,  2539.0
  709.95,  2506.0
  709.30,  2525.0
  708.66,  2544.0
  708.01,  2474.0
  707.36,  2506.0
  706.71,  2582.0
  706.07,  2520.0
  705.42,  2582.0
  704.77,  2553.0
  704.13,  2607.0
  703.48,  2582.0
  702.83,  2582.0
  702.18,  2592.0
  701.54,  2622.0
  700.89,  2607.0
  700.24,  2662.0
  699.59,  2662.0
  698.94,  2662.0
  698.30,  2672.0
  697.65,  2662.0
  697.00,  2692.0
  696.35,  2662.0
  695.71,  2682.0
  695.06,  2707.0
  694.41,  2713.0
  693.76,  2718.0
  693.11,  2786.0
  692.47,  2760.0
  691.82,  2835.0
  691.17,  2862.0
  690.52,  2846.0
  689.87,  2873.0
  689.22,  2829.0
  688.58,  2873.0
  687.93,  2918.0
  687.28,  2929.0
  686.63,  2935.0
  685.98,  2946.0
  685.33,  2918.0
  684.68,  3010.0
  684.03,  2969.0
  683.39,  3105.0
  682.74,  3057.0
  682.09,  3057.0
  681.44,  3173.0
  680.79,  3105.0
  680.14,  3117.0
  679.49,  3185.0
  678.84,  3142.0
  678.19,  3210.0
  677.54,  3261.0
  676.89,  3229.0
  676.24,  3358.0
  675.59,  3267.0
  674.94,  3326.0
  674.29,  3378.0
  673.65,  3365.0
  673.00,  3391.0
  672.35,  3432.0
  671.70,  3452.0
  671.05,  3521.0
  670.40,  3598.0
  669.75,  3576.0
  669.10,  3612.0
  668.45,  3633.0
  667.80,  3598.0
  667.15,  3676.0
  666.50,  3727.0
  665.84,  3749.0
  665.19,  3794.0
  664.54,  3846.0
  663.89,  3801.0
  663.24,  3899.0
  662.59,  3930.0
  661.94,  3907.0
  661.29,  3938.0
  660.64,  4016.0
  659.99,  4143.0
  659.34,  4119.0
  658.69,  4143.0
  658.04,  4217.0
  657.39,  4250.0
  656.74,  4333.0
  656.08,  4300.0
  655.43,  4350.0
  654.78,  4333.0
  654.13,  4384.0
  653.48,  4452.0
  652.83,  4470.0
  652.18,  4522.0
  651.53,  4574.0
  650.87,  4557.0
  650.22,  4663.0
  649.57,  4717.0
  648.92,  4708.0
  648.27,  4735.0
  647.62,  4864.0
  646.96,  4910.0
  646.31,  4864.0
  645.66,  4985.0
  645.01,  5119.0
  644.36,  4966.0
  643.70,  5061.0
  643.05,  5109.0
  642.40,  5216.0
  641.75,  5216.0
  641.10,  5216.0
  640.44,  5314.0
  639.79,  5374.0
  639.14,  5485.0
  638.49,  5455.0
  637.83,  5557.0
  637.18,  5587.0
  636.53,  5629.0
  635.88,  5629.0
  635.22,  5764.0
  634.57,  5754.0
  633.92,  5849.0
  633.26,  5870.0
  632.61,  6010.0
  631.96,  6108.0
  631.31,  6097.0
  630.65,  6097.0
  630.00,  6218.0
  629.35,  6218.0
  628.69,  6285.0
  628.04,  6296.0
  627.39,  6363.0
  626.73,  6454.0
  626.08,  6488.0
  625.43,  6488.0
  624.77,  6579.0
  624.12,  6742.0
  623.47,  6753.0
  622.81,  6777.0
  622.16,  6883.0
  621.51,  6824.0
  620.85,  7013.0
  620.20,  7013.0
  619.54,  7122.0
  618.89,  7206.0
  618.24,  7097.0
  617.58,  7341.0
  616.93,  7440.0
  616.27,  7316.0
  615.62,  7452.0
  614.96,  7539.0
  614.31,  7602.0
  613.66,  7627.0
  613.00,  7664.0
  612.35,  7766.0
  611.69,  7804.0
  611.04,  7842.0
  610.38,  7919.0
  609.73,  7944.0
  609.07,  8035.0
  608.42,  8139.0
  607.76,  8256.0
  607.11,  8217.0
  606.45,  8348.0
  605.80,  8375.0
  605.14,  8454.0
  604.49,  8655.0
  603.83,  8534.0
  603.18,  8575.0
  602.52,  8709.0
  601.87,  8858.0
  601.21,  8858.0
  600.56,  8858.0
  599.90,  8926.0
  599.25,  9036.0
  598.59,  9022.0
  597.93,  9077.0
  597.28,  9202.0
  596.62,  9230.0
  595.97,  9257.0
  595.31,  9257.0
  594.66,  9369.0
  594.00,  9524.0
  593.34,  9439.0
  592.69,  9453.0
  592.03,  9608.0
  591.38,  9651.0
  590.72,  9651.0
  590.06,  9751.0
  589.41,  9779.0
  588.75,  9779.0
  588.09,  9793.0
  587.44,  9865.0
  586.78,  9894.0
  586.13, 10052.0
  585.47, 10023.0
  584.81, 10067.0
  584.16, 10067.0
  583.50, 10096.0
  582.84, 10125.0
  582.18, 10139.0
  581.53, 10212.0
  580.87, 10256.0
  580.21, 10285.0
  579.56, 10256.0
  578.90, 10300.0
  578.24, 10344.0
  577.59, 10329.0
  576.93, 10344.0
  576.27, 10373.0
  575.61, 10506.0
  574.96, 10447.0
  574.30, 10683.0
  573.64, 10491.0
  572.98, 10491.0
  572.33, 10579.0
  571.67, 10476.0
  571.01, 10713.0
  570.35, 10550.0
  569.70, 10683.0
  569.04, 10698.0
  568.38, 10713.0
  567.72, 10579.0
  567.06, 10683.0
  566.40, 10579.0
  565.75, 10491.0
  565.09, 10491.0
  564.43, 10491.0
  563.77, 10358.0
  563.11, 10241.0
  562.46, 10212.0
  561.80, 10139.0
  561.14, 10139.0
  560.48,  9980.0
  559.82,  9937.0
  559.16,  9779.0
  558.50,  9751.0
  557.85,  9566.0
  557.19,  9524.0
  556.53,  9313.0
  555.87,  9425.0
  555.21,  9174.0
  554.55,  9091.0
  553.89,  8926.0
  553.23,  8885.0
  552.57,  8872.0
  551.91,  8790.0
  551.25,  8548.0
  550.60,  8428.0
  549.94,  8428.0
  549.28,  8362.0
  548.62,  8322.0
  547.96,  8256.0
  547.30,  8126.0
  546.64,  8009.0
  545.98,  8035.0
  545.32,  8048.0
  544.66,  7868.0
  544.00,  7804.0
  543.34,  7766.0
  542.68,  7804.0
  542.02,  7639.0
  541.36,  7652.0
  540.70,  7753.0
  540.04,  7614.0
  539.38,  7639.0
  538.72,  7602.0
  538.06,  7602.0
  537.40,  7539.0
  536.74,  7502.0
  536.08,  7602.0
  535.42,  7602.0
  534.76,  7627.0
  534.10,  7602.0
  533.44,  7602.0
  532.77,  7527.0
  532.11,  7639.0
  531.45,  7639.0
  530.79,  7702.0
  530.13,  7539.0
  529.47,  7677.0
  528.81,  7664.0
  528.15,  7740.0
  527.49,  7702.0
  526.83,  7740.0
  526.16,  7690.0
  525.50,  7740.0
  524.84,  7804.0
  524.18,  7842.0
  523.52,  7804.0
  522.86,  7778.0
  522.20,  7919.0
  521.53,  7868.0
  520.87,  7842.0
  520.21,  7932.0
  519.55,  7919.0
  518.89,  7944.0
  518.23,  7970.0
  517.56,  8009.0
  516.90,  8022.0
  516.24,  8100.0
  515.58,  8087.0
  514.92,  8087.0
  514.25,  8113.0
  513.59,  8230.0
  512.93,  8100.0
  512.27,  8152.0
  511.60,  8243.0
  510.94,  8362.0
  510.28,  8296.0
  509.62,  8256.0
  508.95,  8283.0
  508.29,  8243.0
  507.63,  8362.0
  506.97,  8256.0
  506.30,  8362.0
  505.64,  8362.0
  504.98,  8335.0
  504.31,  8428.0
  503.65,  8428.0
  502.99,  8335.0
  502.33,  8441.0
  501.66,  8481.0
  501.00,  8428.0
  500.34,  8468.0
  499.67,  8428.0
  499.01,  8454.0
  498.35,  8388.0
  497.68,  8428.0
  497.02,  8428.0
  496.36,  8428.0
  495.69,  8401.0
  495.03,  8534.0
  494.36,  8454.0
  493.70,  8362.0
  493.04,  8454.0
  492.37,  8428.0
  491.71,  8375.0
  491.04,  8362.0
  490.38,  8322.0
  489.72,  8362.0
  489.05,  8283.0
  488.39,  8230.0
  487.72,  8230.0
  487.06,  8362.0
  486.40,  8217.0
  485.73,  8283.0
  485.07,  8269.0
  484.40,  8191.0
  483.74,  8126.0
  483.07,  8217.0
  482.41,  8087.0
  481.74,  8087.0
  481.08,  8100.0
  480.41,  8113.0
  479.75,  8061.0
  479.08,  8035.0
  478.42,  8048.0
  477.75,  8009.0
  477.09,  7944.0
  476.42,  7906.0
  475.76,  8009.0
  475.09,  7868.0
  474.43,  7804.0
  473.76,  7804.0
  473.10,  7702.0
  472.43,  7715.0
  471.77,  7715.0
  471.10,  7639.0
  470.44,  7514.0
  469.77,  7602.0
  469.10,  7539.0
  468.44,  7514.0
  467.77,  7477.0
  467.11,  7440.0
  466.44,  7415.0
  465.77,  7464.0
  465.11,  7402.0
  464.44,  7316.0
  463.78,  7304.0
  463.11,  7219.0
  462.44,  7231.0
  461.78,  7219.0
  461.11,  7134.0
  460.45,  7134.0
  459.78,  7109.0
  459.11,  7073.0
  458.45,  7109.0
  457.78,  7037.0
  457.11,  7013.0
  456.45,  7013.0
  455.78,  7097.0
  455.11,  6883.0
  454.45,  6966.0
  453.78,  6954.0
  453.11,  6847.0
  452.44,  6859.0
  451.78,  6824.0
  451.11,  6824.0
  450.44,  6753.0
  449.78,  6800.0
  449.11,  6730.0
  448.44,  6777.0
  447.77,  6800.0
  447.11,  6683.0
  446.44,  6695.0
  445.77,  6649.0
  445.10,  6591.0
  444.44,  6591.0
  443.77,  6488.0
  443.10,  6556.0
  442.43,  6488.0
  441.77,  6579.0
  441.10,  6533.0
  440.43,  6556.0
  439.76,  6454.0
  439.09,  6488.0
  438.43,  6488.0
  437.76,  6397.0
  437.09,  6420.0
  436.42,  6386.0
  435.75,  6454.0
  435.08,  6375.0
  434.42,  6363.0
  433.75,  6307.0
  433.08,  6420.0
  432.41,  6330.0
  431.74,  6274.0
  431.07,  6185.0
  430.40,  6274.0
  429.74,  6274.0
  429.07,  6274.0
  428.40,  6274.0
  427.73,  6152.0
  427.06,  6218.0
  426.39,  6152.0
  425.72,  6185.0
  425.05,  6130.0
  424.38,  6174.0
  423.71,  6119.0
  423.04,  6097.0
  422.38,  6130.0
  421.71,  6097.0
  421.04,  6097.0
  420.37,  6097.0
  419.70,  6097.0
  419.03,  6010.0
  418.36,  5999.0
  417.69,  6010.0
  417.02,  5956.0
  416.35,  5977.0
  415.68,  5892.0
  415.01,  5881.0
  414.34,  5924.0
  413.67,  5924.0
  413.00,  5934.0
  412.33,  6053.0
  411.66,  5838.0
  410.99,  5870.0
  410.32,  5828.0
  409.65,  5934.0
  408.98,  5870.0
  408.31,  5934.0
  407.64,  5796.0
  406.97,  5849.0
  406.30,  5828.0
  405.62,  5754.0
  404.95,  5785.0
  404.28,  5701.0
  403.61,  5670.0
  402.94,  5691.0
  402.27,  5754.0
  401.60,  5775.0
  400.93,  5775.0
  400.26,  5691.0
  399.59,  5660.0
  398.92,  5701.0
  398.24,  5618.0
  397.57,  5670.0
  396.90,  5660.0
  396.23,  5639.0
  395.56,  5660.0
  394.89,  5639.0
  394.22,  5516.0
  393.54,  5608.0
  392.87,  5516.0
  392.20,  5608.0
  391.53,  5587.0
  390.86,  5536.0
  390.18,  5608.0
  389.51,  5516.0
  388.84,  5475.0
  388.17,  5485.0
  387.50,  5516.0
  386.82,  5455.0
  386.15,  5384.0
  385.48,  5526.0
  384.81,  5424.0
  384.14,  5505.0
  383.46,  5536.0
  382.79,  5536.0
  382.12,  5455.0
  381.45,  5424.0
  380.77,  5516.0
  380.10,  5465.0
  379.43,  5424.0
  378.75,  5374.0
  378.08,  5424.0
  377.41,  5424.0
  376.74,  5364.0
  376.06,  5374.0
  375.39,  5455.0
  374.72,  5344.0
  374.04,  5344.0
  373.37,  5455.0
  372.70,  5394.0
  372.02,  5424.0
  371.35,  5384.0
  370.68,  5424.0
  370.00,  5394.0
  369.33,  5384.0
  368.66,  5424.0
  367.98,  5435.0
  367.31,  5374.0
  366.64,  5384.0
  365.96,  5314.0
  365.29,  5295.0
  364.61,  5424.0
  363.94,  5374.0
  363.27,  5384.0
  362.59,  5374.0
  361.92,  5344.0
  361.24,  5364.0
  360.57,  5344.0
  359.90,  5305.0
  359.22,  5344.0
  358.55,  5435.0
  357.87,  5384.0
  357.20,  5424.0
  356.52,  5374.0
  355.85,  5424.0
  355.17,  5404.0
  354.50,  5424.0
  353.83,  5374.0
  353.15,  5364.0
  352.48,  5424.0
  351.80,  5424.0
  351.13,  5424.0
  350.45,  5374.0
  349.78,  5265.0
  349.10,  5424.0
  348.43,  5424.0
  347.75,  5314.0
  347.08,  5314.0
  346.40,  5364.0
  345.72,  5344.0
  345.05,  5465.0
  344.37,  5374.0
  343.70,  5324.0
  343.02,  5314.0
  342.35,  5384.0
  341.67,  5394.0
  341.00,  5354.0
  340.32,  5285.0
  339.64,  5374.0
  338.97,  5374.0
  338.29,  5344.0
  337.62,  5424.0
  336.94,  5245.0
  336.26,  5295.0
  335.59,  5455.0
  334.91,  5404.0
  334.24,  5314.0
  333.56,  5516.0
  332.88,  5364.0
  332.21,  5364.0
  331.53,  5435.0
  330.85,  5424.0
  330.18,  5374.0
  329.50,  5354.0
  328.82,  5344.0
  328.15,  5374.0
  327.47,  5374.0
  326.79,  5374.0
  326.12,  5394.0
  325.44,  5354.0
  324.76,  5435.0
  324.09,  5455.0
  323.41,  5445.0
  322.73,  5505.0
  322.05,  5526.0
  321.38,  5445.0
  320.70,  5435.0
  320.02,  5424.0
  319.34,  5424.0
  318.67,  5495.0
  317.99,  5435.0
  317.31,  5455.0
  316.63,  5354.0
  315.96,  5384.0
  315.28,  5424.0
  314.60,  5354.0
  313.92,  5374.0
  313.25,  5424.0
  312.57,  5364.0
  311.89,  5285.0
  311.21,  5305.0
  310.53,  5295.0
  309.86,  5374.0
  309.18,  5364.0
  308.50,  5314.0
  307.82,  5275.0
  307.14,  5305.0
  306.46,  5344.0
  305.79,  5314.0
  305.11,  5314.0
  304.43,  5324.0
  303.75,  5344.0
  303.07,  5265.0
  302.39,  5265.0
  301.71,  5314.0
  301.03,  5384.0
  300.36,  5305.0
  299.68,  5344.0
  299.00,  5295.0
  298.32,  5295.0
  297.64,  5265.0
  296.96,  5354.0
  296.28,  5285.0
  295.60,  5265.0
  294.92,  5265.0
  294.24,  5177.0
  293.56,  5324.0
  292.88,  5285.0
  292.20,  5265.0
  291.52,  5265.0
  290.85,  5187.0
  290.17,  5206.0
  289.49,  5167.0
  288.81,  5216.0
  288.13,  5216.0
  287.45,  5158.0
  286.77,  5265.0
  286.09,  5206.0
  285.41,  5187.0
  284.73,  5148.0
  284.05,  5187.0
  283.37,  5196.0
  282.69,  5196.0
  282.01,  5109.0
  281.32,  5128.0
  280.64,  5167.0
  279.96,  5158.0
  279.28,  5148.0
  278.60,  5061.0
  277.92,  5158.0
  277.24,  5128.0
  276.56,  5109.0
  275.88,  5138.0
  275.20,  5109.0
  274.52,  5167.0
  273.84,  5158.0
  273.16,  5119.0
  272.47,  5109.0
  271.79,  5109.0
  271.11,  5033.0
  270.43,  5042.0
  269.75,  5109.0
  269.07,  5109.0
  268.39,  5119.0
  267.71,  5061.0
  267.02,  5033.0
  266.34,  5014.0
  265.66,  5033.0
  264.98,  5023.0
  264.30,  4995.0
  263.62,  4985.0
  262.93,  5052.0
  262.25,  5042.0
  261.57,  5061.0
  260.89,  5061.0
  260.21,  5033.0
  259.52,  5061.0
  258.84,  5061.0
  258.16,  5004.0
  257.48,  5052.0
  256.79,  4985.0
  256.11,  5004.0
  255.43,  5061.0
  254.75,  5014.0
  254.07,  5061.0
  253.38,  4957.0
  252.70,  5042.0
  252.02,  5052.0
  251.33,  5033.0
  250.65,  5033.0
  249.97,  5033.0
  249.29,  5023.0
  248.60,  5052.0
  247.92,  5109.0
  247.24,  5061.0
  246.55,  4929.0
  245.87,  5061.0
  245.19,  5033.0
  244.50,  5033.0
  243.82,  5014.0
  243.14,  5109.0
  242.45,  5109.0
  241.77,  5080.0
  241.09,  5042.0
  240.40,  5042.0
  239.72,  5033.0
  239.04,  5138.0
  238.35,  5004.0
  237.67,  5119.0
  236.98,  5080.0
  236.30,  5109.0
  235.62,  5071.0
  234.93,  5042.0
  234.25,  5080.0
  233.57,  5158.0
  232.88,  5052.0
  232.20,  5109.0
  231.51,  5119.0
  230.83,  5033.0
  230.14,  5177.0
  229.46,  5119.0
  228.77,  5109.0
  228.09,  5187.0
  227.41,  5148.0
  226.72,  5167.0
  226.04,  5138.0
  225.35,  5236.0
  224.67,  5167.0
  223.98,  5138.0
  223.30,  5119.0
  222.61,  5109.0
  221.93,  5148.0
  221.24,  5196.0
  220.56,  5148.0
  219.87,  5167.0
  219.19,  5187.0
  218.50,  5187.0
  217.82,  5265.0
  217.13,  5196.0
  216.44,  5167.0
  215.76,  5216.0
  215.07,  5196.0
  214.39,  5187.0
  213.70,  5236.0
  213.02,  5119.0
  212.33,  5226.0
  211.64,  5295.0
  210.96,  5187.0
  210.27,  5196.0
  209.59,  5265.0
  208.90,  5187.0
  208.21,  5148.0
  207.53,  5206.0
  206.84,  5305.0
  206.16,  5265.0
  205.47,  5314.0
  204.78,  5206.0
  204.10,  5265.0
  203.41,  5265.0
  202.72,  5324.0
  202.04,  5226.0
  201.35,  5275.0
  200.66,  5245.0
  199.98,  5265.0
  199.29,  5314.0
