99.8726	22813.6
100.541	22785.6
101.212	22857.6
101.88	22749.6
102.551	22646.6
103.219	22711.6
103.89	22737.6
104.558	23050.6
105.229	23409.6
105.897	23662.6
106.565	23430.6
107.235	23079.6
107.903	22577.6
108.571	22559.6
109.242	22638.6
109.91	22426.6
110.58	22464.6
111.248	22503.6
111.915	22535.6
112.585	22265.6
113.253	22654.6
113.921	22573.6
114.588	22795.6
115.258	23165.6
115.925	22557.6
116.593	22554.6
117.263	22526.6
117.93	22170.6
118.597	22017.6
119.264	22109.6
119.932	21984.6
120.601	21981.6
121.268	22033.6
121.935	22231.6
122.602	22208.6
123.269	22019.6
123.939	21789.6
124.605	21839.6
125.272	21793.6
125.939	21711.6
126.606	21486.6
127.272	21678.6
127.939	21448.6
128.608	21597.6
129.275	21530.6
129.941	21650.6
130.608	21680.6
131.274	21413.6
131.94	21370.6
132.607	21308.6
133.273	20932.6
133.939	21196.6
134.605	21337.6
135.272	21252.6
135.938	21114.6
136.604	21171.6
137.27	21033.6
137.936	21405.6
138.602	21385.6
139.268	20900.6
139.933	20935.6
140.599	20562.6
141.265	20558.6
141.931	20506.6
142.596	20804.6
143.262	20582.6
143.927	20817.6
144.593	20468.6
145.256	20669.6
145.921	20498.6
146.587	20388.6
147.252	20203.6
147.917	20253.6
148.583	20309.6
149.248	20294.6
149.911	20231.6
150.576	20165.6
151.241	20010.6
151.906	20003.6
152.571	19717.6
153.233	20022.6
153.898	19989.6
154.563	19855.6
155.228	19882.6
155.89	19715.6
156.555	19833.6
157.22	19656.6
157.884	19759.6
158.547	19570.6
159.211	19656.6
159.875	19304.6
160.538	19534.6
161.202	19488.6
161.866	19575.6
162.528	19540.6
163.193	19505.6
163.857	19508.6
164.519	19320.6
165.183	19141.6
165.847	19203.6
166.508	19165.6
167.172	18996.6
167.834	19130.6
168.498	19202.6
169.162	19331.6
169.823	18893.6
170.487	19178.6
171.148	18894.6
171.812	19016.6
172.473	18957.6
173.137	18728.6
173.798	18823.6
174.461	18852.6
175.123	18556.6
175.786	18755.6
176.447	18683.6
177.11	18681.6
177.771	18451.6
178.434	18708.6
179.095	18254.6
179.758	18198.6
180.419	18387.6
181.08	18398.6
181.743	18279.6
182.403	18397.6
183.066	18287.6
183.727	18223.6
184.387	18021.6
185.05	18031.6
185.71	18245.6
186.371	18156.6
187.033	18148.6
187.694	18093.6
188.354	18240.6
189.016	18212.6
189.676	17853.6
190.337	17958.6
190.999	17985.6
191.659	17921.6
192.319	17897.6
192.979	17789.6
193.641	17899.6
194.301	17828.6
194.96	17829.6
195.62	17719.6
196.28	17716.6
196.942	17568.6
197.601	17457.6
198.261	17757.6
198.92	17582.6
199.58	17607.6
200.239	17469.6
200.901	17702.6
201.56	17477.6
202.219	17608.6
202.879	17596.6
203.538	17342.6
204.197	17601.6
204.856	17331.6
205.515	17405.6
206.176	17157.6
206.835	17403.6
207.494	17311.6
208.153	17014.6
208.812	17287.6
209.471	17099.6
210.13	16985.6
210.788	17433.6
211.447	17133.6
212.105	17129.6
212.764	17324.6
213.423	17131.6
214.081	16997.6
214.739	16943.6
215.398	17053.6
216.056	17078.6
216.714	17055.6
217.37	16901.6
218.029	16949.6
218.687	16853.6
219.345	16949.6
220.003	17008.6
220.661	17003.6
221.319	16691.6
221.977	16965.6
222.635	16944.6
223.29	16827.6
223.948	16989.6
224.606	16970.6
225.264	16873.6
225.921	16899.6
226.577	16722.6
227.234	16669.6
227.892	16723.6
228.549	16592.6
229.207	16498.6
229.862	16629.6
230.519	16531.6
231.176	16541.6
231.834	16263.6
232.488	16489.6
233.146	16765.6
233.803	16607.6
234.458	16639.6
235.115	16624.6
235.772	16479.6
236.426	16473.6
237.083	16639.6
237.74	16646.6
238.395	16392.6
239.051	16605.6
239.708	16639.6
240.362	16388.6
241.019	16387.6
241.673	16581.6
242.33	16607.6
242.986	16248.6
243.641	16289.6
244.297	16311.6
244.951	16438.6
245.607	16414.6
246.261	16493.6
246.918	16629.6
247.572	16437.6
248.228	16389.6
248.881	16417.6
249.538	16338.6
250.191	16351.6
250.847	16657.6
251.501	16320.6
252.157	16228.6
252.81	16263.6
253.466	16347.6
254.12	16243.6
254.773	16405.6
255.429	16361.6
256.082	16433.6
256.738	16325.6
257.391	16404.6
258.044	16314.6
258.699	16345.6
259.353	16325.6
260.006	16219.6
260.661	16169.6
261.314	16215.6
261.967	16256.6
262.622	16283.6
263.275	16388.6
263.928	16200.6
264.58	16327.6
265.235	16212.6
265.888	16113.6
266.541	16215.6
267.193	16226.6
267.848	16349.6
268.501	16269.6
269.153	16111.6
269.805	15944.6
270.46	16088.6
271.112	16041.6
271.765	16369.6
272.417	16209.6
273.069	16080.6
273.721	16218.6
274.375	16037.6
275.028	16213.6
275.68	16060.6
276.332	16034.6
276.983	16212.6
277.635	15886.6
278.287	15966.6
278.939	15989.6
279.591	15893.6
280.242	16052.6
280.894	16083.6
281.546	16072.6
282.199	16094.6
282.851	16196.6
283.502	16006.6
284.154	16016.6
284.805	15955.6
285.457	15935.6
286.108	16087.6
286.759	16029.6
287.408	15872.6
288.059	16085.6
288.71	16029.6
289.362	15706.6
290.013	16067.6
290.664	15776.6
291.314	15902.6
291.965	15833.6
292.616	16107.6
293.267	15998.6
293.918	15873.6
294.566	15932.6
295.217	15934.6
295.868	15942.6
296.518	15842.6
297.169	15785.6
297.819	15793.6
298.467	15856.6
299.118	15838.6
299.768	15769.6
300.419	16122.6
301.069	15811.6
301.717	15965.6
302.367	15853.6
303.017	15834.6
303.667	15637.6
304.315	15565.6
304.965	15668.6
305.615	15657.6
306.263	15699.6
306.913	15763.6
307.563	15765.6
308.21	15519.6
308.86	15608.6
309.51	15806.6
310.157	15447.6
310.807	15817.6
311.456	15623.6
312.104	15493.6
312.753	15570.6
313.4	15501.6
314.05	15569.6
314.699	15574.6
315.346	15548.6
315.995	15533.6
316.642	15392.6
317.292	15547.6
317.938	15462.6
318.588	15595.6
319.234	15482.6
319.883	15493.6
320.53	15400.6
321.179	15397.6
321.826	15309.6
322.474	15300.6
323.121	15541.6
323.77	15347.6
324.416	15295.6
325.065	15151.6
325.711	15457.6
326.358	15375.6
327.006	15301.6
327.652	15309.6
328.301	15270.6
328.947	15198.6
329.593	15093.6
330.241	15369.6
330.887	15190.6
331.533	15159.6
332.182	15083.6
332.828	15237.6
333.473	15116.6
334.121	14957.6
334.767	15029.6
335.413	14931.6
336.061	14887.6
336.706	15125.6
337.352	14716.6
337.998	15192.6
338.645	15078.6
339.291	14794.6
339.936	15010.6
340.582	14663.6
341.227	14677.6
341.874	14822.6
342.52	14804.6
343.165	14779.6
343.81	14737.6
344.455	14792.6
345.1	14599.6
345.747	14734.6
346.392	14682.6
347.037	14745.6
347.682	14631.6
348.327	14789.6
348.972	14590.6
349.617	14599.6
350.261	14601.6
350.906	14768.6
351.551	14825.6
352.195	14409.6
352.84	14553.6
353.484	14410.6
354.129	14610.6
354.773	14420.6
355.418	14497.6
356.062	14506.6
356.706	14547.6
357.35	14513.6
357.995	14610.6
358.639	14577.6
359.283	14421.6
359.927	14608.6
360.571	14464.6
361.215	14521.6
361.859	14478.6
362.503	14375.6
363.147	14667.6
363.79	14443.6
364.432	14554.6
365.076	14490.6
365.719	14366.6
366.363	14481.6
367.007	14313.6
367.65	14385.6
368.294	14312.6
368.935	14374.6
369.578	14334.6
370.222	14229.6
370.865	14497.6
371.506	14367.6
372.149	14418.6
372.793	14488.6
373.436	14493.6
374.077	14271.6
374.72	14541.6
375.363	14445.6
376.006	14662.6
376.646	14653.6
377.289	14581.6
377.932	14503.6
378.573	14368.6
379.215	14640.6
379.858	14479.6
380.499	14509.6
381.141	14627.6
381.782	14629.6
382.424	14670.6
383.067	14553.6
383.707	14600.6
384.349	14569.6
384.99	14395.6
385.632	14686.6
386.274	14474.6
386.914	14475.6
387.556	14343.6
388.196	14605.6
388.839	14526.6
389.478	14553.6
390.12	14557.6
390.76	14581.6
391.402	14621.6
392.042	14570.6
392.684	14592.6
393.323	14682.6
393.963	14529.6
394.605	14433.6
395.244	14417.6
395.886	14677.6
396.525	14481.6
397.164	14455.6
397.806	14381.6
398.445	14514.6
399.087	14543.6
399.726	14272.6
400.365	14271.6
401.006	14436.6
401.645	14466.6
402.284	14465.6
402.925	14511.6
403.564	14273.6
404.203	14532.6
404.844	14288.6
405.483	14356.6
406.122	14546.6
406.76	14524.6
407.401	14301.6
408.04	14314.6
408.678	14406.6
409.317	14352.6
409.955	14105.6
410.596	14032.6
411.235	14248.6
411.873	14259.6
412.511	14255.6
413.149	14051.6
413.788	14034.6
414.428	14192.6
415.066	14183.6
415.704	14034.6
416.342	14233.6
416.98	13929.6
417.618	14076.6
418.256	13965.6
418.894	14035.6
419.532	13932.6
420.17	14051.6
420.81	13921.6
421.447	13926.6
422.085	14146.6
422.723	14013.6
423.36	13815.6
423.998	14097.6
424.635	14110.6
425.273	13909.6
425.91	13800.6
426.548	13945.6
427.183	13896.6
427.82	13856.6
428.457	13831.6
429.095	13721.6
429.732	13834.6
430.369	13853.6
431.006	13607.6
431.643	13655.6
432.28	13709.6
432.917	13403.6
433.554	13576.6
434.188	13749.6
434.825	13466.6
435.462	13657.6
436.099	13539.6
436.735	13658.6
437.37	13565.6
438.006	13291.6
438.643	13540.6
439.28	13219.6
439.916	13151.6
440.55	13325.6
441.187	13568.6
441.823	13475.6
442.459	13370.6
443.093	13185.6
443.73	13247.6
444.366	13344.6
445	13330.6
445.636	13278.6
446.272	13150.6
446.906	13103.6
447.542	13243.6
448.177	13177.6
448.811	13085.6
449.447	12920.6
450.083	13200.6
450.716	13093.6
451.352	12989.6
451.986	13047.6
452.621	12885.6
453.257	12965.6
453.89	13171.6
454.526	12933.6
455.159	12968.6
455.794	12844.6
456.427	12995.6
457.063	12990.6
457.696	12932.6
458.331	12889.6
458.964	13156.6
459.599	12711.6
460.232	12869.6
460.867	12749.6
461.5	12715.6
462.133	12819.6
462.768	12645.6
463.4	12779.6
464.035	12694.6
464.668	12739.6
465.303	12581.6
465.935	12635.6
466.568	12695.6
467.202	12686.6
467.835	12667.6
468.467	12532.6
469.102	12662.6
469.734	12558.6
470.366	12613.6
471.001	12498.6
471.633	12664.6
472.265	12707.6
472.897	12652.6
473.531	12747.6
474.163	12429.6
474.795	12533.6
475.427	12635.6
476.061	12599.6
476.693	12634.6
477.325	12494.6
477.956	12734.6
478.588	12461.6
479.222	12621.6
479.854	12395.6
480.485	12314.6
481.117	12566.6
481.748	12601.6
482.38	12677.6
483.013	12449.6
483.644	12524.6
484.276	12451.6
484.907	12676.6
485.538	12548.6
486.169	12624.6
486.801	12575.6
487.432	12598.6
488.063	12475.6
488.694	12753.6
489.325	12682.6
489.956	12552.6
490.587	12915.6
491.217	12806.6
491.848	12739.6
492.479	12801.6
493.11	12899.6
493.74	12973.6
494.371	12907.6
495.002	12888.6
495.632	13119.6
496.263	12925.6
496.893	13284.6
497.524	13349.6
498.154	13316.6
498.782	13379.6
499.413	13459.6
500.043	13432.6
500.673	13649.6
501.303	13491.6
501.933	13671.6
502.563	13693.6
503.191	13853.6
503.821	14065.6
504.451	14075.6
505.081	14180.6
505.711	14345.6
506.339	14329.6
506.969	14396.6
507.598	14610.6
508.228	15005.6
508.855	14903.6
509.485	14949.6
510.115	15293.6
510.742	15264.6
511.372	15443.6
512.001	15543.6
512.628	15815.6
513.258	15997.6
513.887	15989.6
514.514	16159.6
515.143	16206.6
515.773	16546.6
516.4	16673.6
517.029	16902.6
517.656	17095.6
518.285	17033.6
518.914	17173.6
519.54	17284.6
520.169	17548.6
520.796	17363.6
521.425	17711.6
522.052	17951.6
522.68	17997.6
523.307	18307.6
523.936	18532.6
524.562	18621.6
525.191	18493.6
525.817	18810.6
526.445	19009.6
527.072	19125.6
527.7	19321.6
528.326	19386.6
528.955	19424.6
529.581	19475.6
530.207	19683.6
530.835	20037.6
531.461	20061.6
532.089	19916.6
532.715	20240.6
533.341	20426.6
533.969	20360.6
534.595	20683.6
535.221	20583.6
535.848	20734.6
536.474	20908.6
537.1	21105.6
537.725	21007.6
538.353	21132.6
538.978	21038.6
539.604	21146.6
540.232	21227.6
540.857	21414.6
541.482	21348.6
542.107	21786.6
542.733	21336.6
543.36	21794.6
543.985	21417.6
544.61	21678.6
545.236	21466.6
545.861	21725.6
546.486	21809.6
547.113	21781.6
547.738	21824.6
548.362	21490.6
548.987	21577.6
549.612	21567.6
550.237	21711.6
550.862	21669.6
551.486	21629.6
552.111	21827.6
552.735	21407.6
553.362	21590.6
553.987	21413.6
554.611	21568.6
555.236	21281.6
555.86	21244.6
556.484	21217.6
557.109	21189.6
557.733	21295.6
558.357	21151.6
558.981	21028.6
559.603	21021.6
560.227	21052.6
560.851	20992.6
561.475	20721.6
562.099	20509.6
562.723	20439.6
563.347	20369.6
563.971	20405.6
564.595	20430.6
565.218	20189.6
565.84	19945.6
566.464	20029.6
567.087	19941.6
567.711	19603.6
568.334	19722.6
568.958	19513.6
569.579	19221.6
570.203	19168.6
570.826	19284.6
571.449	18917.6
572.071	19019.6
572.694	18950.6
573.317	18726.6
573.94	18541.6
574.561	18421.6
575.184	18319.6
575.807	18191.6
576.428	17995.6
577.051	17896.6
577.674	17796.6
578.295	17693.6
578.918	17427.6
579.54	17253.6
580.161	17303.6
580.784	16929.6
581.406	16923.6
582.027	16882.6
582.65	16851.6
583.27	16520.6
583.893	16536.6
584.513	16204.6
585.135	16260.6
585.758	15909.6
586.378	15937.6
587	15916.6
587.62	15817.6
588.242	15596.6
588.863	15416.6
589.485	15404.6
590.105	15109.6
590.727	15165.6
591.347	15025.6
591.966	15029.6
592.588	14773.6
593.208	14692.6
593.83	14453.6
594.45	14445.6
595.069	14315.6
595.691	14143.6
596.311	14221.6
596.932	13973.6
597.552	14085.6
598.171	13850.6
598.793	13845.6
599.412	13658.6
600.031	13549.6
600.653	13524.6
601.272	13303.6
601.891	13131.6
602.51	13396.6
603.131	13188.6
603.75	12829.6
604.37	13085.6
604.988	12842.6
605.61	12523.6
606.228	12647.6
606.847	12678.6
607.466	12593.6
608.085	12481.6
608.706	12278.6
609.324	12153.6
609.943	11940.6
610.562	12064.6
611.18	12079.6
611.799	11978.6
612.419	11838.6
613.038	11746.6
613.656	11763.6
614.275	11675.6
614.893	11709.6
615.511	11648.6
616.129	11497.6
616.748	11398.6
617.366	11474.6
617.984	11407.6
618.602	11013.6
619.22	11070.6
619.838	11093.6
620.456	11023.6
621.074	10993.6
621.692	10985.6
622.31	11169.6
622.927	10919.6
623.545	10580.6
624.163	10755.6
624.78	10808.6
625.398	10683.6
626.016	10631.6
626.633	10583.6
627.249	10469.6
627.866	10470.6
628.483	10339.6
629.101	10326.6
629.718	10286.6
630.335	10187.6
630.953	10335.6
631.568	10235.6
632.185	10229.6
632.802	10099.6
633.419	10152.6
634.036	9849.58
634.651	9776.58
635.268	9966.58
635.885	10013.6
636.502	9889.58
637.117	9823.58
637.733	9880.58
638.35	9712.58
638.965	9666.58
639.581	9590.58
640.198	9615.58
640.813	9512.58
641.429	9355.58
642.046	9480.58
642.66	9405.58
643.276	9478.58
643.893	9533.58
644.507	9309.58
645.123	9293.58
645.738	9328.58
646.354	9279.58
646.97	9231.58
647.584	9252.58
648.2	9044.58
648.814	8987.58
649.43	9086.58
650.044	9034.58
650.66	8917.58
651.274	9086.58
651.89	8930.58
652.503	8869.58
653.119	9063.58
653.733	8844.58
654.349	8914.58
654.962	8980.58
655.576	8848.58
656.191	8804.58
656.805	8865.58
657.42	8905.58
658.033	8785.58
658.647	8748.58
659.262	8755.58
659.875	8870.58
660.491	8711.58
661.104	8753.58
661.717	8877.58
662.332	8760.58
662.945	8691.58
663.558	8749.58
664.171	8722.58
664.786	8722.58
665.399	8636.58
666.012	8643.58
666.625	8747.58
667.239	8729.58
667.852	8816.58
668.465	8686.58
669.077	8823.58
669.692	8656.58
670.305	8693.58
670.917	8835.58
671.53	8747.58
672.142	8696.58
672.754	8806.58
673.369	8850.58
673.981	8927.58
674.593	8931.58
675.206	9025.58
675.818	9026.58
676.43	8810.58
677.042	9026.58
677.654	9099.58
678.266	9001.58
678.878	9223.58
679.49	9136.58
680.102	9243.58
680.714	9167.58
681.325	9239.58
681.937	9314.58
682.549	9397.58
683.161	9627.58
683.772	9501.58
684.384	9647.58
684.995	9614.58
685.607	9795.58
686.219	9764.58
686.83	9811.58
687.441	9811.58
688.053	10017.6
688.664	10097.6
689.275	9894.58
689.887	10087.6
690.496	10050.6
691.107	10334.6
691.718	10331.6
692.329	10451.6
692.94	10322.6
693.551	10538.6
694.16	10663.6
694.771	10706.6
695.382	10800.6
695.993	10941.6
696.604	11037.6
697.212	10991.7
697.823	11100.9
698.434	11278.9
699.042	11419.8
699.653	11473.4
700.263	11509.8
700.874	11718
701.482	11696.9
702.093	11725.9
702.703	11822.2
703.311	11888
703.922	12046.7
704.532	12122.8
705.14	12252.2
705.75	12360.7
706.358	12435.2
706.968	12549.5
707.579	12615.5
708.186	12825.6
708.797	12738.8
709.404	13013.6
710.014	12899.1
710.622	13238
711.232	13176.5
711.84	13291.6
712.449	13559.7
713.057	13616.4
713.667	13646.9
714.274	13717.8
714.884	13686
715.491	13877
716.101	14015.3
716.708	14089.9
717.315	14117.7
717.925	14224.4
718.532	14325.5
719.142	14398
719.749	14499
720.356	14468.7
720.965	14599.4
721.572	14725.5
722.179	14853.9
722.788	14930.5
723.395	14825.8
724.002	14972.6
724.611	15137.6
725.218	15231.7
725.825	15215.9
726.434	15268.8
727.04	15331.7
727.647	15459.4
727.914	15504.4
728.531	15685.4
729.151	15838.4
729.768	15759.4
730.385	15851.4
731.004	15915.4
731.621	16094.4
732.238	16093.4
732.855	16178.4
733.474	16417.4
734.091	16502.4
734.708	16406.4
735.325	16519.4
735.942	16725.4
736.561	16661.4
737.177	16730.4
737.794	16832.4
738.411	16925.4
739.027	16924.4
739.644	17120.4
740.262	17110.4
740.879	17003.4
741.495	17075.4
742.112	17385.4
742.728	17161.4
743.344	17416.4
743.961	17440.4
744.577	17294.4
745.193	17361.4
745.811	17379.4
746.427	17668.4
747.043	17716.4
747.659	17757.4
748.275	17639.4
748.891	17790.4
749.507	17858.4
750.123	17667.4
750.739	17819.4
751.355	17778.4
751.97	17886.4
752.586	18045.4
753.202	18020.4
753.817	18100.4
754.431	18232.4
755.046	18010.4
755.662	18163.4
756.277	18174.4
756.893	18219.4
757.508	18159.4
758.123	18222.4
758.739	18255.4
759.354	18223.4
759.969	18214.4
760.582	18340.4
761.197	18527.4
761.812	18340.4
762.427	18533.4
763.042	18405.4
763.655	18322.4
764.27	18218.4
764.885	18351.4
765.5	18461.4
766.115	18325.4
766.727	18365.4
767.342	18538.4
767.957	18404.4
768.571	18369.4
769.184	18253.4
769.798	18557.4
770.413	18234.4
771.025	18464.4
771.64	18416.4
772.254	18372.4
772.866	18443.4
773.481	18418.4
774.095	18490.4
774.707	18485.4
775.321	18426.4
775.935	18528.4
776.547	18601.4
777.161	18364.4
777.776	18213.4
778.387	18352.4
779.001	18559.4
779.613	18560.4
780.227	18443.4
780.839	18422.4
781.453	18490.4
782.064	18442.4
782.678	18479.4
783.289	18430.4
783.903	18650.4
784.515	18611.4
785.128	18414.4
785.739	18386.4
786.353	18574.4
786.964	18662.4
787.578	18670.4
788.189	18747.4
788.802	18826.4
789.413	18494.4
790.027	18541.4
790.638	18660.4
791.249	18802.4
791.862	18690.4
792.473	18872.4
793.086	18705.4
793.697	18965.4
794.307	18999.4
794.92	19206.4
795.531	19016.4
796.142	19030.4
796.755	19182.4
797.365	19486.4
797.976	19177.4
798.586	19551.4
799.199	19514.4
799.809	19738.4
800.42	19554.4
801.032	19975.4
801.643	20145.4
802.253	20408.4
802.863	20402.4
803.473	20665.4
804.086	20638.4
804.696	20788.4
805.306	21018.4
805.916	21330.4
806.526	21604.4
807.138	21722.4
807.748	21893.4
808.358	22122.4
808.968	22618.4
809.578	22757.4
810.188	23109.4
810.797	23537.4
811.407	23594.4
812.019	24044.4
812.628	24067.4
813.238	24428.4
813.848	24971.4
814.457	25351.4
815.067	25501.4
815.676	25790.4
816.285	26223.4
816.895	26544.4
817.504	27073.4
818.113	27280.4
818.722	27833.4
819.332	27911.4
819.941	28504.4
820.55	28749.4
821.159	29250.4
821.768	29817.4
822.377	30216.4
822.986	30343.4
823.593	30772.4
824.202	31069.4
824.81	31614.4
825.419	31965.4
826.028	32249.4
826.637	32604.4
827.245	33086.4
827.854	33353.4
828.463	33736.4
829.069	34110.4
829.677	34210.4
830.286	34461.4
830.894	34539.4
831.503	35024.4
832.109	35284.4
832.717	35450.4
833.326	35493.4
833.934	35955.4
834.54	35934.4
835.148	35983.4
835.756	36086.4
836.364	35866.4
836.97	36186.4
837.578	36265.4
838.186	36437.4
838.792	36372.4
839.4	36288.4
840.008	36235.4
840.613	36122.4
841.221	36175.4
841.829	36101.4
842.434	36098.4
843.042	36059.4
843.65	35810.4
844.255	35874.4
844.863	35850.4
845.468	35537.4
846.075	35354.4
846.683	35363.4
847.288	34989.4
847.895	34974.4
848.5	34763.4
849.108	34934.4
849.713	34631.4
850.32	34343.4
850.925	33933.4
851.532	33962.4
852.137	33434.4
852.744	33164.4
853.349	33089.4
853.956	33111.4
854.561	32706.4
855.167	32442.4
855.772	32224.4
856.377	31982.4
856.984	31659.4
857.588	31208.4
858.195	31200.4
858.799	30799.4
859.404	30444.4
860.01	30274.4
860.615	30176.4
861.219	29714.4
861.825	29628.4
862.43	29426.4
863.034	28850.4
863.64	28753.4
864.244	28542.4
864.848	28319.4
865.455	27969.4
866.059	27808.4
866.663	27490.4
867.267	27472.4
867.872	26930.4
868.476	26568.4
869.08	26522.4
869.684	26239.4
870.29	25951.4
870.894	25713.4
871.497	25303.4
872.101	24978.4
872.704	24769.4
873.308	24470.4
873.914	24146.4
874.517	23984.4
875.121	23786.4
875.724	23481.4
876.327	23170.4
876.931	22755.4
877.534	22721.4
878.137	22006.4
878.74	22155.4
879.346	21534.4
879.949	21295.4
880.552	21106.4
881.155	20604.4
881.758	20525.4
882.361	20232.4
882.964	19747.4
883.567	19536.4
884.17	19102.4
884.772	18831.4
885.375	18456.4
885.978	18359.4
886.581	17880.4
887.183	17865.4
887.786	17423.4
888.388	17250.4
888.989	16971.4
889.591	16858.4
890.194	16598.4
890.796	16237.4
891.399	15743.4
892.001	15674.4
892.603	15291.4
893.206	15116.4
893.806	14892.4
894.408	14845.4
895.01	14568.4
895.612	14112.4
896.214	14002.4
896.816	13862.4
897.416	13569.4
898.018	13324.4
898.62	13286.4
899.222	12875.4
899.822	12598.4
900.423	12703.4
901.025	12405.4
901.627	11834.4
902.226	11980.4
902.828	11859.4
903.43	11728.4
904.029	11309.4
904.631	10976.4
905.232	11124.4
905.831	11027.4
906.433	10585.4
907.034	10706.4
907.633	10194.4
908.235	10019.4
908.836	10132.4
909.435	9929.42
910.036	9751.42
910.635	9652.42
911.236	9490.42
911.837	9428.42
912.436	9151.42
913.037	9025.42
913.636	8981.42
914.237	8899.42
914.836	8715.42
915.437	8616.42
916.035	8556.42
916.636	8401.42
917.235	8314.42
917.835	8244.42
918.434	8266.42
919.034	7946.42
919.633	7986.42
920.233	7698.42
920.832	7638.42
921.43	7722.42
922.031	7574.42
922.629	7555.42
923.229	7344.42
923.827	7341.42
924.425	7207.42
925.026	7130.42
925.624	6995.42
926.222	7005.42
926.822	6817.42
927.42	6828.42
928.018	6644.42
928.618	6744.42
929.215	6576.42
929.813	6621.42
930.413	6428.42
931.011	6414.42
931.609	6430.42
932.206	6330.42
932.806	6164.42
933.403	6142.42
934.001	6055.42
934.598	5982.42
935.196	5921.42
935.795	5896.42
936.393	5884.42
936.99	5852.42
937.587	5857.42
938.185	5628.42
938.782	5595.42
939.381	5494.42
939.978	5584.42
940.575	5449.42
941.172	5528.42
941.769	5364.42
942.366	5350.42
942.963	5258.42
943.56	5245.42
944.157	5237.42
944.754	5214.42
945.351	5127.42
945.948	5020.42
946.544	5121.42
947.141	4994.42
947.738	5064.42
948.334	4926.42
948.931	4964.42
949.527	4908.42
950.124	4862.42
950.72	4742.42
951.317	4685.42
951.913	4728.42
952.509	4636.42
953.106	4553.42
953.702	4457.42
954.298	4552.42
954.894	4575.42
955.49	4472.42
956.086	4448.42
956.68	4444.42
957.276	4464.42
957.872	4267.42
958.468	4307.42
959.064	4233.42
959.66	4227.42
960.254	4339.42
960.85	4177.42
961.445	4132.42
962.041	4175.42
962.637	4026.42
963.23	4122.42
963.826	4078.42
964.422	3962.42
965.017	3971.42
965.611	3924.42
966.206	3921.42
966.801	3866.42
967.395	3797.42
967.99	3884.42
968.585	3760.42
969.178	3699.42
969.774	3644.42
970.369	3595.42
970.962	3612.42
971.557	3618.42
972.152	3682.42
972.745	3577.42
973.34	3577.42
973.933	3510.42
974.528	3484.42
975.121	3544.42
975.715	3454.42
976.31	3425.42
976.903	3417.42
977.498	3370.42
978.09	3413.42
978.685	3379.42
979.277	3222.42
979.872	3273.42
980.464	3257.42
981.059	3274.42
981.651	3225.42
982.246	3212.42
982.838	3166.42
983.43	3255.42
984.025	3134.42
984.617	3167.42
985.211	3103.42
985.803	3028.42
986.397	3088.42
986.989	2941.42
987.581	2964.42
988.175	2943.42
988.767	2939.42
989.359	3001.42
989.953	2882.42
990.545	2868.42
991.137	2826.42
991.73	2852.42
992.322	2812.42
992.914	2757.42
993.505	2773.42
994.099	2719.42
994.69	2747.42
995.282	2702.42
995.873	2686.42
996.467	2637.42
997.058	2593.42
997.65	2640.42
998.241	2606.42
998.832	2614.42
999.426	2586.42
1000.02	2501.42
1000.61	2575.42
1001.2	2515.42
1001.79	2508.42
1002.38	2485.42
1002.97	2476.42
1003.57	2418.42
1004.16	2354.42
1004.75	2365.42
1005.34	2316.42
1005.93	2324.42
1006.52	2332.42
1007.11	2317.42
1007.7	2285.42
1008.29	2217.42
1008.88	2243.42
1009.47	2230.42
1010.06	2187.42
1010.65	2178.42
1011.24	2193.42
1011.83	2136.42
1012.43	2084.42
1013.02	2112.42
1013.61	2071.42
1014.2	2067.42
1014.79	2036.42
1015.38	2027.42
1015.97	2043.42
1016.56	2014.42
1017.15	1979.42
1017.73	1967.42
1018.33	1980.42
1018.92	1952.42
1019.5	1948.42
1020.09	1914.42
1020.68	1874.42
1021.27	1847.42
1021.86	1871.42
1022.45	1851.42
1023.04	1871.42
1023.63	1819.42
1024.22	1819.42
1024.81	1769.42
1025.4	1810.42
1025.99	1797.42
1026.58	1747.42
1027.16	1745.42
1027.75	1726.42
1028.34	1703.42
1028.93	1689.42
1029.52	1677.42
1030.11	1672.42
1030.7	1701.42
1031.29	1674.42
1031.87	1659.42
1032.46	1678.42
1033.05	1615.42
1033.64	1654.42
1034.23	1633.42
1034.82	1588.42
1035.4	1605.42
1035.99	1625.42
1036.58	1606.42
1037.17	1584.42
1037.76	1568.42
1038.34	1584.42
1038.93	1534.42
1039.52	1558.42
1040.11	1543.42
1040.69	1491.42
1041.28	1529.42
1041.87	1516.42
1042.46	1522.42
1043.04	1501.42
1043.63	1516.42
1044.22	1514.42
1044.81	1499.42
1045.39	1478.42
1045.98	1471.42
1046.57	1470.42
1047.15	1460.42
1047.74	1432.42
1048.33	1447.42
1048.91	1475.42
1049.5	1429.42
1050.09	1436.42
1050.67	1433.42
1051.26	1429.42
1051.85	1425.42
1052.43	1446.42
1053.02	1428.42
1053.61	1423.42
1054.19	1402.42
1054.78	1393.42
1055.36	1422.42
1055.95	1404.42
1056.54	1440.42
1057.12	1377.42
1057.71	1410.42
1058.29	1386.42
1058.88	1389.42
1059.47	1430.42
1060.05	1380.42
1060.64	1399.42
1061.22	1365.42
1061.81	1366.42
1062.39	1364.42
1062.98	1381.42
1063.57	1372.42
1064.15	1369.42
1064.74	1403.42
1065.32	1364.42
1065.91	1346.42
1066.49	1357.42
1067.07	1361.42
1067.66	1376.42
1068.24	1379.42
1068.83	1356.42
1069.41	1342.42
1070	1307.42
1070.58	1330.42
1071.17	1324.42
1071.75	1331.42
1072.34	1330.42
1072.92	1335.42
1073.51	1320.42
1074.09	1315.42
1074.67	1354.42
1075.26	1328.42
1075.84	1294.42
1076.43	1302.42
1077.01	1307.42
1077.6	1294.42
1078.18	1292.42
1078.76	1341.42
1079.35	1292.42
1079.93	1292.42
1080.51	1289.42
1081.1	1267.42
1081.68	1298.42
1082.27	1312.42
1082.85	1284.42
1083.43	1273.42
1084.01	1275.42
1084.6	1307.42
1085.18	1262.42
1085.76	1293.42
1086.35	1300.42
1086.93	1276.42
1087.51	1275.42
1088.1	1270.42
1088.68	1300.42
1089.26	1264.42
1089.84	1246.42
1090.43	1283.42
1091.01	1287.42
1091.59	1240.42
1092.18	1254.42
1092.76	1263.42
1093.34	1261.42
1093.92	1230.42
1094.51	1259.42
1095.09	1248.42
1095.67	1248.42
1096.25	1242.42
1096.83	1229.42
1097.41	1222.42
1098	1241.42
1098.58	1223.42
1099.16	1239.42
1099.74	1241.42
1100.32	1217.42
1100.91	1219.42
1101.49	1230.42
1102.07	1215.42
1102.65	1213.42
1103.23	1214.42
1103.81	1206.42
1104.39	1200.42
1104.98	1199.42
1105.56	1199.42
1106.14	1180.42
1106.72	1229.42
1107.3	1187.42
1107.88	1210.42
1108.46	1200.42
1109.04	1181.42
1109.62	1215.42
1110.2	1189.42
1110.79	1175.42
1111.37	1194.42
1111.95	1175.42
1112.53	1191.42
1113.11	1182.42
1113.69	1148.42
1114.27	1166.42
1114.85	1153.42
1115.43	1192.42
1116.01	1183.42
1116.59	1173.42
1117.17	1160.42
1117.75	1165.42
1118.33	1162.42
1118.91	1159.42
1119.49	1164.42
1120.07	1176.42
1120.65	1125.42
1121.23	1143.42
1121.81	1131.42
1122.39	1146.42
1122.97	1146.42
1123.55	1154.42
1124.13	1135.42
1124.71	1156.42
1125.29	1136.42
1125.86	1129.42
1126.44	1155.42
1127.02	1134.42
1127.6	1123.42
1128.18	1133.42
1128.76	1146.42
1129.34	1108.42
1129.92	1117.42
1130.5	1089.42
1131.07	1120.42
1131.65	1115.42
1132.23	1107.42
1132.81	1125.42
1133.39	1107.42
1133.97	1087.42
1134.55	1092.42
1135.12	1082.42
1135.7	1100.42
1136.28	1108.42
1136.86	1074.42
1137.44	1070.42
1138.02	1060.42
1138.59	1076.42
1139.17	1104.42
1139.75	1075.42
1140.33	1058.42
1140.91	1105.42
1141.48	1061.42
1142.06	1072.42
1142.64	1086.42
1143.22	1072.42
1143.79	1075.42
1144.37	1044.42
1144.95	1056.42
1145.52	1059.42
1146.1	1066.42
1146.68	1045.42
1147.26	1078.42
1147.83	1060.42
1148.41	1067.42
1148.99	1031.42
1149.56	1059.42
1150.14	1064.42
1150.72	1037.42
1151.29	1037.42
1151.87	1051.42
1152.45	1040.42
1153.02	1047.42
1153.6	1049.42
1154.18	1037.42
1154.75	1040.42
1155.33	1042.42
1155.91	1029.42
1156.48	1030.42
1157.06	1014.42
1157.63	1038.42
1158.21	1022.42
1158.79	1040.42
1159.36	1024.42
1159.94	1029.42
1160.51	1024.42
1161.09	1011.42
1161.67	1017.42
1162.24	1042.42
1162.82	1018.42
1163.39	1029.42
1163.97	995.421
1164.54	1035.42
1165.12	1035.42
1165.69	1027.42
1166.27	1028.42
1166.85	1004.42
1167.42	1012.42
1167.99	995.421
1168.57	1002.42
1169.15	1023.42
1169.72	1018.42
1170.3	1006.42
1170.87	996.421
1171.44	992.421
1172.02	987.421
1172.59	984.421
1173.17	1005.42
1173.74	989.421
1174.32	1001.42
1174.89	1008.42
1175.47	987.421
1176.04	986.421
1176.62	993.421
1177.19	992.421
1177.76	982.421
1178.34	1010.42
1178.91	992.421
1179.49	994.421
1180.06	983.421
1180.63	990.421
1181.21	976.421
1181.78	988.421
1182.35	984.421
1182.93	983.421
1183.5	985.421
1184.08	1006.42
1184.65	1014.42
1185.22	1001.42
1185.8	1006.42
1186.37	973.421
1186.94	982.421
1187.52	966.421
1188.09	992.421
1188.66	989.421
1189.23	980.421
1189.81	994.421
1190.38	976.421
1190.95	980.421
1191.53	1002.42
1192.1	978.421
1192.67	979.421
1193.24	946.421
1193.82	982.421
1194.39	976.421
1194.96	967.421
1195.53	955.421
1196.11	968.421
1196.68	962.421
1197.25	974.421
1197.82	956.421
1198.39	964.421
1198.97	948.421
1199.54	982.421
1200.11	958.421
1200.68	983.421
1201.25	952.421
1201.83	970.421
1202.4	970.421
1202.97	937.421
1203.54	971.421
1204.11	974.421
1204.68	959.421
1205.25	958.421
1205.83	958.421
1206.4	953.421
1206.97	950.421
1207.54	950.421
1208.11	964.421
1208.68	943.421
1209.25	968.421
1209.83	970.421
1210.4	969.421
1210.97	937.421
1211.54	944.421
1212.11	955.421
1212.68	931.421
1213.25	965.421
1213.82	936.421
1214.39	948.421
1214.96	950.421
1215.53	916.421
1216.1	928.753
1216.67	943.803
1217.24	956.694
1217.81	948.517
1218.38	953.207
1218.95	943.284
1219.52	966.716
1220.09	921.239
1220.66	929.902
1221.23	940.929
1221.8	942.92
1222.37	939.148
1222.94	943.908
1223.51	941.915
1224.08	940.478
1224.65	939.057
1225.22	956.713
1225.79	942.169
1226.36	945.607
1226.93	925.367
1227.5	922.719
1228.07	935.038
1228.64	949.052
1229.2	947.788
1229.78	948.016
1230.34	939.294
1230.91	931.882
1231.48	939.036
1232.05	939.87
1232.62	920.118
1233.19	936.911
1233.76	939.49
1234.32	929.682
1234.89	921.09
1235.46	936.098
1236.03	914.312
1236.6	922.079
1237.17	933.314
1237.73	933.91
1238.3	912.335
1238.87	927.958
1239.44	920.975
1240.01	938.327
1240.58	929.632
1241.14	932.349
1241.71	926.647
1242.28	920.296
1242.85	922.247
1243.41	927.131
1243.98	902.586
1244.55	936.286
1245.12	930.149
1245.68	913.555
1246.25	915.415
1246.82	922.984
1247.39	921.446
1247.95	926.531
1248.52	932.805
1249.09	919.743
1249.65	917.098
1250.22	910.784
1250.79	920.32
1251.36	916.22
1251.92	929.197
1252.49	911.854
1253.06	917.256
1253.62	911.353
1254.19	918.658
1254.76	925.99
1255.32	924.165
1255.89	920.914
1256.45	912.795
1257.02	915.197
1257.59	918.09
1258.15	916.232
1258.72	904.664
1259.29	916.658
1259.85	925.735
1260.42	906.636
1260.98	907.064
1261.55	907.744
1262.12	913.848
1262.68	913.093
1263.25	903.468
1263.81	910.021
1264.38	902.898
1264.94	919.026
1265.51	924.865
1266.07	928.185
1266.64	908.039
1267.2	918.752
1267.77	922.264
1268.34	904.636
1268.9	905.684
1269.47	904.684
1270.03	910.053
1270.6	891.89
1271.16	917.024
1271.73	908.704
1272.29	908.223
1272.86	905.842
1273.42	892.315
1273.99	909.69
1274.55	906.145
1275.11	895.186
1275.68	894.26
1276.24	898.793
1276.81	907.145
1277.37	916.854
1277.94	917.002
1278.5	893.374
1279.07	901.85
1279.63	894.884
1280.19	891.677
1280.76	903.878
1281.32	902.959
1281.89	889.281
1282.45	906.977
1283.01	896.005
1283.58	902.307
1284.14	887.652
1284.7	882.432
1285.27	880.509
1285.83	899.219
1286.39	898.089
1286.96	922.792
1287.52	873.843
1288.08	896.188
1288.65	886.078
1289.21	884.544
1289.77	897.551
1290.34	914.575
1290.9	899.78
1291.46	892.507
1292.03	892.581
1292.59	897.866
1293.15	898.05
1293.71	902.553
1294.28	898.821
1294.84	893.103
1295.4	888
1295.96	883.522
1296.53	910.944
1297.09	904.212
1297.65	891.661
1298.21	906.913
1298.78	910.398
1299.34	906.095
1299.9	905.712
1300.46	919.937
1301.02	911.021
1301.05	910.021
1301.63	896.021
1302.2	913.021
1302.77	910.021
1303.34	890.021
1303.91	914.021
1304.48	912.021
1305.05	898.021
1305.62	896.021
1306.19	903.021
1306.77	895.021
1307.34	885.021
1307.91	896.021
1308.48	871.021
1309.05	888.021
1309.62	901.021
1310.19	862.021
1310.76	888.021
1311.33	875.021
1311.9	870.021
1312.47	858.021
1313.04	859.021
1313.61	849.021
1314.18	873.021
1314.75	848.021
1315.32	835.021
1315.89	868.021
1316.46	861.021
1317.03	860.021
1317.6	868.021
1318.17	860.021
1318.74	858.021
1319.31	864.021
1319.88	877.021
1320.45	867.021
1321.02	870.021
1321.59	832.021
1322.16	852.021
1322.73	842.021
1323.3	848.021
1323.87	847.021
1324.44	844.021
1325.01	853.021
1325.58	850.021
1326.15	841.021
1326.71	840.021
1327.28	844.021
1327.85	841.021
1328.42	829.021
1328.99	854.021
1329.56	861.021
1330.13	854.021
1330.7	821.021
1331.26	831.021
1331.83	852.021
1332.4	842.021
1332.97	851.021
1333.54	842.021
1334.11	836.021
1334.67	826.021
1335.24	842.021
1335.81	812.021
1336.38	815.021
1336.95	837.021
1337.52	823.021
1338.08	813.021
1338.65	817.021
1339.22	825.021
1339.79	816.021
1340.35	811.021
1340.92	835.021
1341.49	814.021
1342.06	813.021
1342.63	807.021
1343.19	815.021
1343.76	836.021
1344.33	802.021
1344.9	815.021
1345.46	831.021
1346.03	826.021
1346.6	812.021
1347.16	823.021
1347.73	821.021
1348.3	826.021
1348.87	820.021
1349.43	822.021
1350	827.021
1350.56	829.021
1351.13	792.021
1351.7	820.021
1352.26	801.021
1352.83	783.021
1353.4	796.021
1353.96	818.021
1354.53	826.021
1355.1	802.021
1355.66	818.021
1356.23	810.021
1356.8	837.021
1357.36	793.021
1357.93	815.021
1358.49	818.021
1359.06	817.021
1359.63	809.021
1360.19	805.021
1360.76	809.021
1361.32	812.021
1361.89	797.021
1362.45	799.021
1363.02	825.021
1363.59	827.021
1364.15	800.021
1364.72	806.021
1365.28	813.021
1365.85	812.021
1366.41	812.021
1366.98	825.021
1367.54	815.021
1368.11	800.021
1368.67	799.021
1369.24	803.021
1369.8	793.021
1370.37	814.021
1370.93	807.021
1371.5	787.021
1372.06	824.021
1372.63	803.021
1373.19	798.021
1373.76	800.021
1374.32	785.021
1374.88	808.021
1375.45	779.021
1376.01	796.021
1376.58	817.021
1377.14	805.021
1377.7	811.021
1378.27	797.021
1378.83	802.021
1379.4	807.021
1379.96	798.021
1380.52	788.021
1381.09	800.021
1381.65	783.021
1382.22	804.021
1382.78	812.021
1383.34	794.021
1383.91	802.021
1384.47	794.021
1385.03	783.021
1385.6	789.021
1386.16	810.021
1386.72	810.021
1387.29	788.021
1387.85	798.021
1388.41	785.021
1388.98	797.021
1389.54	784.021
1390.1	795.021
1390.67	798.021
1391.23	801.021
1391.79	796.021
1392.35	782.021
1392.92	803.021
1393.48	779.021
1394.04	787.021
1394.61	777.021
1395.17	789.021
1395.73	796.021
1396.29	780.021
1396.85	774.021
1397.42	790.021
1397.98	806.021
1398.54	790.021
1399.1	771.021
1399.67	797.021
1400.23	780.021
1400.79	790.021
1401.35	792.021
1401.91	803.021
1402.47	787.021
1403.04	794.021
1403.6	766.021
1404.16	791.021
1404.72	785.021
1405.28	794.021
1405.84	798.021
1406.41	793.021
1406.97	785.021
1407.53	800.021
1408.09	775.021
1408.65	796.021
1409.21	793.021
1409.77	797.021
1410.33	773.021
1410.9	804.021
1411.45	795.021
1412.02	771.021
1412.58	771.021
1413.14	790.021
1413.7	794.021
1414.26	782.021
1414.82	784.021
1415.38	778.021
1415.94	795.021
1416.5	792.021
1417.06	809.021
1417.62	803.021
1418.18	793.021
1418.74	781.021
1419.3	788.021
1419.86	802.021
1420.42	776.021
1420.98	790.021
1421.54	782.021
1422.1	795.021
1422.66	806.021
1423.22	784.021
1423.78	778.021
1424.34	794.021
1424.9	788.021
1425.46	790.021
1426.02	799.021
1426.58	788.021
1427.14	800.021
1427.7	811.021
1428.26	814.021
1428.82	794.021
1429.38	818.021
1429.94	826.021
1430.49	827.021
1431.05	808.021
1431.61	830.021
1432.17	827.021
1432.73	832.021
1433.29	847.021
1433.85	847.021
1434.41	843.021
1434.97	856.021
1435.53	854.021
1436.08	852.021
1436.64	854.021
1437.2	860.021
1437.76	859.021
1438.32	846.021
1438.88	848.021
1439.43	849.021
1439.99	855.021
1440.55	843.021
1441.11	839.021
1441.67	861.021
1442.22	854.021
1442.78	853.021
1443.34	840.021
1443.9	844.021
1444.45	827.021
1445.01	854.021
1445.57	835.021
1446.13	827.021
1446.68	828.021
1447.24	839.021
1447.8	845.021
1448.36	843.021
1448.92	834.021
1449.47	842.021
1450.03	835.021
1450.59	820.021
1451.14	831.021
1451.7	829.021
1452.26	812.021
1452.82	821.021
1453.37	832.021
1453.93	846.021
1454.49	808.021
1455.04	849.021
1455.6	843.56
1456.16	846.021
1456.71	823.021
1457.27	818.021
1457.82	816.021
1458.38	812.021
1458.94	827.021
1459.5	805.021
1460.05	794.021
1460.61	806.021
1461.16	792.021
1461.72	796.021
1462.28	790.021
1462.83	807.021
1463.39	779.021
1463.94	774.021
1464.5	793.021
1465.06	804.021
1465.61	778.021
1466.17	797.021
1466.72	784.021
1467.28	783.021
1467.83	766.021
1468.39	774.021
1468.94	772.021
1469.5	780.021
1470.05	764.021
1470.61	762.021
1471.17	771.021
1471.72	777.021
1472.27	754.021
1472.83	774.021
1473.38	775.021
1473.94	767.021
1474.5	743.021
1475.05	759.021
1475.6	746.021
1476.16	748.021
1476.71	761.021
1477.27	760.021
1477.82	737.021
1478.38	768.021
1478.93	756.021
1479.49	754.021
1480.04	751.021
1480.59	759.021
1481.15	750.021
1481.7	738.021
1482.26	737.021
1482.81	757.021
1483.36	754.021
1483.92	738.021
1484.47	731.021
1485.03	748.021
1485.58	754.021
1486.13	748.021
1486.69	742.021
1487.24	745.021
1487.8	724.021
1488.35	739.021
1488.9	736.021
1489.46	727.021
1490.01	730.021
1490.56	747.021
1491.11	723.021
1491.67	717.021
1492.22	730.021
1492.78	722.021
1493.33	736.021
1493.88	712.021
1494.43	718.021
1494.99	737.021
1495.54	733.021
1496.09	717.021
1496.65	732.021
1497.2	728.021
1497.75	714.021
1498.3	725.021
1498.86	729.021
1499.41	734.021
1499.96	716.021
1500.51	714.021
1501.07	727.021
1501.62	706.021
1502.17	708.021
1502.72	714.021
1503.27	727.021
1503.83	719.021
1504.38	728.021
1504.93	727.021
1505.48	716.021
1506.03	726.021
1506.59	724.021
1507.14	707.021
1507.69	738.021
1508.24	720.021
1508.79	718.021
1509.34	719.021
1509.9	706.021
1510.45	712.021
1511	715.021
1511.55	716.021
1512.1	724.021
1512.65	721.021
1513.2	716.021
1513.75	720.021
1514.3	722.021
1514.86	726.021
1515.41	714.021
1515.96	725.021
1516.51	703.021
1517.06	721.021
1517.61	697.021
1518.16	708.021
1518.71	711.021
1519.26	697.021
1519.81	709.021
1520.36	706.021
1520.91	702.021
1521.46	709.021
1522.01	694.021
1522.56	723.021
1523.12	719.021
1523.67	714.021
1524.22	709.021
1524.77	681.021
1525.32	695.021
1525.86	689.021
1526.41	708.021
1526.96	693.021
1527.51	703.021
1528.06	706.021
1528.61	696.021
1529.16	700.021
1529.71	703.021
1530.26	722.021
1530.81	709.021
1531.36	691.021
1531.91	704.021
1532.46	708.021
1533.01	702.021
1533.56	695.021
1534.11	705.021
1534.66	704.021
1535.21	696.021
1535.75	697.021
1536.3	701.021
1536.85	702.021
1537.4	698.021
1537.95	700.021
1538.5	698.021
1539.05	718.021
1539.6	704.021
1540.14	698.021
1540.69	693.021
1541.24	704.021
1541.79	693.021
1542.34	707.021
1542.89	707.021
1543.43	694.021
1543.98	699.021
1544.53	701.021
1545.08	695.021
1545.63	708.021
1546.18	701.021
1546.72	707.021
1547.27	707.021
1547.82	694.021
1548.37	705.021
1548.92	702.021
1549.46	696.021
1550.01	710.021
1550.56	716.021
1551.1	704.021
1551.65	715.021
1552.2	720.021
1552.75	737.021
1553.29	739.021
1553.84	760.021
1554.39	750.021
1554.93	787.021
1555.48	773.021
1556.03	769.021
1556.58	719.021
1557.12	688.021
1557.67	694.021
1558.22	705.021
1558.76	703.021
1559.31	705.021
1559.86	691.021
1560.4	691.021
1560.95	685.021
1561.5	702.021
1562.04	695.021
1562.59	682.021
1563.14	680.021
1563.68	686.021
1564.23	704.021
1564.77	701.021
1565.32	706.021
1565.87	693.021
1566.41	681.021
1566.96	677.021
1567.5	685.021
1568.05	683.021
1568.6	687.021
1569.14	690.021
1569.69	701.021
1570.23	703.021
1570.78	701.021
1571.32	698.021
1571.87	699.021
1572.42	683.021
1572.96	692.021
1573.51	708.021
1574.05	687.021
1574.6	674.021
1575.14	694.021
1575.69	698.021
1576.23	670.021
1576.78	704.021
1577.32	690.021
1577.87	675.021
1578.41	677.021
1578.96	701.021
1579.5	695.021
1580.05	685.021
1580.59	683.021
1581.14	683.021
1581.68	694.021
1582.23	680.021
1582.77	695.021
1583.31	703.021
1583.86	696.021
1584.4	696.021
1584.95	685.021
1585.49	690.021
1586.04	691.021
1586.58	684.021
1587.12	690.021
1587.67	687.021
1588.21	688.021
1588.76	668.021
1589.3	689.021
1589.84	692.021
1590.39	693.021
1590.93	696.021
1591.47	684.021
1592.02	686.021
1592.56	693.021
1593.1	700.021
1593.65	682.021
1594.19	693.021
1594.73	705.021
1595.28	684.021
1595.82	694.021
1596.36	678.021
1596.91	678.021
1597.45	685.021
1597.99	683.021
1598.54	698.021
1599.08	696.021
1599.62	708.021
1600.16	696.021
