19.6663	3415.35
20.345	3452.35
21.0214	3502.35
21.6977	3563.35
22.3739	3650.35
23.0502	3744.35
23.7263	3926.35
24.4025	4013.35
25.0785	4362.35
25.7546	4586.35
26.4305	4912.35
27.1065	5164.35
27.7847	5469.35
28.4605	5683.35
29.1363	5803.35
29.8121	6031.35
30.4878	6253.35
31.1634	6637.35
31.839	6866.35
32.5146	7310.35
33.1901	7396.35
33.8656	7750.35
34.541	8131.35
35.2163	8615.35
35.8894	8812.35
36.5646	9379.35
37.2399	9871.35
37.9151	9812.35
38.5902	9961.35
39.2653	10012.3
39.9403	10379.3
40.6153	10609.3
41.2903	10721.3
41.9652	11137.3
42.6377	11393.3
43.3125	11699.3
43.9873	11995.3
44.662	12584.3
45.3367	12990.3
46.0113	12318.3
46.6836	12474.3
47.3581	12561.3
48.0326	13123.3
48.707	13306.3
49.3814	13298.3
50.0534	13371.3
50.7277	13373.3
51.402	13753.3
52.0762	13959.3
52.748	13841.3
53.4221	13978.3
54.0962	14161.3
54.7679	14218.3
55.4419	14249.3
56.1158	14083.3
56.7874	14230.3
57.4612	14332.3
58.135	14477.3
58.8064	14857.3
59.4801	16046.3
60.1537	15210.3
60.825	15358.3
61.4986	15085.3
62.1721	15362.3
62.8432	14787.3
63.5166	15054.3
64.1877	15177.3
64.861	15014.3
65.532	15041.3
66.2052	15179.3
66.8783	15199.3
67.5492	15206.3
68.2223	15358.3
68.893	15047.3
69.566	15156.3
70.2366	15297.3
70.9095	15286.3
71.5801	15495.3
72.2529	15476.3
72.9233	15421.3
73.596	15325.3
74.2664	15279.3
74.9367	15449.3
75.6093	15555.3
76.2795	15744.3
76.952	15733.3
77.6221	15805.3
78.2945	15349.3
78.9645	15375.3
79.6345	15315.3
80.3067	15507.3
80.9767	15511.3
81.6465	15304.3
82.3186	15461.3
82.9884	15723.3
83.6581	15822.3
84.33	15661.3
84.9997	15211.3
85.6692	15396.3
86.3411	15227.3
87.0105	15156.3
87.68	15205.3
88.3494	15293.3
89.021	15253.3
89.6903	15461.3
90.3596	15230.3
91.0288	15420.3
91.7002	15821.3
92.3693	15465.3
93.0384	15324.3
93.7074	15247.3
94.3787	15494.3
95.0476	15249.3
95.7165	15507.3
96.3853	15134.3
97.0541	15284.3
97.7228	15251.3
98.3915	15119.3
99.0625	15115.3
99.7311	15135.3
100.4	15163.3
101.068	15163.3
101.737	15105.3
102.405	15066.3
103.073	15113.3
103.742	14871.3
104.41	14979.3
105.078	14919.3
105.746	15030.3
106.415	15138.3
107.083	15313.3
107.751	14906.3
108.419	15073.3
109.087	14941.3
109.755	14783.3
110.422	14631.3
111.09	14724.3
111.758	14846.3
112.426	14796.3
113.093	14667.3
113.761	14845.3
114.429	14860.3
115.096	15020.3
115.764	15285.3
116.431	15289.3
117.099	14905.3
117.766	14670.3
118.431	14981.3
119.098	14740.3
119.765	14549.3
120.433	14463.3
121.1	14593.3
121.767	14285.3
122.434	14668.3
123.099	14844.3
123.766	14745.3
124.432	14353.3
125.099	14481.3
125.764	14343.3
126.431	14335.3
127.097	14329.3
127.764	14454.3
128.431	14244.3
129.095	14400.3
129.761	14529.3
130.428	14843.3
131.092	15030.3
131.758	14140.3
132.425	14159.3
133.089	14140.3
133.755	14159.3
134.421	14096.3
135.085	14087.3
135.751	14005.3
136.417	13938.3
137.081	14003.3
137.747	14165.3
138.413	14229.3
139.077	13988.3
139.742	14030.3
140.406	14279.3
141.072	14052.3
141.735	13981.3
142.401	13959.3
143.066	13901.3
143.73	13662.3
144.395	13821.3
145.058	13809.3
145.724	13614.3
146.387	13543.3
147.052	13683.3
147.715	13757.3
148.381	13615.3
149.044	13458.3
149.709	13661.3
150.371	13740.3
151.034	13304.3
151.699	13472.3
152.362	13208.3
153.027	13461.3
153.69	13402.3
154.352	13371.3
155.017	13363.3
155.679	13661.3
156.344	13537.3
157.006	13478.3
157.669	13433.3
158.333	13273.3
158.996	13093.3
159.658	13211.3
160.322	13155.3
160.984	13151.3
161.646	13093.3
162.311	13194.3
162.973	13207.3
163.635	13203.3
164.296	13360.3
164.961	12971.3
165.622	13063.3
166.284	13004.3
166.946	13087.3
167.61	13269.3
168.271	13044.3
168.933	12968.3
169.594	13034.3
170.256	13035.3
170.917	13113.3
171.581	13057.3
172.242	13173.3
172.904	13015.3
173.565	12672.3
174.226	13037.3
174.887	13036.3
175.548	12999.3
176.212	12726.3
176.873	12723.3
177.534	12725.3
178.194	12479.3
178.855	12647.3
179.516	12759.3
180.177	12606.3
180.838	12846.3
181.498	12795.3
182.159	12828.3
182.82	12789.3
183.48	12892.3
184.141	12775.3
184.801	12913.3
185.462	12845.3
186.122	12828.3
186.782	12925.3
187.443	12708.3
188.103	12761.3
188.763	12762.3
189.423	12769.3
190.083	12592.3
190.741	12521.3
191.401	12674.3
192.061	12540.3
192.721	12733.3
193.381	12679.3
194.041	12759.3
194.701	12615.3
195.36	12664.3
196.018	12833.3
196.677	12599.3
197.337	12641.3
197.997	12938.3
198.656	12793.3
199.313	12673.3
199.973	12644.3
200.632	12628.3
201.292	12658.3
201.949	12592.3
202.608	12821.3
203.267	12714.3
203.926	12727.3
204.583	12642.3
205.242	12727.3
205.901	12673.3
206.558	12917.3
207.217	12547.3
207.876	12935.3
208.532	12573.3
209.191	12529.3
209.85	12806.3
210.506	12827.3
211.165	13246.3
211.824	12669.3
212.48	12714.3
213.138	12460.3
213.795	12761.3
214.453	12692.3
215.111	12805.3
215.768	12798.3
216.426	12725.3
217.082	12569.3
217.74	12774.3
218.396	12862.3
219.054	12845.3
219.71	12611.3
220.368	12875.3
221.024	12685.3
221.682	12945.3
222.337	12888.3
222.995	12921.3
223.651	12702.3
224.308	12957.3
224.964	12753.3
225.619	12996.3
226.277	12919.3
226.932	13119.3
227.59	12931.3
228.245	13026.3
228.9	12967.3
229.558	12829.3
230.213	12823.3
230.87	13100.3
231.525	12940.3
232.18	12910.3
232.837	13087.3
233.492	12987.3
234.147	13096.3
234.804	12981.3
235.459	13180.3
236.114	13275.3
236.768	13235.3
237.425	12980.3
238.08	13279.3
238.734	13506.3
239.389	13891.3
240.045	13422.3
240.7	13231.3
241.354	13161.3
242.008	13137.3
242.663	13422.3
243.319	13121.3
243.973	13405.3
244.627	13307.3
245.281	13339.3
245.936	13408.3
246.59	13379.3
247.243	13383.3
247.9	13810.3
248.553	13585.3
249.207	13478.3
249.861	13991.3
250.515	13698.3
251.168	13599.3
251.822	13508.3
252.476	13711.3
253.129	13805.3
253.783	13475.3
254.436	13474.3
255.09	13707.3
255.743	13794.3
256.396	13854.3
257.05	13959.3
257.703	13775.3
258.356	13573.3
259.009	13873.3
259.662	13875.3
260.315	13990.3
260.968	13890.3
261.621	13964.3
262.274	14206.3
262.927	14187.3
263.58	14156.3
264.233	14078.3
264.883	14171.3
265.536	14049.3
266.189	14130.3
266.841	14279.3
267.494	14478.3
268.146	14301.3
268.799	14197.3
269.449	14225.3
270.101	14363.3
270.754	14437.3
271.406	14467.3
272.058	14225.3
272.708	14325.3
273.36	14607.3
274.012	14601.3
274.665	14787.3
275.314	14641.3
275.966	14670.3
276.618	14462.3
277.268	14727.3
277.92	14900.3
278.572	14740.3
279.221	14805.3
279.873	14807.3
280.525	14795.3
281.174	14645.3
281.826	15058.3
282.477	15069.3
283.126	14913.3
283.778	15014.3
284.429	15099.3
285.078	15351.3
285.73	15060.3
286.379	15139.3
287.03	15039.3
287.679	15425.3
288.33	15208.3
288.981	15411.3
289.63	15330.3
290.281	15189.3
290.93	15669.3
291.581	15534.3
292.229	15520.3
292.88	15388.3
293.529	15484.3
294.179	15690.3
294.828	15647.3
295.476	15702.3
296.127	15851.3
296.775	15719.3
297.426	15741.3
298.074	15883.3
298.725	15891.3
299.373	15902.3
300.021	15868.3
300.671	15963.3
301.319	15813.3
301.967	16211.3
302.617	15967.3
303.265	16390.3
303.913	16219.3
304.563	17049.3
305.211	16494.3
305.859	16175.3
306.509	16366.3
307.156	16561.3
307.804	16044.3
308.454	16027.3
309.101	16177.3
309.749	16209.3
310.396	16460.3
311.046	16541.3
311.693	16341.3
312.34	16532.3
312.987	16488.3
313.635	16442.3
314.284	16353.3
314.931	16453.3
315.578	16624.3
316.225	16697.3
316.872	16718.3
317.519	16812.3
318.166	16778.3
318.815	16642.3
319.462	16759.3
320.109	16857.3
320.755	16944.3
321.402	17185.3
322.049	16932.3
322.695	16999.3
323.342	16649.3
323.988	17109.3
324.635	17223.3
325.281	17209.3
325.927	17095.3
326.574	17006.3
327.22	17311.3
327.866	17545.3
328.513	17273.3
329.159	17343.3
329.805	17429.3
330.451	17207.3
331.097	17543.3
331.743	17501.3
332.389	17535.3
333.035	17405.3
333.68	17593.3
334.326	17443.3
334.97	17674.3
335.616	17745.3
336.261	17553.3
336.907	17685.3
337.552	17773.3
338.198	17786.3
338.843	17857.3
339.487	17874.3
340.132	17949.3
340.777	17979.3
341.423	17981.3
342.068	18146.3
342.711	17946.3
343.356	18137.3
344.001	18235.3
344.646	18426.3
345.289	18341.3
345.934	18345.3
346.579	18272.3
347.222	18276.3
347.867	18588.3
348.512	18257.3
349.156	18678.3
349.799	18689.3
350.444	18174.3
351.088	18579.3
351.731	18403.3
352.375	18755.3
353.018	18673.3
353.662	18851.3
354.307	18622.3
354.949	18778.3
355.593	18718.3
356.235	19052.3
356.879	18944.3
357.524	18863.3
358.166	19079.3
358.81	18922.3
359.452	19055.3
360.096	19179.3
360.738	19366.3
361.382	19265.3
362.023	19225.3
362.667	19275.3
363.309	19289.3
363.953	19071.3
364.594	19249.3
365.238	19309.3
365.879	19293.3
366.521	19397.3
367.164	19369.3
367.806	19601.3
368.449	19478.3
369.09	19655.3
369.731	19615.3
370.375	19997.3
371.016	19877.3
371.657	19906.3
372.3	19785.3
372.941	19809.3
373.582	19838.3
374.225	20001.3
374.866	20169.3
375.507	19876.3
376.15	19916.3
376.79	20117.3
377.431	20085.3
378.074	20243.3
378.715	20078.3
379.355	20244.3
379.996	20001.3
380.636	20265.3
381.279	20157.3
381.919	20243.3
382.559	20297.3
383.2	20363.3
383.84	20466.3
384.482	20428.3
385.122	20494.3
385.763	20421.3
386.403	20481.3
387.043	20324.3
387.683	20564.3
388.323	20484.3
388.962	20649.3
389.605	20884.3
390.244	20876.3
390.884	21113.3
391.524	20954.3
392.164	20891.3
392.803	21128.3
393.443	21229.3
394.082	20942.3
394.722	20933.3
395.361	21401.3
396.001	21397.3
396.64	21329.3
397.279	21256.3
397.919	21489.3
398.558	21336.3
399.197	21638.3
399.836	21411.3
400.475	21385.3
401.115	21661.3
401.751	21660.3
402.39	21534.3
403.029	21553.3
403.668	21834.3
404.307	21834.3
404.946	21695.3
405.585	21973.3
406.223	21895.3
406.86	22015.3
407.499	22089.3
408.137	21883.3
408.776	22301.3
409.414	22468.3
410.05	22440.3
410.689	22383.3
411.327	22353.3
411.966	22841.3
412.604	22533.3
413.24	22836.3
413.878	22770.3
414.516	22925.3
415.152	22929.3
415.79	22691.3
416.428	22991.3
417.066	23013.3
417.702	23226.3
418.34	23279.3
418.978	23346.3
419.614	23342.3
420.251	23329.3
420.887	23366.3
421.525	23434.3
422.162	23385.3
422.798	23647.3
423.435	23600.3
424.071	23771.3
424.708	23938.3
425.346	23774.3
425.981	24077.3
426.618	24209.3
427.253	24467.3
427.891	24257.3
428.526	23981.3
429.163	24127.3
429.798	24402.3
430.435	24492.3
431.07	24775.3
431.707	24710.3
432.342	24708.3
432.979	24577.3
433.613	25146.3
434.248	25015.3
434.885	25162.3
435.519	25267.3
436.156	25245.3
436.79	25163.3
437.425	25485.3
438.061	25612.3
438.696	25278.3
439.33	25471.3
439.967	25656.3
440.601	25786.3
441.235	25727.3
441.871	25749.3
442.505	25916.3
443.14	26200.3
443.776	26070.3
444.41	26225.3
445.044	26335.3
445.678	26459.3
446.314	26368.3
446.947	26532.3
447.581	26482.3
448.215	26389.3
448.851	26787.3
449.484	26653.3
450.118	26759.3
450.752	26785.3
451.385	26857.3
452.021	26929.3
452.654	26951.3
453.288	26831.3
453.921	27223.3
454.554	27039.3
455.187	26848.3
455.821	27040.3
456.454	27267.3
457.087	27322.3
457.722	26934.3
458.355	27230.3
458.988	27131.3
459.621	27333.3
460.254	27130.3
460.887	27355.3
461.52	27327.3
462.153	27851.3
462.785	27613.3
463.418	27585.3
464.051	27657.3
464.683	27554.3
465.316	27668.3
465.948	27622.3
466.581	27602.3
467.211	27593.3
467.844	27469.3
468.476	27559.3
469.108	27473.3
469.741	27342.3
470.373	27601.3
471.005	27626.3
471.637	27635.3
472.269	27336.3
472.899	27534.3
473.531	27598.3
474.163	27511.3
474.795	27511.3
475.427	27714.3
476.059	27692.3
476.688	27392.3
477.32	27671.3
477.952	27585.3
478.584	27652.3
479.213	27555.3
479.845	27532.3
480.476	27615.3
481.108	27291.3
481.737	27353.3
482.369	27362.3
483	27187.3
483.629	27400.3
484.26	27329.3
484.892	27645.3
485.521	27281.3
486.152	27608.3
486.783	27190.3
487.412	27263.3
488.043	27470.3
488.672	27131.3
489.303	27217.3
489.934	27074.3
490.562	27147.3
491.193	26974.3
491.822	27057.3
492.453	26705.3
493.081	26996.3
493.712	26848.3
494.34	26763.3
494.971	26731.3
495.599	26513.3
496.23	26339.3
496.858	26429.3
497.489	25914.3
498.117	26126.3
498.747	25776.3
499.375	25679.3
500.006	25683.3
500.634	25282.3
501.262	25303.3
501.892	24923.3
502.52	24832.3
503.15	24712.3
503.778	24653.3
504.405	23982.3
505.035	24204.3
505.663	24218.3
506.291	23927.3
506.92	23609.3
507.548	23425.3
508.176	23142.3
508.805	23073.3
509.433	22922.3
510.06	22407.3
510.687	22554.3
511.317	22081.3
511.944	22036.3
512.571	21787.3
513.199	21338.3
513.828	21198.3
514.455	20947.3
515.082	20651.3
515.709	20455.3
516.336	20087.3
516.965	20013.3
517.592	20024.3
518.219	19774.3
518.846	19402.3
519.473	19097.3
520.1	18888.3
520.726	18630.3
521.355	18416.3
521.982	18249.3
522.608	18018.3
523.235	17699.3
523.861	17505.3
524.488	17473.3
525.114	17178.3
525.741	16858.3
526.367	16740.3
526.993	16462.3
527.619	16447.3
528.246	16046.3
528.872	15580.3
529.498	15832.3
530.124	15502.3
530.75	15360.3
531.376	15239.3
532.002	14883.3
532.628	14673.3
533.254	14786.3
533.88	14429.3
534.503	14279.3
535.129	14215.3
535.755	14116.3
536.38	13982.3
537.006	13791.3
537.632	13570.3
538.257	13211.3
538.88	13257.3
539.506	13228.3
540.131	13065.3
540.757	13057.3
541.382	12914.3
542.005	12609.3
542.63	12454.3
543.256	12269.3
543.881	12449.3
544.504	12181.3
545.129	11919.3
545.754	11926.3
546.379	11652.3
547.002	11679.3
547.627	11646.3
548.251	11281.3
548.874	11465.3
549.499	11420.3
550.124	11512.3
550.746	11070.3
551.371	10776.3
551.995	11018.3
552.618	10931.3
553.242	10798.3
553.865	10719.3
554.489	10778.3
555.114	10425.3
555.736	10467.3
556.36	10301.3
556.982	10549.3
557.607	10246.3
558.229	10165.3
558.853	10101.3
559.475	10049.3
560.099	10144.3
560.721	10192.3
561.345	10219.3
561.967	9937.35
562.591	9835.35
563.212	9702.35
563.836	9814.35
564.458	9792.35
565.079	9843.35
565.703	9740.35
566.325	9692.35
566.948	9663.35
567.57	9635.35
568.191	9549.35
568.815	9856.35
569.436	9397.35
570.057	9383.35
570.681	9563.35
571.302	9398.35
571.923	9392.35
572.546	9391.35
573.167	9339.35
573.788	9215.35
574.411	9320.35
575.032	9246.35
575.653	9076.35
576.274	9225.35
576.895	9145.35
577.518	9043.35
578.139	9190.35
578.759	9828.35
579.38	8994.35
580	8984.35
580.623	8983.35
581.244	8749.35
581.864	8842.35
582.485	8849.35
583.105	8853.35
583.725	8659.35
584.346	8785.35
584.968	8533.35
585.589	8619.35
586.209	8574.35
586.829	8493.35
587.449	8450.35
588.069	8224.35
588.689	8186.35
589.309	8314.35
589.929	8276.35
590.549	8194.35
591.169	8013.35
591.789	8145.35
592.409	7982.35
593.028	7910.35
593.648	7963.35
594.268	7906.35
594.887	7836.35
595.507	7921.35
596.126	7772.35
596.746	7623.35
597.365	7511.35
597.985	7371.35
598.602	7574.35
599.221	7342.35
599.841	7193.35
600.46	7270.35
601.079	7143.35
601.698	7245.35
602.318	6858.35
602.934	6949.35
603.554	6847.35
604.173	6695.35
604.792	6664.35
605.408	6559.35
606.027	6437.35
606.646	6445.35
607.265	6205.35
607.884	6175.35
608.5	6247.35
609.119	6103.35
609.738	6076.35
610.354	5855.35
610.973	5765.35
611.591	5729.35
612.207	5534.35
612.826	5578.35
613.444	5440.35
614.061	5382.35
614.679	5457.35
615.297	5192.35
615.913	5144.35
616.531	4939.35
617.147	5013.35
617.766	4890.35
618.384	4776.35
619	4775.35
619.618	4754.35
620.233	4573.35
620.851	4715.35
621.467	4625.35
622.085	4502.35
622.701	4455.35
623.318	4341.35
623.934	4391.35
624.552	4245.92
625.167	4171.19
625.785	4157.34
626.4	4033.1
627.015	4066.81
627.633	4019.93
628.248	3888.07
628.866	3845.73
629.481	3794.95
630.096	3878.96
630.713	3799.64
631.328	3730.88
631.945	3751.13
632.56	3730.47
633.175	3588.77
633.792	3534.72
634.407	3527.98
635.022	3504.91
635.637	3453.51
636.254	3430.16
636.869	3415.6
637.483	3347.15
638.1	3489.83
638.715	3381.59
639.329	3287.28
639.944	3236.83
640.558	3172.42
641.175	3185.7
641.789	3113.33
642.404	3169.96
643.018	3189.2
643.632	3060.94
644.246	3033.88
644.863	3061.12
645.477	3019.95
646.091	3025.74
646.705	2929.4
647.319	3039.85
647.933	2988.69
648.547	2928.91
649.161	2876.87
649.775	2783.3
650.389	2878.03
651.002	2765.74
651.618	2812.72
652.232	2884.08
652.846	2717.87
653.459	2826.8
654.073	2695.35
654.687	2701.65
654.848	2669.65
655.472	2659.65
656.096	2642.65
656.719	2664.65
657.343	2639.65
657.967	2645.65
658.591	2633.65
659.215	2572.65
659.837	2621.65
660.461	2539.65
661.084	2507.65
661.706	2521.65
662.33	2556.65
662.954	2580.65
663.577	2509.65
664.199	2489.65
664.823	2476.65
665.446	2517.65
666.068	2375.65
666.691	2442.65
667.315	2431.65
667.936	2372.65
668.559	2416.65
669.183	2391.65
669.804	2470.65
670.427	2437.65
671.048	2387.65
671.671	2482.65
672.294	2413.65
672.915	2399.65
673.539	2325.65
674.159	2347.65
674.782	2319.65
675.403	2346.65
676.026	2354.65
676.647	2329.65
677.27	2369.65
677.89	2278.65
678.513	2278.65
679.133	2314.65
679.756	2278.65
680.377	2294.65
680.999	2255.65
681.62	2300.65
682.242	2270.65
682.862	2249.65
683.483	2285.65
684.105	2234.65
684.725	2190.65
685.347	2142.65
685.967	2245.65
686.588	2252.65
687.21	2214.65
687.83	2214.65
688.45	2228.65
689.072	2284.65
689.691	2100.65
690.311	2166.65
690.933	2214.65
691.553	2142.65
692.173	2154.65
692.794	2162.65
693.414	2189.65
694.034	2110.65
694.653	2152.65
695.275	2117.65
695.894	2157.65
696.513	2098.65
697.133	2158.65
697.754	2118.65
698.374	2084.65
698.993	2108.65
699.612	2098.65
700.231	2132.65
700.85	2141.65
701.471	2111.65
702.091	2153.65
702.709	2126.65
703.328	2117.65
703.947	2083.65
704.566	2118.65
705.185	2057.65
705.804	2056.65
706.425	2119.65
707.043	2056.65
707.662	2093.65
708.281	2044.65
708.899	2071.65
709.518	2074.65
710.136	2052.65
710.755	2064.65
711.373	2032.65
711.992	2040.65
712.61	2042.65
713.228	2013.65
713.846	2017.65
714.465	2037.65
715.083	2043.65
715.701	1988.65
716.319	1984.65
716.937	1973.65
717.555	2055.65
718.171	2015.65
718.789	1991.65
719.407	1981.65
720.024	1967.65
720.642	1983.65
721.26	2024.65
721.878	2593.65
722.495	2010.65
723.111	2086.65
723.729	1963.65
724.346	2002.65
724.964	1966.65
725.581	1958.65
726.196	1990.65
726.814	1958.65
727.431	1928.65
728.048	1957.65
728.666	1977.65
729.281	1923.65
729.898	1987.65
730.515	1992.65
731.132	1948.65
731.747	2001.65
732.364	1954.65
732.981	1925.65
733.596	1952.65
734.213	1896.65
734.83	1952.65
735.444	1925.65
736.061	1945.65
736.678	1940.65
737.293	1996.65
737.909	1895.65
738.526	1936.65
739.14	1964.65
739.757	1964.65
740.371	1966.65
740.988	1945.65
741.602	2006.65
742.218	1971.65
742.835	1904.65
743.449	1961.65
744.065	1977.65
744.679	1959.65
745.295	1988.65
745.909	2008.65
746.525	1997.65
747.139	1968.65
747.755	1912.65
748.369	1963.65
748.985	1931.65
749.599	2018.65
750.213	1966.65
750.828	1954.65
751.442	2007.65
752.058	2024.65
752.671	1991.65
753.287	1997.65
753.9	2012.65
754.514	2040.65
755.129	2061.65
755.743	1988.65
756.356	1987.65
756.971	2037.65
757.585	2026.65
758.198	2014.65
758.813	2086.65
759.426	2012.65
760.039	2037.65
760.655	2026.65
761.268	2031.65
761.88	2052.65
762.493	2014.65
763.108	2083.65
763.721	2042.65
764.334	2036.65
764.947	2053.65
765.562	2080.65
766.174	2072.65
766.787	2073.65
767.4	2076.65
768.012	2100.65
768.627	2162.65
769.239	2010.65
769.852	2046.65
770.464	2059.65
771.076	2109.65
771.689	2064.65
772.301	2118.65
772.913	2101.65
773.527	2141.65
774.14	2211.65
774.752	2200.65
775.364	2164.65
775.976	2233.65
776.588	2201.65
777.2	2237.65
777.812	2170.65
778.424	2128.65
779.035	2247.65
779.647	2269.65
780.259	2207.65
780.871	2235.65
781.482	2235.65
782.094	2210.65
782.706	2265.65
783.317	2263.65
783.929	2262.65
784.54	2243.65
785.151	2268.65
785.763	2302.65
786.372	2231.65
786.983	2298.65
787.595	2306.65
788.206	2334.65
788.817	2308.65
789.428	2289.65
790.039	2313.65
790.648	2280.65
791.259	2269.65
791.87	2268.65
792.481	2278.65
793.092	2264.65
793.703	2281.65
794.312	2338.65
794.922	2258.65
795.533	2318.65
796.144	2259.65
796.752	2350.65
797.363	2298.65
797.974	2268.65
798.584	2237.65
799.193	2262.65
799.803	2318.65
800.413	2234.65
801.022	2307.65
801.632	2276.65
802.242	2259.65
802.851	2266.65
803.461	2280.65
804.071	2193.65
804.679	2191.65
805.289	2221.65
805.897	2150.65
806.507	2267.65
807.117	2357.65
807.725	2294.65
808.335	2207.65
808.943	2192.65
809.552	2159.65
810.16	2161.65
810.77	2226.65
811.379	2122.65
811.987	2191.65
812.597	2142.65
813.204	2158.65
813.814	2153.65
814.421	2133.65
815.028	2146.65
815.638	2109.65
816.245	2061.65
816.854	2036.65
817.462	2044.65
818.071	2048.65
818.678	2075.65
819.285	2041.65
819.894	1997.65
820.501	1966.65
821.11	1986.65
821.717	1966.65
822.324	2010.65
822.933	1895.65
823.54	1944.65
824.147	1933.65
824.755	1904.65
825.362	1866.65
825.969	1852.65
826.578	1925.65
827.184	1936.65
827.791	1911.65
828.397	1768.65
829.006	1783.65
829.612	1722.65
830.218	1780.65
830.825	1717.65
831.433	1689.65
832.039	1707.65
832.646	1691.65
833.252	1653.65
833.858	1656.65
834.466	1646.65
835.072	1620.65
835.678	1558.65
836.284	1540.65
836.89	1573.65
837.496	1578.65
838.102	1507.65
838.71	1538.65
839.315	1469.65
839.921	1462.65
840.527	1467.65
841.132	1454.65
841.738	1426.65
842.344	1410.65
842.949	1393.65
843.555	1361.65
844.16	1379.65
844.766	1317.65
845.371	1332.65
845.976	1314.65
846.582	1292.65
847.187	1292.65
847.792	1254.65
848.397	1275.65
849.002	1218.65
849.607	1221.65
850.212	1258.65
850.818	1202.65
851.422	1165.65
852.027	1178.65
852.63	1170.65
853.235	1157.65
853.84	1142.65
854.445	1148.65
855.049	1136.65
855.654	1131.65
856.259	1120.65
856.861	1127.65
857.466	1094.65
858.07	1118.65
858.675	1087.65
859.279	1099.65
859.882	1076.65
860.486	1061.65
861.091	1089.65
861.695	1082.65
862.297	1077.65
862.901	1084.65
863.505	1079.65
864.11	1070.65
864.712	1048.65
865.316	1096.65
865.92	1066.65
866.522	1052.65
867.126	1089.65
867.729	1081.65
868.331	1070.65
868.935	1051.65
869.539	1074.65
870.141	1052.65
870.744	1101.65
871.346	1061.65
871.949	1084.65
872.553	1081.65
873.155	1043.65
873.758	1063.65
874.359	1052.65
874.963	1067.65
875.564	1105.65
876.168	1061.65
876.769	1086.65
877.372	1092.65
877.973	1088.65
878.576	1081.65
879.178	1117.65
879.781	1099.65
880.382	1125.65
880.985	1129.65
881.586	1118.65
882.189	1110.65
882.789	1111.65
883.392	1109.65
883.993	1142.65
884.594	1140.65
885.197	1144.65
885.797	1143.65
886.398	1118.65
887.001	1130.65
887.601	1154.65
888.204	1120.65
888.804	1183.65
889.404	1196.65
890.007	1165.65
890.607	1182.65
891.208	1183.65
891.808	1207.65
892.41	1191.65
893.01	1251.65
893.61	1282.65
894.211	1208.65
894.813	1217.65
895.413	1261.65
896.013	1269.65
896.613	1226.65
897.213	1240.65
897.815	1234.65
898.414	1263.65
899.014	1237.65
899.614	1294.65
900.214	1262.65
900.813	1285.65
901.415	1305.65
902.015	1269.65
902.614	1301.65
903.214	1300.65
903.813	1316.65
904.413	1347.65
905.012	1353.65
905.611	1335.65
906.211	1368.65
906.81	1338.65
907.409	1394.65
908.008	1381.65
908.608	1401.65
909.207	1390.65
909.806	1398.65
910.405	1411.65
911.004	1414.65
911.603	1456.65
912.202	1429.65
912.801	1434.65
913.4	1458.65
913.998	1464.65
914.597	1464.65
915.196	1482.65
915.795	1497.65
916.393	1482.65
916.992	1506.65
917.59	1508.65
918.187	1531.65
918.785	1549.65
919.384	1525.65
919.982	1537.65
920.581	1536.65
921.179	1564.65
921.775	1599.65
922.374	1568.65
922.972	1583.65
923.57	1601.65
924.168	1617.65
924.764	1608.65
925.362	1592.65
925.96	1612.65
926.558	1674.65
927.154	1621.65
927.752	1800.65
928.35	1824.65
928.946	1769.65
929.544	1742.65
930.141	1691.65
930.737	1707.65
931.335	1707.65
931.932	1730.65
932.528	1811.65
933.126	1817.65
933.723	1706.65
934.318	1721.65
934.916	1764.65
935.511	1757.65
936.109	1805.65
936.706	1798.65
937.301	1791.65
937.899	1780.65
938.494	1785.65
939.091	1843.65
939.686	1800.65
940.283	1843.65
940.878	1860.65
941.475	1885.65
942.07	1924.65
942.667	1912.65
943.262	1898.65
943.859	1887.65
944.453	1886.65
945.05	1943.65
945.645	1960.65
946.24	1952.65
946.836	1922.65
947.431	1896.65
948.028	1948.65
948.622	1942.65
949.216	1922.65
949.813	1979.65
950.407	1976.65
951.002	1988.65
951.598	2020.65
952.192	2026.65
952.787	2008.65
953.383	2003.65
953.977	2013.65
954.571	2049.65
955.167	2023.65
955.761	2044.65
956.355	2039.65
956.949	2114.65
957.545	2117.65
958.139	2080.65
958.733	2096.65
959.327	2074.65
959.921	2081.65
960.516	2110.65
961.11	2234.65
961.704	2179.65
962.297	2111.65
962.891	2157.65
963.484	2152.65
964.078	2101.65
964.674	2105.65
965.267	2122.65
965.86	2151.65
966.454	2167.65
967.047	2193.65
967.64	2167.65
968.234	2151.65
968.827	2172.65
969.42	2182.65
970.013	2176.65
970.606	2218.65
971.199	2197.65
971.792	2306.65
972.385	2258.65
972.978	2280.65
973.571	2247.65
974.164	2246.65
974.757	2286.65
975.349	2215.65
975.942	2349.65
976.535	2278.65
977.128	2251.65
977.72	2274.65
978.313	2322.65
978.905	2344.65
979.496	2355.65
980.088	2436.65
980.681	2381.65
981.273	2298.65
981.865	2330.65
982.458	2407.65
983.05	2360.65
983.64	2384.65
984.232	2373.65
984.825	2352.65
985.417	2380.65
986.009	2399.65
986.599	2415.65
987.191	2400.65
987.783	2471.65
988.375	2443.65
988.964	2471.65
989.556	2465.65
990.148	2445.65
990.738	2511.65
991.33	2655.65
991.921	2377.65
992.511	2556.65
993.103	2475.65
993.694	2439.65
994.284	2440.65
994.875	2443.65
995.467	2448.65
996.056	2436.65
996.647	2517.65
997.237	2484.65
997.828	2506.65
998.419	2501.65
999.009	2571.65
999.6	2541.65
1000.19	2501.65
1000.78	2564.65
1001.37	2511.65
1001.96	2589.65
1002.55	2544.65
1003.14	2565.65
1003.73	2613.65
1004.32	2813.65
1004.91	2780.65
1005.5	2711.65
1006.09	2640.65
1006.68	2575.65
1007.27	2580.65
1007.86	2551.65
1008.45	2598.65
1009.04	2571.65
1009.63	2579.65
1010.21	2567.65
1010.8	2589.65
1011.39	2636.65
1011.98	2570.65
1012.57	2647.65
1013.16	2565.65
1013.75	2664.65
1014.34	2701.65
1014.93	2548.65
1015.52	2629.65
1016.1	2640.65
1016.69	2714.65
1017.28	2623.65
1017.87	2560.65
1018.46	2644.65
1019.05	2679.65
1019.64	2667.65
1020.22	2665.65
1020.81	2618.65
1021.4	2613.65
1021.99	2687.65
1022.58	2682.65
1023.16	2630.65
1023.75	2663.65
1024.34	2636.65
1024.93	2604.65
1025.51	2605.65
1026.1	2662.65
1026.69	2666.65
1027.28	2675.65
1027.87	2617.65
1028.45	2631.65
1029.04	2677.65
1029.63	2679.65
1030.21	2749.65
1030.8	2835.65
1031.39	2685.65
1031.98	2676.65
1032.56	2641.65
1033.15	2634.65
1033.74	2737.65
1034.32	2682.65
1034.91	2760.65
1035.5	2658.65
1036.08	2605.65
1036.67	2643.65
1037.26	2753.65
1037.84	2685.65
1038.43	2666.65
1039.02	2689.65
1039.6	2668.65
1040.19	2672.65
1040.78	2684.65
1041.36	2681.65
1041.95	2639.65
1042.54	2719.65
1043.12	2709.65
1043.71	2681.65
1044.29	2629.65
1044.88	2597.65
1045.46	2680.65
1046.05	2699.65
1046.63	2707.65
1047.22	2667.65
1047.81	2619.65
1048.39	2701.65
1048.98	2598.65
1049.56	2667.65
1050.15	2775.65
1050.73	2648.65
1051.32	2618.65
1051.9	2650.65
1052.49	2652.65
1053.07	2640.65
1053.66	2661.65
1054.24	2653.65
1054.83	2688.65
1055.41	2655.65
1056	2700.65
1056.58	2575.65
1057.17	2653.65
1057.75	2628.65
1058.34	2589.65
1058.92	2663.65
1059.51	2650.65
1060.09	2694.65
1060.67	2631.65
1061.26	2632.65
1061.84	2688.65
1062.43	2726.65
1063.01	2656.65
1063.59	2648.65
1064.18	2685.65
1064.76	2712.65
1065.35	2741.65
1065.93	2676.65
1066.51	2699.65
1067.1	2613.65
1067.68	2600.65
1068.26	2726.65
1068.85	2700.65
1069.43	2640.65
1070.01	2560.65
1070.6	2612.65
1071.18	2648.65
1071.76	2680.65
1072.35	2647.65
1072.93	2619.65
1073.51	2685.65
1074.1	2640.65
1074.68	2684.65
1075.26	2621.65
1075.84	2615.65
1076.43	2650.65
1077.01	2685.65
1077.59	2681.65
1078.18	2651.65
1078.76	2661.65
1079.34	2628.65
1079.92	2594.65
1080.51	2647.65
1081.09	2649.65
1081.67	2623.65
1082.25	2681.65
1082.83	2616.65
1083.42	2636.65
1084	2634.65
1084.58	2658.65
1085.16	2572.65
1085.75	2611.65
1086.33	2578.65
1086.91	2589.65
1087.49	2574.65
1088.07	2685.65
1088.65	2621.65
1089.23	2691.65
1089.82	2589.65
1090.4	2611.65
1090.98	2632.65
1091.56	2620.65
1092.14	2605.65
1092.72	2639.65
1093.3	2651.65
1093.88	2594.65
1094.46	2599.65
1095.05	2624.65
1095.63	2609.65
1096.21	2576.65
1096.79	2541.65
1097.37	2605.65
1097.95	2645.65
1098.53	2568.65
1099.11	2527.65
1099.69	2599.65
1100.27	2630.65
1100.85	2693.65
1101.43	2611.65
1102.01	2607.65
1102.59	2585.65
1103.17	2726.65
1103.75	2756.65
1104.33	2586.65
1104.91	2562.65
1105.49	2518.65
1106.07	2587.65
1106.65	2583.65
1107.23	2545.65
1107.81	2518.65
1108.39	2495.65
1108.97	2541.65
1109.55	2567.65
1110.13	2576.65
1110.71	2567.65
1111.29	2544.65
1111.87	2452.65
1112.45	2535.65
1113.03	2512.65
1113.6	2504.65
1114.18	2534.65
1114.76	2600.65
1115.34	2506.65
1115.92	2560.65
1116.5	2475.65
1117.08	2493.65
1117.66	2480.65
1118.24	2589.65
1118.81	2474.65
1119.39	2505.65
1119.97	2546.65
1120.55	2464.65
1121.13	2407.65
1121.71	2437.65
1122.29	2549.65
1122.86	2453.65
1123.44	2490.65
1124.02	2386.65
1124.6	2394.65
1125.18	2468.65
1125.75	2575.65
1126.33	2392.65
1126.91	2365.65
1127.48	2489.65
1128.06	2426.65
1128.64	2415.65
1129.22	2376.65
1129.8	2490.65
1130.37	2281.65
1130.95	2362.65
1131.53	2426.65
1132.11	2352.65
1132.68	2391.65
1133.26	2357.65
1133.84	2346.65
1134.41	2287.65
1134.99	2394.65
1135.57	2330.65
1136.14	2304.65
1136.72	2342.65
1137.3	2396.65
1137.88	2318.65
1138.45	2351.65
1139.03	2288.65
1139.6	2296.65
1140.18	2265.65
1140.76	2282.65
1141.33	2236.65
1141.91	2253.65
1142.49	2283.65
1143.06	2208.65
1143.64	2252.65
1144.22	2220.65
1144.79	2272.65
1145.37	2228.65
1145.94	2253.65
1146.52	2207.65
1147.09	2160.65
1147.67	2201.65
1148.25	2163.65
1148.82	2227.22
1149.4	2147.55
1149.97	2180.08
1150.55	2197.05
1151.12	2176.37
1151.7	2136.25
1152.27	2409.05
1152.85	2167.03
1153.42	2087.62
1154	2089.59
1154.58	2072.43
1155.15	2108.15
1155.73	2087.65
1156.3	2119.36
1156.87	2047.17
1157.45	2064.14
1158.02	2014.81
1158.6	2047.16
1159.17	2025.64
1159.75	2026.32
1160.32	2011.01
1160.9	2023.4
1161.47	1966.27
1162.05	2033.49
1162.62	1979.93
1163.19	1997.52
1163.77	1959.93
1164.34	1985.96
1164.92	1960.75
1165.49	1951.14
1166.06	1934.75
1166.64	1929.48
1167.21	1965.23
1167.78	1979.86
1168.36	1899.06
1168.93	1894.29
1169.51	1883.71
1170.08	1870.14
1170.65	1889.81
1171.23	1912.2
1171.8	1848.05
1172.37	1882.89
1172.95	1880.68
1173.52	1818.68
1174.09	1805.81
1174.67	1828.51
1175.24	1778.99
1175.81	1831.42
1176.38	1792.65
1176.96	1799.14
1177.53	1798.53
1178.1	1787.4
1178.67	1747.33
1179.25	1724.75
1179.82	1761.64
1180.39	1752.04
1180.96	1763.29
1181.54	1736.36
1182.11	1741.62
1182.68	1712.72
1183.25	1706.03
1183.83	1684.18
1184.4	1686.45
1184.97	1682.7
1185.54	1696.73
1186.12	1684.31
1186.69	1679.91
1187.26	1672.41
1187.83	1635.44
1188.4	1627.63
1188.97	1650.57
1189.55	1633.62
1190.12	1606.37
1190.69	1583.16
1191.26	1617.1
1191.83	1600.93
1192.4	1601.33
1192.97	1587.75
1193.55	1587.11
1194.12	1570.21
1194.69	1549.26
1195.26	1534.63
1195.83	1530.9
1196.4	1531.55
1196.97	1542.62
1197.54	1523.9
1198.11	1500.59
1198.68	1520.49
1199.25	1469.89
1199.83	1517.26
1200.4	1492.48
1200.97	1465.99
1201.54	1491.29
1202.11	1481.18
1202.68	1429.82
1203.25	1459.07
1203.82	1462.45
1204.39	1456.86
1204.96	1441.65
1205.53	1415.63
1206.1	1401.71
1206.67	1420.36
1207.24	1397.06
1207.81	1388.69
1208.38	1389.42
1208.95	1400.24
1209.52	1379.63
1210.08	1379.2
1210.65	1379.99
1211.22	1354.61
1211.79	1343.15
1212.36	1311.88
1212.93	1291.4
1213.5	1313.95
1214.07	1316.98
1214.64	1293.21
1215.21	1301.65
1215.78	1281.54
1216.35	1274.93
1216.92	1265.02
1217.49	1267.85
1218.05	1246
1218.62	1250.13
1219.19	1233.83
1219.76	1227.47
1220.33	1240.02
1220.9	1204.05
1221.47	1208.02
1222.03	1191.03
1222.6	1173.11
1223.17	1149.65
1223.74	1114.75
1224.31	1079.29
1224.87	1082.6
1225.44	1045.88
1226.01	1073.71
1226.58	1059.73
1227.15	1042.54
1227.71	1048.16
1228.28	1061.61
1228.85	1056.21
1229.42	1064.71
1229.99	1043.8
1230.55	1058.83
1231.12	1060.71
1231.69	1073.95
1232.25	1044.2
1232.82	1059.41
1233.39	1049.88
1233.96	1070.12
1234.07	1096.12
1234.65	1042.12
1235.23	1043.12
1235.8	1046.12
1236.38	1042.12
1236.96	1022.12
1237.53	1043.12
1238.11	1033.12
1238.69	1020.12
1239.26	1016.12
1239.84	1000.12
1240.41	993.12
1240.99	1007.12
1241.57	962.12
1242.14	967.12
1242.72	991.12
1243.29	974.12
1243.87	959.12
1244.45	960.12
1245.02	966.12
1245.6	942.12
1246.17	954.12
1246.75	916.12
1247.32	941.12
1247.9	949.12
1248.47	927.12
1249.05	906.12
1249.62	935.12
1250.2	914.12
1250.78	899.12
1251.35	916.12
1251.93	910.12
1252.5	905.12
1253.08	906.12
1253.65	871.12
1254.22	902.12
1254.8	902.12
1255.37	880.12
1255.95	901.12
1256.52	899.12
1257.1	882.12
1257.67	877.12
1258.25	870.12
1258.82	871.12
1259.39	860.12
1259.97	882.12
1260.54	871.12
1261.12	884.12
1261.69	887.12
1262.27	865.12
1262.84	878.12
1263.41	871.12
1263.99	860.12
1264.56	860.12
1265.14	842.12
1265.71	867.12
1266.28	876.12
1266.86	864.12
1267.43	849.12
1268	877.12
1268.58	844.12
1269.15	856.12
1269.72	850.12
1270.3	837.12
1270.87	846.12
1271.44	880.12
1272.02	853.12
1272.59	839.12
1273.16	836.12
1273.74	856.12
1274.31	850.12
1274.88	870.12
1275.45	868.12
1276.03	856.12
1276.6	870.12
1277.17	844.12
1277.75	838.12
1278.32	860.12
1278.89	885.12
1279.46	862.12
1280.03	883.12
1280.61	858.12
1281.18	868.12
1281.75	873.12
1282.32	864.12
1282.9	836.12
1283.47	885.12
1284.04	850.12
1284.61	860.12
1285.18	862.12
1285.75	839.12
1286.33	842.12
1286.9	841.12
1287.47	862.12
1288.04	847.12
1288.61	864.12
1289.18	831.12
1289.76	867.12
1290.33	863.12
1290.9	879.12
1291.47	863.12
1292.04	859.12
1292.61	892.12
1293.18	846.12
1293.75	854.12
1294.33	852.12
1294.9	876.12
1295.47	852.12
1296.04	872.12
1296.61	855.12
1297.18	845.12
1297.75	883.12
1298.32	867.12
1298.89	875.12
1299.46	883.12
1300.03	865.12
1300.6	860.12
1301.17	887.12
1301.74	870.12
1302.31	875.12
1302.88	858.12
1303.45	872.12
1304.02	895.12
1304.59	841.12
1305.16	862.12
1305.73	878.12
1306.3	871.12
1306.87	872.12
1307.44	878.12
1308.01	890.12
1308.58	883.12
1309.15	870.12
1309.72	886.12
1310.29	888.12
1310.86	902.12
1311.43	886.12
1312	877.12
1312.57	903.12
1313.14	861.12
1313.71	900.12
1314.27	870.12
1314.84	888.12
1315.41	885.12
1315.98	890.12
1316.55	917.12
1317.12	886.12
1317.69	879.12
1318.26	901.12
1318.83	889.12
1319.39	870.12
1319.96	901.12
1320.53	906.12
1321.1	911.12
1321.67	899.12
1322.24	895.12
1322.8	910.12
1323.37	861.12
1323.94	883.12
1324.51	903.12
1325.08	910.12
1325.65	899.12
1326.21	894.12
1326.78	927.12
1327.35	910.12
1327.92	898.12
1328.48	911.12
1329.05	912.12
1329.62	890.12
1330.19	927.12
1330.75	879.12
1331.32	881.12
1331.89	924.12
1332.46	904.12
1333.02	921.12
1333.59	925.12
1334.16	916.12
1334.72	910.12
1335.29	928.12
1335.86	907.12
1336.43	906.12
1336.99	924.12
1337.56	922.12
1338.13	943.12
1338.69	916.12
1339.26	907.12
1339.83	918.12
1340.39	925.12
1340.96	897.12
1341.52	943.12
1342.09	904.12
1342.66	932.12
1343.23	912.12
1343.79	925.12
1344.36	920.12
1344.92	947.12
1345.49	928.12
1346.06	929.12
1346.62	961.12
1347.19	938.12
1347.75	936.12
1348.32	911.12
1348.89	943.12
1349.45	942.12
1350.02	956.12
1350.58	952.12
1351.15	938.12
1351.71	935.12
1352.28	944.12
1352.84	914.12
1353.41	956.12
1353.97	936.12
1354.54	931.12
1355.1	921.12
1355.67	947.12
1356.23	943.12
1356.8	964.12
1357.36	956.12
1357.93	936.12
1358.49	962.12
1359.06	966.12
1359.62	979.12
1360.19	953.12
1360.75	960.12
1361.32	983.12
1361.88	972.12
1362.45	968.12
1363.01	1034.12
1363.57	1043.12
1364.14	973.12
1364.7	971.12
1365.27	976.12
1365.83	923.12
1366.4	986.12
1366.96	956.12
1367.52	938.12
1368.09	977.12
1368.65	985.12
1369.21	974.12
1369.78	982.12
1370.34	974.12
1370.91	969.12
1371.47	983.12
1372.03	992.12
1372.6	969.12
1373.16	981.12
1373.72	961.12
1374.29	967.12
1374.85	963.12
1375.41	971.12
1375.98	978.12
1376.54	966.12
1377.1	986.12
1377.67	996.12
1378.23	984.12
1378.79	1007.12
1379.35	955.12
1379.92	973.12
1380.48	1007.12
1381.04	1006.12
1381.6	1001.12
1382.17	982.12
1382.73	977.12
1383.29	1002.12
1383.85	999.12
1384.42	1027.12
1384.98	966.12
1385.54	1027.12
1386.1	1000.12
1386.66	1032.12
1387.23	983.12
1387.79	998.12
1388.35	980.12
1388.91	994.12
1389.48	1049.12
1390.04	1021.12
1390.6	1036.12
1391.16	1030.12
1391.72	1016.12
1392.28	1041.12
1392.85	1007.12
1393.41	1051.12
1393.97	1028.12
1394.53	1019.12
1395.09	1067.12
1395.65	1046.12
1396.21	1037.12
1396.77	1022.12
1397.33	1053.12
1397.9	1030.12
1398.46	1045.12
1399.02	1032.12
1399.58	1049.12
1400.14	1034.12
1400.7	1041.12
1401.26	1025.12
1401.82	1032.12
1402.38	1053.12
1402.94	1065.12
1403.5	1080.12
1404.06	1055.12
1404.62	1043.12
1405.18	1048.12
1405.74	1034.12
1406.3	1085.12
1406.87	1074.12
1407.43	1040.12
1407.98	1069.12
1408.55	1066.12
1409.11	1095.12
1409.66	1042.12
1410.23	1047.12
1410.78	1058.12
1411.34	1060.12
1411.9	1064.12
1412.46	1057.12
1413.02	1052.12
1413.58	1071.12
1414.14	1074.12
1414.7	1092.12
1415.26	1069.12
1415.82	1065.12
1416.38	1032.12
1416.94	1038.12
1417.5	1087.12
1418.06	1051.12
1418.62	1076.12
1419.17	1089.12
1419.73	1138.12
1420.29	1147.12
1420.85	1113.12
1421.41	1102.12
1421.97	1093.12
1422.53	1112.12
1423.09	1108.12
1423.64	1052.12
1424.2	1095.12
1424.76	1084.12
1425.32	1095.12
1425.88	1107.12
1426.44	1098.12
1426.99	1119.12
1427.55	1108.12
1428.11	1103.12
1428.67	1115.12
1429.23	1099.12
1429.78	1112.12
1430.34	1107.12
1430.9	1113.12
1431.46	1080.12
1432.02	1123.12
1432.57	1124.12
1433.13	1125.12
1433.69	1117.12
1434.25	1117.12
1434.81	1132.12
1435.36	1144.12
1435.92	1130.12
1436.48	1146.12
1437.03	1106.12
1437.59	1128.12
1438.15	1115.12
1438.7	1128.12
1439.26	1154.12
1439.82	1138.12
1440.38	1181.12
1440.93	1144.12
1441.49	1134.12
1442.05	1144.12
1442.6	1136.12
1443.16	1151.12
1443.72	1145.12
1444.27	1200.12
1444.83	1151.12
1445.39	1214.12
1445.94	1211.12
1446.5	1155.12
1447.05	1168.12
1447.61	1167.12
1448.17	1153.12
1448.72	1198.12
1449.28	1166.12
1449.84	1201.12
1450.39	1202.12
1450.95	1125.12
1451.5	1169.12
1452.06	1192.12
1452.62	1180.12
1453.17	1173.12
1453.73	1185.12
1454.28	1204.12
1454.84	1183.12
1455.39	1158.12
1455.95	1171.12
1456.5	1160.12
1457.06	1198.12
1457.61	1165.12
1458.17	1203.12
1458.72	1179.12
1459.28	1166.12
1459.83	1172.12
1460.39	1221.12
1460.94	1208.12
1461.5	1176.12
1462.05	1183.12
1462.61	1222.12
1463.16	1167.12
1463.72	1213.12
1464.27	1219.12
1464.83	1194.12
1465.38	1223.12
1465.94	1207.12
1466.49	1214.12
1467.05	1194.12
1467.6	1185.12
1468.16	1211.12
1468.71	1209.12
1469.26	1254.12
1469.82	1203.12
1470.37	1225.12
1470.92	1228.12
1471.48	1252.12
1472.03	1233.12
1472.59	1207.12
1473.14	1225.12
1473.69	1217.12
1474.25	1257.12
1474.8	1231.12
1475.35	1231.12
1475.91	1256.12
1476.46	1198.12
1477.02	1263.12
1477.57	1245.12
1478.12	1242.12
1478.67	1237.12
1479.23	1280.12
1479.78	1260.12
1480.33	1263.12
1480.89	1373.12
1481.44	1285.12
1481.99	1238.12
1482.55	1264.12
1483.1	1283.12
1483.65	1292.12
1484.2	1288.12
1484.76	1253.12
1485.31	1289.12
1485.86	1277.12
1486.41	1247.12
1486.97	1274.12
1487.52	1248.12
1488.07	1289.12
1488.62	1254.12
1489.18	1268.12
1489.73	1312.12
1490.28	1287.12
1490.83	1296.12
1491.38	1312.12
1491.94	1287.12
1492.49	1292.12
1493.04	1316.12
1493.59	1315.12
1494.14	1281.12
1494.69	1293.12
1495.25	1296.12
1495.8	1300.12
1496.35	1293.12
1496.9	1293.12
1497.45	1279.12
1498	1304.12
1498.56	1321.12
1499.11	1308.12
1499.66	1299.12
1500.21	1308.12
