20.660187	2802.0911
21.3211	1894.5911
21.996864	1894.5911
22.67263	1894.5911
23.348394	1894.5911
24.02416	1894.5911
24.699924	1894.5911
25.37569	1894.5911
26.051455	1894.5911
26.727221	1894.5911
27.410412	1894.5911
28.086176	1894.5911
28.761942	1894.5911
29.437706	1943.5911
30.113472	1943.5911
30.789238	1992.5911
31.465002	1992.5911
32.140766	2041.5911
32.816532	2090.5911
33.492298	2090.5911
34.168064	2139.5911
34.843826	2188.0911
35.519592	2188.0911
36.187931	2188.0911
36.863697	2237.0911
37.539463	2286.0911
38.215225	2335.0911
38.890991	2384.0911
39.566757	2482.0911
40.242523	2677.5911
40.918289	2726.5911
41.586628	2873.5911
42.26239	2922.5911
42.938156	3020.5911
43.613922	3167.0911
44.289688	3265.0911
44.958027	3314.0911
45.633793	3240.5911
46.309555	3265.0911
46.985321	3363.0911
47.661087	3363.0911
48.329426	3461.0911
49.005192	3510.0911
49.680954	3559.0911
50.349293	3461.0911
51.025059	3510.0911
51.700825	3559.0911
52.376591	3664.5911
53.04493	3649.5911
53.720695	3607.5911
54.396458	3681.0911
55.072224	3705.5911
55.740562	3705.5911
56.416328	3705.5911
57.092094	3999.5911
57.760433	3789.5911
58.436199	3999.5911
59.104538	3831.0911
59.7803	3999.5911
60.456066	3999.5911
61.124405	4247.5908
61.800171	4342.0908
62.46851	4372.5908
63.144276	4205.5908
63.812614	4342.0908
64.48838	4580.5908
65.156715	4580.5908
65.832481	4664.0908
66.500824	4489.0908
67.17659	4664.0908
67.844925	4664.0908
68.520691	4831.5908
69.189034	4831.5908
69.864799	4831.5908
70.533134	4831.5908
71.2089	4831.5908
71.877243	4831.5908
72.553001	4831.5908
73.221344	4831.5908
73.89711	4831.5908
74.565445	4831.5908
75.241211	4831.5908
75.909554	4831.5908
76.577888	4831.5908
77.253654	4831.5908
77.921997	4831.5908
78.590332	4782.5908
79.266098	4782.5908
79.934441	4782.5908
80.602776	4987.0908
81.278542	4733.5908
81.946884	4880.5908
82.615219	4880.5908
83.283562	4880.5908
83.959328	4733.5908
84.627663	4938.0908
85.296005	4684.5908
85.971771	4684.5908
86.640106	4684.5908
87.308449	4684.5908
87.976784	4684.5908
88.65255	4684.5908
89.320892	4586.5908
89.989227	4586.5908
90.65757	4586.5908
91.325905	4586.5908
92.001671	4574.5908
92.670013	4562.0908
93.338348	4550.0908
94.006691	4537.5908
94.675026	4537.5908
95.343369	4537.5908
96.011703	4537.5908
96.680046	4486.0908
97.348389	4489.0908
98.024147	4489.0908
98.69249	4464.5908
99.360825	4440.0908
100.02917	4440.0908
100.69751	4440.0908
101.36584	4391.0908
102.03419	4342.0908
102.70252	4293.0908
103.37086	4244.0908
104.0392	4195.0908
104.70754	4170.5908
105.37588	4146.0908
106.04422	4121.5908
106.71255	4097.0908
107.3809	4085.0911
108.04924	4072.5911
108.71758	4060.5911
109.38592	4048.5911
110.05425	4024.0911
110.7226	3999.5911
111.39093	3950.5911
112.05927	3950.5911
112.72761	3950.5911
113.39595	3950.5911
114.06429	3950.5911
114.7252	3950.5911
115.39354	3950.5911
116.06188	3950.5911
116.73022	3950.5911
117.39856	3926.0911
118.06689	3901.5911
118.72781	3852.5911
119.39615	3820.0911
120.06449	3787.0911
120.73283	3754.5911
121.39374	3738.0911
122.06208	3722.0911
122.73042	3705.5911
123.39876	3656.5911
124.0671	3656.5911
124.72801	3656.5911
125.39635	3656.5911
126.06469	3640.5911
126.73302	3624.0911
127.39394	3607.5911
128.06229	3591.5911
128.73062	3575.0911
129.39153	3559.0911
130.05988	3550.5911
130.72821	3542.5911
131.38913	3534.5911
132.05746	3526.0911
132.71837	3518.0911
133.38672	3510.0911
134.05505	3493.5911
134.71597	3477.0911
135.38431	3461.0911
136.05264	3412.0911
136.71356	3399.5911
137.3819	3387.5911
138.04282	3375.0911
138.71115	3363.0911
139.37206	3350.5911
140.04041	3338.5911
140.70131	3326.5911
141.36966	3314.0911
142.03056	3314.0911
142.6989	3265.0911
143.35982	3265.0911
144.02815	3265.0911
144.68907	3167.0911
145.35741	3167.0911
146.01833	3151.0911
146.68666	3134.5911
147.34758	3118.0911
148.01591	3102.0911
148.67683	3085.5911
149.34517	3069.5911
150.00607	3069.5911
150.66699	3069.5911
151.33533	3036.5911
151.99625	3004.0911
152.65717	2971.5911
153.3255	2971.5911
153.9864	2971.5911
154.64732	2971.5911
155.31566	2922.5911
155.97658	2922.5911
156.63748	2922.5911
157.30583	2922.5911
157.96674	2906.0911
158.62766	2890.0911
159.29599	2873.5911
159.95691	2873.5911
160.61781	2824.5911
161.27873	2824.5911
161.94707	2775.5911
162.60799	2759.5911
163.26889	2743.0911
163.92981	2726.5911
164.59073	2726.5911
165.25906	2726.5911
165.91998	2726.5911
166.58089	2702.0911
167.24181	2677.5911
167.90271	2677.5911
168.56363	2677.5911
169.23196	2677.5911
169.89288	2661.5911
170.55379	2645.0911
171.21471	2628.5911
171.87563	2628.5911
172.53653	2628.5911
173.20488	2628.5911
173.86578	2580.0911
174.5267	2567.5911
175.18761	2555.5911
175.84853	2543.0911
176.50945	2531.0911
177.17035	2531.0911
177.83127	2531.0911
178.49217	2531.0911
179.15309	2531.0911
179.81401	2393.0911
180.47491	2440.0911
181.13583	2463.0911
181.79674	2348.0911
182.45766	2347.0911
183.11858	2464.0911
183.77948	2537.0911
184.4404	2413.0911
185.1013	2464.0911
185.76222	2496.0911
186.41571	2492.0911
187.07661	2383.0911
187.73753	2416.0911
188.39845	2305.0911
189.05936	2263.0911
189.72028	2319.0911
190.38118	2239.0911
191.03467	2363.0911
191.69559	2302.0911
192.35651	2318.0911
193.01741	2312.0911
193.67833	2340.0911
194.33923	2286.0911
194.99272	2137.0911
195.65364	2219.0911
196.31456	2183.0911
196.97546	2221.0911
197.63638	2166.0911
198.28987	2166.0911
198.95078	2194.0911
199.61169	2127.0911
200.2726	2330.0911
200.92609	2269.0911
201.58701	2327.0911
202.24792	2142.0911
202.90141	2151.0911
203.56232	2188.0911
204.22324	2156.0911
204.87672	2236.0911
205.53763	2141.0911
206.19855	2186.0911
206.85204	2119.0911
207.51294	2085.0911
208.17386	2110.0911
208.82735	2091.0911
209.48827	2148.0911
210.14917	2049.0911
210.80266	2061.0911
211.46358	2103.0911
212.11707	1984.0911
212.77797	2027.0911
213.43146	2011.0911
214.09238	2019.0911
214.74586	2039.0911
215.40677	2034.0911
216.06026	2016.0911
216.72118	1988.0911
217.37466	2010.0911
218.03557	2114.0911
218.68906	2004.0911
219.34998	2192.0911
220.00346	1934.0911
220.66437	1994.0911
221.31786	1994.0911
221.97878	1986.0911
222.63226	1953.0911
223.29317	1820.0911
223.94666	1980.0911
224.60014	1874.0911
225.26106	1986.0911
225.91455	1956.0911
226.57545	1892.0911
227.22894	1885.0911
227.88243	1897.0911
228.54335	1855.0911
229.19684	1948.0911
229.85033	2022.0911
230.51123	1921.0911
231.16472	1961.0911
231.81821	1904.0911
232.47913	2033.0911
233.13261	2131.0911
233.7861	2143.0911
234.43959	2020.0911
235.10049	1938.0911
235.75398	1906.0911
236.40747	1934.0911
237.06096	2010.0911
237.72188	1933.0911
238.37537	1945.0911
239.02885	1875.0911
239.68233	1914.0911
240.33582	1919.0911
240.99673	2019.0911
241.65022	1917.0911
242.30371	1978.0911
242.9572	1877.0911
243.61069	1890.0911
244.27159	1892.0911
244.92508	1949.0911
245.57857	1908.0911
246.23206	1945.0911
246.88554	1951.0911
247.53903	1857.0911
248.19252	1927.0911
248.84601	1850.0911
249.4995	1899.0911
250.15298	1879.0911
250.80647	1858.0911
251.45996	1836.0911
252.12086	1895.0911
252.77435	1883.0911
253.42784	1835.0911
254.08133	1822.0911
254.73482	1849.0911
255.38831	1900.0911
256.03436	1764.0911
256.68787	1794.0911
257.34134	1846.0911
257.99481	1867.0911
258.64832	1802.0911
259.30179	1904.0911
259.95529	1820.0911
260.60876	2013.0911
261.26227	1904.0911
261.91574	1862.0911
262.56924	1855.0911
263.22272	1788.0911
263.87622	1830.0911
264.52969	1860.0911
265.17575	1828.0911
265.82925	1852.0911
266.48273	1936.0911
267.13623	1849.0911
267.7897	1847.0911
268.44321	1878.0911
269.09668	1777.0911
269.74274	1901.0911
270.39624	1850.0911
271.04971	1788.0911
271.70322	1947.0911
272.34927	1866.0911
273.00275	1878.0911
273.65625	1826.0911
274.30972	1890.0911
274.95578	1878.0911
275.60928	1857.0911
276.26276	1890.0911
276.91626	1854.0911
277.56232	1860.0911
278.21579	1836.0911
278.86929	1818.0911
279.51535	1811.0911
280.16882	1822.0911
280.82233	1776.0911
281.46838	1776.0911
282.12186	1943.0911
282.76791	1895.0911
283.42142	1889.0911
284.07489	1885.0911
284.72098	1812.0911
285.37445	1842.0911
286.02051	1907.0911
286.67401	1965.0911
287.32748	1888.0911
287.97354	1890.0911
288.62704	1987.0911
289.2731	1930.0911
289.92657	1943.0911
290.57263	1885.0911
291.22614	1981.0911
291.87219	1921.0911
292.52567	2040.0911
293.17175	1998.5911
293.82523	1938.0911
294.47128	1998.5911
295.12479	1956.5911
295.77084	2040.0911
296.42432	1956.5911
297.07037	1947.0911
297.71646	1922.0911
298.36993	1973.0911
299.01599	1984.0911
299.66949	1986.0911
300.31555	1954.0911
300.96161	1980.0911
301.61508	1982.0911
302.26114	2015.0911
302.90723	2088.0911
303.5607	2073.0911
304.20676	2115.0911
304.86026	2034.0911
305.50632	2028.0911
306.15237	2068.0911
306.79843	1971.0911
307.4519	2128.0911
308.09799	2113.0911
308.74405	2079.0911
309.39752	2099.0911
310.04358	2083.0911
310.68964	2094.0911
311.33572	2151.0911
311.9892	2061.0911
312.63525	2096.0911
313.28131	2171.0911
313.92737	2137.0911
314.57346	2129.0911
315.22693	2199.0911
315.87299	2132.0911
316.51904	2224.0911
317.1651	2271.0911
317.81119	2216.0911
318.46466	2199.0911
319.11072	2228.0911
319.75677	2363.0911
320.40283	2279.0911
321.04892	2119.0911
321.69498	2255.0911
322.34103	2367.0911
322.98709	2246.0911
323.63315	2328.0911
324.27921	2403.0911
324.92526	2323.0911
325.57132	2330.0911
326.21741	2260.0911
326.87088	2438.0911
327.51694	2391.0911
328.15558	2422.0911
328.80164	2505.0911
329.44769	2423.0911
330.09375	2493.0911
330.73984	2545.0911
331.38589	2649.0911
332.03195	2580.0911
332.67801	2580.0911
333.32407	2506.0911
333.97012	2576.0911
334.61618	2614.0911
335.26224	2663.0911
335.90833	2584.0911
336.55438	2527.0911
337.20044	2751.0911
337.8465	2667.0911
338.49255	2695.0911
339.13861	2634.0911
339.78467	2696.0911
340.42331	2811.0911
341.06937	2789.5911
341.71542	2789.5911
342.36151	2694.0911
343.00757	2764.0911
343.64618	2775.0911
344.29227	2716.0911
344.93832	2942.0911
345.58438	2779.0911
346.22302	2874.0911
346.86908	2828.0911
347.51514	2865.0911
348.16119	2787.0911
348.80725	2791.0911
349.44589	2847.0911
350.09195	2848.0911
350.73801	2762.0911
351.37665	2855.0911
352.02271	2820.0911
352.66876	2930.0911
353.31482	2887.0911
353.95346	3068.0911
354.59952	2863.0911
355.24561	2907.0911
355.88422	2972.0911
356.53027	3031.0911
357.16891	2903.0911
357.81497	3018.0911
358.46103	2995.0911
359.09967	2954.0911
359.74573	2905.0911
360.38437	2948.0911
361.03043	2891.0911
361.67648	2922.0911
362.31512	2999.0911
362.96118	3004.0911
363.59982	2929.0911
364.24588	2879.0911
364.88452	2951.0911
365.53058	2970.0911
366.16922	2810.0911
366.81528	2863.0911
367.45392	2914.0911
368.09998	3022.0911
368.73862	2758.0911
369.38467	2885.0911
370.02332	2851.0911
370.66937	2745.0911
371.30801	2811.0911
371.95407	2869.0911
372.59271	2824.0911
373.23132	2682.0911
373.87741	2898.0911
374.51602	2942.0911
375.16211	2809.0911
375.80072	2778.0911
376.43936	2770.0911
377.08542	2874.0911
377.72406	2739.0911
378.3627	2707.0911
379.00876	2758.0911
379.6474	2759.0911
380.28604	2717.0911
380.9321	2777.0911
381.57074	2695.0911
382.20935	2775.0911
382.85541	2767.0911
383.49405	2579.0911
384.13269	2640.0911
384.77133	2619.0911
385.40997	2671.0911
386.05603	2428.0911
386.69467	2727.0911
387.33328	2514.0911
387.97934	2551.0911
388.61798	2543.0911
389.25662	2578.0911
389.89526	2548.0911
390.53391	2577.0911
391.17252	2471.0911
391.81116	2481.0911
392.45721	2634.0911
393.09586	2530.0911
393.7345	2334.0911
394.37314	2443.0911
395.01178	2488.0911
395.65039	2504.0911
396.29645	2286.0911
396.93509	2261.0911
397.57373	2247.0911
398.21237	2303.0911
398.85101	2250.0911
399.48962	2338.0911
400.12827	2233.0911
400.76691	2261.0911
401.40555	2183.0911
402.04419	2163.0911
402.6828	2207.0911
403.32144	2162.0911
403.96008	2228.0911
404.59872	2246.0911
405.23737	2132.0911
405.87598	2187.0911
406.51462	2180.0911
407.15326	2127.0911
407.7919	2189.0911
408.43054	2196.0911
409.06915	2125.0911
409.70779	2185.0911
410.34644	2116.0911
410.97763	2148.0911
411.61627	2165.0911
412.25491	2029.0911
412.89355	2096.0911
413.5322	1990.0911
414.17081	2028.0911
414.80945	1985.0911
415.44809	1934.0911
416.07928	1982.0911
416.71793	2005.0911
417.35657	1960.0911
417.99521	2018.0911
418.63385	2018.0911
419.26505	2038.0911
419.90369	1991.0911
420.54233	1917.0911
421.18097	1895.0911
421.81958	1904.0911
422.45081	1887.0911
423.08945	1938.0911
423.72806	1853.0911
424.35928	1862.0911
424.99792	1826.0911
425.63654	1806.0911
426.27518	1788.0911
426.9064	1780.0911
427.54501	1767.0911
428.18365	1876.0911
428.81488	1842.0911
429.45352	1944.0911
430.09213	1827.0911
430.72336	1853.0911
431.362	1811.0911
431.99319	1792.0911
432.63184	1792.0911
433.27048	1797.0911
433.90167	1765.0911
434.54031	1761.0911
435.17896	1702.0911
435.81015	1730.0911
436.44879	1739.0911
437.07999	1729.0911
437.71863	1906.0911
438.34985	1748.5911
438.98846	1790.0911
439.61969	1727.0911
440.25833	1679.0911
440.88953	1786.0911
441.52817	1724.0911
442.15936	1733.0911
442.798	1655.0911
443.42923	1683.0911
444.06787	1696.0911
444.69907	1697.0911
445.33771	1687.0911
445.9689	1623.0911
446.60754	1671.0911
447.23874	1697.0911
447.86996	1609.0911
448.50861	1659.0911
449.1398	1643.0911
449.77844	1620.0911
450.40964	1639.0911
451.04086	1740.0911
451.6795	1613.0911
452.3107	1653.0911
452.94193	1589.0911
453.58054	1589.0911
454.21176	1610.0911
454.84296	1567.0911
455.4816	1738.0911
456.11282	1623.0911
456.74402	1620.0911
457.37524	1623.0911
458.01385	1642.0911
458.64508	1591.0911
459.27628	1584.0911
459.91492	1546.0911
460.54614	1539.0911
461.17734	1633.0911
461.80853	1554.0911
462.43976	1657.0911
463.0784	1584.0911
463.70959	1586.0911
464.34082	1566.0911
464.97202	1520.0911
465.60324	1614.0911
466.24185	1620.0911
466.87308	1550.0911
467.50427	1597.0911
468.1355	1607.0911
468.76669	1548.0911
469.39792	1564.0911
470.02911	1673.0911
470.66034	1605.0911
471.29895	1581.0911
471.93018	1484.0911
472.56137	1591.0911
473.1926	1543.0911
473.82379	1544.0911
474.45502	1529.0911
475.08621	1588.0911
475.71744	1532.0911
476.34863	1564.0911
476.97986	1575.0911
477.61105	1578.0911
478.24225	1484.0911
478.87347	1580.0911
479.50467	1515.0911
480.13589	1553.0911
480.76709	1594.0911
481.39832	1553.0911
482.02951	1524.0911
482.66074	1587.0911
483.29193	1536.0911
483.91571	1585.0911
484.54694	1543.0911
485.17813	1518.0911
485.80936	1621.0911
486.44055	1518.0911
487.07178	1474.0911
487.70297	1521.0911
488.33417	1620.0911
488.96539	1559.0911
489.58917	1505.0911
490.2204	1535.0911
490.85159	1535.0911
491.48279	1538.0911
492.11401	1621.0911
492.74521	1531.0911
493.37643	1551.0911
494.00021	1542.0911
494.63141	1582.0911
495.26263	1602.0911
495.89383	1564.0911
496.51761	1524.0911
497.14883	1602.0911
497.78003	1671.0911
498.40384	1574.0911
499.03503	1530.0911
499.66623	1532.0911
500.29745	1617.0911
500.92123	1629.0911
501.55243	1582.0911
502.18365	1665.0911
502.80743	1593.0911
503.43866	1474.0911
504.06985	1616.0911
504.69363	1580.0911
505.32486	1636.0911
505.94864	1571.0911
506.57983	1654.0911
507.21106	1769.0911
507.83484	1652.0911
508.46603	1571.0911
509.09726	1631.0911
509.72104	1663.0911
510.35223	1663.0911
510.97601	1662.0911
511.60724	1607.0911
512.23102	1551.0911
512.86224	1638.0911
513.49341	1663.0911
514.11725	1599.0911
514.74103	1677.0911
515.37219	1639.0911
516.00342	1636.0911
516.6272	1652.0911
517.25098	1636.0911
517.8822	1694.0911
518.50598	1715.0911
519.13721	1681.0911
519.76099	1579.0911
520.39215	1698.0911
521.01599	1633.0911
521.64716	1722.0911
522.27094	1619.0911
522.89471	1617.0911
523.52594	1747.0911
524.14972	1654.0911
524.7735	1719.0911
525.40472	1789.0911
526.0285	1639.0911
526.65228	1700.0911
527.28351	1712.0911
527.90729	1687.0911
528.53107	1694.0911
529.16229	1743.0911
529.78607	1611.0911
530.40985	1665.0911
531.04108	1653.0911
531.66486	1695.0911
532.28864	1828.0911
532.9198	1710.0911
533.54358	1727.0911
534.16742	1725.0911
534.7912	1686.0911
535.42236	1747.0911
536.04614	1815.0911
536.66992	1788.0911
537.29376	1788.0911
537.91754	1747.0911
538.54871	1779.0911
539.17249	1756.0911
539.79626	1756.0911
540.4201	1780.0911
541.04388	1812.0911
541.66766	1743.0911
542.29883	1758.0911
542.92261	1806.0911
543.54645	1767.0911
544.17023	1840.0911
544.79401	1884.0911
545.41779	1898.0911
546.04156	1919.0911
546.66534	1853.0911
547.28912	1808.0911
547.9129	1917.0911
548.53668	1879.0911
549.16046	1957.0911
549.78424	1900.0911
550.40802	2074.0911
551.03925	1972.0911
551.65558	1938.0911
552.2868	1964.0911
552.91058	2039.0911
553.52698	1913.0911
554.15814	2161.0911
554.77454	2082.0911
555.39832	2125.0911
556.02209	2109.0911
556.64587	2093.0911
557.26965	2195.0911
557.89343	2154.0911
558.51721	2217.0911
559.14099	2254.0911
559.76477	2468.0911
560.38855	2362.0911
561.01233	2518.0911
561.62872	2421.0911
562.25989	2471.0911
562.87628	2614.0911
563.50006	2615.0911
564.12384	2662.0911
564.74762	2639.0911
565.3714	2710.0911
565.98773	2720.0911
566.61157	2705.0911
567.23535	2836.0911
567.85913	2962.0911
568.48291	2960.5911
569.09924	2999.0911
569.72302	2992.0911
570.3468	3155.0911
570.97058	3060.0911
571.59436	3124.0911
572.21075	3414.5911
572.83453	3439.0911
573.45831	3338.0911
574.07465	3539.0911
574.69843	3444.0911
575.3222	3421.0911
575.94598	3597.0911
576.56238	3597.0911
577.18616	3699.0911
577.80249	3710.0911
578.42627	3834.0911
579.05005	3836.0911
579.66644	3856.0911
580.29022	3833.0911
580.90656	3898.0911
581.53033	3881.0911
582.15411	3878.0911
582.77051	3997.0911
583.39429	3997.5911
584.01807	3963.0911
584.6344	3922.0911
585.25818	4081.0911
585.87457	4081.0911
586.49835	3962.0911
587.11469	4033.0911
587.73846	4097.0908
588.35486	4018.0911
588.97864	4018.0911
589.59497	4055.0911
590.21875	4091.0911
590.83514	4065.0911
591.45892	3908.0911
592.07526	3956.0911
592.69904	3962.0911
593.31543	3948.0911
593.93921	3859.0911
594.55554	4036.0911
595.17932	4086.0911
595.79565	3899.0911
596.41205	4002.0911
597.03583	3878.0911
597.65216	3986.0911
598.26855	3974.0911
598.89233	3881.0911
599.50867	4101.0908
600.13245	4012.0911
600.74884	4039.0911
601.36517	4093.0911
601.98151	4051.0911
602.60529	4168.0908
603.22168	4183.0908
603.83801	4268.0908
604.46179	4262.0908
605.07819	4229.0908
605.69452	4381.0908
606.3183	4442.0908
606.93469	4279.0908
607.55103	4409.0908
608.16736	4508.0908
608.79114	4470.0908
609.40753	4564.5908
610.02386	4839.5908
610.64026	4702.5908
611.26404	4962.5908
611.88037	4882.5908
612.4967	5314.0908
613.1131	5242.0908
613.72943	5279.0908
614.34583	5369.5908
614.9696	5479.0908
615.58594	5545.5908
616.20233	5705.0908
616.81866	5753.5908
617.435	5969.0908
618.05139	5873.5908
618.66772	6402.0908
619.28412	6180.5908
619.90045	6429.0908
620.52423	6380.0908
621.14056	6498.5908
621.75696	6666.5908
622.37329	6680.0908
622.98969	6951.5908
623.60602	7057.0908
624.22235	6934.5908
624.83875	7124.0908
625.45508	7417.0908
626.07147	7243.5908
626.68781	7464.0908
627.30414	7523.5908
627.92053	7348.5908
628.53687	7685.5908
629.15326	7733.5908
629.76959	7784.5908
630.38593	7903.0908
631.00232	7990.0908
631.61865	7996.0908
632.2276	8120.0908
632.85138	8077.5908
633.46033	8148.5908
634.07666	8287.0908
634.69299	8370.5908
635.30939	8295.0908
635.92572	8216.0908
636.54211	8333.5908
637.15845	8438.5908
637.7674	8410.5908
638.38373	8446.0908
639.00012	8418.0908
639.61646	8482.0908
640.23279	8579.0908
640.84174	8579.0908
641.46552	8583.0908
642.07446	8583.0908
642.6908	8565.5908
643.30719	8544.5908
643.91608	8603.5908
644.53247	8588.5908
645.1488	8577.0908
645.7652	8621.5908
646.38153	8523.5908
646.99048	8618.5908
647.60681	8532.5908
648.22314	8618.5908
648.83209	8618.5908
649.44849	8521.5908
650.06482	8392.5908
650.67377	8496.0908
651.2901	8421.0908
651.90643	8435.0908
652.51538	8382.5908
653.13177	8351.5908
653.74811	8250.5908
654.35706	8245.5908
654.97339	8332.0908
655.58978	8213.0908
656.02789	8158.0908
656.65167	8162.5908
657.27545	7770.0908
657.89923	8126.0908
658.52301	7732.0908
659.14679	7954.0908
659.77057	7871.0908
660.39435	7582.0908
661.01813	7594.0908
661.63452	7579.0908
662.2583	7706.0908
662.88208	7443.0908
663.50586	7595.0908
664.12964	7360.0908
664.75342	7450.0908
665.3772	7442.0908
665.99359	7282.0908
666.61737	7088.0908
667.24115	7164.0908
667.86493	7194.0908
668.48871	6960.0908
669.11249	6949.0908
669.73627	6850.0908
670.3526	6984.0908
670.97638	6909.0908
671.60016	6889.0908
672.21655	6676.0908
672.84033	6557.0908
673.46411	6712.0908
674.08789	6584.0908
674.70422	6415.0908
675.32806	6468.0908
675.95184	6396.0908
676.56818	6240.0908
677.19196	6173.0908
677.81573	6086.0908
678.43951	6001.0908
679.05591	6011.0908
679.67969	6071.0908
680.30347	6044.0908
680.9198	5918.0908
681.54358	5870.0908
682.16736	5742.0908
682.78375	5742.0908
683.40753	5685.0908
684.03131	5636.0908
684.64764	5629.0908
685.27142	5568.0908
685.88782	5543.0908
686.5116	5446.0908
687.12793	5320.0908
687.75171	5467.0908
688.3681	5278.0908
688.99188	5194.0908
689.61566	5303.0908
690.23199	5108.0908
690.84833	5162.0908
691.47211	5052.0908
692.09595	5169.0908
692.71228	5068.0908
693.33606	4975.0908
693.95239	4954.0908
694.56879	4833.0908
695.19257	4791.0908
695.8089	4748.0908
696.43268	4782.0908
697.04907	4612.0908
697.67285	4781.0908
698.28918	4713.0908
698.91296	4570.0908
699.52936	4593.0908
700.14569	4545.0908
700.76947	4487.0908
701.38586	4411.0908
702.0022	4454.0908
702.62598	4383.0908
703.24231	4341.0908
703.8587	4347.0908
704.48248	4325.0908
705.09882	4284.0908
705.71521	4191.0908
706.33899	4156.0908
706.95532	4175.0908
707.57166	4148.0908
708.1955	4138.0908
708.81183	4068.0911
709.42816	4063.0911
710.05194	4070.0911
710.66833	3982.0911
711.28467	3976.0911
711.90106	3944.0911
712.5174	3901.0911
713.14117	3849.0911
713.75751	3825.0911
714.3739	3819.0911
714.99023	3823.0911
715.61401	3752.0911
716.23041	3784.0911
716.84674	3779.0911
717.46307	3678.0911
718.07947	3740.0911
718.6958	3732.0911
719.31958	3661.0911
719.93597	3624.0911
720.55231	3644.0911
721.1687	3584.0911
721.78503	3568.0911
722.40137	3538.0911
723.01776	3532.0911
723.63409	3488.0911
724.25043	3503.0911
724.86682	3441.0911
725.4906	3484.0911
726.10693	3454.0911
726.72333	3411.0911
727.33966	3364.0911
727.95605	3398.0911
728.57239	3348.0911
729.18872	3327.0911
729.80511	3300.0911
730.42145	3282.0911
731.03784	3250.0911
731.65417	3247.0911
732.27051	3245.0911
732.8869	3202.0911
733.50323	3188.0911
734.11957	3210.0911
734.72852	3182.0911
735.35229	3146.0911
735.96124	3200.0911
736.57758	3139.0911
737.19397	3118.0911
737.8103	3111.0911
738.4267	3050.0911
739.04303	3079.0911
739.65936	2995.0911
740.27576	3037.0911
740.8847	3079.0911
741.50104	3022.0911
742.11737	3012.0911
742.73376	2985.0911
743.3501	2960.0911
743.96643	2920.0911
744.57538	2942.0911
745.19177	2903.0911
745.80811	2931.0911
746.42444	2906.0911
747.04083	2869.0911
747.64978	2887.0911
748.26611	2872.0911
748.88245	2836.0911
749.49884	2846.0911
750.10773	2816.0911
750.72412	2832.0911
751.34045	2825.0911
751.95685	2815.0911
752.56573	2761.0911
753.18213	2728.0911
753.79846	2706.0911
754.40741	2704.0911
755.02374	2703.0911
755.64014	2713.0911
756.24902	2744.0911
756.86542	2721.0911
757.48175	2694.0911
758.0907	2687.0911
758.70703	2654.0911
759.32343	2635.0911
759.93231	2659.0911
760.54871	2648.0911
761.15765	2607.0911
761.77399	2590.0911
762.39032	2609.0911
762.99927	2642.0911
763.6156	2558.0911
764.22455	2586.0911
764.84094	2588.0911
765.44983	2580.0911
766.06622	2562.0911
766.67511	2537.0911
767.2915	2515.0911
767.90045	2501.0911
768.51678	2500.0911
769.12573	2513.0911
769.74207	2520.0911
770.35101	2464.0911
770.96735	2489.0911
771.57629	2475.0911
772.19263	2416.0911
772.80157	2459.0911
773.41791	2453.0911
774.02686	2438.0911
774.6358	2441.0911
775.25214	2429.0911
775.86108	2428.0911
776.47003	2398.0911
777.08636	2411.0911
777.69531	2392.0911
778.31165	2394.0911
778.92059	2378.0911
779.52954	2375.0911
780.14587	2378.0911
780.75482	2408.0911
781.37115	2386.0911
781.9801	2374.0911
782.58905	2364.0911
783.19794	2352.0911
783.81433	2351.0911
784.42328	2350.0911
785.03217	2333.0911
785.64111	2346.0911
786.25745	2335.0911
786.86639	2308.0911
787.47534	2310.0911
788.08429	2309.0911
788.70062	2287.0911
789.30957	2290.0911
789.91846	2310.0911
790.5274	2277.0911
791.1438	2311.0911
791.75269	2292.0911
792.36163	2309.0911
792.97058	2311.0911
793.57953	2277.0911
794.18842	2298.0911
794.80481	2283.0911
795.4137	2283.0911
796.02264	2276.0911
796.63159	2278.0911
797.24054	2280.0911
797.84943	2284.0911
798.45837	2269.0911
799.06732	2290.0911
799.68365	2290.0911
800.2926	2281.0911
800.90155	2284.0911
801.51044	2288.0911
802.11938	2281.0911
802.72833	2317.0911
803.33728	2308.0911
803.94617	2318.0911
804.55511	2314.0911
805.16406	2318.0911
805.77295	2333.0911
806.3819	2368.0911
806.99084	2342.0911
807.59979	2329.0911
808.20868	2328.0911
808.81763	2374.0911
809.42657	2410.0911
810.03552	2416.0911
810.64441	2434.0911
811.25336	2476.0911
811.8623	2420.0911
812.47119	2464.0911
813.07269	2454.0911
813.68164	2473.0911
814.29059	2495.0911
814.89954	2479.0911
815.50842	2475.0911
816.11737	2507.0911
816.72632	2561.0911
817.33527	2554.0911
817.93677	2554.0911
818.54565	2582.0911
819.1546	2605.0911
819.76355	2612.0911
820.3725	2690.0911
820.98138	2691.0911
821.58289	2691.0911
822.19183	2734.0911
822.80078	2750.0911
823.40973	2773.0911
824.01862	2800.0911
824.62012	2825.0911
825.22906	2871.0911
825.83801	2898.0911
826.43951	2906.0911
827.04846	2952.0911
827.65735	2985.0911
828.2663	3049.0911
828.8678	3104.0911
829.47675	3122.0911
830.08569	3158.0911
830.68719	3174.0911
831.29608	3256.0911
831.90503	3264.0911
832.51398	3330.0911
833.11548	3420.0911
833.72443	3454.0911
834.32593	3502.0911
834.93481	3564.0911
835.54376	3619.0911
836.14526	3693.0911
836.75421	3763.0911
837.35571	3839.0911
837.96466	3871.0911
838.57355	3955.0911
839.17505	3990.0911
839.784	4061.0911
840.3855	4136.0908
840.99445	4273.0908
841.59595	4269.0908
842.2049	4423.0908
842.8064	4559.0908
843.41534	4609.0908
844.01685	4627.0908
844.62573	4784.0908
845.22723	4882.0908
845.83618	4975.0908
846.43768	4991.0908
847.04663	5156.0908
847.64813	5289.0908
848.25708	5296.0908
848.85858	5512.0908
849.46753	5489.0908
850.06903	5689.0908
850.67053	5907.0908
851.27942	5905.0908
851.88092	6134.0908
852.48987	6099.0908
853.09137	6314.0908
853.69287	6408.0908
854.30182	6623.0908
854.90332	6673.0908
855.51227	6795.0908
856.11377	7026.0908
856.71527	7094.0908
857.32422	7177.0908
857.92572	7312.0908
858.52722	7289.0908
859.12872	7597.0908
859.73767	7598.0908
860.33917	7643.0908
860.94067	7769.0908
861.54956	7849.5908
862.15106	7809.0908
862.75262	8035.0908
863.35413	8209.0908
863.96301	8343.0908
864.56451	8400.0908
865.16602	8510.0908
865.76758	8537.5908
866.36908	8537.5908
866.97797	8480.0908
867.57947	8578.0908
868.18097	8716.0908
868.78247	8820.5908
869.38403	8797.0908
869.98553	8807.0908
870.59442	8868.0908
871.19592	8844.0908
871.79742	8996.0908
872.39899	8965.0908
873.00049	8993.0908
873.60199	9030.0908
874.21088	9086.0908
874.81238	8982.0908
875.41388	8997.0908
876.01544	8916.0908
876.61694	8917.0908
877.21844	9000.0908
877.81995	8917.0908
878.42145	8991.0908
879.02295	8982.5908
879.62445	9034.0908
880.22595	8967.0908
880.82745	8953.0908
881.42896	8982.5908
882.03046	8982.5908
882.63196	8982.5908
883.23346	9007.0908
883.83496	8901.5908
884.43646	8852.0908
885.03796	8880.0908
885.63953	8759.0908
886.24103	8995.5908
886.84253	8828.0908
887.44403	8953.5908
888.04553	8870.5908
888.64703	8793.0908
889.24854	8801.0908
889.85004	8836.0908
890.44409	8786.0908
891.04559	8882.0908
891.64709	8935.0908
892.24866	8901.5908
892.85016	8956.0908
893.45166	8939.0908
894.05316	9063.5908
894.65466	9048.0908
895.24872	9104.0908
895.85022	9154.0908
896.45172	9144.5908
897.05322	9234.0908
897.64734	9306.0908
898.24884	9276.0908
898.85034	9346.5908
899.45184	9288.0908
900.05334	9504.0908
900.6474	9592.0908
901.2489	9569.0908
901.8504	9510.0908
902.45197	9699.0908
903.04602	9771.0908
903.64752	9784.0908
904.24902	9970.0908
904.84308	10009.091
905.44464	9852.0908
906.04614	9899.0908
906.64764	10089.091
907.2417	10161.591
907.8432	10203.091
908.4447	10203.091
909.03882	10328.091
909.64032	10439.091
910.23438	10520.091
910.83588	10494.591
911.43738	10578.091
912.03149	10681.591
912.633	10661.091
913.2345	10980.091
913.82855	11046.091
914.43005	11121.091
915.02411	11158.091
915.62567	11198.091
916.21973	11457.091
916.82123	11560.091
917.41528	11448.091
918.01678	11483.091
918.6109	11777.091
919.2124	11652.091
919.8139	11832.091
920.40796	12251.091
921.00208	12195.091
921.60358	12474.091
922.20508	12297.091
922.79913	12543.091
923.39325	12532.091
923.99475	12626.091
924.58881	12926.091
925.19031	12866.591
925.78442	13035.091
926.38593	13018.091
926.97998	13202.091
927.57404	13136.091
928.17554	13454.091
928.76965	13442.091
929.37115	13514.091
929.96521	13819.091
930.55933	13827.091
931.16083	13844.091
931.75488	13897.091
932.349	14209.091
932.9505	14154.091
933.54456	14242.091
934.13861	14550.091
934.74011	14614.091
935.33423	14721.091
935.92828	15003.091
936.52979	15098.091
937.1239	14795.091
937.71796	15299.091
938.31207	15172.091
938.91357	15361.091
939.50763	15468.091
940.10168	15670.091
940.6958	15457.091
941.28986	15676.091
941.89136	15782.091
942.48547	15786.091
943.07953	16148.091
943.67358	16163.091
944.27509	16224.591
944.8692	16242.091
945.46326	16407.092
946.05737	16444.092
946.65143	16315.091
947.24548	16501.092
947.84698	16834.092
948.4411	16635.092
949.03516	16882.092
949.62927	16823.092
950.22333	16952.092
950.81738	16815.092
951.4115	17236.092
952.00555	17236.092
952.59967	17426.092
953.19373	17357.092
953.78778	17397.592
954.3819	17559.592
954.97595	17640.592
955.57007	17721.592
956.16412	17762.092
956.75818	17598.092
957.35968	17727.092
957.9538	17806.092
958.54785	17865.092
959.14197	17853.092
959.73602	17837.092
960.33008	17883.092
960.91675	17883.092
961.51086	17988.092
962.10492	17745.092
962.69897	17964.092
963.29309	17842.592
963.88715	17838.092
964.48126	17802.592
965.07532	17720.092
965.66937	17721.592
966.26349	17466.092
966.85754	17636.092
967.4516	17584.092
968.03827	17684.092
968.63239	17509.092
969.22644	17589.592
969.8205	17630.092
970.41461	17590.092
971.00867	17355.092
971.59534	17294.092
972.18939	17402.092
972.78351	17338.092
973.37756	17346.592
973.97162	17158.592
974.56573	17116.592
975.1524	17054.092
975.74646	16790.092
976.34052	16605.092
976.93463	16797.092
977.52124	16618.092
978.11536	16540.092
978.70941	16433.092
979.30353	16355.091
979.89014	16386.092
980.48425	16275.091
981.07831	16424.092
981.66498	16146.091
982.25903	15953.091
982.85315	16143.591
983.43976	15941.091
984.03387	15820.091
984.62793	15739.091
985.2146	15779.591
985.80865	15739.091
986.39532	15376.091
986.98938	15428.091
987.5835	15065.091
988.17017	15031.091
988.76422	15174.091
989.35828	14584.091
989.94495	14968.091
990.539	14538.091
991.12567	14601.091
991.71979	14656.091
992.3064	14504.091
992.90051	14666.091
993.48712	14224.091
994.08124	14100.091
994.66791	13956.091
995.26196	14154.091
995.85602	13783.091
996.44269	13767.091
997.03674	13811.091
997.62341	13501.091
998.21753	13597.091
998.80414	13305.091
999.39081	13399.091
999.98486	13201.091
1000.5715	13493.091
1001.1656	13010.091
1001.7523	13232.091
1002.3464	12814.091
1002.933	12579.091
1003.5197	12358.091
1004.1138	12540.091
1004.7004	12419.091
1005.287	12281.091
1005.8811	12303.091
1006.4678	12164.091
1007.0618	11665.091
1007.6485	11788.091
1008.2352	11599.091
1008.8292	11838.091
1009.4159	11488.091
1010.0026	11494.091
1010.5966	11690.091
1011.1833	11519.091
1011.77	11172.091
1012.364	11040.091
1012.9507	11137.091
1013.5373	10738.091
1014.124	10891.091
1014.7106	10802.091
1015.3047	10667.091
1015.8914	10768.091
1016.478	10605.091
1017.0647	10465.091
1017.6588	10239.091
1018.2454	10368.091
1018.832	10153.091
1019.4187	10014.091
1020.0054	10068.091
1020.592	9622.0908
1021.1861	9736.0908
1021.7728	9708.0908
1022.3594	9659.0908
1022.946	9524.0908
1023.5327	9447.0908
1024.1268	9251.0908
1024.7134	9425.0908
1025.3	9174.0908
1025.8867	9080.0908
1026.4734	9116.0908
1027.0601	9174.0908
1027.6467	8761.0908
1028.2334	8862.0908
1028.8201	8855.0908
1029.4066	8573.0908
1029.9933	8621.0908
1030.58	8441.0908
1031.1666	8385.0908
1031.7533	8344.0908
1032.3474	8292.0908
1032.934	8175.0908
1033.5206	8138.0908
1034.0999	7911.0908
1034.6865	7783.0908
1035.2732	7921.0908
1035.8599	7707.0908
1036.4465	7564.0908
1037.0332	7560.0908
1037.6198	7375.0908
1038.2064	7174.0908
1038.7931	7383.0908
1039.3798	7307.0908
1039.9664	7066.0908
1040.5531	7055.0908
1041.1398	7023.0908
1041.7264	6920.0908
1042.313	6964.0908
1042.8997	6859.0908
1043.4789	6686.0908
1044.0656	6710.0908
1044.6522	6671.0908
1045.2389	6490.0908
1045.8256	6532.0908
1046.4122	6326.0908
1046.9988	6230.0908
1047.578	6199.0908
1048.1647	6088.0908
1048.7513	6147.0908
1049.338	6080.0908
1049.9247	6063.0908
1050.5039	5990.0908
1051.0906	5870.0908
1051.6772	5902.0908
1052.2639	5823.0908
1052.8431	6102.0908
1053.4297	5569.0908
1054.0164	5695.0908
1054.603	5441.0908
1055.1823	5517.0908
1055.7689	5478.0908
1056.3556	5421.0908
1056.9348	5284.0908
1057.5215	5345.0908
1058.1082	5279.0908
1058.6874	5162.0908
1059.274	5170.0908
1059.8606	5124.0908
1060.4398	5143.0908
1061.0265	5007.0908
1061.6132	4996.0908
1062.1924	4891.0908
1062.7791	4870.0908
1063.3583	4868.0908
1063.9449	4745.0908
1064.5316	4733.0908
1065.1108	4664.0908
1065.6975	4632.0908
1066.2767	4535.0908
1066.8634	4555.0908
1067.4426	4490.0908
1068.0293	4457.0908
1068.6158	4457.0908
1069.1951	4389.0908
1069.7743	4269.0908
1070.361	4284.0908
1070.9476	4278.0908
1071.5269	4187.0908
1072.1135	4232.0908
1072.6927	4195.0908
1073.2794	4119.0908
1073.8586	4131.0908
1074.4379	4021.0911
1075.0245	4068.0911
1075.6038	3897.0911
1076.1904	3894.0911
1076.7697	3868.0911
1077.3563	3871.0911
1077.9355	3860.0911
1078.5222	3780.0911
1079.1014	3752.0911
1079.6807	3836.0911
1080.2672	3707.0911
1080.8464	3682.0911
1081.4258	3692.0911
1082.0123	3620.0911
1082.5916	3560.0911
1083.1708	3558.0911
1083.7574	3535.0911
1084.3367	3503.0911
1084.9159	3486.0911
1085.5026	3447.0911
1086.0818	3434.0911
1086.661	3396.0911
1087.2477	3397.0911
1087.8269	3334.0911
1088.4061	3342.0911
1088.9928	3273.0911
1089.572	3278.0911
1090.1512	3263.0911
1090.7305	3181.0911
1091.3171	3181.0911
1091.8964	3156.0911
1092.4756	3151.0911
1093.0548	3101.0911
1093.634	3097.0911
1094.2207	3094.0911
1094.7999	3039.0911
1095.3792	3036.0911
1095.9584	3028.0911
1096.5376	3027.0911
1097.1243	2990.0911
1097.7035	2948.0911
1098.2827	2909.0911
1098.8619	2930.0911
1099.4412	2951.0911
1100.0204	2876.0911
1100.5996	2855.0911
1101.1788	2885.0911
1101.7655	2860.0911
1102.3373	2878.0911
1102.924	2846.0911
1103.5032	2821.0911
1104.0824	2735.0911
1104.6616	2705.0911
1105.2408	2682.0911
1105.8201	2706.0911
1106.3993	2676.0911
1106.9785	2661.0911
1107.5577	2677.0911
1108.137	2639.0911
1108.7162	2618.0911
1109.2954	2603.0911
1109.8746	2565.0911
1110.4539	2573.0911
1111.0332	2525.0911
1111.6124	2514.0911
1112.1917	2490.0911
1112.7709	2487.0911
1113.3501	2460.0911
1113.9293	2462.0911
1114.5085	2439.0911
1115.0878	2432.0911
1115.667	2427.0911
1116.2462	2406.0911
1116.8254	2406.0911
1117.3972	2377.0911
1117.9764	2393.0911
1118.5557	2365.0911
1119.1349	2363.0911
1119.7141	2350.5911
1120.2933	2357.5911
1120.8651	2330.0911
1121.4443	2301.0911
1122.0236	2308.5911
1122.6028	2294.0911
1123.182	2298.5911
1123.7612	2261.5911
1124.3331	2258.5911
1124.9124	2255.0911
1125.4916	2262.0911
1126.0708	2312.0911
1126.6426	2243.0911
1127.2218	2206.0911
1127.801	2219.0911
1128.3802	2198.5911
1128.952	2201.0911
1129.5313	2187.5911
1130.1105	2185.0911
1130.6897	2182.0911
1131.2616	2176.5911
1131.8408	2179.0911
1132.42	2146.5911
1132.9993	2144.5911
1133.571	2141.5911
1134.1503	2134.0911
1134.722	2138.0911
1135.3013	2127.5911
1135.8805	2114.5911
1136.4597	2123.0911
1137.0315	2120.0911
1137.6107	2103.0911
1138.1826	2089.5911
1138.7618	2080.5911
1139.3411	2089.5911
1139.9128	2069.5911
1140.4921	2072.0911
1141.0638	2065.5911
1141.6431	2066.0911
1142.2148	2055.0911
1142.7941	2065.5911
1143.3733	2053.0911
1143.9452	2051.5911
1144.5244	2044.0911
1145.0962	2037.0911
1145.6754	2027.0911
1146.2472	2026.0911
1146.8264	2050.0911
1147.3982	2029.5911
1147.9774	2031.5911
1148.5492	2022.0911
1149.1284	2010.5911
1149.7003	2007.5911
1150.2795	2017.5911
1150.8513	2021.0911
1151.4305	2026.0911
1152.0023	1997.5911
1152.5741	2010.5911
1153.1533	2010.0911
1153.7252	1996.0911
1154.3044	1974.0911
1154.8762	1990.5911
1155.448	1976.0911
1156.0272	1987.0911
1156.599	1985.0911
1157.1708	1963.5911
1157.75	1985.0911
1158.3219	1974.5911
1158.9011	1970.5911
1159.4729	1967.0911
1160.0447	1962.0911
1160.6239	1966.0911
1161.1957	1956.5911
1161.7675	1954.5911
1162.3394	1976.5911
1162.9186	1962.0911
1163.4904	1959.5911
1164.0621	1962.5911
1164.6339	1952.5911
1165.2131	1956.5911
1165.7849	1952.5911
1166.3568	1945.0911
1166.9286	1957.0911
1167.5078	1946.0911
1168.0796	1954.0911
1168.6514	1939.5911
1169.2231	1952.5911
1169.795	1949.0911
1170.3743	1945.0911
1170.946	1935.5911
1171.5178	1930.5911
1172.0896	1936.0911
1172.6614	1936.0911
1173.2333	1936.5911
1173.8125	1951.5911
1174.3843	1944.5911
1174.9561	1950.5911
1175.5278	1934.5911
1176.0996	1925.0911
1176.6715	1937.5911
1177.2433	1933.5911
1177.8151	1931.0911
1178.3943	1929.5911
1178.9661	1921.5911
1179.5378	1927.5911
1180.1097	1920.5911
1180.6815	1937.0911
1181.2533	1931.0911
1181.8251	1920.0911
1182.3969	1919.0911
1182.9688	1907.0911
1183.5405	1925.0911
1184.1123	1921.5911
1184.6841	1928.0911
1185.2559	1924.0911
1185.8278	1907.0911
1186.3995	1923.5911
1186.9713	1922.5911
1187.5431	1927.5911
1188.1149	1930.0911
1188.6868	1931.0911
1189.2585	1953.0911
1189.8303	1916.0911
1190.3947	1925.5911
1190.9666	1910.0911
1191.5383	1917.0911
1192.1101	1900.5911
1192.6819	1915.0911
1193.2537	1918.0911
1193.8256	1906.5911
1194.3973	1907.5911
1194.9691	1907.5911
1195.5334	1909.5911
1196.1052	1901.0911
1196.6771	1900.5911
1197.2489	1898.0911
1197.8207	1915.0911
1198.3925	1912.5911
1198.9569	1898.5911
1199.5287	1907.0911
1200.1005	1903.5911
1200.6722	1910.5911
1201.244	1901.5911
1201.8085	1889.0911
1202.3802	1892.0911
1202.952	1893.5911
1203.5238	1889.5911
1204.0883	1899.5911
1204.66	1885.0911
1205.2318	1886.5911
1205.7961	1910.0911
1206.368	1902.5911
1206.9398	1891.0911
1207.5116	1899.5911
1208.0759	1907.5911
1208.6478	1921.0911
1209.2196	1896.0911
1209.7839	1888.5911
1210.3557	1881.5911
1210.9276	1879.5911
1211.4919	1888.0911
1212.0637	1883.0911
1212.6355	1869.5911
1213.2	1873.0911
1213.7717	1879.5911
1214.3361	1880.0911
1214.9078	1884.5911
1215.4723	1889.5911
1216.0441	1868.5911
1216.6158	1891.0911
1217.1803	1881.5911
1217.7521	1903.0911
1218.3164	1874.0911
1218.8882	1870.0911
1219.4526	1890.0911
1220.0244	1881.0911
1220.5665	1903.0911
1221.1458	1897.0911
1221.725	1881.0911
1222.3042	1889.0911
1222.876	1876.0911
1223.4552	1875.0911
1224.0344	1902.0911
1224.6062	1887.0911
1225.1854	1880.0911
1225.7646	1910.0911
1226.3439	1897.0911
1226.9158	1903.0911
1227.495	1882.0911
1228.0742	1874.0911
1228.646	1878.0911
1229.2252	1907.0911
1229.8044	1891.0911
1230.3762	1883.0911
1230.9554	1883.0911
1231.5272	1868.0911
1232.1064	1895.0911
1232.6857	1881.0911
1233.2576	1891.0911
1233.8368	1895.0911
1234.4086	1894.0911
1234.9878	1882.0911
1235.567	1894.0911
1236.1388	1878.0911
1236.718	1881.0911
1237.2898	1885.0911
1237.869	1876.0911
1238.4482	1886.0911
1239.0201	1897.0911
1239.5994	1894.0911
1240.1711	1885.0911
1240.7429	1880.0911
1241.3221	1872.0911
1241.9014	1893.0911
1242.4731	1889.0911
1243.0524	1888.0911
1243.6241	1879.0911
1244.196	1871.0911
1244.7753	1867.0911
1245.347	1907.0911
1245.9263	1869.0911
1246.498	1860.0911
1247.0773	1897.0911
1247.649	1887.0911
1248.2283	1878.0911
1248.8	1884.0911
1249.3719	1868.0911
1249.9512	1899.0911
1250.5229	1881.0911
1251.1022	1896.0911
1251.674	1890.0911
1252.2457	1914.0911
1252.825	1899.0911
1253.3969	1875.0911
1253.9686	1895.0911
1254.5479	1898.0911
1255.1196	1880.0911
1255.6914	1869.0911
1256.2632	1913.0911
1256.8424	1885.0911
1257.4143	1891.0911
1257.9861	1895.0911
1258.5653	1886.0911
1259.1371	1904.0911
1259.7089	1901.0911
1260.2881	1906.0911
1260.8599	1889.0911
1261.4318	1873.0911
1262.0035	1877.0911
1262.5828	1873.0911
1263.1545	1893.0911
1263.7263	1882.0911
1264.2981	1892.0911
1264.87	1894.0911
1265.4418	1895.0911
1266.021	1902.0911
1266.5928	1894.0911
1267.1646	1867.0911
1267.7363	1865.0911
1268.3082	1889.0911
1268.8875	1896.0911
1269.4592	1886.0911
1270.031	1904.0911
1270.6028	1875.0911
1271.1746	1891.0911
1271.7465	1879.0911
1272.3182	1891.0911
1272.89	1880.0911
1273.4618	1888.0911
1274.0336	1878.0911
1274.6055	1882.0911
1275.1847	1895.0911
1275.7565	1892.0911
1276.3282	1893.0911
1276.9	1873.0911
1277.4718	1896.0911
1278.0437	1896.0911
1278.6155	1898.0911
1279.1873	1897.0911
1279.759	1878.0911
1280.3308	1907.0911
1280.9027	1885.0911
1281.4745	1888.0911
1282.0463	1885.0911
1282.618	1866.0911
1283.1898	1892.0911
1283.7617	1885.0911
1284.3335	1897.0911
1284.9053	1879.0911
1285.4771	1883.0911
1286.0488	1879.0911
1286.6133	1883.0911
1287.1851	1887.0911
1287.7568	1908.0911
1288.3286	1891.0911
1288.9005	1883.0911
1289.4723	1885.0911
1290.0441	1884.0911
1290.6158	1880.0911
1291.1876	1871.0911
1291.7521	1884.0911
1292.3239	1888.0911
1292.8956	1879.0911
1293.4674	1869.0911
1294.0392	1887.0911
1294.6111	1885.0911
1295.1754	1886.0911
1295.7472	1901.0911
1296.319	1904.0911
1296.8909	1890.0911
1297.4626	1884.0911
1298.027	1895.0911
1298.5988	1903.0911
1299.1707	1891.0911
1299.735	1922.0911
1300.3068	1903.0911
1300.8785	1918.0911
1301.4503	1933.0911
1302.0148	1893.0911
1302.5865	1870.0911
1303.1583	1894.0911
1303.7301	1893.0911
1304.2946	1911.0911
1304.8663	1877.0911
1305.4381	1887.0911
1306.0026	1896.0911
1306.5743	1886.0911
1307.1461	1870.0911
1307.7104	1880.0911
1308.2823	1902.0911
1308.8541	1892.0911
1309.4185	1878.0911
1309.9902	1915.0911
1310.5547	1898.0911
1311.1265	1884.0911
1311.6908	1891.0911
1312.2626	1873.0911
1312.8345	1876.0911
1313.3988	1908.0911
1313.9706	1878.0911
1314.5424	1868.0911
1315.1068	1900.0911
1315.6786	1920.0911
1316.2429	1894.0911
1316.8074	1876.0911
1317.3792	1886.0911
1317.9509	1899.0911
1318.5153	1892.0911
1319.0872	1895.0911
1319.6515	1890.0911
1320.2233	1888.0911
1320.7876	1885.0911
1321.3595	1885.0911
1321.9238	1881.0911
1322.4882	1899.0911
1323.0601	1891.0911
1323.6244	1902.0911
1324.1962	1903.0911
1324.7606	1910.0911
1325.3324	1903.0911
1325.8967	1884.0911
1326.4685	1888.0911
1327.033	1898.0911
1327.5973	1910.0911
1328.1691	1920.0911
1328.7335	1905.0911
1329.2979	1879.0911
1329.8696	1898.0911
1330.434	1916.0911
1330.9984	1911.0911
1331.5702	1885.0911
1332.1345	1901.0911
1332.699	1888.0911
1333.2708	1893.0911
1333.8351	1889.0911
1334.3995	1896.0911
1334.9713	1878.0911
1335.5356	1903.0911
1336.1001	1895.0911
1336.6644	1887.0911
1337.2362	1903.0911
1337.8007	1888.0911
1338.365	1863.0911
1338.9293	1878.0911
1339.5011	1870.0911
1340.0656	1899.0911
1340.6299	1898.0911
1341.1943	1896.0911
1341.7661	1894.0911
1342.3304	1897.0911
1342.8948	1898.0911
1343.4592	1909.0911
1344.0236	1913.0911
1344.588	1914.0911
1345.1598	1883.0911
1345.7241	1902.0911
1346.2885	1896.0911
1346.8529	1879.0911
1347.4172	1903.0911
1347.9817	1900.0911
1348.546	1889.0911
1349.1104	1907.0911
1349.6821	1907.0911
1350.2466	1907.0911
1350.8109	1899.0911
1351.3754	1896.0911
1351.9397	1906.0911
1352.504	1891.0911
1353.0685	1895.0911
1353.6328	1879.0911
1354.1971	1894.0911
1354.7616	1895.0911
1355.3259	1898.0911
1355.8903	1899.0911
1356.4547	1894.0911
1357.019	1879.0911
1357.5835	1890.0911
1358.1478	1890.0911
1358.7122	1893.0911
1359.2766	1881.0911
1359.8409	1879.0911
1360.4053	1895.0911
1360.9697	1916.0911
1361.5341	1917.0911
1362.0984	1914.0911
1362.6628	1879.0911
1363.2272	1936.0911
1363.7915	1901.0911
1364.356	1887.0911
1364.9203	1902.0911
1365.4847	1900.0911
1366.0416	1907.0911
1366.606	1900.0911
1367.1704	1906.0911
1367.7347	1922.0911
1368.2992	1905.0911
1368.8635	1891.0911
1369.4279	1924.0911
1369.9923	1901.0911
1370.5492	1892.0911
1371.1136	1898.0911
1371.678	1906.0911
1372.2423	1895.0911
1372.7993	1902.0911
1373.3636	1900.0911
1373.9281	1885.0911
1374.4924	1898.0911
1375.0568	1904.0911
1375.6212	1887.0911
1376.1781	1911.0911
1376.7424	1920.0911
1377.3069	1923.0911
1377.8638	1903.0911
1378.4282	1918.0911
1378.9926	1894.0911
1379.5569	1896.0911
1380.1139	1916.0911
1380.6782	1896.0911
1381.2427	1899.0911
1381.7996	1894.0911
1382.364	1904.0911
1382.9283	1907.0911
1383.4852	1905.0911
1384.0497	1897.0911
1384.614	1922.0911
1385.171	1889.0911
1385.7354	1896.0911
1386.2997	1892.0911
1386.8567	1906.0911
1387.421	1893.0911
1387.978	1886.0911
1388.5424	1892.0911
1389.1068	1902.0911
1389.6637	1908.0911
1390.228	1913.0911
1390.785	1898.0911
1391.3494	1909.0911
1391.9138	1911.0911
1392.4707	1923.0911
1393.0277	1907.0911
1393.592	1903.0911
1394.1565	1910.0911
1394.7134	1909.0911
1395.2777	1913.0911
1395.8347	1927.0911
1396.399	1933.0911
1396.9561	1917.0911
1397.5204	1904.0911
1398.0774	1913.0911
1398.6417	1901.0911
1399.1987	1902.0911
1399.7631	1905.0911
1400.3201	1897.0911
1400.877	1910.0911
1401.4413	1904.0911
1401.9983	1927.0911
1402.5626	1910.0911
1403.1196	1911.0911
1403.684	1919.0911
1404.241	1915.0911
1404.7979	1915.0911
1405.3623	1906.0911
1405.9192	1895.0911
1406.4835	1907.0911
1407.0405	1942.0911
1407.5975	1922.0911
1408.1544	1899.0911
1408.7188	1881.0911
1409.2758	1896.0911
1409.8326	1907.0911
1410.3971	1899.0911
1410.954	1899.0911
1411.511	1909.0911
1412.0753	1919.0911
1412.6323	1918.0911
1413.1892	1907.0911
1413.7462	1903.0911
1414.3105	1947.0911
1414.8676	1933.0911
1415.4244	1916.0911
1415.9889	1913.0911
1416.5458	1908.0911
1417.1028	1925.0911
1417.6597	1919.0911
1418.2167	1917.0911
1418.7736	1911.0911
1419.338	1902.0911
1419.8949	1919.0911
1420.4519	1895.0911
1421.0088	1922.0911
1421.5732	1911.0911
1422.1301	1921.0911
1422.6871	1915.0911
1423.244	1893.0911
1423.801	1906.0911
1424.3579	1913.0911
1424.9149	1929.0911
1425.4718	1926.0911
1426.0363	1937.0911
1426.5931	1921.0911
1427.1501	1908.0911
1427.707	1937.0911
1428.264	1919.0911
1428.8209	1925.0911
1429.3779	1906.0911
1429.9348	1898.0911
1430.4918	1912.0911
1431.0487	1942.0911
1431.6057	1930.0911
1432.1626	1917.0911
1432.7196	1935.0911
1433.2766	1924.0911
1433.8335	1910.0911
1434.3905	1930.0911
1434.9474	1922.0911
1435.5044	1931.0911
1436.0613	1926.0911
1436.6183	1917.0911
1437.1752	1904.0911
1437.7322	1924.0911
1438.2891	1916.0911
1438.8461	1922.0911
1439.403	1928.0911
1439.96	1919.0911
1440.5168	1930.0911
1441.0739	1934.0911
1441.6307	1931.0911
1442.1877	1919.0911
1442.7373	1910.0911
1443.3016	1950.0911
1443.8512	1925.0911
1444.4081	1928.0911
1444.9651	1919.0911
1445.522	1928.0911
1446.079	1929.0911
1446.6359	1899.0911
1447.1929	1916.0911
1447.7424	1917.0911
1448.2993	1930.0911
1448.8563	1922.0911
1449.4132	1922.0911
1449.9628	1921.0911
1450.5197	1909.0911
1451.0767	1919.0911
1451.6335	1922.0911
1452.1906	1922.0911
1452.7401	1919.0911
1453.297	1918.0911
1453.854	1893.0911
1454.4109	1911.0911
1454.9604	1914.0911
1455.5173	1939.0911
1456.0743	1929.0911
1456.6313	1905.0911
1457.1808	1915.0911
1457.7378	1921.0911
1458.2947	1919.0911
1458.8442	1930.0911
1459.4012	1907.0911
1459.9581	1906.0911
1460.5077	1921.0911
1461.0646	1928.0911
1461.6216	1927.0911
1462.171	1901.0911
1462.728	1931.0911
1463.285	1936.0911
1463.8345	1925.0911
1464.3915	1915.0911
1464.9409	1922.0911
1465.4979	1924.0911
1466.0549	1905.0911
1466.6044	1924.0911
1467.1614	1909.0911
1467.7108	1922.0911
1468.2678	1923.0911
1468.8174	1911.0911
1469.3743	1915.0911
1469.9238	1957.0911
1470.4807	1942.0911
1471.0377	1925.0911
1471.5873	1922.0911
1472.1442	1906.0911
1472.6937	1901.0911
1473.2506	1926.0911
1473.8002	1921.0911
1474.3572	1921.0911
1474.9066	1944.0911
1475.4562	1937.0911
1476.0132	1922.0911
1476.5626	1932.0911
1477.1196	1924.0911
1477.6691	1915.0911
1478.2261	1912.0911
1478.7756	1911.0911
1479.3251	1911.0911
1479.8821	1908.0911
1480.4316	1911.0911
1480.9885	1922.0911
1481.5381	1936.0911
1482.0875	1960.0911
1482.6445	1952.0911
1483.1941	1925.0911
1483.751	1919.0911
1484.3005	1937.0911
1484.8501	1927.0911
1485.407	1924.0911
1485.9565	1922.0911
1486.5061	1917.0911
1487.063	1931.0911
1487.6125	1919.0911
1488.162	1937.0911
1488.719	1932.0911
1489.2686	1926.0911
1489.818	1915.0911
1490.3676	1931.0911
1490.9246	1928.0911
1491.474	1927.0911
1492.0236	1922.0911
1492.5731	1927.0911
1493.13	1935.0911
1493.6796	1940.0911
1494.2291	1928.0911
1494.7786	1939.0911
1495.3356	1922.0911
1495.8851	1932.0911
1496.4346	1924.0911
1496.9841	1925.0911
1497.5337	1936.0911
1498.0831	1934.0911
1498.6401	1944.0911
1499.1897	1947.0911
1499.754	1917.0911
