50.65205	4250
51.318287	4291
51.991844	4383
52.665401	4413
53.338959	4659
54.01252	4503
54.686077	4445
55.366955	4499
56.033192	4435
56.706749	4528
57.38031	4553
58.053867	4639
58.727425	4701
59.400982	4677
60.074539	5015
60.748096	4967
61.421658	4763
62.095215	4904
62.768772	4686
63.442329	4833
64.115891	4704
64.789444	4742
65.463005	4673
66.136559	4678
66.81012	4801
67.476357	4833
68.149918	4961
68.823471	4870
69.497032	4856
70.170586	4803
70.836823	5022
71.510384	4854
72.183945	4939
72.857498	4964
73.531059	4880
74.197296	4824
74.87085	4799
75.544411	4973
76.217964	5018
76.884201	4990
77.557762	4944
78.231323	4734
78.904877	4903
79.571114	4730
80.244675	4757
80.910912	4742
81.584465	4791
82.258026	4861
82.931587	4831
83.597824	4794
84.271378	4956
84.944939	4813
85.611176	4741
86.284729	4751
86.950966	4723
87.624527	4736
88.290764	4808
88.964317	4694
89.637878	4777
90.304115	4680
90.977676	4821
91.643913	4790
92.317467	4844
92.983704	4808
93.657265	4649
94.323502	4624
94.997055	4680
95.663292	4773
96.336853	4790
97.00309	4719
97.676643	4612
98.34288	4627
99.016441	4699
99.682678	4702
100.34892	4720
101.02247	4585
101.68871	4659
102.36227	4659
103.0285	4592
103.69474	4481
104.3683	4470
105.03454	4588
105.70809	4567
106.37433	4672
107.04057	4651
107.7068	4632
108.38036	4584
109.0466	4452
109.71284	4424
110.38639	4460
111.05263	4517
111.71886	4517
112.39243	4612
113.05866	4437
113.7249	4410
114.39114	4331
115.05737	4377
115.72361	4466
116.39716	4575
117.0634	4431
117.72964	4390
118.39587	4369
119.06944	4392
119.73567	4340
120.40191	4343
121.06815	4360
121.73438	4412
122.40062	4339
123.06686	4295
123.73309	4303
124.39933	4335
125.07288	4329
125.73912	4189
126.40536	4216
127.07159	4310
127.73783	4325
128.40407	4269
129.0703	4231
129.73654	4084
130.40277	4226
131.06902	4084
131.73524	4073
132.40149	4015
133.06772	4166
133.73396	4158
134.40019	4177
135.06644	4129
135.73267	4192
136.39891	4051
137.05783	4094
137.72406	4098
138.3903	4070
139.05653	4148
139.72276	4084
140.38901	4171
141.05524	3944
141.72148	4003
142.38771	3983
143.04663	3941
143.71288	3962
144.3791	4031
145.04535	4054
145.71158	3903
146.3705	4002
147.03673	3905
147.70297	3957
148.3692	3883
149.02812	3869
149.69435	3993
150.3606	3911
151.02682	3895
151.69307	3876
152.35199	3808
153.01822	3827
153.68445	3836
154.34337	3828
155.00961	3713
155.66852	3782
156.33476	3843
157.00099	3771
157.66724	3792
158.32614	3754
158.99239	3755
159.65862	3803
160.31754	3872
160.98378	3729
161.64268	3761
162.30893	3733
162.96783	3742
163.63408	3749
164.293	3715
164.95923	3652
165.62547	3692
166.28438	3729
166.95062	3673
167.60953	3635
168.27577	3684
168.93469	3695
169.60092	3671
170.25984	3657
170.92607	3649
171.58499	3644
172.24391	3714
172.91014	3745
173.56906	3602
174.23529	3682
174.89421	3596
175.56044	3723
176.21936	3588
176.87828	3640
177.54451	3573
178.20343	3577
178.86966	3617
179.52858	3611
180.1875	3585
180.84642	3581
181.51265	3564
182.17157	3600
182.83047	3577
183.49672	3606
184.15564	3552
184.81454	3600
185.47346	3531
186.13969	3619
186.79861	3588
187.45753	3733
188.12376	3513
188.78268	3442
189.4416	3493
190.10051	3588
190.75943	3559
191.41835	3476
192.08458	3656
192.7435	3483
193.4024	3522
194.06133	3562
194.72025	3513
195.37917	3547
196.04539	3464
196.70432	3536
197.36322	3527
198.02214	3592
198.68106	3542
199.33997	3494
199.99889	3486
200.65781	3529
201.31671	3571
201.97563	3463
202.63455	3514
203.29346	3583
203.95238	3476
204.6113	3498
205.27022	3582
205.92912	3622
206.58804	3445
207.24696	3445
207.90587	3507
208.56479	3504
209.22371	3504
209.88261	3505
210.54153	3506
211.20045	3560
211.85936	3535
212.51828	3544
213.1772	3543
213.83611	3557
214.4877	3529
215.14662	3580
215.80554	3608
216.46445	3627
217.12337	3521
217.77496	3558
218.43388	3556
219.09279	3534
219.75171	3603
220.41063	3608
221.06953	3576
221.72113	3537
222.38005	3583
223.03896	3572
223.69788	3695
224.34947	3589
225.00839	3654
225.6673	3671
226.31889	3555
226.97781	3556
227.63673	3680
228.28831	3643
228.94724	3692
229.60616	3624
230.26508	3686
230.91666	3651
231.57558	3651
232.2345	3715
232.88609	3737
233.545	3760
234.19659	3644
234.85551	3754
235.50711	3707
236.16602	3713
236.82494	3690
237.47653	3792
238.13545	3709
238.78705	3750
239.44595	3797
240.09755	3740
240.75647	3778
241.41537	3826
242.06697	3767
242.71857	3870
243.37749	3710
244.02908	3795
244.68799	3782
245.33958	3944
245.9985	3817
246.6501	3859
247.30902	3804
247.9606	3829
248.6122	3924
249.27112	3858
249.92271	3827
250.58162	3803
251.23322	3891
251.88481	3896
252.54373	3820
253.19533	3875
253.84692	3938
254.50583	3840
255.15742	3896
255.80902	3987
256.46793	3846
257.11954	4011
257.77112	3889
258.43005	3872
259.08163	4028
259.73322	4021
260.38483	3987
261.03641	4006
261.69534	3900
262.34692	4217
262.99854	4011
263.65012	4070
264.30902	4070
264.96063	4119
265.61221	4152
266.26382	4072
266.91541	4171
267.56702	4205
268.22592	4209
268.8775	4074
269.52911	4181
270.18069	4151
270.83231	4229
271.48389	4303
272.13547	4192
272.78708	4217
273.44598	4190
274.0976	4392
274.74918	4367
275.40079	4329
276.05237	4357
276.70395	4317
277.35556	4428
278.00714	4336
278.65875	4395
279.31033	4379
279.96194	4435
280.61353	4434
281.26511	4377
281.91672	4484
282.5683	4378
283.21259	4340
283.86417	4310
284.51578	4393
285.16736	4452
285.81897	4538
286.47055	4538
287.12216	4570
287.77374	4501
288.42532	4469
289.07693	4477
289.72119	4562
290.3728	4666
291.02438	4662
291.67599	4551
292.32758	4526
292.97919	4597
293.62344	4732
294.27502	4611
294.92664	4760
295.57822	4795
296.2225	4729
296.87408	4814
297.5257	4714
298.17728	4685
298.82156	4762
299.47314	4852
300.12476	4818
300.77634	4886
301.42062	4856
302.0722	4849
302.72379	4899
303.36807	4772
304.01965	4869
304.66394	5054
305.31552	4954
305.96713	4989
306.61871	5051
307.263	4883
307.91458	4939
308.55887	4944
309.21045	5068
309.85474	4936
310.50632	4992
311.15793	5075
311.80219	5136
312.4538	5010
313.09805	5039
313.74966	5170
314.39392	5022
315.04553	5045
315.68979	5190
316.34137	5142
316.98566	5131
317.63724	5107
318.28152	5257
318.93311	5419
319.57739	5190
320.22897	5194
320.87326	5365
321.51752	5283
322.16913	5208
322.81339	5289
323.465	5297
324.10925	5408
324.75354	5452
325.40512	5468
326.04941	5426
326.70099	5411
327.34528	5346
327.98953	5511
328.63382	5545
329.2854	5484
329.92969	5486
330.57394	5645
331.22556	5533
331.86981	5634
332.5141	5760
333.15836	5639
333.80997	5655
334.45422	5732
335.09851	5819
335.74277	5847
336.39438	5702
337.03864	5826
337.68292	5889
338.32721	5861
338.97147	5827
339.62305	5883
340.26733	5805
340.91162	6008
341.55588	6058
342.20016	6004
342.84442	5937
343.48871	5919
344.13297	6027
344.78458	5973
345.42883	5973
346.07312	6071
346.71738	5988
347.36166	6118
348.00592	6122
348.65021	6100
349.29446	6116
349.93875	6208
350.58301	6207
351.22729	6315
351.87158	6256
352.51584	6310
353.16013	6322
353.80438	6462
354.44867	6408
355.09293	6492
355.73721	6458
356.38147	6398
357.02576	6591
357.67001	6408
358.3143	6512
358.95856	6510
359.60284	6714
360.2471	6698
360.89139	6647
361.52835	6612
362.17261	6727
362.81689	6771
363.46115	6817
364.10544	6790
364.74969	7003
365.39398	6791
366.03091	6841
366.6752	6937
367.31946	7021
367.96375	7003
368.60071	6918
369.24496	7127
369.88925	7116
370.53351	7201
371.17047	7208
371.81473	7299
372.45901	7272
373.10327	7466
373.74023	7296
374.38452	7297
375.02878	7392
375.66574	7363
376.31	7317
376.95428	7293
377.59122	7403
378.2355	7612
378.87979	7506
379.51672	7475
380.16101	7722
380.80527	7732
381.44223	7522
382.08649	7646
382.73077	7704
383.36774	7718
384.00467	7665
384.64896	7818
385.29321	7735
385.93018	7965
386.57443	7799
387.2114	7781
387.85568	8027
388.49261	7963
389.1369	8067
389.77383	7718
390.41812	8054
391.05508	8117
391.69934	7989
392.3363	8110
392.98056	8136
393.61752	8360
394.26178	8298
394.89874	8319
395.53571	8374
396.17996	8102
396.81693	8360
397.46118	8303
398.09814	8765
398.73511	8433
399.37204	8464
400.01633	8485
400.65326	8435
401.29755	8583
401.93451	8415
402.57144	8539
403.21573	8535
403.85266	8796
404.48962	8736
405.13391	8798
405.77084	8742
406.40781	8699
407.04474	8788
407.68903	8842
408.32599	8977
408.96292	8906
409.59988	9024
410.23682	9162
410.8811	8960
411.51807	9004
412.155	9097
412.79196	9276
413.42889	9278
414.07318	9236
414.71014	9242
415.34708	9225
415.98404	9271
416.621	9320
417.25793	9371
417.8949	9314
418.53915	9410
419.17612	9606
419.81308	9472
420.45001	9728
421.08698	9643
421.72391	9653
422.36087	9738
422.99783	9819
423.63477	9597
424.27173	9674
424.90869	10030
425.54562	9669
426.18259	10093
426.81952	9937
427.45648	9837
428.09344	10180
428.73038	10104
429.36734	10028
430.0043	10243
430.64124	10166
431.2782	10103
431.90784	10201
432.54477	10332
433.18173	10422
433.8187	10446
434.45563	10516
435.09259	10482
435.72952	10516
436.36649	10540
437.00345	10836
437.63306	10541
438.27002	10607
438.90698	10786
439.54391	10969.733
440.18088	11188
440.81052	10836
441.44745	11093
442.08441	10779
442.72134	10844
443.35831	11207
443.98795	11234
444.62488	11142
445.26184	10765
445.8988	11237
446.52841	11214
447.16537	11037
447.80234	11332
448.43195	11295
449.06891	10927
449.70587	11119
450.3428	11220
450.97244	11197
451.60941	11436
452.23901	11388
452.87598	11332
453.51294	11546
454.14255	11516
454.77951	11286
455.41647	11505
456.04608	11438
456.68304	11676
457.31268	11574
457.94962	11570
458.58658	11635
459.21622	11419
459.84583	11458
460.48279	11514
461.11975	11523
461.74936	11742
462.379	11460
463.01596	11540
463.65289	11488
464.28253	11577
464.91217	11538
465.5491	11610
466.17874	11450
466.8157	11772
467.44534	11667
468.08228	11574
468.71191	11708
469.34155	11493
469.97849	11685
470.60812	11385
471.24509	11685
471.87469	11773
472.50433	11361
473.1413	11589
473.7709	11489
474.40054	11375
475.03751	11588
475.66711	11366
476.29675	11525
476.93372	11491
477.56335	11413
478.19296	11580
478.82993	11405
479.45956	11737
480.08917	11556
480.71881	11260
481.35577	11104
481.98538	11668
482.61502	11659
483.24466	11370
483.88162	11424
484.51123	11522
485.14087	11538
485.77051	11582
486.40012	11488
487.02975	11709
487.66672	11797
488.29636	11547
488.92596	11573
489.5556	11389
490.18524	11636
490.81485	11687
491.44449	11670
492.07413	11445
492.71106	11477
493.3407	11276
493.97034	11107
494.59998	11240
495.22958	11372
495.85922	11250
496.48886	11167
497.1185	10971
497.74811	10812
498.37775	11006
499.00739	10676
499.63699	10814
500.26663	10731
500.89627	10149
501.52591	10418
502.15552	10316
502.78516	10159
503.41479	10145
504.04443	9905
504.67404	9843
505.30368	9613
505.92599	9373
506.55563	9458
507.18524	9255
507.81488	9132
508.44452	8947
509.07413	8893
509.70377	8710
510.3334	8469
510.96304	8419
511.58533	8371
512.21497	8260
512.8446	8002
513.47424	7953
514.10388	7765
514.7262	7550
515.35577	7678
515.98541	7498
516.61505	7119
517.23737	7175
517.867	7045
518.49664	6765
519.12628	6769
519.7486	6745
520.37817	6445
521.00781	6485
521.63745	6507
522.25977	6268
522.8894	5950
523.51904	5882
524.14136	5939
524.771	5984
525.40057	5706
526.02289	5623
526.65253	5531
527.27484	5308
527.90448	5173
528.53412	5370
529.15643	5111
529.78607	5177
530.40839	5077
531.03796	5102
531.66028	4848
532.28992	4787
532.91956	4733
533.54187	4665
534.17151	4510
534.79382	4509
535.42346	4391
536.04572	4266
536.67535	4352
537.29767	4242
537.92731	4117
538.54962	4093
539.17926	4009
539.80157	4113
540.42389	3938
541.05353	3938
541.67578	3996
542.30542	3962
542.92773	3886
543.55005	3772
544.17969	3729
544.802	3782
545.43164	3593
546.05396	3578
546.67627	3578
547.30585	3592
547.92816	3541
548.55048	3434
549.18011	3335
549.80243	3411
550.42474	3371
551.04706	3392
551.6767	3327
552.29901	3251
552.92133	3218
553.5509	3234
554.17322	3257
554.79553	3192
555.41785	3206
556.04749	3233
556.6698	3200
557.29211	3165
557.91443	3065
558.53674	3059
559.16638	3027
559.78864	3024
560.41095	3075
561.03326	3042
561.65558	3025
562.27789	2987
562.90753	2995
563.52985	2949
564.15216	2987
564.77448	2963
565.39679	2910
566.0191	2933
566.64136	2821
567.26367	2915
567.88599	2885
568.5083	2891
569.13062	2819
569.76025	2859
570.37524	2887
571.00488	2826
571.61987	2862
572.24219	2769
572.87177	2805
573.48676	2786
574.11639	2855
574.73138	2797
575.3537	2742
575.97601	2750
576.59833	2777
577.22064	2714
577.84296	2739
578.46527	2737
579.08759	2723
579.7099	2715
580.33215	2616
580.95447	2630
581.56946	2630
582.1991	2707
582.81409	2625
583.4364	2647
584.05872	2554
584.68103	2638
585.30334	2576
585.91833	2603
586.54065	2561
587.16296	2492
587.78522	2510
588.40753	2507
589.02252	2560
589.64484	2479
590.26715	2486
590.88947	2421
591.51178	2449
592.12677	2459
592.74908	2443
593.36407	2414
593.98639	2414
594.6087	2402
595.23102	2386
595.84601	2357
596.46826	2364
597.09058	2353
597.70557	2315
598.32788	2312
598.9502	2258
599.56519	2310
600.1875	2300
600.80249	2292
601.4248	2236
602.04712	2272
602.66211	2221
603.28442	2201
603.90674	2150
604.52167	2242
605.14398	2167
605.75897	2101
606.38129	2075
606.99628	2034
607.61859	2042
608.23358	2052
608.8559	2061
609.47089	2024.25
610.0932	2006.25
610.70819	2060.25
611.33051	2017.25
611.9455	1917.5
612.56049	1911.25
613.1828	1843
613.79779	1892.5
614.42004	1873.75
615.03503	1801.75
615.65735	1801
616.27234	1813.5
616.89465	1801
617.50964	1743
618.12463	1747.5
618.74695	1741.5
619.36194	1679.25
619.97693	1734.25
620.59924	1702.25
621.21423	1627.5
621.82922	1661.5
622.45154	1636.5
623.06653	1611.25
623.68152	1602.5
624.30383	1632.75
624.91876	1583.5
625.53375	1555.25
626.14874	1557
626.77106	1538.75
627.38605	1504
628.00104	1487.75
628.61603	1525
629.23834	1467
629.85333	1451.5
630.46832	1464
631.08331	1426
631.6983	1430.25
632.32062	1441.25
632.93561	1424
633.5506	1394.5
634.16559	1395.5
634.78058	1406.25
635.39557	1366
636.01056	1371.75
636.63281	1379.25
637.2478	1350.25
637.86279	1343.5
638.47778	1357.25
639.09277	1329.5
639.70776	1337
640.32275	1310.75
640.93774	1297.25
641.55273	1316.5
642.16772	1287.5
642.79004	1280
643.39771	1273.5
644.02002	1268.5
644.63501	1272.5
645.24268	1262.75
645.86499	1256.5
646.47266	1239.75
647.08765	1238.75
647.70264	1235.75
648.31763	1212.5
648.93262	1219
649.54761	1196.75
650.1626	1203
650.77759	1200
651.39252	1191
652.00751	1180.25
652.6225	1161
653.23749	1173.75
653.85248	1159.75
654.46747	1165.25
655.07513	1154.75
655.69012	1166
656.30511	1135
656.9201	1160.5
657.5351	1121.25
658.15009	1146.25
658.76508	1126.75
659.37274	1124
659.98773	1116.75
660.60272	1087
661.21771	1097.75
661.82538	1099.25
662.44037	1092.5
663.05536	1094
663.67035	1081.75
664.28534	1083.5
664.89301	1061.25
665.508	1061
666.12299	1060.25
666.73065	1061.25
667.34564	1046.25
667.96063	1056.25
668.5683	1036.5
669.18329	1050.75
669.79828	1038
670.40594	1029.5
671.02094	1020.5
671.63586	1028
672.24353	998.25
672.85852	1011
673.47351	994.5
674.08118	986.5
674.69617	976.5
675.31116	968
675.91882	978.5
676.53381	970.25
677.14148	972.5
677.75647	958.25
678.36414	983.25
678.97913	956.5
679.58679	948
680.20178	937.25
680.80945	942.25
681.42444	951.25
682.0321	913.75
682.64709	936.25
683.26208	919
683.73798	909
684.35297	912
684.97528	904
685.5976	913
686.21991	913
686.84222	904
687.45715	906
688.07947	898
688.70178	896
689.31677	884
689.93909	865
690.5614	871
691.18372	870
691.79871	865
692.42102	880
693.04333	858
693.65833	864
694.28064	864
694.90295	844
695.51794	845
696.1402	833
696.76251	841
697.3775	832
697.99982	840
698.62213	819
699.23712	809
699.85944	839
700.47443	836
701.09674	812
701.71173	813
702.33405	821
702.95636	809
703.57135	809
704.19366	799
704.80859	803
705.43091	792
706.0459	789
706.66821	794
707.2832	786
707.90552	789
708.52051	792
709.14282	785
709.75781	788
710.38013	758
710.99512	760
711.61011	766
712.23242	763
712.84741	746
713.46973	768
714.08472	769
714.69965	755
715.32196	743
715.93695	752
716.55194	753
717.17426	733
717.78925	743
718.41156	743
719.02655	732
719.64154	742
720.26385	725
720.87885	714
721.49384	723
722.10883	728
722.73114	723
723.34613	725
723.96112	725
724.58344	734
725.19836	724
725.81335	714
726.42834	714
727.05066	717
727.66565	699
728.28064	718
728.89563	715
729.51794	704
730.13293	689
730.74792	713
731.36292	712
731.97791	708
732.5929	706
733.20789	708
733.8302	707
734.44519	713
735.06018	695
735.67517	682
736.29016	694
736.90515	698
737.52014	684
738.13507	693
738.75006	688
739.36505	685
739.98737	676
740.59503	676
741.21735	674
741.83234	687
742.44733	686
743.06232	688
743.67731	675
744.2923	673
744.90729	671
745.52228	687
746.13727	687
746.75226	676
747.36725	677
747.97491	680
748.59723	692
749.2049	695
749.81989	668
750.43488	674
751.04987	680
751.66486	677
752.27985	695
752.89478	668
753.50977	679
754.12476	688
754.73975	667
755.34741	680
755.9624	692
756.57739	694
757.19238	696
757.80737	690
758.41504	701
759.03003	690
759.64502	706
760.26001	698
760.875	696
761.48267	697
762.09766	710
762.71265	706
763.32764	708
763.9353	713
764.55029	716
765.16528	715
765.78027	713
766.38794	730
767.00293	709
767.61792	724
768.22559	720
768.84058	730
769.45557	714
770.06323	724
770.67822	739
771.29321	724
771.90088	730
772.51587	741
773.12354	741
773.73853	738
774.35345	756
774.96112	753
775.57611	736
776.18378	765
776.79877	761
777.41376	750
778.02142	763
778.63641	759
779.24408	763
779.85907	760
780.46674	782
781.08173	777
781.68939	776
782.30438	796
782.91205	796
783.52704	795
784.1347	785
784.74969	788
785.35736	778
785.97235	795
786.58002	782
787.18768	787
787.80267	798
788.41034	775
789.02533	792
789.633	795
790.24066	797
790.85565	803
791.46332	800
792.07831	805
792.68597	793
793.29364	806
793.90863	801
794.5163	796
795.12396	787
795.73895	800
796.34662	788
796.95428	795
797.56927	799
798.17694	796
798.78461	793
799.39227	766
799.99994	803
800.61493	770
801.2226	794
801.83026	788
802.44525	772
803.05292	771
803.66058	760
804.26825	781
804.87592	758
805.49091	754
806.09857	759
806.70624	749
807.3139	759
807.92157	754
808.53656	750
809.14423	756
809.75189	750
810.35956	746
810.96722	746
811.57489	740
812.18256	729
812.79022	729
813.39789	740
814.00555	720
814.62054	724
815.22089	708
815.82855	714
816.44354	714
817.05121	696
817.65887	702
818.26654	713
818.87421	697
819.48187	684
820.08221	682
820.6972	691
821.30487	678
821.90521	668
822.51288	674
823.12787	660
823.72821	645
824.33588	644
824.94354	648
825.55121	635
826.15887	635
826.76654	634
827.37421	630
827.98187	614
828.58954	613
829.18988	598
829.80487	596
830.40521	590
831.01288	583
831.62054	588
832.22821	578
832.83588	574
833.43622	566
834.04388	556
834.65155	557
835.25922	552
835.85956	542
836.46722	527
837.07489	540
837.68256	523
838.2829	518
838.89056	504
839.49823	506
840.1059	505
840.70624	495
841.3139	486
841.92157	475
842.52924	468
843.12964	466
843.7373	455
844.34497	469
844.94531	459
845.55298	446
846.15332	446
846.76099	439
847.36865	446
847.96899	428
848.57666	428
849.18433	423
849.78467	416
850.39233	416
850.99268	406
851.60034	404
852.20801	408
852.80835	401
853.41602	392
854.01636	394
854.62402	389
855.22437	388
855.83203	384
856.43237	384
857.04004	379
857.64038	375
858.24805	376
858.84839	382
859.45605	370
860.0564	378
860.66406	376
861.2644	366
861.87207	369
862.47241	375
863.07275	364
863.68042	372
864.28082	364
864.88849	374
865.48883	368
866.08917	370
866.69684	370
867.29718	372
867.89752	374
868.50519	379
869.10553	379
869.70587	377
870.31354	383
870.91388	390
871.51422	390
872.12189	397
872.72223	390
873.32257	381
873.92291	396
874.53058	396
875.13092	394
875.73126	400
876.3316	402
876.93927	402
877.53961	399
878.13995	393
878.74036	411
879.34802	409
879.94836	420
880.54871	420
881.14905	419
881.74939	425
882.35706	428
882.9574	415
883.55774	431
884.15808	432
884.75842	437
885.35876	440
885.95911	445
886.55945	454
887.15979	452
887.76746	448
888.3678	450
888.96814	460
889.56848	470
890.16882	467
890.76917	466
891.36957	480
891.96991	485
892.57025	476
893.17059	497
893.77094	501
894.37128	496
894.97162	494
895.57196	500
896.1723	507
896.77264	518
897.37299	525
897.97333	520
898.57367	522
899.17401	517
899.76703	530
900.36737	536
900.96771	536
901.56805	543
902.16846	561
902.7688	563
903.36914	558
903.96948	564
904.56982	571
905.16284	581
905.76318	582
906.36353	592
906.96387	585
907.56421	590
908.16455	605
908.76489	601
909.35791	621
909.95825	608
910.55859	623
911.15894	633
911.75201	629
912.35236	623
912.9527	645
913.55304	650
914.14606	646
914.7464	653
915.34674	653
915.94708	681
916.5401	673
917.14044	686
917.74078	667
918.3338	685
918.93414	702
919.53448	697
920.12756	702
920.72791	707
921.32092	722
921.92126	728
922.52161	720
923.11462	736
923.71497	737
924.31531	752
924.90833	750
925.50867	754
926.10901	753
926.70203	762
927.30237	767
927.89539	774
928.49579	763
929.08881	771
929.68915	792
930.28217	797
930.88251	814
931.47552	806
932.07587	802
932.66888	796
933.26923	817
933.86224	827
934.46259	860
935.0556	858
935.65594	837
936.24902	846
936.84204	842
937.44238	836
938.0354	872
938.63574	865
939.22876	878
939.82178	887
940.42212	880
941.01514	891
941.61548	884
942.2085	884
942.80157	888
943.40192	898
943.99493	884
944.58795	933
945.18829	927
945.78131	914
946.37433	929
946.96735	933
947.56769	921
948.16071	937
948.75372	961
949.35406	932
949.94714	948
950.54016	962
951.13318	947
951.73352	994
952.32654	985
952.91956	980
953.51257	1001
954.11292	1006
954.70593	1006
955.29895	995
955.89203	1012
956.48505	1021
957.07806	1029
957.67108	1040
958.27142	1035
958.86444	1045
959.45746	1055
960.05048	1043
960.64349	1062
961.23651	1059
961.82953	1050
962.42261	1090
963.01563	1082
963.61597	1102
964.20898	1098
964.802	1101
965.39502	1088
965.98804	1109
966.58105	1106
967.17407	1147
967.76709	1142
968.36017	1134
968.95319	1163
969.5462	1166
970.13922	1166
970.73224	1181
971.32526	1172
971.91827	1174
972.51129	1190
973.10431	1199
973.69739	1219
974.29041	1190
974.8761	1221
975.46912	1222
976.06213	1232
976.65515	1234
977.24817	1236
977.84119	1262
978.4342	1288
979.02722	1307
979.6203	1277
980.20599	1305
980.79901	1285
981.39203	1305
981.98505	1324
982.57806	1340
983.16376	1322
983.75677	1322
984.34985	1338
984.94287	1370
985.53589	1360
986.12158	1392
986.7146	1393
987.30762	1388
987.90063	1382
988.48633	1402
989.07935	1430
989.67242	1414
990.26544	1441
990.85114	1454
991.44415	1453
992.03717	1457
992.62286	1449
993.21588	1456
993.8089	1471
994.39459	1479
994.98767	1511
995.58069	1529
996.16638	1528
996.7594	1533
997.35242	1559
997.93811	1537
998.53113	1554
999.11682	1556
999.7099	1570
1000.3029	1559
1000.8886	1581
1001.4816	1589
1002.0673	1604
1002.6603	1596
1003.246	1616
1003.8391	1633
1004.4248	1678
1005.0178	1629
1005.6035	1626
1006.1965	1656
1006.7822	1670
1007.3752	1661
1007.9609	1704
1008.554	1680
1009.1397	1708
1009.7327	1749
1010.3184	1711
1010.9114	1716
1011.4971	1740
1012.0901	1766
1012.6758	1729
1013.2616	1762
1013.8546	1726
1014.4403	1770
1015.0333	1785
1015.619	1766
1016.2047	1854
1016.7904	1774
1017.3834	1784
1017.9692	1866
1018.5622	1794
1019.1479	1816
1019.7336	1826
1020.3266	1866
1020.9123	1845
1021.498	1852
1022.0837	1877
1022.6768	1920
1023.2625	1834
1023.8481	1877
1024.4338	1868
1025.0269	1866
1025.6125	1930
1026.1982	1825
1026.7839	1875
1027.377	1894
1027.9626	1902
1028.5485	1928
1029.1342	1929
1029.7272	1910
1030.3129	1906
1030.8986	1904
1031.4843	1935
1032.0699	1950
1032.6556	1952
1033.2413	1954
1033.8344	1956
1034.42	1961
1035.0057	1961
1035.5914	1937
1036.1771	1942
1036.7629	1953
1037.3486	1946
1037.9343	1966
1038.52	1963
1039.1057	1965
1039.6914	1961
1040.2844	1974
1040.8701	1971
1041.4485	1952
1042.0415	1978
1042.6272	1964
1043.2056	1944
1043.7986	1914
1044.3843	1918
1044.9701	1949
1045.5485	1913
1046.1415	1898
1046.7198	1903
1047.3055	1908
1047.8912	1882
1048.4769	1875
1049.0626	1870
1049.6483	1909
1050.234	1912
1050.8197	1856
1051.4054	1863
1051.9912	1835
1052.5769	1849
1053.1626	1839
1053.741	1847
1054.3267	1827
1054.9124	1798
1055.498	1816
1056.0837	1760
1056.6694	1793
1057.2478	1776
1057.8335	1781
1058.4192	1767
1059.0049	1715
1059.5907	1739
1060.1691	1712
1060.7548	1720
1061.3405	1674
1061.9261	1687
1062.5045	1703
1063.0902	1653
1063.6759	1666
1064.2616	1639
1064.84	1627
1065.4257	1583
1066.0114	1637
1066.5898	1563
1067.1755	1564
1067.7612	1561
1068.3396	1542
1068.9253	1528
1069.511	1507
1070.0894	1490
1070.675	1514
1071.2607	1497
1071.8391	1481
1072.4248	1467
1073.0032	1455
1073.589	1434
1074.1747	1445
1074.7531	1443
1075.3387	1400
1075.9171	1380
1076.5028	1363
1077.0812	1350
1077.6669	1344
1078.2452	1360
1078.8309	1313
1079.4093	1363
1079.995	1324
1080.5808	1303
1081.1592	1293
1081.7449	1257
1082.3232	1275
1082.9089	1266
1083.4873	1240
1084.0657	1244
1084.6514	1258
1085.2297	1198
1085.8154	1201
1086.3938	1212
1086.9796	1216
1087.558	1220
1088.1437	1200
1088.722	1180
1089.3004	1162
1089.8788	1145
1090.4645	1151
1091.0428	1144
1091.6285	1146
1092.2069	1118
1092.7853	1111
1093.3711	1110
1093.9495	1106
1094.5278	1105
1095.1135	1082
1095.6919	1080
1096.2703	1060
1096.8486	1072
1097.4343	1060
1098.0127	1022
1098.5911	1036
1099.1768	1021
1099.7552	1040
1100.3336	1031
1100.912	988
1101.4904	1007
1102.076	1000
1102.6544	996
1103.2328	1017
1103.8112	1014
1104.3969	973
1104.9752	980
1105.5537	994
1106.1321	984
1106.7104	938
1107.2888	955
1107.8745	960
1108.4456	934
1109.0313	968
1109.6096	938
1110.188	928
1110.7664	908
1111.3447	908
1111.9232	918
1112.5016	896
1113.08	924
1113.6583	901
1114.2367	902
1114.8151	886
1115.3934	886
1115.9791	895
1116.5502	877
1117.1359	873
1117.707	864
1118.2927	874
1118.8638	860
1119.4421	844
1120.0278	862.25
1120.5989	854.5
1121.1846	854.5
1121.7556	853
1122.334	840.75
1122.9124	845.75
1123.4908	814
1124.0692	826.5
1124.6476	824
1125.226	833.25
1125.8043	820
1126.3827	828.25
1126.9611	798.25
1127.5321	807.25
1128.1105	800.25
1128.6888	787.75
1129.2673	792.75
1129.8457	786.5
1130.4241	793
1130.9951	785
1131.5735	773
1132.1519	772.5
1132.7302	768.75
1133.3086	764.5
1133.8796	766.75
1134.4581	766.5
1135.0365	753.25
1135.6149	743.5
1136.1932	749.25
1136.7643	739.25
1137.3427	729.5
1137.921	749.75
1138.4921	745
1139.0704	722.25
1139.6488	735.75
1140.2273	733
1140.7983	718.5
1141.3767	718.25
1141.9551	715
1142.5261	723.5
1143.1045	708.75
1143.6829	715
1144.2539	692.75
1144.8323	699.75
1145.4108	696.5
1145.9818	696.5
1146.5602	690.75
1147.1312	692.75
1147.7096	677.25
1148.288	685.75
1148.859	679.75
1149.4374	671
1150.0084	665.25
1150.5869	665.75
1151.158	658.5
1151.7363	659
1152.3147	649.25
1152.8857	661.75
1153.4568	658.75
1154.0352	645
1154.6135	648.25
1155.1846	639.75
1155.7557	634.75
1156.3341	631.75
1156.9125	630
1157.4835	619
1158.0546	628.75
1158.6329	621.5
1159.204	631.25
1159.7823	615.75
1160.3534	610.5
1160.9319	620.25
1161.5029	617.25
1162.074	608.5
1162.6523	602.75
1163.2234	598.5
1163.8018	596.25
1164.3728	591.25
1164.9438	587.5
1165.5222	585.75
1166.0934	583.5
1166.6644	598
1167.2428	578.25
1167.8138	575.5
1168.3849	574
1168.9633	574.25
1169.5343	563
1170.1053	570
1170.6838	570
1171.2549	561.25
1171.8259	557.5
1172.397	556.25
1172.9753	560.75
1173.5464	550.5
1174.1174	543.75
1174.6885	545
1175.2668	547
1175.838	544.75
1176.4091	543.25
1176.9801	538.5
1177.5511	530
1178.1295	526.5
1178.7006	531.25
1179.2716	528.75
1179.8427	517.25
1180.4138	523
1180.9849	525
1181.5632	513.75
1182.1343	521.5
1182.7053	515.25
1183.2764	512.5
1183.8474	511.25
1184.4185	504.25
1184.9896	504.75
1185.5607	501.75
1186.1317	495.75
1186.7101	497
1187.2811	489.25
1187.8522	485.5
1188.4232	492.5
1188.9943	484.75
1189.5653	481
1190.1365	479.25
1190.7075	478.5
1191.2786	474.5
1191.8496	472.5
1192.4207	479.5
1192.9917	470
1193.5627	470.25
1194.1338	464.5
1194.705	464.5
1195.276	460
1195.847	465.5
1196.4181	455
1196.9891	449
1197.5602	455.25
1198.1239	444
1198.6949	449.5
1199.2661	440.25
1199.8372	438.75
1200.4082	437.5
1200.9792	431.75
1201.5503	433
1202.1213	427
1202.6924	426
1203.2561	419.75
1203.8273	419.25
1204.3983	417.5
1204.9694	413.25
1205.5404	415.75
1206.1041	411.25
1206.6752	418.5
1207.2462	409.75
1207.8174	408.25
1208.3811	406.75
1208.9521	400.5
1209.5232	396.75
1210.0942	393.25
1210.6653	386.75
1211.229	381
1211.8	380.5
1212.3712	374.75
1212.9423	362.75
1213.506	360.5
1214.077	367.75
1214.6481	353
1215.2118	356.75
1215.7828	349
1216.3539	352.25
1216.9177	363
1217.4888	356
1218.0598	352.25
1218.6235	353.25
1219.1946	354.25
1219.7656	360
1220.3293	344
1220.8859	354
1221.4642	352
1222.0426	350
1222.621	343
1223.192	339
1223.7704	338
1224.3488	331
1224.9271	333
1225.5055	339
1226.0767	331
1226.655	328
1227.2334	317
1227.8118	322
1228.3901	324
1228.9612	319
1229.5396	319
1230.1179	320
1230.6963	314
1231.2673	305
1231.8458	310
1232.4242	306
1233.0026	300
1233.5736	298
1234.152	292
1234.7303	300
1235.3014	296
1235.8798	290
1236.4581	291
1237.0365	282
1237.6077	289
1238.186	279
1238.7644	281
1239.3354	281
1239.9138	282
1240.4849	276
1241.0632	274
1241.6416	267
1242.2126	278
1242.7911	269
1243.3622	264
1243.9406	265
1244.5116	264
1245.09	266
1245.6683	266
1246.2394	257
1246.8177	260
1247.3888	254
1247.9673	258
1248.5383	251
1249.1167	250
1249.6877	245
1250.2661	251
1250.8372	251
1251.4155	247
1251.9866	241
1252.5649	240
1253.1361	242
1253.7145	246
1254.2855	244
1254.8566	242
1255.4349	230
1256.006	228
1256.5844	233
1257.1554	236
1257.7266	231
1258.3049	232
1258.876	230
1259.4543	229
1260.0254	225
1260.5964	230
1261.1748	224
1261.7458	234
1262.3242	222
1262.8954	221
1263.4664	225
1264.0375	226
1264.6158	219
1265.1869	221
1265.7579	224
1266.3363	223
1266.9073	216
1267.4784	226
1268.0569	218
1268.6279	224
1269.199	217
1269.77	214
1270.3411	220
1270.9194	217
1271.4905	225
1272.0615	217
1272.6327	214
1273.2037	211
1273.7821	216
1274.3531	211
1274.9242	218
1275.4952	211
1276.0663	214
1276.6447	218
1277.2157	220
1277.7869	213
1278.3579	209
1278.929	213
1279.5	216
1280.071	214
1280.6421	223
1281.2131	215
1281.7842	215
1282.3627	213
1282.9337	217
1283.5048	212
1284.0758	215
1284.6469	213
1285.2179	215
1285.7889	209
1286.36	212
1286.9312	208
1287.5022	217
1288.0732	214
1288.6443	211
1289.2153	217
1289.7864	216
1290.3574	211
1290.9285	214
1291.4996	213
1292.0707	209
1292.6417	212
1293.2128	214
1293.7765	216
1294.3475	212
1294.9186	209
1295.4896	211
1296.0608	206
1296.6318	208
1297.2029	211
1297.7739	213
1298.345	210
1298.916	208
1299.4797	211
1300.0508	211
1300.6219	212
1301.193	212
1301.764	220
1302.3278	220
1302.8988	212
1303.4698	216
1304.0409	216
1304.6119	209
1305.1831	208
1305.7468	209
1306.3179	214
1306.8889	208
1307.46	207
1308.0237	214
1308.5947	212
1309.1659	210
1309.7296	203
1310.3007	217
1310.8717	226
1311.4427	203
1312.0065	211
1312.5775	218
1313.1486	212
1313.7124	205
1314.2834	208
1314.8472	210
1315.4182	213
1315.9893	214
1316.553	219
1317.124	212
1317.6951	220
1318.2589	210
1318.83	218
1319.3937	209
1319.9647	209
1320.5358	216
1321.0995	217
1321.6705	212
1322.2344	205
1322.8054	209
1323.3691	215
1323.9402	212
1324.5039	216
1325.075	217
1325.6387	208
1326.2098	212
1326.7736	211
1327.3446	216
1327.9083	214
1328.4794	221
1329.0431	216
1329.6141	208
1330.1779	212
1330.749	212
1331.3127	221
1331.8838	213
1332.4475	217
1333.0112	220
1333.5823	210
1334.146	210
1334.7098	212
1335.2809	218
1335.8446	217
1336.4156	213
1336.9794	212
1337.5431	211
1338.1141	220
1338.678	216
1339.2417	221
1339.8127	213
1340.3765	217
1340.9402	218
1341.5112	213
1342.075	216
1342.6388	216
1343.2025	216
1343.7736	215
1344.3373	214
1344.901	220
1345.472	215
1346.0358	212
1346.5996	216
1347.1633	217
1347.7271	217
1348.2981	209
1348.8618	214
1349.4255	217
1349.9893	213
1350.5603	221
1351.1241	220
1351.6879	213
1352.2516	217
1352.8153	220
1353.379	219
1353.9427	221
1354.5139	221
1355.0776	216
1355.6414	223
1356.2051	219
1356.7688	219
1357.3325	224
1357.8962	217
1358.4601	222
1359.0238	217
1359.5875	225
1360.1512	214
1360.715	221
1361.2787	225
1361.8424	222
1362.4136	223
1362.9773	224
1363.541	220
1364.0974	227
1364.6611	217
1365.2322	218
1365.7959	213
1366.3597	218
1366.9161	218
1367.4799	217
1368.0436	216
1368.6073	217
1369.171	214
1369.7347	219
1370.2986	215
1370.8623	224
1371.426	223
1371.9897	218
1372.5535	227
1373.1099	222
1373.6737	224
1374.2374	223
1374.8011	216
1375.3649	215
1375.9286	224
1376.4923	226
1377.056	224
1377.6199	223
1378.1763	218
1378.74	229
1379.3037	223
1379.8674	227
1380.4238	220
1380.9877	227
1381.5514	225
1382.1151	227
1382.6788	220
1383.2352	225
1383.799	225
1384.3627	222
1384.9192	221
1385.4829	228
1386.0466	220
1386.6104	228
1387.1667	228
1387.7305	231
1388.2943	229
1388.8507	229
1389.4144	226
1389.9781	228
1390.5345	230
1391.0983	232
1391.6547	223
1392.2185	226
1392.7822	225
1393.3386	223
1393.9023	230
1394.4661	226
1395.0225	232
1395.5863	230
1396.1427	233
1396.7064	231
1397.2701	232
1397.8265	227
1398.3903	231
1398.9468	234
1399.5105	227
1400.0669	227
1400.6306	230
1401.187	230
1401.7507	224
1402.3071	237
1402.871	228
1403.4274	230
1403.9911	232
1404.5475	233
1405.1112	226
1405.6676	226
1406.2241	231
1406.7878	224
1407.3516	229
1407.908	228
1408.4644	229
1409.0281	237
1409.5846	234
1410.1483	238
1410.7047	234
1411.2611	230
1411.8248	234
1412.3812	231
1412.9377	235
1413.5015	237
1414.0579	238
1414.6143	236
1415.178	240
1415.7344	231
1416.2909	233
1416.8546	236
1417.411	241
1417.9674	243
1418.5238	242
1419.0875	232
1419.644	236
1420.2004	235
1420.7642	236
1421.3206	236
1421.877	242
1422.4333	244
1422.9971	236
1423.5536	242
1424.11	234
1424.6664	238
1425.2228	235
1425.7865	243
1426.3429	238
1426.8994	243
1427.4558	237
1428.0122	243
1428.5686	242
1429.1323	236
1429.6888	237
1430.2452	233
1430.8016	242
1431.358	239
1431.9144	239
1432.4708	240
1433.0273	246
1433.5911	244
1434.1401	240
1434.7039	237
1435.2603	238
1435.8167	238
1436.3732	242
1436.9296	245
1437.486	239
1438.0424	241
1438.5988	244
1439.1552	245
1439.7117	249
1440.2681	248
1440.8245	244
1441.3809	244
1441.9373	242
1442.4937	245
1443.0502	249
1443.6066	256
1444.163	246
1444.7194	250
1445.2758	248
1445.8248	253
1446.3887	248
1446.9377	249
1447.4941	247
1448.0505	253
1448.6069	251
1449.1635	252
1449.7198	244
1450.2762	246
1450.8326	246
1451.3817	257
1451.9381	250
1452.4946	253
1453.051	251
1453.6074	250
1454.1565	251
1454.7129	253
1455.2693	260
1455.8258	251
1456.3822	251
1456.9386	251
1457.4877	250
1458.0441	262
1458.6006	250
1459.1497	256
1459.7061	250
1460.2625	260
1460.8188	255
1461.3679	253
1461.9244	258
1462.4808	254
1463.0299	251
1463.5863	250
1464.1427	253
1464.6991	251
1465.2483	257
1465.8047	256
1466.3611	251
1466.9102	256
1467.4666	260
1468.0231	258
1468.5721	257
1469.1285	263
1469.6776	254
1470.234	258
1470.7904	263
1471.3396	264
1471.896	262
1472.4451	255
1473.0015	260
1473.5579	256
1474.1071	263
1474.6561	256
1475.2125	257
1475.7689	257
1476.318	264
1476.8744	262
1477.4236	259
1477.98	267
1478.5291	264
1479.0854	261
1479.6345	264
1480.191	268
1480.7401	257
1481.2965	259
1481.8456	266
1482.3947	273
1482.951	260
1483.5002	263
1484.0566	274
1484.6057	274
1485.1621	264
1485.7112	252
1486.2604	258
1486.8168	266
1487.3658	267
1487.9149	265
1488.4713	269
1489.0205	257
1489.5696	269
1490.126	265
1490.675	261
1491.2241	266
1491.7805	265
1492.3297	260
1492.8788	268
1493.4352	275
1493.9843	269
1494.5333	269
1495.0898	273
1495.6389	265
1496.188	270
1496.7371	263
1497.2935	268
1497.8427	268
1498.3917	274
1498.9408	269
1499.4899	274
1500.0463	273
1500.5955	274
1501.1519	277
