19.6939	1876.77
20.3622	1953.77
21.038	1874.77
21.7212	1973.77
22.397	1984.77
23.0727	2211.77
23.7485	2331.77
24.4242	2145.77
25.1	2221.77
25.7758	2208.77
26.4515	2316.77
27.1273	2378.77
27.803	2475.77
28.4788	2532.77
29.1546	2503.77
29.8303	2722.77
30.5061	2682.77
31.1819	2809.77
31.8576	2896.77
32.5334	3030.77
33.2091	3528.77
33.8849	3597.77
34.5607	3538.77
35.2364	3436.77
35.9122	3514.77
36.5879	3535.77
37.2637	3686.77
37.932	3765.77
38.6078	3799.77
39.2836	4086.77
39.9593	4017.77
40.6351	4095.77
41.3108	4232.77
41.9866	4477.77
42.6549	4430.77
43.3307	4434.77
44.0065	4498.77
44.6822	4669.77
45.358	4838.77
46.0263	5037.77
46.7021	4961.77
47.3778	5163.77
48.0536	5202.77
48.7219	5238.77
49.3977	5165.77
50.0735	5487.77
50.7492	5493.77
51.4176	5591.77
52.0933	5735.77
52.7691	5843.77
53.4374	5871.77
54.1132	5852.77
54.7889	6125.77
55.4573	6095.77
56.133	6144.77
56.8088	6325.77
57.4771	6208.77
58.1529	6252.77
58.8287	6311.77
59.497	6421.77
60.1728	6530.77
60.8485	6531.77
61.5169	6624.77
62.1926	6571.77
62.861	6780.77
63.5367	6969.77
64.205	6790.77
64.8808	6667.77
65.5491	6928.77
66.2249	6845.77
66.8932	6930.77
67.569	7102.77
68.2373	6995.77
68.9131	7273.77
69.5814	7062.5
70.2572	7215.77
70.9255	7040.77
71.6013	7170.77
72.2696	7329.77
72.938	7228.77
73.6137	7499.77
74.2821	7311.77
74.9578	7311.77
75.6262	7160.77
76.2945	7349.77
76.9703	7346.77
77.6386	7514.77
78.3069	7451.77
78.9827	7243.77
79.651	7502.77
80.3268	7451.77
80.9951	7531.77
81.6635	7463.77
82.3392	7549.77
83.0076	7453.77
83.6759	7363.77
84.3442	7426.77
85.02	7518.77
85.6883	7526.77
86.3567	7528.77
87.025	7317.77
87.7008	7726.77
88.3691	7598.15
89.0374	7598.15
89.7058	7660.77
90.3741	7387.77
91.0499	7685.33
91.7182	7728.91
92.3865	7615.07
93.0549	7598.15
93.7232	7728.91
94.3915	7363.77
95.0599	7476.77
95.7356	7608.77
96.404	7547.77
97.0723	7705.77
97.7406	7633.77
98.409	7342.77
99.0773	7433.77
99.7456	7594.77
100.414	7261.77
101.082	7434.77
101.751	7483.77
102.419	7445.77
103.095	7396.77
103.763	7307.77
104.431	7582.77
105.092	7383.77
105.761	7266.77
106.429	7412.77
107.097	7422.77
107.766	7392.77
108.434	7213.77
109.102	7347.77
109.771	7148.77
110.439	7111.77
111.107	7293.77
111.776	7075.77
112.444	7195.77
113.112	7214.77
113.773	7181.77
114.442	7167.77
115.11	7265.77
115.778	7111.77
116.447	7231.77
117.115	6933.77
117.783	7144.77
118.452	7016.77
119.113	7264.77
119.781	7124.77
120.449	6965.77
121.118	7182.77
121.786	6932.77
122.447	7007.77
123.115	7036.77
123.783	7114.77
124.444	6947.77
125.113	7069.77
125.781	7008.77
126.449	6928.77
127.11	6826.77
127.779	6886.77
128.447	6859.77
129.108	6752.77
129.776	6791.77
130.445	6994.77
131.105	6779.77
131.774	6699.77
132.442	6675.77
133.103	6801.77
133.771	6773.77
134.432	6799.77
135.101	6723.77
135.769	6752.77
136.43	6647.77
137.098	6711.77
137.759	6818.77
138.427	6466.77
139.088	6624.77
139.757	6632.77
140.425	6629.77
141.086	6530.77
141.754	6576.77
142.415	6690.77
143.076	6562.77
143.744	6529.77
144.405	6446.77
145.074	6474.77
145.735	6603.77
146.403	6454.77
147.064	6567.77
147.732	6232.77
148.393	6204.77
149.054	6262.77
149.722	6471.77
150.383	6429.77
151.052	6213.77
151.712	6470.77
152.381	6265.77
153.042	6166.77
153.703	6396.77
154.371	6331.77
155.032	6280.77
155.693	6099.77
156.354	6150.77
157.022	6053.77
157.683	6093.77
158.344	6108.77
159.012	6053.77
159.673	6145.77
160.334	5950.77
160.995	5991.77
161.656	6024.77
162.324	6072.77
162.985	6022.77
163.646	5943.77
164.307	5887.77
164.975	5988.77
165.636	5950.77
166.297	6021.77
166.958	5829.77
167.626	5825.77
168.287	6087.77
168.948	6059.77
169.609	5793.77
170.27	5827.77
170.931	5866.77
171.592	5835.77
172.253	5720.77
172.914	5719.77
173.574	5889.77
174.235	5678.77
174.904	5650.77
175.565	5783.77
176.225	5744.77
176.886	5775.77
177.547	5730.77
178.208	5668.77
178.869	5648.77
179.53	5653.77
180.191	5540.77
180.852	5618.77
181.513	5432.77
182.174	5704.77
182.835	5453.77
183.495	5512.77
184.156	5553.77
184.817	5619.77
185.478	5410.77
186.132	5416.77
186.793	5504.77
187.454	5545.77
188.114	5450.77
188.775	5393.77
189.436	5437.77
190.097	5440.77
190.751	5325.77
191.412	5407.77
192.072	5318.77
192.733	5342.77
193.394	5398.77
194.055	5350.77
194.709	5428.77
195.37	5134.77
196.03	5268.77
196.691	5234.77
197.345	5331.77
198.006	5149.77
198.667	5277.77
199.328	5329.77
199.981	5322.77
200.642	5236.77
201.303	5283.77
201.964	5325.77
202.617	5140.77
203.278	5230.77
203.939	5361.77
204.593	4956.77
205.254	5278.77
205.914	5155.77
206.568	5238.77
207.229	5181.77
207.89	5118.77
208.543	5084.77
209.204	4904.77
209.858	5200.91
210.519	5070.15
211.172	5105.77
211.833	5009.77
212.494	5190.77
213.147	5067.77
213.808	5035.77
214.462	5110.77
215.123	5038.77
215.776	4980.77
216.437	5128.77
217.09	5123.77
217.751	5009.77
218.405	4999.77
219.066	5039.77
219.719	4984.77
220.38	5133.77
221.034	5096.77
221.695	4956.77
222.348	5033.77
223.009	4842.77
223.662	4939.39
224.316	4950.39
224.977	4944.77
225.63	4930.77
226.291	4888.77
226.945	4883.77
227.598	4957.77
228.259	4967.77
228.913	4918.77
229.566	4882.77
230.227	4857.77
230.88	4934.77
231.534	4872.77
232.187	4832.77
232.848	4793.77
233.502	4805.77
234.155	4852.22
234.809	4852.22
235.47	4804.77
236.123	4892.77
236.777	4787.77
237.43	4836.77
238.091	4845.77
238.745	4728.77
239.398	4805.77
240.052	4938.77
240.705	4750.77
241.366	4796.77
242.019	4845.77
242.673	4768.77
243.326	4930.77
243.98	4860.77
244.633	4656.77
245.287	4774.77
245.94	4830.77
246.601	4749.77
247.255	4712.77
247.908	4725.77
248.562	4722.77
249.215	4859.77
249.869	4770.77
250.522	4830.77
251.176	4706.77
251.829	4648.77
252.483	4717.77
253.136	4691.77
253.79	4776.77
254.443	4765.04
255.096	4808.63
255.75	4709.77
256.403	4677.77
257.057	4669.77
257.71	4738.77
258.364	4687.77
259.017	4719.77
259.671	4631.77
260.324	4603.77
260.978	4645.77
261.631	4701.77
262.285	4679.77
262.938	4744.77
263.592	4622.77
264.238	4615.77
264.891	4590.7
265.545	4580.77
266.198	4585.77
266.852	4588.77
267.505	4649.77
268.151	4614.77
268.805	4599.77
269.458	4627.77
270.112	4730.77
270.765	4522.77
271.411	4595.77
272.065	4624.77
272.718	4576.77
273.372	4548.77
274.018	4647.77
274.671	4574.77
275.325	4534.77
275.978	4547.77
276.624	4747.77
277.278	4590.7
277.931	4503.53
278.577	4620.77
279.231	4563.77
279.884	4446.77
280.53	4539.77
281.184	4538.77
281.837	4507.77
282.483	4430.77
283.137	4449.77
283.783	4442.77
284.436	4451.77
285.09	4552.77
285.736	4461.77
286.389	4462.77
287.035	4384.77
287.689	4561.77
288.335	4520.77
288.989	4409.77
289.635	4443.77
290.288	4447.77
290.934	4543.77
291.588	4344.77
292.234	4399.77
292.887	4480.77
293.533	4556.77
294.187	4435.77
294.833	4428.77
295.486	4566.77
296.132	4372.77
296.778	4391.77
297.432	4484.77
298.078	4508.77
298.731	4398.77
299.377	4541.77
300.023	4406.77
300.677	4257.77
301.323	4514.77
301.977	4310.77
302.623	4422.77
303.269	4372.77
303.922	4379.77
304.568	4335.77
305.214	4491.77
305.868	4416.77
306.514	4387.77
307.16	4314.77
307.813	4374.77
308.459	4318.77
309.105	4353.77
309.751	4424.77
310.405	4365.77
311.051	4380.77
311.697	4447.77
312.343	4400.77
312.997	4386.77
313.643	4485.77
314.289	4370.77
314.935	4389.77
315.581	4365.77
316.234	4277.77
316.88	4195.77
317.526	4416.35
318.173	4440.77
318.819	4370.77
319.465	4420.77
320.111	4265.77
320.757	4389.77
321.403	4299.77
322.049	4270.77
322.702	4249.77
323.348	4339.77
323.994	4295.77
324.641	4294.77
325.287	4325.77
325.933	4287.77
326.579	4270.77
327.225	4273.77
327.871	4295.77
328.517	4212.77
329.163	4209.77
329.809	4259.77
330.455	4298.77
331.101	4133.77
331.747	4237.77
332.393	4254.77
333.039	4328.77
333.685	4190.77
334.331	4271.77
334.977	4321.77
335.623	4349.77
336.262	4323.77
336.908	4322.77
337.554	4345.77
338.2	4164.77
338.846	4309.77
339.492	4220.77
340.138	4312.77
340.785	4393.77
341.423	4397.77
342.069	4259.77
342.715	4329.18
343.361	4372.77
344.007	4293.77
344.653	4287.77
345.292	4274.77
345.938	4305.77
346.584	4337.77
347.223	4239.77
347.869	4261.77
348.515	4327.77
349.161	4322.77
349.8	4209.77
350.446	4350.77
351.092	4293.77
351.738	4153.77
352.376	4323.77
353.022	4343.77
353.669	4237.77
354.307	4257.77
354.953	4302.77
355.599	4256.77
356.238	4274.77
356.884	4367.77
357.523	4354.77
358.169	4343.77
358.815	4300.77
359.453	4271.77
360.099	4340.77
360.738	4333.77
361.384	4357.77
362.03	4360.77
362.669	4482.77
363.315	4356.77
363.953	4306.77
364.6	4253.77
365.238	4273.77
365.884	4367.77
366.523	4377.77
367.169	4399.77
367.808	4358.77
368.454	4355.77
369.092	4288.77
369.738	4423.77
370.377	4376.77
371.016	4382.77
371.662	4520.77
372.3	4501.77
372.946	4470.77
373.585	4456.77
374.224	4398.77
374.87	4354.77
375.508	4311.77
376.154	4382.77
376.793	4413.77
377.432	4427.77
378.078	4376.77
378.716	4443.77
379.355	4336.77
379.994	4404.77
380.64	4529.77
381.278	4416.77
381.924	4385.77
382.563	4454.77
383.202	4377.77
383.84	4299.77
384.486	4488.77
385.125	4465.77
385.763	4336.77
386.402	4490.77
387.041	4450.77
387.687	4449.77
388.325	4283.77
388.964	4423.77
389.603	4469.77
390.249	4389.77
390.887	4496.77
391.526	4417.77
392.165	4482.77
392.803	4257.77
393.442	4368.77
394.081	4411.77
394.727	4516.77
395.365	4405.77
396.004	4478.77
396.643	4425.77
397.281	4454.77
397.92	4406.77
398.558	4338.77
399.197	4493.77
399.836	4403.77
400.474	4327.77
401.113	4419.77
401.752	4380.77
402.39	4417.77
403.029	4402.77
403.667	4366.77
404.306	4341.77
404.945	4401.77
405.583	4437.77
406.222	4503.53
406.861	4503.53
407.499	4503.53
408.138	4590.7
408.777	4503.53
409.415	4503.53
410.054	4503.53
410.692	4503.53
411.324	4584.77
411.962	4358.77
412.601	4421.77
413.24	4207.77
413.878	4332.77
414.517	4391.77
415.155	4392.77
415.787	4271.77
416.425	4294.77
417.064	4403.77
417.702	4244.77
418.341	4413.77
418.98	4452.77
419.611	4337.77
420.25	4344.77
420.888	4369.77
421.527	4372.77
422.158	4458.77
422.797	4364.77
423.435	4414.77
424.067	4311.77
424.705	4380.77
425.344	4304.77
425.982	4447.77
426.621	4373.77
427.252	4405.77
427.891	4380.77
428.522	4474.77
429.161	4435.77
429.799	4227.77
430.431	4493.77
431.069	4330.77
431.7	4374.77
432.339	4385.77
432.978	4379.77
433.609	4333.77
434.247	4420.77
434.886	4484.77
435.517	4322.77
436.156	4493.77
436.787	4378.77
437.426	4429.77
438.057	4399.77
438.696	4324.77
439.327	4468.77
439.965	4413.77
440.597	4408.77
441.235	4397.77
441.867	4337.77
442.505	4432.77
443.136	4439.77
443.775	4398.77
444.406	4577.77
445.045	4459.77
445.676	4453.77
446.307	4478.77
446.946	4527.77
447.577	4519.77
448.216	4483.77
448.847	4496.77
449.478	4466.77
450.117	4448.77
450.748	4501.77
451.387	4629.77
452.018	4557.77
452.649	4507.77
453.288	4513.77
453.919	4582.77
454.55	4551.77
455.181	4439.77
455.82	4513.77
456.451	4568.77
457.09	4564.77
457.721	4469.77
458.352	4514.77
458.983	4549.77
459.615	4623.77
460.253	4501.77
460.884	4664.77
461.516	4562.77
462.147	4505.77
462.785	4556.77
463.417	4701.77
464.048	4814.77
464.679	4704.77
465.31	4674.77
465.949	4679.77
466.58	4579.77
467.211	4713.77
467.842	4676.77
468.474	4750.77
469.105	4572.77
469.736	4743.77
470.367	4855.77
470.999	4666.77
471.637	4777.77
472.261	4669.77
472.9	4818.77
473.531	4826.77
474.162	4834.77
474.793	4667.77
475.424	4814.77
476.056	4822.77
476.687	4805.77
477.318	4885.77
477.949	4905.77
478.58	4793.77
479.212	4771.77
479.843	5006.77
480.474	4876.77
481.105	4975.77
481.736	4929.77
482.368	4985.77
482.991	4844.77
483.623	4918.77
484.254	5068.77
484.885	4974.77
485.516	5096.77
486.147	5044.77
486.779	5162.77
487.41	5056.77
488.041	5137.77
488.672	5154.77
489.296	5221.77
489.927	5380.77
490.558	5279.77
491.19	5129.77
491.821	5170.77
492.445	5203.77
493.076	5132.77
493.707	5111.77
494.338	5430.77
494.969	5224.77
495.593	5091.77
496.224	5405.77
496.856	5568.77
497.487	5446.77
498.111	5330.77
498.742	5393.77
499.373	5338.77
499.997	5444.77
500.628	5469.77
501.259	5552.77
501.883	5372.77
502.514	5517.77
503.145	5620.77
503.769	5487.77
504.4	5600.77
505.032	5661.77
505.655	5645.77
506.287	5695.77
506.918	5594.77
507.542	5641.77
508.173	5749.77
508.797	5715.77
509.428	5873.77
510.052	5753.77
510.683	5743.77
511.314	5803.77
511.938	5874.77
512.569	6035.77
513.193	5851.77
513.824	6075.77
514.448	5905.77
515.079	5922.77
515.703	5910.77
516.334	6053.77
516.958	6139.77
517.581	6052.77
518.213	6096.77
518.844	6465.77
519.468	6179.77
520.091	6066.77
520.723	6198.77
521.346	6196.77
521.978	6358.77
522.601	6308.77
523.225	6331.77
523.856	6363.77
524.48	6396.77
525.104	6442.77
525.735	6462.77
526.359	6483.77
526.983	6397.77
527.614	6713.77
528.238	6580.77
528.862	6664.77
529.493	6718.77
530.117	6646.77
530.74	6641.77
531.372	6753.77
531.995	6842.77
532.619	6886.77
533.243	6908.77
533.874	6800.77
534.498	6930.77
535.122	7148.77
535.745	7116.77
536.377	7028.77
537	7121.77
537.624	7318.77
538.248	7197.77
538.872	7488.77
539.495	7364.77
540.127	7456.77
540.75	7593.77
541.374	7452.77
541.998	7561.77
542.622	7677.77
543.246	7625.77
543.877	7749.77
544.493	7730.77
545.124	7824.77
545.748	8003.77
546.372	7883.77
546.996	8084.77
547.619	8135.77
548.243	8085.77
548.867	8440.77
549.491	8333.77
550.115	8282.77
550.738	8530.77
551.362	8398.77
551.986	8563.77
552.61	8459.77
553.234	8588.77
553.857	8656.77
554.481	8768.77
555.105	8864.77
555.729	8793.77
556.352	8687.77
556.976	8797.77
557.6	8854.77
558.224	8765.77
558.84	8934.77
559.464	9078.77
560.088	9040.77
560.711	8947.77
561.335	8841.77
561.959	8929.77
562.583	8769.77
563.207	8822.77
563.823	9126.77
564.447	8779.77
565.07	8837.77
565.694	8845.77
566.318	8942.77
566.942	8721.77
567.558	8821.77
568.182	8918.77
568.806	8714.77
569.43	8708.77
570.053	8706.77
570.67	8657.77
571.293	8567.77
571.917	8823.77
572.534	8625.77
573.157	8457.77
573.781	8593.77
574.405	8431.77
575.021	8347.77
575.645	8453.77
576.261	8477.77
576.885	8218.77
577.509	8251.77
578.133	8179.77
578.749	8227.77
579.373	8186.77
579.997	7907.77
580.613	7837.77
581.237	7955.77
581.853	7722.77
582.477	7714.77
583.093	7608.77
583.717	7621.77
584.333	7643.77
584.957	7443.77
585.581	7250.77
586.197	7363.77
586.821	7188.77
587.437	7026.77
588.061	7088.77
588.678	6922.77
589.301	7007.77
589.918	6736.77
590.541	6794.77
591.158	6535.77
591.782	6580.77
592.398	6503.77
593.022	6173.77
593.638	6391.77
594.254	6321.77
594.878	6155.77
595.495	6098.77
596.118	5908.77
596.735	6017.77
597.351	5695.77
597.975	5746.77
598.591	5620.77
599.215	5666.77
599.831	5272.77
600.448	5448.77
601.064	5316.77
601.688	5203.77
602.304	5310.77
602.928	5164.77
603.544	4975.77
604.161	4922.77
604.777	4940.77
605.401	4947.77
606.017	4793.77
606.633	4874.77
607.25	4610.77
607.874	4761.77
608.49	4580.77
609.106	4423.27
609.723	4373.27
610.346	4319.77
610.963	4382.27
611.579	4258.27
612.195	4442.77
612.812	4347.77
613.436	4256.27
614.052	4204.77
614.668	4186.27
615.285	4104.27
615.901	4082.27
616.517	4176.27
617.134	4044.77
617.758	4045.77
618.374	4046.77
618.99	4033.77
619.607	3908.77
620.223	3799.27
620.839	3875.27
621.456	3865.27
622.072	3756.77
622.688	3889.27
623.305	3736.77
623.921	3668.77
624.537	3745.27
625.154	3680.27
625.77	3620.77
626.387	3666.77
627.003	3682.27
627.619	3590.77
628.236	3586.77
628.852	3563.77
629.468	3624.27
630.085	3529.77
630.701	3541.27
631.317	3563.77
631.934	3532.27
632.55	3509.27
633.166	3528.77
633.775	3440.77
634.392	3455.27
635.008	3450.27
635.624	3419.27
636.241	3484.27
636.857	3393.77
637.473	3407.27
638.09	3422.27
638.699	3347.77
639.315	3390.77
639.931	3418.77
640.548	3370.27
641.164	3451.27
641.773	3345.77
642.389	3331.27
643.006	3305.77
643.622	3300.77
644.231	3311.27
644.847	3221.27
645.464	3288.77
646.08	3320.27
646.689	3298.77
647.305	3377.77
647.922	3321.27
648.531	3274.77
649.147	3138.27
649.763	3152.27
650.38	3192.77
650.989	3196.27
651.605	3123.27
652.221	3196.27
652.83	3223.27
653.447	3193.77
654.056	3165.27
654.672	3094.27
655.088	3032.27
655.712	3109.27
656.335	3037.27
656.959	3120.27
657.576	3104.27
658.199	3094.27
658.823	3096.27
659.447	3069.27
660.071	2983.27
660.694	2953.27
661.318	3027.27
661.942	2973.27
662.566	2920.27
663.19	3007.27
663.813	2981.27
664.43	2939.27
665.053	2959.27
665.677	3018.27
666.301	2954.27
666.925	2938.27
667.549	2935.27
668.165	2894.27
668.789	2901.27
669.412	2843.27
670.036	2875.27
670.653	2881.27
671.276	2861.27
671.9	2858.27
672.524	2824.27
673.148	2810.27
673.764	2853.27
674.388	2753.27
675.012	2772.27
675.635	2697.27
676.252	2705.27
676.876	2722.27
677.499	2688.27
678.116	2750.27
678.739	2684.27
679.363	2661.27
679.98	2698.27
680.603	2673.27
681.227	2720.27
681.844	2599.27
682.467	2701.27
683.084	2733.27
683.707	2592.27
684.331	2596.27
684.948	2600.27
685.571	2605.27
686.188	2569.27
686.811	2612.27
687.435	2517.27
688.052	2554.27
688.675	2490.27
689.292	2472.27
689.916	2524.27
690.532	2535.27
691.156	2503.27
691.772	2392.27
692.396	2420.27
693.012	2469.27
693.636	2404.27
694.252	2454.27
694.876	2401.27
695.492	2423.27
696.109	2362.27
696.733	2348.27
697.356	2365.27
697.973	2360.27
698.589	2325.27
699.213	2326.27
699.829	2342.27
700.445	2314.27
701.069	2277.27
701.686	2249.27
702.309	2251.27
702.926	2233.27
703.542	2230.27
704.166	2200.27
704.782	2166.27
705.399	2163.27
706.022	2166.27
706.639	2172.27
707.255	2178.27
707.871	2141.27
708.495	2154.27
709.112	2089.27
709.728	2083.27
710.344	2069.27
710.968	2063.27
711.584	2054.27
712.201	2038.27
712.817	2027.27
713.441	1976.27
714.057	1987.27
714.674	1945.27
715.29	1955.27
715.906	1946.27
716.53	1917.27
717.146	1920.27
717.763	1910.27
718.379	1888.27
718.996	1898.27
719.612	1853.27
720.236	1844.27
720.852	1867.27
721.468	1875.27
722.085	1844.27
722.701	1786.27
723.317	1724.27
723.934	1782.27
724.55	1754.27
725.167	1786.27
725.783	1746.27
726.399	1674.27
727.016	1694.27
727.632	1661.27
728.256	1670.27
728.865	1679.27
729.488	1616.27
730.105	1621.27
730.714	1621.27
731.337	1593.27
731.946	1578.27
732.563	1592.27
733.187	1549.27
733.795	1530.27
734.412	1509.27
735.028	1544.27
735.645	1471.27
736.261	1432.27
736.877	1468.27
737.494	1471.27
738.11	1464.27
738.726	1396.27
739.343	1443.27
739.952	1392.27
740.568	1395.27
741.184	1364.27
741.801	1344.27
742.417	1325.27
743.033	1334.27
743.65	1313.27
744.259	1297.27
744.875	1287.27
745.491	1304.27
746.108	1285.27
746.724	1266.27
747.333	1261.27
747.949	1240.27
748.566	1226.27
749.175	1197.27
749.791	1174.27
750.407	1183.27
751.024	1169.27
751.633	1157.27
752.249	1180.27
752.865	1144.27
753.474	1137.27
754.091	1150.27
754.707	1133.27
755.323	1120.27
755.932	1121.27
756.549	1090.27
757.165	1093.27
757.774	1064.27
758.39	1075.27
758.999	1045.27
759.615	1048.27
760.232	1052.27
760.841	1053.27
761.457	1050.27
762.066	1053.27
762.682	1000.27
763.291	1024.27
763.908	1008.27
764.524	1002.27
765.133	1001.27
765.749	994.268
766.358	988.268
766.975	982.268
767.583	987.268
768.2	950.268
768.809	944.268
769.425	971.268
770.034	954.268
770.65	938.268
771.259	947.268
771.876	950.268
772.485	958.268
773.094	948.268
773.71	958.268
774.319	948.268
774.935	929.268
775.544	947.268
776.16	943.268
776.769	936.268
777.378	934.268
777.995	943.268
778.604	953.268
779.213	939.268
779.829	939.268
780.438	946.268
781.047	934.268
781.663	954.268
782.272	941.268
782.881	938.268
783.497	944.268
784.106	963.268
784.715	962.268
785.332	933.268
785.94	941.268
786.549	973.268
787.158	955.268
787.775	976.268
788.384	946.268
788.992	971.268
789.601	980.268
790.218	982.268
790.827	981.268
791.436	990.268
792.045	990.268
792.654	973.268
793.262	989.268
793.879	1005.27
794.488	1015.27
795.097	1029.27
795.706	1031.27
796.315	1064.27
796.923	1023.27
797.532	1074.27
798.141	1052.27
798.758	1081.27
799.367	1086.27
799.976	1093.27
800.584	1086.27
801.193	1096.27
801.802	1129.27
802.411	1107.27
803.02	1146.27
803.629	1178.27
804.238	1174.27
804.847	1186.27
805.456	1200.27
806.065	1232.27
806.674	1236.27
807.283	1261.27
807.892	1284.27
808.5	1285.27
809.109	1301.27
809.718	1369.27
810.327	1383.27
810.936	1370.27
811.545	1404.27
812.154	1431.27
812.763	1447.27
813.372	1513.27
813.973	1511.27
814.582	1546.27
815.191	1549.27
815.8	1639.27
816.409	1659.27
817.018	1726.27
817.627	1746.27
818.236	1786.27
818.837	1816.27
819.446	1859.27
820.055	1892.27
820.664	1907.27
821.273	2006.27
821.875	2042.27
822.484	2084.27
823.092	2149.27
823.701	2204.27
824.303	2288.27
824.912	2283.27
825.521	2438.27
826.13	2468.27
826.739	2504.27
827.34	2594.27
827.949	2626.27
828.558	2707.27
829.159	2746.27
829.768	2904.27
830.377	2917.27
830.979	3032.27
831.588	3212.27
832.197	3239.27
832.798	3330.27
833.407	3437.27
834.016	3493.27
834.618	3572.27
835.227	3709.27
835.828	3903.27
836.437	4052.27
837.046	4059.27
837.647	4126.27
838.256	4387.27
838.858	4486.27
839.467	4557.27
840.076	4659.27
840.677	4870.27
841.286	5062.27
841.888	5201.27
842.496	5245.27
843.098	5427.27
843.707	5713.27
844.308	5852.27
844.917	6052.27
845.519	6126.27
846.128	6461.27
846.729	6565.27
847.338	6805.27
847.94	6955.27
848.541	7112.27
849.15	7240.27
849.752	7538.27
850.361	7733.27
850.962	8159.27
851.564	8309.27
852.172	8476.27
852.774	8788.27
853.383	8892.27
853.984	9305.27
854.586	9381.27
855.195	9585.27
855.796	9955.27
856.398	10141.3
857.007	10430.3
857.608	10578.3
858.21	10717.3
858.819	10823.3
859.42	11242.3
860.022	11446.3
860.631	11624.3
861.232	11954.3
861.834	12197.3
862.443	12146.3
863.044	12464.3
863.646	12831.3
864.247	12796.3
864.849	13084.3
865.458	13246.3
866.059	13260.3
866.661	13648.3
867.262	13678.3
867.871	13814.3
868.472	14251.3
869.074	14398.3
869.675	14425.3
870.277	14710.3
870.878	14843.3
871.48	14982.3
872.081	15037.3
872.69	15271.3
873.292	15322.3
873.893	15613.3
874.495	15547.3
875.096	15646.3
875.698	16023.3
876.299	15961.3
876.901	16023.3
877.502	16203.3
878.104	16594.3
878.713	16602.3
879.314	16380.3
879.908	16591.3
880.517	16790.3
881.119	16822.3
881.72	16842.3
882.322	16937.3
882.923	17012.3
883.525	17038.3
884.119	17122.3
884.728	17273.3
885.329	17378.3
885.923	17246.3
886.525	17434.3
887.126	17635.3
887.728	17561.3
888.329	17552.3
888.931	17926.3
889.532	17810.3
890.134	17784.3
890.735	17742.3
891.337	17753.3
891.938	17906.3
892.533	18007.3
893.134	17785.3
893.736	17997.3
894.337	18044.3
894.939	18029.3
895.54	18112.3
896.134	18154.3
896.736	18046.3
897.337	18162.3
897.939	18282.3
898.54	18109.3
899.134	18045.3
899.736	18154.3
900.337	18332.3
900.939	18314.3
901.533	18276.3
902.134	18223.3
902.736	18155.3
903.337	18110.3
903.931	18239.3
904.533	18098.3
905.134	18171.3
905.728	18218.3
906.33	18292.3
906.931	17978.3
907.533	18025.3
908.127	17984.3
908.729	17713.3
909.323	17986.3
909.924	17668.3
910.526	17842.3
911.12	17694.3
911.721	17639.3
912.315	17698.3
912.917	17255.3
913.518	17410.3
914.112	17370.3
914.714	17381.3
915.308	17000.3
915.909	17196.3
916.511	17267.3
917.105	17116.3
917.699	16949.3
918.301	16964.3
918.902	16918.3
919.496	16875.3
920.098	16480.3
920.692	16450.3
921.293	16295.3
921.887	16286.3
922.489	16284.3
923.083	16024.3
923.677	16126.3
924.278	15910.3
924.873	15992.3
925.474	15873.3
926.068	15745.3
926.67	15583.3
927.264	15283.3
927.865	15338.3
928.459	15174.3
929.053	14922.3
929.655	15179.3
930.249	14912.3
930.843	14811.3
931.445	14556.3
932.039	14649.3
932.633	14480.3
933.234	14434.3
933.828	13955.3
934.422	14190.3
935.024	14274.3
935.618	13983.3
936.212	13838.3
936.806	13768.3
937.408	13590.3
938.002	13596.3
938.596	13275.3
939.197	13307.3
939.791	13227.3
940.385	13120.3
940.979	12926.3
941.573	12847.3
942.175	12829.3
942.769	12647.3
943.363	12418.3
943.957	12459.3
944.551	12489.3
945.153	12357.3
945.747	11997.3
946.341	11998.3
946.935	11863.3
947.529	11839.3
948.123	11833.3
948.725	11491.3
949.319	11448.3
949.913	11106.3
950.507	11167.3
951.101	11146.3
951.695	11089.3
952.289	10887.3
952.883	10910.3
953.477	10592.3
954.071	10540.3
954.665	10557.3
955.26	10270.3
955.854	10275.3
956.448	10160.3
957.042	10144.3
957.636	9836.27
958.23	9686.27
958.824	9670.27
959.418	9652.27
960.012	9461.27
960.606	9415.27
961.2	9401.27
961.794	9185.27
962.388	8908.27
962.982	9121.27
963.577	8841.27
964.171	8818.27
964.765	8588.27
965.359	8720.27
965.953	8494.27
966.54	8344.27
967.134	8204.27
967.728	8212.27
968.322	7964.27
968.916	8032.27
969.51	7773.27
970.104	7698.27
970.698	7706.27
971.285	7699.27
971.879	7378.27
972.473	7297.27
973.067	7259.27
973.654	7149.27
974.248	6964.27
974.842	7130.27
975.436	6897.27
976.03	6822.27
976.617	6804.27
977.211	6576.27
977.805	6628.27
978.399	6531.27
978.985	6556.27
979.58	6293.27
980.174	6388.27
980.76	6120.27
981.354	6173.27
981.948	6018.27
982.542	6005.27
983.129	6028.27
983.723	5873.27
984.317	5690.27
984.904	5535.27
985.498	5490.27
986.085	5655.27
986.679	5463.27
987.273	5446.27
987.859	5250.27
988.453	5174.27
989.048	5076.27
989.634	5154.27
990.228	5131.27
990.815	5121.27
991.409	5028.27
991.996	4759.27
992.59	4860.27
993.176	4544.27
993.771	4666.27
994.357	4697.27
994.951	4585.27
995.538	4609.27
996.132	4470.27
996.719	4458.27
997.313	4260.27
997.899	4168.27
998.493	4181.27
999.08	4207.27
999.674	4194.27
1000.26	4186.27
1000.85	4085.27
1001.44	3923.27
1002.03	3954.27
1002.62	3884.27
1003.21	3848.27
1003.8	3810.27
1004.39	3797.27
1004.98	3743.27
1005.57	3650.27
1006.16	3770.27
1006.75	3593.27
1007.34	3495.27
1007.92	3601.27
1008.51	3466.27
1009.11	3478.27
1009.69	3325.27
1010.28	3359.27
1010.87	3309.27
1011.46	3336.27
1012.05	3307.27
1012.64	3240.27
1013.23	3233.27
1013.81	3226.27
1014.4	3140.27
1014.99	3165.27
1015.58	3171.27
1016.17	3096.27
1016.75	3028.27
1017.35	3047.27
1017.93	3005.27
1018.52	2829.27
1019.11	2867.27
1019.7	2881.27
1020.29	2845.27
1020.88	2788.27
1021.46	2837.27
1022.05	2781.27
1022.64	2665.27
1023.22	2636.27
1023.82	2661.27
1024.4	2665.27
1024.99	2661.27
1025.58	2560.27
1026.16	2596.27
1026.75	2569.27
1027.34	2540.27
1027.92	2429.27
1028.51	2461.27
1029.1	2484.27
1029.68	2385.27
1030.27	2308.27
1030.86	2345.27
1031.44	2316.27
1032.04	2339.27
1032.62	2298.27
1033.21	2307.27
1033.8	2232.27
1034.38	2261.27
1034.96	2199.27
1035.55	2169.27
1036.14	2183.27
1036.73	2178.27
1037.31	2145.27
1037.9	2073.27
1038.48	2093.27
1039.07	2095.27
1039.66	2029.27
1040.24	2038.27
1040.83	2023.27
1041.42	1975.27
1042	1952.27
1042.59	1947.27
1043.18	1916.27
1043.75	1918.27
1044.34	1897.27
1044.93	1880.27
1045.51	1811.27
1046.1	1797.27
1046.69	1821.27
1047.27	1783.27
1047.85	1784.27
1048.44	1784.27
1049.03	1694.27
1049.61	1767.27
1050.19	1701.27
1050.78	1673.27
1051.37	1677.27
1051.95	1663.27
1052.53	1608.27
1053.12	1584.27
1053.71	1569.27
1054.29	1594.27
1054.87	1545.27
1055.46	1540.27
1056.04	1512.27
1056.62	1473.27
1057.21	1466.27
1057.8	1466.27
1058.38	1445.27
1058.96	1417.27
1059.55	1419.27
1060.13	1413.27
1060.72	1391.27
1061.3	1357.27
1061.88	1368.27
1062.47	1345.27
1063.05	1314.27
1063.63	1290.27
1064.22	1278.27
1064.8	1261.27
1065.39	1236.27
1065.97	1263.27
1066.55	1221.27
1067.14	1223.27
1067.72	1184.27
1068.3	1167.27
1068.88	1167.27
1069.47	1157.27
1070.05	1136.27
1070.64	1098.27
1071.22	1116.27
1071.8	1065.27
1072.38	1080.27
1072.97	1034.27
1073.55	1051.27
1074.13	1043.27
1074.71	1004.27
1075.3	996.268
1075.88	984.268
1076.47	975.268
1077.05	950.268
1077.62	934.268
1078.21	938.268
1078.79	920.268
1079.38	883.268
1079.96	891.268
1080.54	870.268
1081.12	852.268
1081.7	843.268
1082.28	833.268
1082.87	829.268
1083.45	824.268
1084.03	794.268
1084.61	796.268
1085.19	772.268
1085.77	780.268
1086.36	746.268
1086.94	766.268
1087.52	736.268
1088.1	738.268
1088.68	719.268
1089.26	688.268
1089.84	704.268
1090.43	697.268
1091.01	670.268
1091.59	676.268
1092.16	662.268
1092.75	645.268
1093.33	664.268
1093.91	640.268
1094.49	626.268
1095.07	622.268
1095.65	609.268
1096.23	609.268
1096.81	594.268
1097.39	598.268
1097.97	589.268
1098.55	586.268
1099.13	576.268
1099.71	576.268
1100.3	575.268
1100.88	553.268
1101.45	537.268
1102.03	544.268
1102.61	521.268
1103.19	532.268
1103.77	530.268
1104.35	533.268
1104.93	521.268
1105.51	503.268
1106.09	487.268
1106.67	503.268
1107.25	496.268
1107.83	482.268
1108.4	486.268
1108.99	480.268
1109.56	481.268
1110.15	472.268
1110.72	455.268
1111.3	453.268
1111.88	468.268
1112.46	453.268
1113.04	462.268
1113.62	451.268
1114.2	440.268
1114.78	442.268
1115.36	435.268
1115.93	436.268
1116.51	442.268
1117.09	436.268
1117.67	430.268
1118.24	432.268
1118.82	424.768
1119.4	416.768
1119.98	422.768
1120.56	425.768
1121.14	422.268
1121.72	412.268
1122.29	403.768
1122.87	405.768
1123.45	406.768
1124.03	407.268
1124.61	411.268
1125.19	399.268
1125.76	405.268
1126.34	393.268
1126.92	386.768
1127.5	398.768
1128.07	391.268
1128.65	388.768
1129.23	383.268
1129.8	394.268
1130.38	378.768
1130.96	383.768
1131.54	374.268
1132.11	378.768
1132.69	376.268
1133.27	376.768
1133.84	368.268
1134.42	374.768
1135	380.268
1135.57	372.268
1136.15	357.768
1136.73	376.268
1137.3	368.768
1137.88	369.268
1138.45	365.268
1139.03	361.268
1139.6	353.268
1140.18	354.268
1140.76	353.268
1141.33	358.268
1141.91	359.768
1142.48	347.768
1143.06	349.768
1143.63	351.268
1144.21	349.768
1144.79	346.768
1145.36	346.268
1145.94	349.268
1146.51	346.768
1147.09	353.268
1147.67	337.768
1148.25	347.268
1148.82	342.768
1149.4	343.268
1149.97	335.268
1150.54	337.268
1151.12	342.268
1151.69	339.768
1152.27	339.268
1152.84	337.268
1153.42	332.768
1153.99	335.268
1154.56	337.268
1155.14	335.268
1155.72	337.268
1156.29	341.768
1156.87	330.768
1157.44	332.268
1158.02	329.268
1158.59	326.268
1159.16	321.768
1159.74	335.268
1160.31	327.268
1160.88	330.268
1161.46	327.268
1162.04	325.768
1162.61	339.768
1163.18	329.768
1163.76	320.268
1164.33	325.768
1164.9	325.268
1165.48	327.268
1166.05	324.268
1166.62	326.768
1167.2	325.268
1167.77	316.768
1168.35	315.768
1168.92	323.268
1169.49	323.268
1170.06	311.768
1170.63	314.268
1171.21	318.768
1171.79	321.768
1172.36	316.768
1172.93	315.768
1173.5	312.268
1174.07	316.768
1174.65	314.268
1175.22	307.268
1175.8	309.768
1176.37	310.268
1176.94	313.268
1177.51	308.268
1178.08	312.268
1178.65	319.768
1179.23	312.268
1179.8	310.268
1180.37	304.268
1180.95	310.268
1181.51	313.268
1182.09	300.268
1182.66	307.768
1183.24	310.268
1183.81	307.768
1184.37	308.268
1184.94	303.268
1185.52	306.768
1186.1	300.268
1186.66	303.268
1187.23	300.268
1187.81	304.768
1188.37	306.268
1188.95	304.268
1189.52	298.268
1190.09	305.268
1190.66	299.268
1191.23	301.268
1191.81	304.268
1192.38	301.268
1192.95	299.768
1193.52	305.768
1194.09	299.768
1194.66	299.768
1195.23	301.768
1195.8	304.268
1196.37	297.768
1196.94	298.268
1197.51	305.268
1198.08	298.268
1198.65	296.268
1199.22	292.768
1199.8	297.268
1200.36	299.768
1200.93	296.768
1201.5	297.268
1202.08	297.268
1202.65	285.768
1203.21	288.268
1203.78	288.768
1204.36	290.768
1204.92	292.768
1205.49	282.268
1206.06	292.268
1206.64	288.268
1207.2	291.268
1207.77	290.768
1208.34	286.768
1208.91	284.768
1209.48	280.268
1210.05	275.268
1210.62	277.268
1211.19	280.768
1211.76	271.268
1212.32	264.768
1212.9	272.768
1213.46	275.768
1214.03	274.768
1214.6	274.768
1215.17	280.768
1215.74	279.268
1216.3	277.268
1216.88	282.268
1217.45	288.268
1218.01	277.768
1218.58	292.768
1219.15	282.768
1219.68	281.768
1220.26	280.768
1220.84	288.768
1221.42	287.768
1221.99	282.768
1222.57	291.768
1223.15	276.768
1223.72	278.768
1224.3	286.768
1224.88	286.768
1225.46	285.768
1226.03	290.768
1226.61	278.768
1227.19	280.768
1227.76	284.768
1228.34	281.768
1228.92	280.768
1229.49	283.768
1230.07	281.768
1230.65	283.768
1231.22	269.768
1231.8	273.768
1232.37	277.768
1232.95	282.768
1233.53	281.768
1234.1	284.768
1234.68	291.768
1235.25	278.768
1235.83	277.768
1236.41	283.768
1236.99	277.768
1237.56	283.768
1238.14	278.768
1238.72	285.768
1239.29	274.768
1239.87	279.768
1240.44	271.768
1241.02	279.768
1241.59	276.768
1242.17	281.768
1242.74	285.768
1243.32	277.768
1243.89	290.768
1244.47	280.768
1245.04	280.768
1245.62	272.768
1246.19	285.768
1246.77	278.768
1247.34	272.768
1247.92	287.768
1248.5	286.768
1249.07	284.768
1249.65	285.768
1250.22	277.768
1250.79	283.768
1251.37	281.768
1251.94	282.768
1252.51	274.768
1253.09	287.768
1253.66	280.768
1254.24	275.768
1254.81	282.768
1255.39	279.768
1255.96	274.768
1256.54	274.768
1257.11	278.768
1257.68	273.768
1258.26	278.768
1258.83	282.768
1259.4	284.768
1259.98	282.768
1260.56	280.768
1261.13	278.768
1261.7	276.768
1262.27	279.768
1262.85	281.768
1263.42	291.768
1263.99	280.768
1264.57	280.768
1265.14	276.768
1265.72	265.768
1266.29	273.768
1266.86	279.768
1267.43	273.768
1268	273.768
1268.58	263.768
1269.15	281.768
1269.73	275.768
1270.3	278.768
1270.87	280.768
1271.44	279.768
1272.01	277.768
1272.59	280.768
1273.16	279.768
1273.74	281.768
1274.31	277.768
1274.87	277.768
1275.45	279.768
1276.02	280.768
1276.6	285.768
1277.17	275.768
1277.74	290.768
1278.31	281.768
1278.88	290.768
1279.45	286.768
1280.03	274.768
1280.6	279.768
1281.17	287.768
1281.74	284.768
1282.31	279.768
1282.89	277.768
1283.46	277.768
1284.03	276.768
1284.6	275.768
1285.17	278.768
1285.74	273.768
1286.32	276.768
1286.88	274.768
1287.45	283.768
1288.02	277.768
1288.6	268.768
1289.17	280.768
1289.74	277.768
1290.31	281.768
1290.88	277.768
1291.45	280.768
1292.02	289.768
1292.59	282.768
1293.16	279.768
1293.73	287.768
1294.31	282.768
1294.88	279.768
1295.44	275.768
1296.01	275.768
1296.59	283.768
1297.15	278.768
1297.72	283.768
1298.29	273.768
1298.87	278.768
1299.44	289.768
1300	283.768
1300.57	280.768
1301.15	282.768
1301.72	280.768
1302.28	278.768
1302.85	279.768
1303.43	282.768
1303.99	284.768
1304.56	277.768
1305.13	279.768
1305.7	278.768
1306.27	272.768
1306.84	285.768
1307.41	280.768
1307.98	283.768
1308.55	278.768
1309.11	276.768
1309.69	283.768
1310.25	275.768
1310.82	281.768
1311.39	277.768
1311.96	283.768
1312.53	282.768
1313.09	278.768
1313.67	281.768
1314.23	282.768
1314.8	275.768
1315.37	282.768
1315.94	281.768
1316.51	281.768
1317.07	283.768
1317.65	276.768
1318.21	278.768
1318.78	275.768
1319.35	287.768
1319.92	281.768
1320.48	285.768
1321.05	279.768
1321.62	288.768
1322.19	288.768
1322.75	290.768
1323.33	283.768
1323.89	289.768
1324.46	285.768
1325.03	281.768
1325.59	285.768
1326.16	279.768
1326.73	289.768
1327.29	281.768
1327.86	282.768
1328.43	291.768
1328.99	285.768
1329.56	281.768
1330.13	283.768
1330.7	276.768
1331.27	285.768
1331.83	285.768
1332.39	293.768
1332.97	284.768
1333.53	288.768
1334.1	279.768
1334.67	283.768
1335.23	283.768
1335.79	285.768
1336.37	284.768
1336.93	289.768
1337.5	283.768
1338.07	287.768
1338.63	283.768
1339.2	281.768
1339.76	287.768
1340.33	284.768
1340.9	290.768
1341.46	285.768
1342.03	287.768
1342.59	294.768
1343.15	286.768
1343.73	293.768
1344.29	289.768
1344.85	290.768
1345.42	288.768
1345.98	290.768
1346.55	293.768
1347.11	284.768
1347.68	296.768
1348.25	290.768
1348.81	293.768
1349.38	287.768
1349.94	293.768
1350.51	287.768
1351.07	284.768
1351.63	293.768
1352.2	283.768
1352.76	291.768
1353.33	290.768
1353.9	289.768
1354.46	292.768
1355.03	287.768
1355.59	288.768
1356.16	292.768
1356.72	289.768
1357.29	285.768
1357.85	286.768
1358.41	293.768
1358.98	291.768
1359.54	291.768
1360.1	300.768
1360.66	289.768
1361.23	286.768
1361.79	295.768
1362.36	293.768
1362.92	301.768
1363.49	294.768
1364.05	289.768
1364.61	289.768
1365.18	284.768
1365.74	285.768
1366.31	293.768
1366.86	287.768
1367.43	290.768
1367.99	293.768
1368.56	293.768
1369.12	297.768
1369.69	296.768
1370.25	296.768
1370.81	297.768
1371.37	295.768
1371.94	283.768
1372.5	294.768
1373.07	294.768
1373.63	291.768
1374.19	301.768
1374.75	299.768
1375.32	292.768
1375.88	292.768
1376.44	300.768
1377	291.768
1377.57	303.768
1378.13	299.768
1378.69	304.768
1379.25	294.768
1379.82	301.768
1380.37	298.768
1380.94	295.768
1381.5	298.768
1382.07	298.768
1382.62	293.768
1383.19	300.768
1383.74	304.768
1384.31	301.768
1384.87	293.768
1385.43	299.768
1385.99	305.768
1386.56	299.768
1387.12	286.768
1387.68	290.768
1388.24	301.768
1388.8	295.768
1389.37	301.768
1389.92	298.768
1390.49	303.768
1391.04	306.768
1391.61	318.768
1392.17	309.768
1392.73	299.768
1393.29	295.768
1393.85	291.768
1394.42	297.768
1394.97	306.768
1395.54	295.768
1396.09	304.768
1396.66	301.768
1397.21	304.768
1397.78	302.768
1398.34	293.768
1398.9	293.768
1399.46	291.768
1400.01	299.768
1400.58	301.768
1401.14	310.768
1401.7	299.768
1402.26	297.768
1402.82	304.768
1403.38	309.768
1403.94	301.768
1404.5	293.768
1405.06	307.768
1405.61	300.768
1406.18	305.768
1406.73	300.768
1407.3	293.768
1407.86	297.768
1408.41	303.768
1408.98	298.768
1409.53	300.768
1410.09	294.768
1410.66	306.768
1411.21	305.768
1411.77	301.768
1412.33	305.768
1412.89	296.768
1413.45	304.768
1414	303.768
1414.57	304.768
1415.13	307.768
1415.68	303.768
1416.24	305.768
1416.8	304.768
1417.36	305.768
1417.92	305.768
1418.48	298.768
1419.03	314.768
1419.6	302.768
1420.15	305.768
1420.71	307.768
1421.27	307.768
1421.82	297.768
1422.38	295.768
1422.95	307.768
1423.5	310.768
1424.06	298.768
1424.62	306.768
1425.17	301.768
1425.73	305.768
1426.29	306.768
1426.84	295.768
1427.4	296.768
1427.97	298.768
1428.52	305.768
1429.08	302.768
1429.64	295.768
1430.19	305.768
1430.75	306.768
1431.31	298.768
1431.86	315.768
1432.42	299.768
1432.98	309.768
1433.54	303.768
1434.09	305.768
1434.65	308.768
1435.21	309.768
1435.76	302.768
1436.32	306.768
1436.88	301.768
1437.43	302.768
1437.99	296.768
1438.55	305.768
1439.1	313.768
1439.66	304.768
1440.21	305.768
1440.78	309.768
1441.32	308.768
1441.88	304.768
1442.44	306.768
1443	294.768
1443.55	305.768
1444.11	308.768
1444.67	315.768
1445.22	302.768
1445.77	309.768
1446.33	307.768
1446.89	302.768
1447.44	295.768
1448	307.768
1448.56	305.768
1449.11	310.768
1449.66	299.768
1450.22	303.768
1450.78	300.768
1451.33	312.768
1451.88	308.768
1452.44	307.768
1453	309.768
1453.55	311.768
1454.11	309.768
1454.66	309.768
1455.22	304.768
1455.77	310.768
1456.33	303.768
1456.88	297.768
1457.44	309.768
1457.99	310.768
1458.55	309.768
1459.1	306.768
1459.65	308.768
1460.21	314.768
1460.77	314.768
1461.32	313.768
1461.87	313.768
1462.43	313.768
1462.98	310.768
1463.54	303.768
1464.09	304.768
1464.64	305.768
1465.2	303.768
1465.75	305.768
1466.31	306.768
1466.86	312.768
1467.41	313.768
1467.97	306.768
1468.52	301.768
1469.08	318.768
1469.63	310.768
1470.18	317.768
1470.73	309.768
1471.29	315.768
1471.84	315.768
1472.4	320.768
1472.94	311.768
1473.5	313.768
1474.05	300.768
1474.61	315.768
1475.16	306.768
1475.71	309.768
1476.26	313.768
1476.82	302.768
1477.37	298.768
1477.92	312.768
1478.48	301.768
1479.03	311.768
1479.58	305.768
1480.13	310.768
1480.68	303.768
1481.24	309.768
1481.79	311.768
1482.35	307.768
1482.9	306.768
1483.44	315.768
1484	310.768
1484.55	318.768
1485.1	317.768
1485.66	307.768
1486.21	313.768
1486.76	301.768
1487.31	306.768
1487.86	315.768
1488.41	309.768
1488.97	303.768
1489.52	311.768
1490.07	308.768
1490.62	311.768
1491.18	305.768
1491.72	310.768
1492.27	308.768
1492.82	309.768
1493.38	309.768
1493.93	305.768
1494.48	314.768
1495.03	304.768
1495.59	306.768
1496.14	308.768
1496.69	309.768
1497.23	318.768
1497.78	319.768
1498.33	304.768
1498.89	311.768
1499.44	314.768
1500	319.768
