19.6939	1041.24
20.3726	1058.24
21.049	1040.24
21.7253	1075.24
22.4015	1103.24
23.0778	1171.24
23.7539	1207.24
24.4301	1250.24
25.1061	1298.24
25.7822	1361.24
26.4581	1381.24
27.1341	1451.24
27.81	1467.24
28.4858	1523.24
29.1639	1538.24
29.8396	1596.24
30.5153	1655.24
31.191	1727.24
31.8643	1715.24
32.5398	1789.24
33.2154	1850.24
33.8908	1937.24
34.5662	1982.24
35.2416	2032.24
35.9169	2071.24
36.5922	2085.24
37.2674	2123.24
37.9426	2195.24
38.6178	2225.24
39.2928	2238.24
39.9679	2346.24
40.6406	2334.24
41.3155	2398.24
41.9904	2404.24
42.6653	2462.24
43.3401	2550.24
44.0148	2550.24
44.6895	2587.24
45.3619	2565.24
46.0365	2598.24
46.7111	2694.24
47.3856	2637.24
48.0601	2736.24
48.7322	2758.24
49.4066	2797.24
50.081	2763.24
50.7553	2789.24
51.4272	2857.24
52.1014	2842.24
52.7756	2854.24
53.4474	2828.24
54.1214	2840.24
54.7954	2910.24
55.4671	2937.24
56.141	2930.24
56.8149	2937.24
57.4864	3005.24
58.1602	3045.24
58.8339	3166.24
59.5053	3036.24
60.1789	2989.24
60.8525	2955.24
61.5238	3055.24
62.1973	2974.24
62.8684	3036.24
63.5418	3037.24
64.2152	3143.24
64.8862	3069.24
65.5594	3037.24
66.2304	3094.24
66.9035	3065.24
67.5744	3030.24
68.2474	3073.24
68.9182	3054.24
69.5912	3018.24
70.2618	3118.24
70.9347	3102.24
71.6052	3032.24
72.278	3094.24
72.9485	3022.24
73.6212	3140.24
74.2916	3131.24
74.9619	3081.24
75.6344	3113.24
76.3047	3069.24
76.9771	3113.24
77.6473	3056.24
78.3173	3006.24
78.9897	3055.24
79.6597	3044.24
80.3319	3054.24
81.0018	3113.24
81.6717	3059.24
82.3438	3065.24
83.0135	2979.24
83.6832	3041.24
84.3552	2995.24
85.0248	3010.24
85.6944	2955.24
86.3639	3025.24
87.0357	3055.24
87.7051	3094.24
88.3745	3031.24
89.0438	2995.24
89.7154	2991.24
90.3847	3014.24
91.0539	3053.24
91.723	2986.24
92.3944	3002.24
93.0635	3032.24
93.7325	2958.24
94.4015	3107.24
95.0704	3020.24
95.7393	3031.24
96.4104	2863.24
97.0792	2981.24
97.7479	2845.24
98.4166	2835.24
99.0853	2892.24
99.7539	2846.24
100.422	2893.24
101.091	2880.24
101.759	2915.24
102.428	2913.24
103.098	2944.24
103.767	2898.24
104.435	2920.24
105.103	2966.24
105.772	2953.24
106.44	2885.24
107.108	2906.24
107.776	2966.24
108.444	2873.24
109.112	2834.24
109.78	2837.24
110.448	2938.24
111.115	2846.24
111.783	2858.24
112.449	2819.24
113.116	2854.24
113.784	2868.24
114.451	2948.24
115.119	3022.24
115.787	2860.24
116.454	2813.24
117.121	2869.24
117.789	2795.24
118.456	2784.24
119.121	2838.24
119.788	2699.24
120.455	2765.24
121.123	2810.24
121.79	2731.24
122.454	2713.24
123.121	2784.24
123.788	2762.24
124.455	2716.24
125.122	2754.24
125.787	2685.24
126.453	2707.24
127.12	2775.24
127.787	2762.24
128.451	2765.24
129.118	2621.24
129.784	2707.24
130.448	2744.24
131.115	2640.24
131.781	2705.24
132.448	2593.24
133.112	2638.24
133.778	2582.24
134.442	2628.24
135.108	2673.24
135.774	2639.24
136.438	2614.24
137.104	2605.24
137.77	2683.24
138.433	2563.24
139.099	2710.24
139.763	2600.24
140.429	2608.24
141.092	2619.24
141.758	2611.24
142.424	2634.24
143.087	2566.24
143.752	2593.24
144.416	2612.24
145.081	2603.24
145.744	2574.24
146.41	2569.24
147.073	2634.24
147.738	2540.24
148.401	2534.24
149.064	2514.24
149.729	2570.24
150.392	2529.24
151.057	2518.24
151.72	2522.24
152.385	2546.24
153.047	2529.24
153.71	2499.24
154.375	2513.24
155.037	2549.24
155.702	2531.24
156.364	2494.24
157.027	2544.24
157.691	2524.24
158.354	2409.24
159.016	2531.24
159.678	2479.24
160.343	2449.24
161.005	2468.24
161.667	2475.24
162.331	2475.24
162.993	2383.24
163.655	2406.24
164.317	2456.24
164.981	2435.24
165.643	2458.24
166.304	2429.24
166.966	2475.24
167.63	2465.24
168.292	2494.24
168.953	2394.24
169.615	2475.24
170.276	2432.24
170.938	2416.24
171.601	2411.24
172.263	2397.24
172.924	2410.24
173.585	2404.24
174.246	2421.24
174.907	2368.24
175.569	2403.24
176.23	2380.24
176.891	2374.24
177.552	2442.24
178.215	2434.24
178.876	2389.24
179.537	2406.24
180.197	2438.24
180.858	2396.24
181.519	2348.24
182.179	2363.24
182.84	2413.24
183.501	2412.24
184.161	2393.24
184.822	2411.24
185.482	2345.24
186.142	2358.24
186.8	2374.24
187.461	2419.24
188.121	2384.24
188.781	2402.24
189.441	2380.24
190.101	2388.24
190.762	2394.24
191.422	2308.24
192.081	2397.24
192.741	2349.24
193.399	2342.24
194.059	2402.24
194.719	2349.24
195.378	2398.24
196.038	2353.24
196.698	2417.24
197.355	2393.24
198.015	2358.24
198.674	2404.24
199.334	2405.24
199.991	2389.24
200.65	2401.24
201.31	2369.24
201.969	2390.24
202.626	2374.24
203.285	2422.24
203.944	2396.24
204.603	2373.24
205.26	2326.24
205.919	2357.24
206.578	2389.24
207.235	2398.24
207.894	2421.24
208.553	2393.24
209.209	2430.24
209.868	2381.24
210.524	2390.24
211.183	2432.24
211.842	2379.24
212.498	2373.24
213.156	2422.24
213.813	2395.24
214.471	2409.24
215.13	2409.24
215.786	2411.24
216.444	2385.24
217.1	2369.24
217.758	2368.24
218.414	2361.24
219.072	2414.24
219.728	2454.24
220.386	2416.24
221.042	2388.24
221.7	2378.24
222.355	2429.24
223.013	2430.24
223.669	2433.24
224.324	2427.24
224.982	2486.24
225.637	2437.24
226.295	2445.24
226.95	2413.24
227.606	2448.24
228.263	2479.24
228.918	2488.24
229.573	2501.24
230.231	2413.24
230.886	2468.24
231.543	2494.24
232.198	2469.24
232.853	2443.24
233.508	2508.24
234.165	2479.24
234.82	2518.24
235.475	2493.24
236.132	2554.24
236.786	2533.24
237.441	2476.24
238.095	2600.24
238.752	2499.24
239.407	2541.24
240.061	2480.24
240.715	2552.24
241.37	2507.24
242.026	2564.24
242.681	2522.24
243.335	2564.24
243.989	2544.24
244.643	2533.24
245.297	2580.24
245.951	2586.24
246.607	2547.24
247.261	2480.24
247.915	2629.24
248.569	2598.24
249.223	2638.24
249.877	2710.24
250.53	2650.24
251.184	2634.24
251.838	2574.24
252.491	2666.24
253.145	2617.24
253.798	2652.24
254.452	2702.24
255.105	2707.24
255.759	2624.24
256.412	2655.24
257.065	2621.24
257.719	2686.24
258.372	2665.24
259.025	2756.24
259.678	2677.24
260.331	2649.24
260.984	2661.24
261.637	2698.24
262.29	2720.24
262.943	2736.24
263.596	2691.24
264.246	2775.24
264.899	2730.24
265.552	2749.24
266.204	2753.24
266.857	2766.24
267.509	2801.24
268.16	2761.24
268.812	2819.24
269.465	2784.24
270.117	2841.24
270.769	2815.24
271.419	2813.24
272.072	2822.24
272.724	2814.24
273.376	2846.24
274.026	2871.24
274.678	2859.24
275.33	2836.24
275.982	2886.24
276.632	2870.24
277.284	2919.24
277.935	2865.24
278.585	2878.24
279.237	2909.24
279.889	2919.24
280.538	2905.24
281.19	2927.24
281.841	2995.24
282.491	2930.24
283.142	2966.24
283.791	2973.24
284.443	2966.24
285.094	2917.24
285.743	2961.24
286.394	3030.24
287.043	2944.24
287.695	3035.24
288.343	3052.24
288.995	2996.24
289.643	3021.24
290.294	2964.24
290.943	3070.24
291.594	2976.24
292.243	3122.24
292.894	3091.24
293.542	3078.24
294.193	3034.24
294.841	3040.24
295.492	3078.24
296.14	3017.24
296.789	3154.24
297.439	3071.24
298.088	3124.24
298.738	3032.24
299.386	3066.24
300.034	3158.24
300.685	3202.24
301.333	3199.24
301.981	3169.24
302.631	3078.24
303.279	3197.24
303.927	3260.24
304.577	3152.24
305.224	3191.24
305.872	3214.24
306.522	3248.24
307.17	3149.24
307.817	3247.24
308.465	3181.24
309.114	3330.24
309.762	3254.24
310.409	3259.24
311.057	3275.24
311.704	3321.24
312.354	3283.24
313.001	3334.24
313.648	3341.24
314.295	3344.24
314.942	3321.24
315.592	3336.24
316.239	3350.24
316.886	3291.24
317.532	3423.24
318.179	3454.24
318.826	3368.24
319.473	3404.24
320.12	3426.24
320.766	3428.24
321.413	3426.24
322.06	3513.24
322.709	3454.24
323.355	3497.24
324.002	3425.24
324.648	3532.24
325.294	3523.24
325.941	3467.24
326.587	3524.24
327.233	3505.24
327.88	3544.24
328.526	3533.24
329.17	3554.24
329.816	3636.24
330.462	3600.24
331.108	3665.24
331.754	3616.24
332.4	3663.24
333.046	3662.24
333.692	3621.24
334.337	3731.24
334.983	3667.24
335.629	3746.24
336.272	3688.24
336.918	3666.24
337.564	3715.24
338.209	3761.24
338.855	3901.24
339.498	3731.24
340.143	3814.24
340.789	3860.24
341.434	3793.24
342.079	3864.24
342.722	3913.24
343.367	3904.24
344.012	3901.24
344.658	3901.24
345.3	3913.24
345.945	3928.24
346.59	3997.24
347.233	3920.24
347.878	3957.24
348.523	3902.24
349.165	3993.24
349.81	3951.24
350.455	4056.24
351.097	3987.24
351.742	4085.24
352.386	3982.24
353.029	4063.24
353.673	4131.24
354.315	4117.24
354.96	4157.24
355.604	4152.24
356.246	4124.24
356.891	4221.24
357.533	4174.24
358.177	4211.24
358.819	4184.24
359.463	4308.24
360.105	4321.24
360.749	4291.24
361.39	4236.24
362.034	4225.24
362.676	4378.24
363.32	4193.24
363.961	4458.24
364.605	4351.24
365.247	4387.24
365.888	4393.24
366.532	4420.24
367.173	4451.24
367.817	4392.24
368.458	4494.24
369.099	4492.24
369.742	4531.24
370.384	4575.24
371.025	4502.24
371.668	4501.24
372.309	4598.24
372.95	4689.24
373.593	4589.24
374.234	4648.24
374.875	4719.24
375.518	4584.24
376.159	4670.24
376.799	4675.24
377.44	4677.24
378.083	4611.24
378.723	4716.24
379.364	4643.24
380.004	4783.24
380.647	4779.24
381.288	4790.24
381.928	4792.24
382.568	4872.24
383.209	4901.24
383.849	4824.24
384.491	4896.24
385.131	4862.24
385.771	4919.24
386.411	4866.24
387.052	4832.24
387.692	4993.24
388.331	5053.24
388.971	5092.24
389.611	5065.24
390.253	4987.24
390.893	5059.24
391.533	5016.24
392.172	4928.24
392.812	5107.24
393.452	5044.24
394.091	5178.24
394.731	5235.24
395.37	5137.24
396.01	5049.24
396.649	5259.24
397.288	5134.24
397.928	5299.24
398.567	5299.24
399.204	5134.24
399.843	5328.24
400.482	5383.24
401.121	5246.24
401.76	5278.24
402.399	5406.24
403.038	5423.24
403.677	5360.24
404.316	5377.24
404.953	5456.24
405.591	5529.24
406.23	5511.24
406.869	5633.24
407.507	5593.24
408.146	5667.24
408.782	5713.24
409.421	5673.24
410.059	5679.24
410.698	5493.24
411.334	5654.24
411.972	5521.24
412.611	5780.24
413.249	5759.24
413.885	5737.24
414.523	5845.24
415.161	5804.24
415.797	5896.24
416.435	5917.24
417.073	5930.24
417.709	5881.24
418.347	5959.24
418.985	6001.24
419.62	5947.24
420.258	5910.24
420.896	6049.24
421.531	6025.24
422.169	6087.24
422.804	6216.24
423.442	6211.24
424.077	6290.24
424.715	6357.24
425.352	6096.24
425.987	6310.24
426.625	6256.24
427.26	6284.24
427.897	6160.24
428.532	6275.24
429.169	6359.24
429.804	6375.24
430.442	6459.24
431.076	6503.24
431.711	6525.24
432.348	6411.24
432.983	6473.24
433.62	6731.24
434.254	6667.24
434.891	6577.24
435.526	6819.24
436.16	6736.24
436.797	6668.24
437.431	6681.24
438.066	6753.24
438.702	6700.24
439.337	6652.24
439.971	6978.24
440.607	6971.24
441.242	6833.24
441.876	6971.24
442.512	6947.24
443.146	6954.24
443.78	7105.24
444.414	6946.24
445.05	7141.24
445.684	7005.24
446.318	7031.24
446.952	7027.24
447.588	6997.24
448.221	7038.24
448.855	7147.24
449.489	7213.24
450.122	7028.24
450.758	7222.24
451.392	7102.24
452.025	7048.24
452.659	7269.24
453.292	7053.24
453.925	7278.24
454.559	7331.24
455.192	7394.24
455.827	7401.24
456.46	7267.24
457.093	7246.24
457.727	7135.24
458.36	7507.24
458.993	7229.24
459.626	7249.24
460.258	7401.24
460.891	7294.24
461.524	7131.24
462.157	7291.24
462.79	7423.24
463.422	7433.24
464.055	7357.24
464.688	7241.24
465.32	7428.24
465.953	7314.24
466.585	7424.24
467.216	7325.24
467.848	7323.24
468.48	7327.24
469.113	7159.24
469.745	7301.24
470.377	7200.24
471.009	7206.24
471.642	7228.24
472.271	7156.24
472.904	7192.24
473.536	7136.24
474.168	7276.24
474.799	7232.24
475.429	7027.24
476.061	7126.24
476.693	7211.24
477.325	7283.24
477.956	7189.24
478.586	7310.24
479.218	7248.24
479.849	7345.24
480.479	7369.24
481.11	7278.24
481.742	7238.24
482.373	7104.24
483.002	7151.24
483.634	7189.24
484.265	7132.24
484.894	7116.24
485.525	7156.24
486.154	7307.24
486.785	7070.24
487.416	7169.24
488.045	7051.24
488.676	7217.24
489.305	7076.24
489.936	7206.24
490.567	7007.24
491.196	7163.24
491.826	7091.24
492.455	6949.24
493.086	7006.24
493.714	6887.24
494.345	6880.24
494.973	6899.24
495.604	6715.24
496.232	6654.24
496.863	6560.24
497.491	6568.24
498.121	6471.24
498.749	6472.24
499.378	6451.24
500.008	6244.24
500.636	6156.24
501.266	6269.24
501.894	6003.24
502.522	5896.24
503.152	5820.24
503.78	5837.24
504.408	5817.24
505.037	5529.24
505.665	5437.24
506.293	5363.24
506.923	5440.24
507.55	5211.24
508.178	5245.24
508.807	4973.24
509.435	4941.24
510.062	4963.24
510.69	4870.24
511.319	4727.24
511.946	4755.24
512.574	4557.24
513.201	4499.24
513.828	4561.24
514.457	4411.24
515.084	4338.24
515.711	4248.24
516.338	4182.24
516.965	4121.24
517.592	4019.24
518.221	3961.24
518.848	3952.24
519.475	3918.24
520.102	3800.24
520.728	3742.24
521.355	3664.24
521.982	3633.24
522.608	3574.24
523.235	3506.24
523.861	3447.24
524.488	3435.24
525.114	3334.24
525.741	3325.24
526.367	3230.24
526.993	3183.24
527.619	3144.24
528.246	3096.24
528.872	3038.24
529.498	3083.24
530.124	3039.24
530.75	2921.24
531.376	2884.24
532.002	2903.24
532.628	2913.24
533.254	2929.24
533.88	2820.24
534.505	2789.24
535.131	2726.24
535.755	2641.24
536.38	2609.24
537.006	2658.24
537.632	2576.24
538.257	2546.24
538.883	2574.24
539.506	2566.24
540.131	2478.24
540.757	2478.24
541.382	2433.24
542.005	2445.24
542.63	2413.24
543.256	2403.24
543.881	2401.24
544.504	2334.24
545.129	2308.24
545.754	2299.24
546.379	2315.24
547.002	2319.24
547.627	2276.24
548.251	2241.24
548.874	2240.24
549.499	2189.24
550.121	2223.24
550.746	2164.24
551.371	2120.24
551.993	2154.24
552.618	2163.24
553.242	2108.24
553.865	2087.24
554.489	2075.24
555.112	2072.24
555.736	2110.24
556.358	2059.24
556.982	2065.24
557.604	2033.24
558.229	2045.24
558.851	1973.24
559.475	2045.24
560.097	1996.24
560.721	2019.24
561.343	2043.24
561.967	1982.24
562.588	1999.24
563.212	1961.24
563.834	1943.24
564.456	1973.24
565.079	1952.24
565.701	1942.24
566.325	1947.24
566.946	1920.24
567.568	1941.24
568.191	1921.24
568.812	1914.24
569.434	1903.24
570.057	1907.24
570.678	1854.24
571.3	1897.24
571.923	1893.24
572.544	1905.24
573.165	1882.24
573.786	1871.24
574.409	1833.24
575.03	1871.24
575.651	1863.24
576.272	1808.24
576.895	1886.24
577.516	1861.24
578.136	1770.24
578.757	1805.24
579.378	1806.24
580	1846.24
580.621	1797.24
581.242	1759.24
581.862	1783.24
582.483	1745.24
583.103	1777.24
583.723	1788.24
584.344	1761.24
584.964	1737.24
585.586	1737.24
586.207	1686.24
586.827	1714.24
587.447	1702.24
588.067	1681.24
588.687	1709.24
589.307	1697.24
589.927	1685.24
590.547	1688.24
591.167	1653.24
591.787	1690.24
592.406	1639.24
593.026	1688.24
593.646	1642.24
594.265	1658.24
594.885	1616.24
595.503	1600.24
596.122	1577.24
596.742	1593.24
597.361	1585.24
597.98	1563.24
598.6	1593.24
599.219	1521.24
599.839	1553.24
600.456	1496.24
601.075	1539.24
601.694	1512.24
602.313	1486.24
602.932	1476.24
603.551	1483.24
604.168	1472.24
604.787	1432.24
605.406	1458.24
606.025	1376.24
606.642	1406.24
607.261	1392.24
607.879	1385.24
608.496	1357.06
609.115	1374.97
609.733	1354.57
610.352	1324.8
610.968	1313.07
611.587	1303.2
612.205	1298.57
612.822	1291.28
613.44	1272.63
614.056	1247.71
614.675	1241.4
615.293	1247.03
615.909	1234.71
616.527	1219.52
617.143	1204.15
617.761	1192.53
618.379	1184.46
618.995	1160.66
619.613	1151.62
620.229	1158.7
620.847	1141.16
621.463	1119.1
622.081	1126.31
622.696	1108.36
623.314	1098.77
623.93	1094.41
624.545	1079.43
625.163	1091.27
625.778	1073.45
626.396	1054.87
627.011	1038.82
627.629	1036.47
628.244	1042.78
628.859	1014.77
629.476	1007.71
630.092	1000.35
630.707	994.193
631.324	1008.98
631.939	991.763
632.554	989.837
633.171	982.4
633.786	966.433
634.401	960.778
635.018	950.626
635.633	950.937
636.247	940.745
636.862	947.712
637.479	944.355
638.094	944.706
638.708	946.647
639.323	907.581
639.939	923.694
640.554	903.343
641.168	912.522
641.783	884.125
642.397	893.357
643.011	889.39
643.628	881.397
644.242	886.868
644.856	864.98
645.47	866.65
646.085	858.815
646.699	859.041
647.313	855.538
647.927	855.035
648.541	849.618
649.154	830.154
649.771	849.797
650.384	821.585
650.998	829.592
651.612	825.188
652.226	839.308
652.839	824.898
653.453	816.163
654.067	805.07
654.68	794.759
655.093	805.759
655.715	812.759
656.34	814.759
656.964	795.759
657.586	795.759
658.21	785.759
658.834	775.759
659.456	789.759
660.08	782.759
660.704	769.759
661.325	771.759
661.949	761.759
662.571	748.759
663.195	747.759
663.818	755.759
664.44	752.759
665.063	759.759
665.685	766.759
666.308	749.759
666.93	732.759
667.553	736.759
668.174	736.759
668.798	717.759
669.419	729.759
670.042	753.759
670.664	716.759
671.287	728.759
671.908	710.759
672.531	718.759
673.152	694.759
673.775	711.759
674.396	706.759
675.017	702.759
675.639	701.759
676.26	690.759
676.883	690.759
677.504	700.759
678.124	689.759
678.747	677.759
679.368	678.759
679.988	674.759
680.611	674.759
681.231	670.759
681.851	673.759
682.474	654.759
683.094	643.759
683.714	640.759
684.337	655.759
684.957	653.759
685.577	655.759
686.197	642.759
686.819	628.759
687.439	645.759
688.059	624.759
688.679	640.759
689.301	636.759
689.921	630.759
690.541	631.759
691.161	633.759
691.78	617.759
692.4	616.759
693.022	622.759
693.641	605.759
694.261	610.759
694.88	610.759
695.5	610.759
696.119	616.759
696.739	596.759
697.36	602.759
697.979	603.759
698.599	604.759
699.218	590.759
699.837	588.759
700.456	597.759
701.075	579.759
701.694	584.759
702.313	585.759
702.932	580.759
703.551	576.759
704.17	568.759
704.789	559.759
705.408	573.759
706.026	582.759
706.645	560.759
707.264	553.759
707.883	558.759
708.501	560.759
709.12	568.759
709.738	560.759
710.355	551.759
710.973	557.759
711.591	544.759
712.21	541.759
712.828	539.759
713.446	546.759
714.065	546.759
714.681	531.759
715.299	556.759
715.917	539.759
716.535	538.759
717.153	540.759
717.771	530.759
718.387	526.759
719.005	536.759
719.623	521.759
720.24	534.759
720.856	532.759
721.474	531.759
722.091	529.759
722.709	524.759
723.325	518.759
723.942	528.759
724.56	519.759
725.175	516.759
725.793	526.759
726.41	519.759
727.025	513.759
727.643	515.759
728.26	514.759
728.875	524.759
729.492	516.759
730.109	514.759
730.724	506.759
731.341	506.759
731.956	490.759
732.573	516.759
733.19	509.759
733.805	505.759
734.422	507.759
735.037	512.759
735.654	501.759
736.268	504.759
736.885	502.759
737.5	515.759
738.116	510.759
738.731	499.759
739.347	494.759
739.962	502.759
740.578	494.759
741.192	490.759
741.809	500.759
742.423	496.759
743.037	511.759
743.654	508.759
744.268	494.759
744.884	499.759
745.498	496.759
746.112	516.759
746.728	498.759
747.342	491.759
747.956	497.759
748.572	503.759
749.185	492.759
749.799	496.759
750.415	492.759
751.029	506.759
751.642	512.759
752.258	505.759
752.872	504.759
753.485	510.759
754.101	487.759
754.714	493.759
755.328	514.759
755.941	502.759
756.554	498.759
757.17	507.759
757.783	512.759
758.396	510.759
759.009	498.759
759.622	502.759
760.237	504.759
760.85	521.759
761.463	518.759
762.076	524.759
762.689	519.759
763.302	531.759
763.915	517.759
764.53	524.759
765.143	530.759
765.755	530.759
766.368	537.759
766.981	525.759
767.593	522.759
768.206	531.759
768.818	526.759
769.431	538.759
770.043	542.759
770.655	541.759
771.268	538.759
771.88	532.759
772.492	542.759
773.104	545.759
773.717	551.759
774.329	556.759
774.941	552.759
775.553	555.759
776.165	565.759
776.777	571.759
777.389	554.759
777.999	568.759
778.61	552.759
779.222	576.759
779.834	579.759
780.446	586.759
781.057	582.759
781.669	573.759
782.281	583.759
782.89	589.759
783.502	583.759
784.113	586.759
784.725	587.759
785.336	590.759
785.945	586.759
786.557	580.759
787.168	589.759
787.779	592.759
788.388	583.759
789	586.759
789.611	591.759
790.222	571.759
790.831	593.759
791.442	594.759
792.053	589.759
792.661	595.759
793.272	598.759
793.883	583.759
794.492	600.759
795.103	592.759
795.713	594.759
796.322	584.759
796.933	592.759
797.543	582.759
798.152	590.759
798.762	583.759
799.371	587.759
799.981	596.759
800.589	582.759
801.2	568.759
801.808	577.759
802.418	576.759
803.029	575.759
803.637	572.759
804.247	574.759
804.855	570.759
805.465	562.759
806.073	552.759
806.683	569.759
807.291	557.759
807.898	570.759
808.508	549.759
809.116	548.759
809.726	552.759
810.334	553.759
810.943	549.759
811.551	545.759
812.159	552.759
812.768	536.759
813.376	534.759
813.983	533.759
814.592	526.759
815.2	519.759
815.807	524.759
816.417	519.759
817.024	515.759
817.631	513.759
818.24	512.759
818.847	502.759
819.454	503.759
820.061	496.759
820.67	502.759
821.277	491.759
821.884	498.759
822.491	486.759
823.1	479.759
823.707	474.759
824.314	465.759
824.92	478.759
825.527	464.759
826.136	460.759
826.742	451.759
827.349	451.759
827.955	448.759
828.562	442.759
829.168	437.759
829.775	428.759
830.383	425.759
830.989	421.759
831.596	408.759
832.202	409.759
832.808	405.759
833.414	412.759
834.02	407.759
834.627	398.759
835.233	399.759
835.839	387.759
836.445	384.759
837.05	381.759
837.656	373.759
838.262	355.759
838.868	366.759
839.474	355.759
840.079	361.759
840.685	354.759
841.291	360.759
841.896	342.759
842.502	336.759
843.107	341.759
843.711	334.759
844.316	334.759
844.922	315.759
845.527	315.759
846.132	312.759
846.738	315.759
847.343	313.759
847.948	302.759
848.551	299.759
849.156	309.759
849.761	296.759
850.366	294.759
850.971	290.759
851.574	292.759
852.179	279.759
852.784	294.759
853.389	287.759
853.992	290.759
854.596	282.759
855.201	285.759
855.806	273.759
856.408	278.759
857.013	273.759
857.618	272.759
858.22	272.759
858.825	270.759
859.429	276.759
860.031	263.759
860.636	273.759
861.24	272.759
861.842	268.759
862.446	270.759
863.049	266.759
863.653	274.759
864.257	271.759
864.859	272.759
865.463	272.759
866.065	280.759
866.669	275.759
867.271	268.759
867.875	280.759
868.476	278.759
869.08	276.759
869.682	265.759
870.286	282.759
870.887	283.759
871.491	287.759
872.092	288.759
872.696	294.759
873.298	290.759
873.901	300.759
874.502	289.759
875.104	290.759
875.707	296.759
876.308	298.759
876.912	292.759
877.513	287.759
878.114	305.759
878.717	300.759
879.318	303.759
879.919	306.759
880.522	309.759
881.123	298.759
881.724	308.759
882.327	314.759
882.928	311.759
883.529	316.759
884.13	308.759
884.732	323.759
885.333	333.759
885.934	320.759
886.534	329.759
887.137	331.759
887.738	337.759
888.338	342.759
888.938	336.759
889.539	342.759
890.141	341.759
890.742	348.759
891.342	348.759
891.942	352.759
892.542	345.759
893.143	349.759
893.743	355.759
894.345	367.759
894.945	360.759
895.545	369.759
896.145	361.759
896.745	370.759
897.345	381.759
897.945	379.759
898.544	383.759
899.144	382.759
899.744	394.759
900.344	398.759
900.943	404.759
901.543	394.759
902.143	401.759
902.742	408.759
903.342	414.759
903.941	411.759
904.54	409.759
905.14	421.759
905.739	419.759
906.339	428.759
906.938	433.759
907.537	444.759
908.134	433.759
908.733	440.759
909.332	427.759
909.932	451.759
910.531	455.759
911.13	461.759
911.729	462.759
912.325	466.759
912.924	474.759
913.523	463.759
914.122	470.759
914.721	482.759
915.317	471.759
915.916	478.759
916.515	502.759
917.113	493.759
917.71	494.759
918.308	504.759
918.907	500.759
919.505	514.759
920.102	501.759
920.7	505.759
921.298	522.759
921.895	515.759
922.493	524.759
923.091	524.759
923.687	528.759
924.285	537.759
924.883	536.759
925.479	545.759
926.077	549.759
926.673	554.759
927.271	546.759
927.869	551.759
928.465	553.759
929.063	562.759
929.659	568.759
930.256	579.759
930.852	572.759
931.45	581.759
932.045	575.759
932.643	585.759
933.238	591.759
933.836	593.759
934.431	595.759
935.029	596.759
935.624	586.759
936.221	600.759
936.817	615.759
937.412	613.759
938.009	622.759
938.604	622.759
939.202	609.759
939.797	633.759
940.392	624.759
940.989	621.759
941.584	640.759
942.181	635.759
942.776	633.759
943.37	650.759
943.967	647.759
944.562	647.759
945.157	632.759
945.751	664.759
946.348	652.759
946.943	647.759
947.537	676.759
948.132	672.759
948.728	678.759
949.323	668.759
949.917	667.759
950.512	686.759
951.108	682.759
951.702	709.759
952.297	701.759
952.891	691.759
953.485	711.759
954.079	702.759
954.675	715.759
955.269	699.759
955.863	731.759
956.457	724.759
957.051	732.759
957.645	732.759
958.239	731.759
958.833	717.759
959.427	744.759
960.021	735.759
960.616	757.759
961.21	744.759
961.804	751.759
962.397	764.759
962.991	760.759
963.584	758.759
964.178	784.759
964.771	768.759
965.365	770.759
965.958	788.759
966.549	795.759
967.143	802.759
967.736	792.759
968.329	782.759
968.922	790.759
969.516	824.759
970.109	819.759
970.702	803.759
971.295	820.759
971.888	820.759
972.479	843.759
973.072	830.759
973.665	845.759
974.257	856.759
974.85	860.759
975.443	857.759
976.034	868.759
976.626	871.759
977.219	885.759
977.812	872.759
978.404	873.759
978.995	893.759
979.587	899.759
980.18	880.759
980.77	907.759
981.362	921.759
981.955	919.759
982.547	913.759
983.137	933.759
983.729	930.759
984.322	936.759
984.912	942.759
985.504	945.759
986.094	949.759
986.686	977.759
987.278	964.759
987.868	977.759
988.46	985.759
989.052	991.759
989.641	1008.76
990.233	1024.76
990.823	1007.76
991.415	1021.76
992.004	1027.76
992.596	1012.76
993.186	1039.76
993.777	1035.76
994.367	1019.76
994.958	1039.76
995.548	1062.76
996.139	1050.76
996.728	1054.76
997.32	1062.76
997.909	1072.76
998.5	1065.76
999.09	1108.76
999.679	1110.76
1000.27	1099.76
1000.86	1095.76
1001.45	1117.76
1002.04	1110.76
1002.63	1125.76
1003.22	1120.76
1003.81	1118.76
1004.4	1107.76
1004.99	1149.76
1005.58	1135.76
1006.17	1133.76
1006.76	1128.76
1007.34	1144.76
1007.93	1155.76
1008.52	1172.76
1009.11	1150.76
1009.7	1193.76
1010.29	1173.76
1010.88	1191.76
1011.47	1203.76
1012.06	1183.76
1012.64	1189.76
1013.23	1190.76
1013.82	1199.76
1014.41	1212.76
1015	1202.76
1015.59	1216.76
1016.18	1204.76
1016.76	1231.76
1017.35	1208.76
1017.94	1250.76
1018.53	1234.76
1019.12	1248.76
1019.71	1246.76
1020.29	1250.76
1020.88	1255.76
1021.47	1250.76
1022.06	1276.76
1022.64	1267.76
1023.23	1278.76
1023.82	1246.76
1024.41	1259.76
1024.99	1261.76
1025.58	1279.76
1026.17	1276.76
1026.76	1294.76
1027.34	1289.76
1027.93	1278.76
1028.52	1287.76
1029.1	1270.76
1029.69	1266.76
1030.28	1295.76
1030.87	1301.76
1031.45	1309.76
1032.04	1305.76
1032.63	1289.76
1033.21	1313.76
1033.8	1298.76
1034.39	1283.76
1034.97	1260.76
1035.56	1316.76
1036.15	1268.76
1036.73	1292.76
1037.32	1295.76
1037.9	1312.76
1038.49	1297.76
1039.08	1314.76
1039.66	1286.76
1040.25	1277.76
1040.84	1311.76
1041.42	1272.76
1042.01	1295.76
1042.59	1294.76
1043.18	1248.76
1043.76	1278.76
1044.35	1247.76
1044.94	1294.76
1045.52	1243.76
1046.11	1256.76
1046.69	1270.76
1047.28	1252.76
1047.86	1236.76
1048.45	1241.76
1049.03	1260.76
1049.62	1230.76
1050.2	1238.76
1050.79	1239.76
1051.37	1222.76
1051.96	1230.76
1052.54	1186.76
1053.13	1223.76
1053.71	1214.76
1054.3	1227.76
1054.88	1161.76
1055.47	1200.76
1056.05	1186.76
1056.63	1162.76
1057.22	1154.76
1057.8	1158.76
1058.39	1163.76
1058.97	1136.76
1059.56	1137.76
1060.14	1144.76
1060.72	1082.76
1061.31	1127.76
1061.89	1118.76
1062.48	1121.76
1063.06	1098.76
1063.64	1070.76
1064.23	1084.76
1064.81	1066.76
1065.39	1056.76
1065.98	1065.76
1066.56	1044.76
1067.14	1040.76
1067.73	1050.76
1068.31	1028.76
1068.89	1024.76
1069.48	1028.76
1070.06	1010.76
1070.64	1022.76
1071.23	1020.76
1071.81	985.759
1072.39	989.759
1072.97	964.759
1073.56	970.759
1074.14	940.759
1074.72	957.759
1075.3	945.759
1075.89	940.759
1076.47	933.759
1077.05	900.759
1077.63	919.759
1078.22	922.759
1078.8	899.759
1079.38	885.759
1079.96	884.759
1080.54	877.759
1081.13	884.759
1081.71	860.759
1082.29	867.759
1082.87	863.759
1083.45	863.759
1084.04	834.759
1084.62	839.759
1085.2	837.759
1085.78	836.759
1086.36	814.759
1086.94	822.759
1087.52	797.759
1088.11	797.759
1088.69	808.759
1089.27	778.759
1089.85	779.759
1090.43	774.759
1091.01	781.759
1091.59	765.759
1092.17	759.759
1092.75	771.759
1093.34	762.759
1093.92	742.759
1094.5	738.759
1095.08	740.759
1095.66	724.759
1096.24	749.759
1096.82	725.759
1097.4	728.759
1097.98	729.759
1098.56	710.759
1099.14	730.759
1099.72	712.759
1100.3	714.759
1100.88	711.759
1101.46	700.759
1102.04	708.759
1102.62	684.759
1103.2	700.759
1103.78	672.759
1104.36	682.759
1104.94	680.759
1105.52	672.759
1106.1	673.759
1106.68	668.759
1107.26	670.759
1107.84	665.759
1108.42	654.759
1109	649.759
1109.57	645.759
1110.15	646.759
1110.73	649.759
1111.31	632.759
1111.89	642.759
1112.47	629.759
1113.05	642.759
1113.63	623.759
1114.2	623.759
1114.78	624.759
1115.36	626.759
1115.94	624.759
1116.52	602.759
1117.1	609.759
1117.68	616.759
1118.25	604.759
1118.83	607.128
1119.41	587.565
1119.99	607.334
1120.57	604.999
1121.15	593.888
1121.72	582.536
1122.3	595.699
1122.88	580.279
1123.46	576.477
1124.04	577.702
1124.61	573.911
1125.19	561.217
1125.77	567.757
1126.35	563.36
1126.92	559.917
1127.5	563.068
1128.08	569.768
1128.66	559.548
1129.23	552.774
1129.81	559.16
1130.39	543.54
1130.96	539.685
1131.54	530.248
1132.12	526.417
1132.69	547.546
1133.27	530.12
1133.85	526.751
1134.43	527.32
1135	533.54
1135.58	535.617
1136.15	523.18
1136.73	529
1137.31	510.649
1137.88	515.777
1138.46	512.26
1139.04	504.897
1139.61	517.889
1140.19	505.44
1140.77	501.523
1141.34	497.475
1141.92	496.677
1142.49	485.12
1143.07	487.249
1143.64	486.337
1144.22	489.946
1144.8	487.475
1145.37	480.032
1145.95	477.492
1146.52	474.5
1147.1	474.046
1147.67	463.66
1148.25	470.183
1148.83	458.432
1149.4	457.052
1149.97	465.881
1150.55	458.991
1151.13	458.433
1151.7	447.411
1152.28	455.576
1152.85	449.151
1153.42	449.945
1154	441.205
1154.58	441.582
1155.15	440.959
1155.72	438.994
1156.3	433.345
1156.87	434.831
1157.45	434.997
1158.02	436.865
1158.6	426.265
1159.17	422.502
1159.74	428.342
1160.32	426.125
1160.89	415.411
1161.47	413.311
1162.04	416.643
1162.62	414.805
1163.19	410.897
1163.76	407.771
1164.34	412.18
1164.91	402.731
1165.48	406.228
1166.06	403.454
1166.63	404.64
1167.2	401.414
1167.78	397.791
1168.35	396.157
1168.93	398.511
1169.5	394.417
1170.07	380.163
1170.64	387.229
1171.22	384.586
1171.79	381.983
1172.36	379.329
1172.94	380.832
1173.51	370.663
1174.08	373.7
1174.66	373.212
1175.23	361.283
1175.8	369.009
1176.37	366.097
1176.95	359.492
1177.52	359.583
1178.09	357.949
1178.66	362.923
1179.24	353.772
1179.81	346.766
1180.38	355.026
1180.95	348.992
1181.52	341.929
1182.1	342.923
1182.67	345.241
1183.24	340.941
1183.81	335.466
1184.38	334.806
1184.95	328.372
1185.53	339.449
1186.1	332.312
1186.67	330.14
1187.24	327.462
1187.81	326.162
1188.39	325.057
1188.96	321.351
1189.53	322.217
1190.1	317.191
1190.67	318.405
1191.24	315.122
1191.81	313.354
1192.38	305.797
1192.95	305.6
1193.53	305.848
1194.1	305.925
1194.67	304.054
1195.24	299.983
1195.81	293.283
1196.38	301.148
1196.95	294.168
1197.52	290.931
1198.09	290.654
1198.66	294.686
1199.23	286.763
1199.8	281.383
1200.37	286.071
1200.94	279.474
1201.51	278.02
1202.08	278.52
1202.65	273.146
1203.22	269.783
1203.79	272.506
1204.36	275.092
1204.93	263.049
1205.5	268.034
1206.07	263.483
1206.64	260.846
1207.21	254.443
1207.78	263.977
1208.35	249.952
1208.92	250.383
1209.49	230.283
1210.06	222.846
1210.63	229.306
1211.19	233.183
1211.76	222.998
1212.33	228.898
1212.9	226.472
1213.47	235.235
1214.04	225.849
1214.61	221.235
1215.18	228.243
1215.75	224.458
1216.31	227.649
1216.88	222.909
1217.45	220.032
1218.02	217.155
1218.59	220.204
1219.16	225.264
1219.69	226.264
1220.27	218.264
1220.85	206.264
1221.42	216.264
1222	210.264
1222.58	205.264
1223.16	209.264
1223.73	203.264
1224.31	204.264
1224.89	205.264
1225.47	203.264
1226.04	198.264
1226.62	198.264
1227.2	192.264
1227.77	194.264
1228.35	192.264
1228.93	186.264
1229.5	189.264
1230.08	185.264
1230.65	190.264
1231.23	182.264
1231.81	183.264
1232.38	176.264
1232.96	175.264
1233.54	180.264
1234.11	172.264
1234.69	172.264
1235.27	170.264
1235.84	169.264
1236.42	170.264
1236.99	172.264
1237.57	168.264
1238.15	162.264
1238.72	165.264
1239.3	164.264
1239.87	160.264
1240.45	157.264
1241.02	162.264
1241.6	156.264
1242.18	158.264
1242.75	152.264
1243.32	154.264
1243.9	149.264
1244.48	151.264
1245.05	152.264
1245.63	150.264
1246.2	150.264
1246.78	146.264
1247.35	142.264
1247.93	142.264
1248.5	140.264
1249.08	143.264
1249.65	135.264
1250.23	134.264
1250.8	140.264
1251.37	135.264
1251.95	142.264
1252.52	138.264
1253.1	135.264
1253.67	135.264
1254.25	129.264
1254.82	130.264
1255.4	126.264
1255.97	129.264
1256.54	128.264
1257.12	128.264
1257.69	129.264
1258.27	130.264
1258.84	129.264
1259.41	131.264
1259.99	122.264
1260.56	128.264
1261.13	126.264
1261.71	122.264
1262.28	125.264
1262.85	113.264
1263.43	118.264
1264	123.264
1264.57	127.264
1265.15	117.264
1265.72	123.264
1266.29	117.264
1266.87	123.264
1267.44	124.264
1268.01	126.264
1268.59	119.264
1269.16	121.264
1269.73	124.264
1270.3	122.264
1270.88	118.264
1271.45	117.264
1272.02	124.264
1272.59	121.264
1273.17	121.264
1273.74	122.264
1274.31	119.264
1274.88	123.264
1275.46	121.264
1276.03	120.264
1276.6	124.264
1277.17	119.264
1277.75	119.264
1278.32	116.264
1278.89	113.264
1279.46	122.264
1280.03	116.264
1280.6	122.264
1281.18	119.264
1281.75	123.264
1282.32	121.264
1282.89	122.264
1283.46	117.264
1284.03	125.264
1284.6	119.264
1285.18	118.264
1285.75	118.264
1286.32	125.264
1286.89	120.264
1287.46	119.264
1288.03	120.264
1288.6	115.264
1289.17	122.264
1289.74	125.264
1290.32	129.264
1290.89	124.264
1291.46	119.264
1292.03	122.264
1292.6	122.264
1293.17	122.264
1293.74	124.264
1294.31	112.264
1294.88	125.264
1295.45	123.264
1296.02	124.264
1296.59	127.264
1297.16	124.264
1297.73	123.264
1298.3	124.264
1298.87	129.264
1299.44	127.264
1300.01	125.264
1300.58	126.264
1301.15	127.264
1301.72	134.264
1302.29	131.264
1302.86	124.264
1303.43	127.264
1304	131.264
1304.57	128.264
1305.14	136.264
1305.71	134.264
1306.28	134.264
1306.85	128.264
1307.42	133.264
1307.99	132.264
1308.55	131.264
1309.12	139.264
1309.69	138.264
1310.26	138.264
1310.83	142.264
1311.4	140.264
1311.97	140.264
1312.54	141.264
1313.1	144.264
1313.67	147.264
1314.24	139.264
1314.81	142.264
1315.38	150.264
1315.95	142.264
1316.52	148.264
1317.08	142.264
1317.65	151.264
1318.22	148.264
1318.79	146.264
1319.36	149.264
1319.92	149.264
1320.49	153.264
1321.06	152.264
1321.63	160.264
1322.2	154.264
1322.76	149.264
1323.33	158.264
1323.9	162.264
1324.47	160.264
1325.03	160.264
1325.6	161.264
1326.17	166.264
1326.73	168.264
1327.3	173.264
1327.87	170.264
1328.44	166.264
1329	168.264
1329.57	173.264
1330.14	172.264
1330.7	174.264
1331.27	176.264
1331.84	176.264
1332.4	176.264
1332.97	180.264
1333.54	174.264
1334.11	174.264
1334.67	184.264
1335.24	176.264
1335.8	186.264
1336.37	181.264
1336.94	192.264
1337.5	188.264
1338.07	184.264
1338.64	191.264
1339.2	187.264
1339.77	183.264
1340.34	188.264
1340.9	192.264
1341.47	190.264
1342.03	190.264
1342.6	192.264
1343.16	190.264
1343.73	192.264
1344.3	192.264
1344.86	189.264
1345.43	190.264
1345.99	190.264
1346.56	194.264
1347.12	193.264
1347.69	188.264
1348.25	186.264
1348.82	191.264
1349.38	188.264
1349.95	184.264
1350.51	194.264
1351.08	177.264
1351.64	187.264
1352.21	187.264
1352.77	188.264
1353.34	184.264
1353.9	177.264
1354.47	182.264
1355.03	184.264
1355.6	181.264
1356.16	178.264
1356.73	177.264
1357.29	179.264
1357.85	179.264
1358.42	172.264
1358.98	172.264
1359.55	170.264
1360.11	171.264
1360.67	173.264
1361.24	172.264
1361.8	170.264
1362.37	160.264
1362.93	167.264
1363.49	161.264
1364.06	165.264
1364.62	160.264
1365.19	158.264
1365.75	165.264
1366.31	162.264
1366.88	159.264
1367.44	163.264
1368	156.264
1368.57	148.264
1369.13	154.264
1369.69	153.264
1370.26	151.264
1370.82	150.264
1371.38	153.264
1371.95	146.264
1372.51	150.264
1373.07	148.264
1373.63	149.264
1374.2	148.264
1374.76	144.264
1375.32	142.264
1375.88	139.264
1376.45	140.264
1377.01	140.264
1377.57	144.264
1378.13	138.264
1378.7	139.264
1379.26	142.264
1379.82	145.264
1380.38	143.264
1380.95	143.264
1381.51	148.264
1382.07	137.264
1382.63	136.264
1383.19	134.264
1383.76	138.264
1384.32	130.264
1384.88	130.264
1385.44	134.264
1386	133.264
1386.56	133.264
1387.13	131.264
1387.69	132.264
1388.25	132.264
1388.81	128.264
1389.37	128.264
1389.93	131.264
1390.49	126.264
1391.05	128.264
1391.62	131.264
1392.18	125.264
1392.74	121.264
1393.3	128.264
1393.86	123.264
1394.42	122.264
1394.98	118.264
1395.54	126.264
1396.1	124.264
1396.66	122.264
1397.22	123.264
1397.78	122.264
1398.34	124.264
1398.91	122.264
1399.47	124.264
1400.03	121.264
1400.58	122.264
1401.14	124.264
1401.7	117.264
1402.27	118.264
1402.83	118.264
1403.39	118.264
1403.95	122.264
1404.5	120.264
1405.06	119.264
1405.62	117.264
1406.19	117.264
1406.74	119.264
1407.3	116.264
1407.86	113.264
1408.42	117.264
1408.98	120.264
1409.54	117.264
1410.1	110.264
1410.66	119.264
1411.22	118.264
1411.78	113.264
1412.34	113.264
1412.9	113.264
1413.46	118.264
1414.01	109.264
1414.57	117.264
1415.13	113.264
1415.69	113.264
1416.25	122.264
1416.81	113.264
1417.37	113.264
1417.92	120.264
1418.48	111.264
1419.04	108.264
1419.6	110.264
1420.16	113.264
1420.72	118.264
1421.28	111.264
1421.83	116.264
1422.39	112.264
1422.95	113.264
1423.51	110.264
1424.07	113.264
1424.62	116.264
1425.18	114.264
1425.74	113.264
1426.3	111.264
1426.85	109.264
1427.41	116.264
1427.97	115.264
1428.53	113.264
1429.08	111.264
1429.64	112.264
1430.2	116.264
1430.76	113.264
1431.31	110.264
1431.87	106.264
1432.43	107.264
1432.99	115.264
1433.54	112.264
1434.1	109.264
1434.66	111.264
1435.21	113.264
1435.77	112.264
1436.33	113.264
1436.88	109.264
1437.44	115.264
1438	107.264
1438.55	118.264
1439.11	115.264
1439.67	112.264
1440.22	108.264
1440.78	110.264
1441.33	112.264
1441.89	113.264
1442.45	111.264
1443	113.264
1443.56	110.264
1444.11	110.264
1444.67	113.264
1445.23	116.264
1445.78	109.264
1446.34	110.264
1446.89	113.264
1447.45	113.264
1448.01	109.264
1448.56	113.264
1449.12	113.264
1449.67	112.264
1450.23	110.264
1450.78	113.264
1451.34	111.264
1451.9	110.264
1452.45	113.264
1453	109.264
1453.56	111.264
1454.12	112.264
1454.67	120.264
1455.22	113.264
1455.78	109.264
1456.34	111.264
1456.89	115.264
1457.44	113.264
1458	112.264
1458.55	110.264
1459.11	110.264
1459.66	111.264
1460.22	113.264
1460.77	111.264
1461.33	109.264
1461.88	112.264
1462.43	116.264
1462.99	115.264
1463.54	110.264
1464.1	113.264
1464.65	111.264
1465.2	115.264
1465.76	115.264
1466.31	109.264
1466.87	113.264
1467.42	110.264
1467.97	115.264
1468.53	109.264
1469.08	117.264
1469.63	109.264
1470.19	115.264
1470.74	111.264
1471.3	115.264
1471.85	115.264
1472.4	117.264
1472.96	112.264
1473.51	109.264
1474.06	113.264
1474.61	116.264
1475.17	112.264
1475.72	115.264
1476.27	117.264
1476.83	113.264
1477.38	112.264
1477.93	115.264
1478.48	111.264
1479.04	108.264
1479.59	113.264
1480.14	113.264
1480.69	116.264
1481.25	113.264
1481.8	113.264
1482.35	108.264
1482.9	114.264
1483.46	111.264
1484.01	116.264
1484.56	107.264
1485.11	115.264
1485.66	111.264
1486.22	118.264
1486.77	118.264
1487.32	118.264
1487.87	110.264
1488.42	112.264
1488.97	118.264
1489.53	117.264
1490.08	117.264
1490.63	116.264
1491.18	115.264
1491.73	117.264
1492.28	113.264
1492.83	113.264
1493.39	119.264
1493.94	115.264
1494.49	113.264
1495.04	116.264
1495.59	121.264
1496.14	115.264
1496.69	113.264
1497.24	113.264
1497.79	116.264
1498.34	115.264
1498.9	118.264
1499.45	113.264
1500	121.264
