19.6939	2171.99
20.3726	2160.99
21.049	2183.99
21.7253	2179.99
22.4015	2272.99
23.0778	2402.99
23.7539	2424.99
24.4301	2430.99
25.1061	2537.99
25.7822	2648.99
26.4581	2623.99
27.1341	2734.99
27.81	2832.99
28.4858	2845.99
29.1639	2904.99
29.8396	3048.99
30.5153	3138.99
31.191	3151.99
31.8643	3328.99
32.5398	3402.99
33.2154	3416.99
33.8908	3620.99
34.5662	3819.99
35.2416	3840.99
35.9169	3870.99
36.5922	3974.99
37.2674	4243.99
37.9426	4400.99
38.6178	4395.99
39.2928	4608.99
39.9679	4688.99
40.6406	4889.99
41.3155	5000.99
41.9904	5162.99
42.6653	5184.99
43.3401	5256.99
44.0148	5339.99
44.6895	5560.99
45.3619	5637.99
46.0365	5746.99
46.7111	5947.99
47.3856	5988.99
48.0601	5968.99
48.7322	6166.99
49.4066	6294.99
50.081	6552.99
50.7553	6436.99
51.4272	6626.99
52.1014	6588.99
52.7756	6744.99
53.4474	6799.99
54.1214	7091.99
54.7954	7178.99
55.4671	7204.99
56.141	7301.99
56.8149	7560.99
57.4864	7594.99
58.1602	7685.99
58.8339	7811.99
59.5053	7870.99
60.1789	7714.99
60.8525	7854.99
61.5238	7945.99
62.1973	7989.99
62.8684	8180.99
63.5418	8252.99
64.2152	8174.99
64.8862	8500.99
65.5594	8431.99
66.2304	8361.99
66.9035	8386.99
67.5744	8433.99
68.2474	8690.99
68.9182	8574.99
69.5912	8603.99
70.2618	8661.99
70.9347	8514.99
71.6052	8726.99
72.278	8766.99
72.9485	8966.99
73.6212	8995.99
74.2916	8829.99
74.9619	8634.99
75.6344	8988.99
76.3047	8801.99
76.9771	8870.99
77.6473	8784.99
78.3173	9030.99
78.9897	8999.99
79.6597	9038.99
80.3319	9144.99
81.0018	9292.99
81.6717	9225.99
82.3438	9254.99
83.0135	9149.99
83.6832	9220.99
84.3552	9082.99
85.0248	9058.99
85.6944	9220.99
86.3639	9141.99
87.0357	9158.99
87.7051	9261.99
88.3745	9321.99
89.0438	9180.99
89.7154	9261.99
90.3847	9193.99
91.0539	9056.99
91.723	9092.99
92.3944	9357.99
93.0635	9385.99
93.7325	9096.99
94.4015	9222.99
95.0704	9240.99
95.7393	9092.99
96.4104	9015.99
97.0792	9397.99
97.7479	9290.99
98.4166	8998.99
99.0853	9160.99
99.7539	9079.99
100.422	9327.99
101.091	9165.99
101.759	9217.99
102.428	9252.99
103.098	9229.99
103.767	9121.99
104.435	9154.99
105.103	9325.99
105.772	9087.99
106.44	9101.99
107.108	9041.99
107.776	9098.99
108.444	9144.99
109.112	9091.99
109.78	9070.99
110.448	9038.99
111.115	8972.99
111.783	9021.99
112.449	8849.99
113.116	8875.99
113.784	8954.99
114.451	8713.99
115.119	8963.99
115.787	8935.99
116.454	8858.99
117.121	8981.99
117.789	8890.99
118.456	8849.99
119.121	8756.99
119.788	8830.99
120.455	8888.99
121.123	8662.99
121.79	8833.99
122.454	8576.99
123.121	8682.99
123.788	8799.99
124.455	8534.99
125.122	8629.99
125.787	8617.99
126.453	8816.99
127.12	8756.99
127.787	8674.99
128.451	8650.99
129.118	8426.99
129.784	8502.99
130.448	8441.99
131.115	8566.99
131.781	8364.99
132.448	8368.99
133.112	8526.99
133.778	8448.99
134.442	8410.99
135.108	8362.99
135.774	8358.99
136.438	8285.99
137.104	8261.99
137.77	8273.99
138.433	8229.99
139.099	8146.99
139.763	8043.99
140.429	8212.99
141.092	8280.99
141.758	8023.99
142.424	8150.99
143.087	8241.99
143.752	8209.99
144.416	7891.99
145.081	8105.99
145.744	8043.99
146.41	8051.99
147.073	7892.99
147.738	7962.99
148.401	7793.99
149.064	7865.99
149.729	8022.99
150.392	7780.99
151.057	7762.99
151.72	7864.99
152.385	7957.99
153.047	7668.99
153.71	7868.99
154.375	7815.99
155.037	7917.99
155.702	7747.99
156.364	7660.99
157.027	7788.99
157.691	7597.99
158.354	7768.99
159.016	7635.99
159.678	7554.99
160.343	7458.99
161.005	7533.99
161.667	7604.99
162.331	7513.99
162.993	7399.99
163.655	7471.99
164.317	7401.99
164.981	7485.99
165.643	7418.99
166.304	7469.99
166.966	7401.99
167.63	7317.99
168.292	7413.99
168.953	7333.99
169.615	7341.99
170.276	7053.99
170.938	7203.99
171.601	7171.99
172.263	7114.99
172.924	7103.99
173.585	7138.99
174.246	7119.99
174.907	6980.99
175.569	7280.99
176.23	7018.99
176.891	7073.99
177.552	7044.99
178.215	7121.99
178.876	6965.99
179.537	7059.99
180.197	7100.99
180.858	6898.99
181.519	6916.99
182.179	6860.99
182.84	6765.99
183.501	6943.99
184.161	6827.99
184.822	6809.99
185.482	6639.99
186.142	6803.99
186.8	6697.99
187.461	6811.99
188.121	6572.99
188.781	6572.99
189.441	6660.99
190.101	6595.99
190.762	6668.99
191.422	6599.99
192.081	6571.99
192.741	6767.99
193.399	6545.99
194.059	6720.99
194.719	6498.99
195.378	6637.99
196.038	6588.99
196.698	6491.99
197.355	6419.99
198.015	6543.99
198.674	6484.99
199.334	6597.99
199.991	6395.99
200.65	6304.99
201.31	6387.99
201.969	6356.99
202.626	6295.99
203.285	6277.99
203.944	6245.99
204.603	6332.99
205.26	6462.99
205.919	6278.99
206.578	6342.99
207.235	6297.99
207.894	6112.99
208.553	6175.99
209.209	6229.99
209.868	6212.99
210.524	6140.99
211.183	6065.99
211.842	6331.99
212.498	6187.99
213.156	6164.99
213.813	6137.99
214.471	6145.99
215.13	6024.99
215.786	5978.99
216.444	6208.99
217.1	6077.99
217.758	6096.99
218.414	5948.99
219.072	5979.99
219.728	5934.99
220.386	5981.99
221.042	6000.99
221.7	5938.99
222.355	6161.99
223.013	5869.99
223.669	5962.99
224.324	5815.99
224.982	5852.99
225.637	5913.99
226.295	5865.99
226.95	6046.99
227.606	6028.99
228.263	5978.99
228.918	5930.99
229.573	5835.99
230.231	5903.99
230.886	5897.99
231.543	5855.99
232.198	5901.99
232.853	5844.99
233.508	5952.99
234.165	5727.99
234.82	5856.99
235.475	6046.99
236.132	5829.99
236.786	5899.99
237.441	5947.99
238.095	5832.99
238.752	5758.99
239.407	5792.99
240.061	5839.99
240.715	5822.99
241.37	5678.99
242.026	5841.99
242.681	5645.99
243.335	5681.99
243.989	5620.99
244.643	5731.99
245.297	5700.99
245.951	5819.99
246.607	5722.99
247.261	5732.99
247.915	5693.99
248.569	5581.99
249.223	5724.99
249.877	5611.99
250.53	5576.99
251.184	5769.99
251.838	5620.99
252.491	5545.99
253.145	5563.99
253.798	5635.99
254.452	5572.99
255.105	5561.99
255.759	5632.99
256.412	5610.99
257.065	5720.99
257.719	5503.99
258.372	5696.99
259.025	5617.99
259.678	5516.99
260.331	5541.99
260.984	5593.99
261.637	5516.99
262.29	5640.99
262.943	5682.99
263.596	5563.99
264.246	5457.99
264.899	5461.99
265.552	5564.99
266.204	5481.99
266.857	5355.99
267.509	5346.99
268.16	5462.99
268.812	5525.99
269.465	5444.99
270.117	5651.99
270.769	5500.99
271.419	5318.99
272.072	5377.99
272.724	5268.99
273.376	5443.99
274.026	5619.99
274.678	5399.99
275.33	5373.99
275.982	5320.99
276.632	5405.99
277.284	5286.99
277.935	5580.99
278.585	5428.99
279.237	5472.99
279.889	5417.99
280.538	5376.99
281.19	5310.99
281.841	5367.99
282.491	5326.99
283.142	5273.99
283.791	5427.99
284.443	5483.99
285.094	5151.99
285.743	5394.99
286.394	5269.99
287.043	5178.99
287.695	5273.99
288.343	5354.99
288.995	5286.99
289.643	5237.99
290.294	5329.99
290.943	5039.99
291.594	5230.99
292.243	5190.99
292.894	5216.99
293.542	5227.99
294.193	5178.99
294.841	5259.99
295.492	5189.99
296.14	5214.99
296.789	5112.99
297.439	5272.99
298.088	5278.99
298.738	5035.99
299.386	5212.99
300.034	5091.99
300.685	5216.99
301.333	5105.99
301.981	5074.99
302.631	5161.99
303.279	5014.99
303.927	5052.99
304.577	5063.99
305.224	5135.99
305.872	4962.99
306.522	4838.99
307.17	5036.99
307.817	5071.99
308.465	5006.99
309.114	5138.99
309.762	5152.99
310.409	5127.99
311.057	5011.99
311.704	4988.99
312.354	4867.99
313.001	5116.99
313.648	4987.99
314.295	5079.99
314.942	4854.99
315.592	4846.99
316.239	4732.99
316.886	5008.99
317.532	4921.99
318.179	4911.99
318.826	4873.99
319.473	4750.99
320.12	5095.99
320.766	4884.99
321.413	4758.99
322.06	4761.99
322.709	4781.99
323.355	4891.99
324.002	4682.99
324.648	4814.99
325.294	4864.99
325.941	4784.99
326.587	4895.99
327.233	4755.99
327.88	4926.99
328.526	4810.99
329.17	4764.99
329.816	4822.99
330.462	4753.99
331.108	4820.99
331.754	4599.99
332.4	4720.99
333.046	4703.99
333.692	4671.99
334.337	4624.99
334.983	4645.99
335.629	4649.99
336.272	4710.99
336.918	4444.99
337.564	4593.99
338.209	4482.99
338.855	4710.99
339.498	4882.99
340.143	4708.99
340.789	4685.99
341.434	4632.99
342.079	4621.99
342.722	4685.99
343.367	4707.99
344.012	4533.99
344.658	4547.99
345.3	4616.99
345.945	4568.99
346.59	4558.99
347.233	4681.99
347.878	4555.99
348.523	4585.99
349.165	4522.99
349.81	4565.99
350.455	4597.99
351.097	4620.99
351.742	4591.99
352.386	4443.99
353.029	4618.99
353.673	4581.99
354.315	4481.99
354.96	4613.99
355.604	4623.99
356.246	4541.99
356.891	4355.99
357.533	4613.99
358.177	4501.99
358.819	4552.99
359.463	4561.99
360.105	4702.99
360.749	4529.99
361.39	4383.99
362.034	4615.99
362.676	4638.99
363.32	4644.99
363.961	4368.99
364.605	4581.99
365.247	4462.99
365.888	4594.99
366.532	4645.99
367.173	4532.99
367.817	4625.99
368.458	4502.99
369.099	4504.99
369.742	4593.99
370.384	4536.99
371.025	4684.99
371.668	4649.99
372.309	4692.99
372.95	4617.99
373.593	4696.99
374.234	4639.99
374.875	4663.99
375.518	4720.99
376.159	4775.99
376.799	4613.99
377.44	4601.99
378.083	4701.99
378.723	4738.99
379.364	4720.99
380.004	4613.99
380.647	4759.99
381.288	4681.99
381.928	4730.99
382.568	4711.99
383.209	4670.99
383.849	4593.99
384.491	4648.99
385.131	4729.99
385.771	4733.99
386.411	4721.99
387.052	4564.99
387.692	4619.99
388.331	4773.99
388.971	4740.99
389.611	4668.99
390.253	4718.99
390.893	4715.99
391.533	4849.99
392.172	4812.99
392.812	4811.99
393.452	4723.99
394.091	4759.99
394.731	4668.99
395.37	4725.99
396.01	4979.99
396.649	4716.99
397.288	4742.99
397.928	4750.99
398.567	4718.99
399.204	4739.99
399.843	4588.99
400.482	4696.99
401.121	4575.99
401.76	4844.99
402.399	4533.99
403.038	4738.99
403.677	4566.99
404.316	4644.99
404.953	4792.99
405.591	4704.99
406.23	4617.99
406.869	4639.99
407.507	4738.99
408.146	4700.99
408.782	4594.99
409.421	4542.99
410.059	4681.99
410.698	4604.99
411.334	4565.99
411.972	4550.99
412.611	4625.99
413.249	4615.99
413.885	4634.99
414.523	4545.99
415.161	4582.99
415.797	4530.99
416.435	4546.99
417.073	4551.99
417.709	4506.99
418.347	4527.99
418.985	4474.99
419.62	4479.99
420.258	4541.99
420.896	4407.99
421.531	4443.99
422.169	4496.99
422.804	4225.99
423.442	4447.99
424.077	4482.99
424.715	4389.99
425.352	4427.99
425.987	4499.99
426.625	4463.99
427.26	4452.99
427.897	4433.99
428.532	4473.99
429.169	4355.99
429.804	4337.99
430.442	4433.99
431.076	4425.99
431.711	4275.99
432.348	4326.99
432.983	4324.99
433.62	4392.99
434.254	4419.99
434.891	4313.99
435.526	4331.99
436.16	4255.99
436.797	4312.99
437.431	4267.99
438.066	4176.99
438.702	4238.99
439.337	4256.99
439.971	4238.99
440.607	4342.99
441.242	4211.99
441.876	4217.99
442.512	4209.99
443.146	4177.99
443.78	4117.99
444.414	4239.99
445.05	4265.99
445.684	4120.99
446.318	4155.99
446.952	4135.99
447.588	4115.99
448.221	4073.99
448.855	4096.99
449.489	4075.99
450.122	4192.99
450.758	4055.99
451.392	4137.99
452.025	4013.99
452.659	3985.99
453.292	4014.99
453.925	4037.99
454.559	3963.99
455.192	3854.99
455.827	4073.99
456.46	4113.99
457.093	4083.99
457.727	3919.99
458.36	3986.99
458.993	3971.99
459.626	4009.99
460.258	4016.99
460.891	3944.99
461.524	3885.99
462.157	3933.99
462.79	3919.99
463.422	3987.99
464.055	3945.99
464.688	3907.99
465.32	3968.99
465.953	3863.99
466.585	3790.99
467.216	3840.99
467.848	3940.99
468.48	3854.99
469.113	3939.99
469.745	3945.99
470.377	3959.99
471.009	3857.99
471.642	3863.99
472.271	3792.99
472.904	3922.99
473.536	3863.99
474.168	3902.99
474.799	3911.99
475.429	3734.99
476.061	3870.99
476.693	3815.99
477.325	3869.99
477.956	3842.99
478.586	3824.99
479.218	3983.99
479.849	3972.99
480.479	3824.99
481.11	3886.99
481.742	3869.99
482.373	3810.99
483.002	3857.99
483.634	3946.99
484.265	3904.99
484.894	4031.99
485.525	3901.99
486.154	3885.99
486.785	4083.99
487.416	4020.99
488.045	4104.99
488.676	3993.99
489.305	3869.99
489.936	4312.99
490.567	4171.99
491.196	4232.99
491.826	4154.99
492.455	4327.99
493.086	4097.99
493.714	4204.99
494.345	4299.99
494.973	4280.99
495.604	4349.99
496.232	4335.99
496.863	4493.99
497.491	4342.99
498.121	4508.99
498.749	4515.99
499.378	4604.99
500.008	4631.99
500.636	4651.99
501.266	4745.99
501.894	4791.99
502.522	4841.99
503.152	4862.99
503.78	5022.99
504.408	5129.99
505.037	5214.99
505.665	5138.99
506.293	5268.99
506.923	5356.99
507.55	5390.99
508.178	5385.99
508.807	5422.99
509.435	5588.99
510.062	5796.99
510.69	5643.99
511.319	5850.99
511.946	5692.99
512.574	5952.99
513.201	6228.99
513.828	6097.99
514.457	6224.99
515.084	6158.99
515.711	6200.99
516.338	6311.99
516.965	6348.99
517.592	6488.99
518.221	6624.99
518.848	6720.99
519.475	6570.99
520.102	6883.99
520.728	6859.99
521.355	6856.99
521.982	7073.99
522.608	7343.99
523.235	7240.99
523.861	7475.99
524.488	7402.99
525.114	7773.99
525.741	7589.99
526.367	7513.99
526.993	7741.99
527.619	7799.99
528.246	7930.99
528.872	7986.99
529.498	8167.99
530.124	8026.99
530.75	8172.99
531.376	8069.99
532.002	8260.99
532.628	8519.99
533.254	8640.99
533.88	8364.99
534.505	8599.99
535.131	8905.99
535.755	8829.99
536.38	8627.99
537.006	8825.99
537.632	8752.99
538.257	8845.99
538.883	9178.99
539.506	8668.99
540.131	8937.99
540.757	8845.99
541.382	9111.99
542.005	9033.99
542.63	9106.99
543.256	9106.99
543.881	9280.99
544.504	9097.99
545.129	9377.99
545.754	9412.99
546.379	9284.99
547.002	9119.99
547.627	9292.99
548.251	9153.99
548.874	9260.99
549.499	9147.99
550.121	9294.99
550.746	9322.99
551.371	9197.99
551.993	9206.99
552.618	9167.99
553.242	9097.99
553.865	9081.99
554.489	9182.99
555.112	9189.99
555.736	9278.99
556.358	8966.99
556.982	8937.99
557.604	8707.99
558.229	8995.99
558.851	8698.99
559.475	8926.99
560.097	8653.99
560.721	8584.99
561.343	8745.99
561.967	8679.99
562.588	8494.99
563.212	8551.99
563.834	8400.99
564.456	8353.99
565.079	8256.99
565.701	8239.99
566.325	8047.99
566.946	7743.99
567.568	7891.99
568.191	7951.99
568.812	7991.99
569.434	7734.99
570.057	7615.99
570.678	7644.99
571.3	7483.99
571.923	7481.99
572.544	7213.99
573.165	7389.99
573.786	7167.99
574.409	7162.99
575.03	6943.99
575.651	6985.99
576.272	6822.99
576.895	6893.99
577.516	6891.99
578.136	6635.99
578.757	6488.99
579.378	6387.99
580	6334.99
580.621	6137.99
581.242	6287.99
581.862	6281.99
582.483	6011.99
583.103	6116.99
583.723	5988.99
584.344	5988.99
584.964	5863.99
585.586	5781.99
586.207	5665.99
586.827	5632.99
587.447	5555.99
588.067	5418.99
588.687	5387.99
589.307	5300.99
589.927	5306.99
590.547	5207.99
591.167	5177.99
591.787	5140.99
592.406	5114.99
593.026	4995.99
593.646	4871.99
594.265	4900.99
594.885	4782.99
595.503	4757.99
596.122	4731.99
596.742	4779.99
597.361	4646.99
597.98	4548.99
598.6	4496.99
599.219	4390.99
599.839	4467.99
600.456	4198.99
601.075	4269.99
601.694	4220.99
602.313	4180.99
602.932	4171.99
603.551	4063.99
604.168	4071.99
604.787	4068.99
605.406	4079.99
606.025	4135.99
606.642	3982.99
607.261	3896.99
607.879	3891.99
608.496	3787.24
609.115	3834.13
609.733	3732.99
610.352	3782.36
610.968	3751.66
611.587	3711.18
612.205	3607.69
612.822	3580.82
613.44	3577.59
614.056	3589.3
614.675	3568.57
615.293	3515.14
615.909	3465.69
616.527	3363.89
617.143	3416.07
617.761	3416.48
618.379	3319.67
618.995	3393.11
619.613	3350.55
620.229	3275.29
620.847	3307.56
621.463	3251.85
622.081	3287.35
622.696	3289.01
623.314	3237
623.93	3182.99
624.545	3207.91
625.163	3217.22
625.778	3150.34
626.396	3195.54
627.011	3119.96
627.629	3116.61
628.244	3141.5
628.859	3073.38
629.476	3075.95
630.092	3070.44
630.707	3051.58
631.324	3121.46
631.939	3011.36
632.554	3016.68
633.171	2991.09
633.786	3051.02
634.401	2985.11
635.018	2987.71
635.633	2960.09
636.247	2952.81
636.862	2912.94
637.479	2878.21
638.094	2887.88
638.708	2968.64
639.323	2877.42
639.939	2864.24
640.554	2949.69
641.168	2829.93
641.783	2866.6
642.397	2857.02
643.011	2782.75
643.628	2798.87
644.242	2809.66
644.856	2817.33
645.47	2770.17
646.085	2764.82
646.699	2765.17
647.313	2788.19
647.927	2738.66
648.541	2774
649.154	2715.29
649.771	2801.86
650.384	2709.56
650.998	2718.08
651.612	2666.67
652.226	2737.12
652.839	2711.83
653.453	2649.72
654.067	2667.34
654.68	2658.01
655.093	2641.01
655.715	2610.01
656.34	2623.01
656.964	2619.01
657.586	2680.01
658.21	2659.01
658.834	2563.01
659.456	2624.01
660.08	2532.01
660.704	2578.01
661.325	2615.01
661.949	2611.01
662.571	2591.01
663.195	2565.01
663.818	2535.01
664.44	2555.01
665.063	2556.01
665.685	2530.01
666.308	2531.01
666.93	2526.01
667.553	2480.01
668.174	2501.01
668.798	2486.01
669.419	2469.01
670.042	2461.01
670.664	2488.01
671.287	2525.01
671.908	2402.01
672.531	2466.01
673.152	2442.01
673.775	2444.01
674.396	2415.01
675.017	2379.01
675.639	2397.01
676.26	2425.01
676.883	2373.01
677.504	2359.01
678.124	2429.01
678.747	2382.01
679.368	2443.01
679.988	2391.01
680.611	2357.01
681.231	2352.01
681.851	2331.01
682.474	2285.01
683.094	2295.01
683.714	2345.01
684.337	2314.01
684.957	2291.01
685.577	2342.01
686.197	2364.01
686.819	2365.01
687.439	2274.01
688.059	2295.01
688.679	2369.01
689.301	2303.01
689.921	2313.01
690.541	2266.01
691.161	2336.01
691.78	2266.01
692.4	2291.01
693.022	2325.01
693.641	2300.01
694.261	2311.01
694.88	2288.01
695.5	2301.01
696.119	2256.01
696.739	2324.01
697.36	2293.01
697.979	2328.01
698.599	2296.01
699.218	2286.01
699.837	2307.01
700.456	2318.01
701.075	2326.01
701.694	2283.01
702.313	2345.01
702.932	2333.01
703.551	2331.01
704.17	2318.01
704.789	2345.01
705.408	2339.01
706.026	2373.01
706.645	2347.01
707.264	2377.01
707.883	2360.01
708.501	2410.01
709.12	2374.01
709.738	2437.01
710.355	2354.01
710.973	2424.01
711.591	2391.01
712.21	2345.01
712.828	2387.01
713.446	2458.01
714.065	2474.01
714.681	2452.01
715.299	2498.01
715.917	2496.01
716.535	2506.01
717.153	2512.01
717.771	2546.01
718.387	2475.01
719.005	2534.01
719.623	2565.01
720.24	2561.01
720.856	2599.01
721.474	2594.01
722.091	2661.01
722.709	2656.01
723.325	2629.01
723.942	2638.01
724.56	2706.01
725.175	2697.01
725.793	2594.01
726.41	2727.01
727.025	2757.01
727.643	2761.01
728.26	2805.01
728.875	2816.01
729.492	2778.01
730.109	2828.01
730.724	2848.01
731.341	2819.01
731.956	2874.01
732.573	2939.01
733.19	2983.01
733.805	2967.01
734.422	2917.01
735.037	2993.01
735.654	2988.01
736.268	2980.01
736.885	3035.01
737.5	3040.01
738.116	3055.01
738.731	2987.01
739.347	3123.01
739.962	3076.01
740.578	3087.01
741.192	3171.01
741.809	3148.01
742.423	3201.01
743.037	3184.01
743.654	3256.01
744.268	3150.01
744.884	3286.01
745.498	3241.01
746.112	3298.01
746.728	3290.01
747.342	3405.01
747.956	3257.01
748.572	3270.01
749.185	3300.01
749.799	3308.01
750.415	3384.01
751.029	3466.01
751.642	3391.01
752.258	3344.01
752.872	3317.01
753.485	3378.01
754.101	3382.01
754.714	3427.01
755.328	3499.01
755.941	3460.01
756.554	3433.01
757.17	3480.01
757.783	3487.01
758.396	3552.01
759.009	3544.01
759.622	3587.01
760.237	3598.01
760.85	3626.01
761.463	3564.01
762.076	3558.01
762.689	3519.01
763.302	3550.01
763.915	3647.01
764.53	3638.01
765.143	3695.01
765.755	3736.01
766.368	3639.01
766.981	3633.01
767.593	3715.01
768.206	3740.01
768.818	3601.01
769.431	3716.01
770.043	3758.01
770.655	3753.01
771.268	3750.01
771.88	3696.01
772.492	3758.01
773.104	3798.01
773.717	3795.01
774.329	3803.01
774.941	3851.01
775.553	3786.01
776.165	3717.01
776.777	3839.01
777.389	3869.01
777.999	3921.01
778.61	3872.01
779.222	3877.01
779.834	3816.01
780.446	3880.01
781.057	3893.01
781.669	3994.01
782.281	3912.01
782.89	4000.01
783.502	3985.01
784.113	3905.01
784.725	4048.01
785.336	4044.01
785.945	4015.01
786.557	4050.01
787.168	4180.01
787.779	4080.01
788.388	4058.01
789	4220.01
789.611	4254.01
790.222	4161.01
790.831	4190.01
791.442	4289.01
792.053	4260.01
792.661	4360.01
793.272	4395.01
793.883	4462.01
794.492	4416.01
795.103	4576.01
795.713	4568.01
796.322	4604.01
796.933	4586.01
797.543	4605.01
798.152	4633.01
798.762	4963.01
799.371	4992.01
799.981	5061.01
800.589	5085.01
801.2	5194.01
801.808	5282.01
802.418	5431.01
803.029	5635.01
803.637	5602.01
804.247	5736.01
804.855	5875.01
805.465	5984.01
806.073	6151.01
806.683	6263.01
807.291	6513.01
807.898	6691.01
808.508	6993.01
809.116	7066.01
809.726	7302.01
810.334	7510.01
810.943	7626.01
811.551	7893.01
812.159	8196.01
812.768	8513.01
813.376	8549.01
813.983	9047.01
814.592	9173.01
815.2	9075.01
815.807	9694.01
816.417	9947.01
817.024	10368
817.631	10476
818.24	10925
818.847	11110
819.454	11345
820.061	11760
820.67	11662
821.277	12304
821.884	12510
822.491	12892
823.1	12778
823.707	13212
824.314	13457
824.92	13811
825.527	14134
826.136	14362
826.742	14692
827.349	14826
827.955	15050
828.562	15403
829.168	15708
829.775	15986
830.383	16014
830.989	16411
831.596	16692
832.202	16777
832.808	17044
833.414	17159
834.02	17449
834.627	17573
835.233	17783
835.839	17921
836.445	18266
837.05	18169
837.656	18256
838.262	18375
838.868	18430
839.474	18464
840.079	18697
840.685	18907
841.291	18684
841.896	18886
842.502	18916
843.107	19157
843.711	19226
844.316	19231
844.922	19407
845.527	19416
846.132	19379
846.738	19132
847.343	19264
847.948	19241
848.551	19490
849.156	19472
849.761	19515
850.366	19611
850.971	19495
851.574	19426
852.179	19583
852.784	19446
853.389	19430
853.992	19416
854.596	19517
855.201	19306
855.806	19486
856.408	19488
857.013	19508
857.618	19238
858.22	19183
858.825	19228
859.429	19016
860.031	19187
860.636	19235
861.24	19013
861.842	19072
862.446	18986
863.049	18871
863.653	19031
864.257	18751
864.859	18761
865.463	18688
866.065	18496
866.669	18494
867.271	18275
867.875	18248
868.476	18034
869.08	18002
869.682	18065
870.286	17912
870.887	17561
871.491	17359
872.092	17344
872.696	17159
873.298	16846
873.901	16810
874.502	16556
875.104	16322
875.707	16260
876.308	16093
876.912	15966
877.513	15528
878.114	15640
878.717	15276
879.318	15077
879.919	14575
880.522	14599
881.123	14388
881.724	14084
882.327	14101
882.928	13927
883.529	13551
884.13	13423
884.732	13218
885.333	13054
885.934	12815
886.534	12597
887.137	12366
887.738	12277
888.338	11995
888.938	11794
889.539	11640
890.141	11310
890.742	11140
891.342	11022
891.942	10817
892.542	10535
893.143	10321
893.743	10322
894.345	9777.01
894.945	9784.01
895.545	9688.01
896.145	9605.01
896.745	9269.01
897.345	9106.01
897.945	8884.01
898.544	8791.01
899.144	8597.01
899.744	8296.01
900.344	8324.01
900.943	8064.01
901.543	7916.01
902.143	7827.01
902.742	7601.01
903.342	7502.01
903.941	7301.01
904.54	7143.01
905.14	7184.01
905.739	6953.01
906.339	6780.01
906.938	6798.01
907.537	6478.01
908.134	6526.01
908.733	6358.01
909.332	6402.01
909.932	5966.01
910.531	6054.01
911.13	5708.01
911.729	5811.01
912.325	5653.01
912.924	5639.01
913.523	5397.01
914.122	5351.01
914.721	5268.01
915.317	5226.01
915.916	5177.01
916.515	4934.01
917.113	5114.01
917.71	4900.01
918.308	4799.01
918.907	4617.01
919.505	4553.01
920.102	4566.01
920.7	4569.01
921.298	4418.01
921.895	4256.01
922.493	4327.01
923.091	4201.01
923.687	4115.01
924.285	3991.01
924.883	3975.01
925.479	3992.01
926.077	4018.01
926.673	3875.01
927.271	3749.01
927.869	3731.01
928.465	3653.01
929.063	3628.01
929.659	3644.01
930.256	3500.01
930.852	3539.01
931.45	3459.01
932.045	3454.01
932.643	3354.01
933.238	3322.01
933.836	3346.01
934.431	3274.01
935.029	3246.01
935.624	3200.01
936.221	3138.01
936.817	3132.01
937.412	3133.01
938.009	3112.01
938.604	3049.01
939.202	2993.01
939.797	2943.01
940.392	2863.01
940.989	2888.01
941.584	2848.01
942.181	2837.01
942.776	2784.01
943.37	2721.01
943.967	2703.01
944.562	2696.01
945.157	2677.01
945.751	2656.01
946.348	2632.01
946.943	2541.01
947.537	2580.01
948.132	2521.01
948.728	2468.01
949.323	2463.01
949.917	2446.01
950.512	2454.01
951.108	2446.01
951.702	2405.01
952.297	2369.01
952.891	2392.01
953.485	2303.01
954.079	2301.01
954.675	2267.01
955.269	2269.01
955.863	2263.01
956.457	2224.01
957.051	2199.01
957.645	2237.01
958.239	2146.01
958.833	2175.01
959.427	2143.01
960.021	2106.01
960.616	2100.01
961.21	2110.01
961.804	2078.01
962.397	2082.01
962.991	2099.01
963.584	2057.01
964.178	2028.01
964.771	2026.01
965.365	2018.01
965.958	1983.01
966.549	1966.01
967.143	1992.01
967.736	1929.01
968.329	1905.01
968.922	1936.01
969.516	1915.01
970.109	1900.01
970.702	1884.01
971.295	1868.01
971.888	1847.01
972.479	1823.01
973.072	1840.01
973.665	1825.01
974.257	1833.01
974.85	1794.01
975.443	1761.01
976.034	1765.01
976.626	1765.01
977.219	1759.01
977.812	1741.01
978.404	1742.01
978.995	1741.01
979.587	1699.01
980.18	1730.01
980.77	1684.01
981.362	1677.01
981.955	1685.01
982.547	1633.01
983.137	1630.01
983.729	1647.01
984.322	1642.01
984.912	1604.01
985.504	1616.01
986.094	1569.01
986.686	1600.01
987.278	1565.01
987.868	1594.01
988.46	1558.01
989.052	1544.01
989.641	1551.01
990.233	1543.01
990.823	1546.01
991.415	1518.01
992.004	1509.01
992.596	1519.01
993.186	1488.01
993.777	1475.01
994.367	1475.01
994.958	1472.01
995.548	1480.01
996.139	1449.01
996.728	1448.01
997.32	1438.01
997.909	1436.01
998.5	1427.01
999.09	1419.01
999.679	1408.01
1000.27	1402.01
1000.86	1390.01
1001.45	1403.01
1002.04	1382.01
1002.63	1350.01
1003.22	1373.01
1003.81	1362.01
1004.4	1335.01
1004.99	1324.01
1005.58	1322.01
1006.17	1311.01
1006.76	1314.01
1007.34	1285.01
1007.93	1310.01
1008.52	1305.01
1009.11	1288.01
1009.7	1260.01
1010.29	1257.01
1010.88	1245.01
1011.47	1234.01
1012.06	1260.01
1012.64	1234.01
1013.23	1255.01
1013.82	1229.01
1014.41	1215.01
1015	1198.01
1015.59	1189.01
1016.18	1172.01
1016.76	1184.01
1017.35	1160.01
1017.94	1172.01
1018.53	1152.01
1019.12	1149.01
1019.71	1144.01
1020.29	1124.01
1020.88	1131.01
1021.47	1121.01
1022.06	1110.01
1022.64	1094.01
1023.23	1080.01
1023.82	1072.01
1024.41	1088.01
1024.99	1101.01
1025.58	1065.01
1026.17	1062.01
1026.76	1065.01
1027.34	1054.01
1027.93	1041.01
1028.52	1037.01
1029.1	1018.01
1029.69	1020.01
1030.28	1020.01
1030.87	1012.01
1031.45	1001.01
1032.04	995.013
1032.63	987.013
1033.21	978.013
1033.8	983.013
1034.39	971.013
1034.97	956.013
1035.56	942.013
1036.15	956.013
1036.73	950.013
1037.32	944.013
1037.9	937.013
1038.49	936.013
1039.08	918.013
1039.66	909.013
1040.25	913.013
1040.84	914.013
1041.42	906.013
1042.01	904.013
1042.59	900.013
1043.18	881.013
1043.76	877.013
1044.35	873.013
1044.94	864.013
1045.52	866.013
1046.11	864.013
1046.69	870.013
1047.28	864.013
1047.86	855.013
1048.45	847.013
1049.03	856.013
1049.62	854.013
1050.2	842.013
1050.79	834.013
1051.37	838.013
1051.96	826.013
1052.54	817.013
1053.13	836.013
1053.71	837.013
1054.3	827.013
1054.88	815.013
1055.47	814.013
1056.05	801.013
1056.63	810.013
1057.22	813.013
1057.8	800.013
1058.39	787.013
1058.97	800.013
1059.56	790.013
1060.14	787.013
1060.72	788.013
1061.31	791.013
1061.89	786.013
1062.48	784.013
1063.06	786.013
1063.64	767.013
1064.23	781.013
1064.81	780.013
1065.39	771.013
1065.98	771.013
1066.56	774.013
1067.14	762.013
1067.73	776.013
1068.31	769.013
1068.89	749.013
1069.48	759.013
1070.06	756.013
1070.64	762.013
1071.23	755.013
1071.81	754.013
1072.39	736.013
1072.97	748.013
1073.56	739.013
1074.14	754.013
1074.72	733.013
1075.3	755.013
1075.89	748.013
1076.47	743.013
1077.05	752.013
1077.63	736.013
1078.22	743.013
1078.8	746.013
1079.38	731.013
1079.96	730.013
1080.54	727.013
1081.13	736.013
1081.71	730.013
1082.29	734.013
1082.87	736.013
1083.45	732.013
1084.04	730.013
1084.62	732.013
1085.2	730.013
1085.78	726.013
1086.36	722.013
1086.94	728.013
1087.52	717.013
1088.11	716.013
1088.69	713.013
1089.27	726.013
1089.85	716.013
1090.43	717.013
1091.01	720.013
1091.59	712.013
1092.17	720.013
1092.75	717.013
1093.34	708.013
1093.92	710.013
1094.5	712.013
1095.08	704.013
1095.66	700.013
1096.24	717.013
1096.82	713.013
1097.4	707.013
1097.98	710.013
1098.56	702.013
1099.14	705.013
1099.72	704.013
1100.3	703.013
1100.88	697.013
1101.46	700.013
1102.04	703.013
1102.62	691.013
1103.2	694.013
1103.78	693.013
1104.36	703.013
1104.94	694.013
1105.52	700.013
1106.1	707.013
1106.68	691.013
1107.26	692.013
1107.84	693.013
1108.42	697.013
1109	702.013
1109.57	696.013
1110.15	695.013
1110.73	687.013
1111.31	691.013
1111.89	691.013
1112.47	695.013
1113.05	679.013
1113.63	682.013
1114.2	682.013
1114.78	686.013
1115.36	682.013
1115.94	686.013
1116.52	682.013
1117.1	678.013
1117.68	686.013
1118.25	692.013
1118.83	682.423
1119.41	684.571
1119.99	677.576
1120.57	676.804
1121.15	678.866
1121.72	676.254
1122.3	674.927
1122.88	670.955
1123.46	840.36
1124.04	682.605
1124.61	671.747
1125.19	671.357
1125.77	675.922
1126.35	676.002
1126.92	677.572
1127.5	670.08
1128.08	667.891
1128.66	667.427
1129.23	664.632
1129.81	674.54
1130.39	658.356
1130.96	660.481
1131.54	659.92
1132.12	671.468
1132.69	664.136
1133.27	667.643
1133.85	664.128
1134.43	658.15
1135	660.013
1135.58	659.903
1136.15	653.205
1136.73	656.964
1137.31	658.141
1137.88	652.294
1138.46	656.385
1139.04	649.338
1139.61	652.698
1140.19	651.12
1140.77	651.405
1141.34	652.438
1141.92	655.123
1142.49	652.779
1143.07	648.064
1143.64	650.441
1144.22	648.005
1144.8	647.93
1145.37	640.095
1145.95	648.037
1146.52	648.974
1147.1	638.544
1147.67	644.686
1148.25	641.623
1148.83	640.582
1149.4	637.947
1149.97	636.085
1150.55	637.406
1151.13	629.125
1151.7	637.039
1152.28	637.621
1152.85	640.146
1153.42	637.976
1154	635.907
1154.58	629.035
1155.15	636.617
1155.72	637.59
1156.3	632.604
1156.87	633.42
1157.45	630.473
1158.02	632.475
1158.6	630.235
1159.17	633.302
1159.74	631.15
1160.32	625.984
1160.89	632.194
1161.47	624.202
1162.04	621.853
1162.62	630.652
1163.19	625.123
1163.76	625.39
1164.34	621.318
1164.91	623.309
1165.48	622.634
1166.06	625.99
1166.63	627.586
1167.2	625.528
1167.78	625.685
1168.35	621.07
1168.93	621.943
1169.5	623.334
1170.07	619.736
1170.64	622.944
1171.22	621.914
1171.79	619.782
1172.36	615.238
1172.94	621.118
1173.51	618.474
1174.08	663.008
1174.66	624.621
1175.23	619.672
1175.8	620.857
1176.37	618.833
1176.95	616.272
1177.52	622.46
1178.09	616.651
1178.66	615.987
1179.24	615.006
1179.81	611.931
1180.38	614.642
1180.95	611.286
1181.52	609.78
1182.1	613.665
1182.67	611.173
1183.24	617.495
1183.81	606.005
1184.38	616.836
1184.95	616.101
1185.53	614.6
1186.1	605.134
1186.67	600.254
1187.24	600.438
1187.81	607.032
1188.39	607.471
1188.96	607.699
1189.53	601.938
1190.1	606.783
1190.67	604.771
1191.24	606.073
1191.81	605.238
1192.38	606.357
1192.95	598.956
1193.53	601.167
1194.1	601.452
1194.67	598.034
1195.24	611.747
1195.81	603.701
1196.38	595.677
1196.95	602.362
1197.52	603.464
1198.09	606.92
1198.66	606.457
1199.23	603.502
1199.8	597.701
1200.37	605.786
1200.94	608.373
1201.51	596.796
1202.08	601.869
1202.65	601.034
1203.22	601.216
1203.79	597.135
1204.36	608.272
1204.93	600.179
1205.5	603.459
1206.07	599.309
1206.64	598.166
1207.21	601.65
1207.78	598.061
1208.35	599.432
1208.92	594.522
1209.49	588.727
1210.06	580.532
1210.63	575.971
1211.19	577.165
1211.76	575.13
1212.33	580.358
1212.9	577.048
1213.47	582.053
1214.04	581.641
1214.61	580.046
1215.18	586.239
1215.75	580.924
1216.31	589.935
1216.88	583.483
1217.45	591.745
1218.02	588.201
1218.59	594.509
1219.16	590.874
1219.69	589.874
1220.27	593.874
1220.85	593.874
1221.42	593.874
1222	593.874
1222.58	586.874
1223.16	589.874
1223.73	589.874
1224.31	592.874
1224.89	599.874
1225.47	589.874
1226.04	595.874
1226.62	592.874
1227.2	599.874
1227.77	597.874
1228.35	591.874
1228.93	590.874
1229.5	597.874
1230.08	593.874
1230.65	590.874
1231.23	593.874
1231.81	595.874
1232.38	593.874
1232.96	593.874
1233.54	590.874
1234.11	595.874
1234.69	593.874
1235.27	597.874
1235.84	598.874
1236.42	598.874
1236.99	589.874
1237.57	593.874
1238.15	591.874
1238.72	597.874
1239.3	592.874
1239.87	587.874
1240.45	596.874
1241.02	593.874
1241.6	597.874
1242.18	603.874
1242.75	596.874
1243.32	588.874
1243.9	595.874
1244.48	593.874
1245.05	596.874
1245.63	596.874
1246.2	586.874
1246.78	593.874
1247.35	593.874
1247.93	595.874
1248.5	595.874
1249.08	596.874
1249.65	590.874
1250.23	589.874
1250.8	591.874
1251.37	589.874
1251.95	588.874
1252.52	595.874
1253.1	595.874
1253.67	593.874
1254.25	586.874
1254.82	587.874
1255.4	592.874
1255.97	596.874
1256.54	597.874
1257.12	590.874
1257.69	595.874
1258.27	589.874
1258.84	593.874
1259.41	597.874
1259.99	586.874
1260.56	586.874
1261.13	589.874
1261.71	595.874
1262.28	590.874
1262.85	578.874
1263.43	591.874
1264	593.874
1264.57	588.874
1265.15	590.874
1265.72	590.874
1266.29	589.874
1266.87	596.874
1267.44	595.874
1268.01	589.874
1268.59	601.874
1269.16	599.874
1269.73	591.874
1270.3	598.874
1270.88	592.874
1271.45	598.874
1272.02	596.874
1272.59	582.874
1273.17	598.874
1273.74	588.874
1274.31	580.874
1274.88	598.874
1275.46	592.874
1276.03	587.874
1276.6	593.874
1277.17	591.874
1277.75	589.874
1278.32	584.874
1278.89	593.874
1279.46	600.874
1280.03	586.874
1280.6	590.874
1281.18	593.874
1281.75	585.874
1282.32	590.874
1282.89	590.874
1283.46	593.874
1284.03	593.874
1284.6	591.874
1285.18	591.874
1285.75	598.874
1286.32	586.874
1286.89	604.874
1287.46	596.874
1288.03	584.874
1288.6	588.874
1289.17	592.874
1289.74	588.874
1290.32	592.874
1290.89	591.874
1291.46	588.874
1292.03	589.874
1292.6	602.874
1293.17	593.874
1293.74	590.874
1294.31	583.874
1294.88	592.874
1295.45	596.874
1296.02	587.874
1296.59	587.874
1297.16	589.874
1297.73	594.874
1298.3	589.874
1298.87	593.874
1299.44	591.874
1300.01	587.874
1300.58	587.874
1301.15	602.874
1301.72	586.874
1302.29	588.874
1302.86	587.874
1303.43	597.874
1304	593.874
1304.57	595.874
1305.14	590.874
1305.71	596.874
1306.28	589.874
1306.85	590.874
1307.42	593.874
1307.99	589.874
1308.55	589.874
1309.12	592.874
1309.69	586.874
1310.26	596.874
1310.83	590.874
1311.4	593.874
1311.97	586.874
1312.54	595.874
1313.1	593.874
1313.67	582.874
1314.24	591.874
1314.81	593.874
1315.38	593.874
1315.95	591.874
1316.52	591.874
1317.08	584.874
1317.65	586.874
1318.22	588.874
1318.79	590.874
1319.36	592.874
1319.92	597.874
1320.49	585.874
1321.06	587.874
1321.63	593.874
1322.2	596.874
1322.76	582.874
1323.33	588.874
1323.9	593.874
1324.47	592.874
1325.03	587.874
1325.6	593.874
1326.17	590.874
1326.73	587.874
1327.3	594.874
1327.87	593.874
1328.44	587.874
1329	592.874
1329.57	593.874
1330.14	590.874
1330.7	593.874
1331.27	598.874
1331.84	593.874
1332.4	588.874
1332.97	589.874
1333.54	584.874
1334.11	588.874
1334.67	589.874
1335.24	586.874
1335.8	588.874
1336.37	592.874
1336.94	584.874
1337.5	590.874
1338.07	586.874
1338.64	590.874
1339.2	578.874
1339.77	593.874
1340.34	589.874
1340.9	587.874
1341.47	594.874
1342.03	596.874
1342.6	592.874
1343.16	588.874
1343.73	589.874
1344.3	588.874
1344.86	588.874
1345.43	587.874
1345.99	593.874
1346.56	589.874
1347.12	592.874
1347.69	584.874
1348.25	590.874
1348.82	585.874
1349.38	588.874
1349.95	585.874
1350.51	597.874
1351.08	591.874
1351.64	589.874
1352.21	590.874
1352.77	590.874
1353.34	597.874
1353.9	590.874
1354.47	591.874
1355.03	589.874
1355.6	580.874
1356.16	599.874
1356.73	597.874
1357.29	589.874
1357.85	593.874
1358.42	591.874
1358.98	590.874
1359.55	591.874
1360.11	595.874
1360.67	590.874
1361.24	600.874
1361.8	591.874
1362.37	584.874
1362.93	581.874
1363.49	589.874
1364.06	592.874
1364.62	590.874
1365.19	596.874
1365.75	593.874
1366.31	597.874
1366.88	687.874
1367.44	602.874
1368	593.874
1368.57	590.874
1369.13	587.874
1369.69	588.874
1370.26	588.874
1370.82	588.874
1371.38	597.874
1371.95	595.874
1372.51	592.874
1373.07	593.874
1373.63	588.874
1374.2	598.874
1374.76	581.874
1375.32	588.874
1375.88	591.874
1376.45	585.874
1377.01	589.874
1377.57	591.874
1378.13	596.874
1378.7	601.874
1379.26	590.874
1379.82	588.874
1380.38	593.874
1380.95	584.874
1381.51	583.874
1382.07	596.874
1382.63	593.874
1383.19	591.874
1383.76	587.874
1384.32	601.874
1384.88	593.874
1385.44	600.874
1386	593.874
1386.56	595.874
1387.13	588.874
1387.69	592.874
1388.25	600.874
1388.81	587.874
1389.37	590.874
1389.93	599.874
1390.49	586.874
1391.05	602.874
1391.62	592.874
1392.18	595.874
1392.74	599.874
1393.3	596.874
1393.86	593.874
1394.42	593.874
1394.98	592.874
1395.54	593.874
1396.1	595.874
1396.66	590.874
1397.22	598.874
1397.78	596.874
1398.34	586.874
1398.91	593.874
1399.47	593.874
1400.03	598.874
1400.58	590.874
1401.14	593.874
1401.7	593.874
1402.27	591.874
1402.83	596.874
1403.39	592.874
1403.95	596.874
1404.5	595.874
1405.06	590.874
1405.62	585.874
1406.19	593.874
1406.74	586.874
1407.3	586.874
1407.86	595.874
1408.42	591.874
1408.98	595.874
1409.54	603.874
1410.1	588.874
1410.66	588.874
1411.22	593.874
1411.78	593.874
1412.34	600.874
1412.9	591.874
1413.46	596.874
1414.01	593.874
1414.57	596.874
1415.13	596.874
1415.69	586.874
1416.25	593.874
1416.81	596.874
1417.37	589.874
1417.92	593.874
1418.48	586.874
1419.04	592.874
1419.6	602.874
1420.16	603.874
1420.72	595.874
1421.28	587.874
1421.83	601.874
1422.39	599.874
1422.95	596.874
1423.51	598.874
1424.07	587.874
1424.62	595.874
1425.18	590.874
1425.74	596.874
1426.3	599.874
1426.85	591.874
1427.41	596.874
1427.97	593.874
1428.53	599.874
1429.08	578.874
1429.64	593.874
1430.2	588.874
1430.76	598.874
1431.31	592.874
1431.87	595.874
1432.43	582.874
1432.99	597.874
1433.54	597.874
1434.1	593.874
1434.66	592.874
1435.21	593.874
1435.77	592.874
1436.33	577.874
1436.88	597.874
1437.44	590.874
1438	588.874
1438.55	602.874
1439.11	597.874
1439.67	588.874
1440.22	600.874
1440.78	592.874
1441.33	593.874
1441.89	589.874
1442.45	593.874
1443	596.874
1443.56	586.874
1444.11	593.874
1444.67	601.874
1445.23	597.874
1445.78	593.874
1446.34	593.874
1446.89	595.874
1447.45	598.874
1448.01	591.874
1448.56	597.874
1449.12	600.874
1449.67	592.874
1450.23	601.874
1450.78	600.874
1451.34	585.874
1451.9	593.874
1452.45	592.874
1453	596.874
1453.56	593.874
1454.12	593.874
1454.67	587.874
1455.22	599.874
1455.78	599.874
1456.34	593.874
1456.89	593.874
1457.44	585.874
1458	595.874
1458.55	584.874
1459.11	589.874
1459.66	586.874
1460.22	590.874
1460.77	598.874
1461.33	584.874
1461.88	596.874
1462.43	590.874
1462.99	585.874
1463.54	598.874
1464.1	588.874
1464.65	590.874
1465.2	592.874
1465.76	598.874
1466.31	593.874
1466.87	600.874
1467.42	596.874
1467.97	590.874
1468.53	592.874
1469.08	597.874
1469.63	599.874
1470.19	601.874
1470.74	598.874
1471.3	584.874
1471.85	602.874
1472.4	592.874
1472.96	593.874
1473.51	594.874
1474.06	594.874
1474.61	593.874
1475.17	590.874
1475.72	600.874
1476.27	588.874
1476.83	597.874
1477.38	600.874
1477.93	600.874
1478.48	601.874
1479.04	595.874
1479.59	593.874
1480.14	596.874
1480.69	592.874
1481.25	593.874
1481.8	595.874
1482.35	593.874
1482.9	612.874
1483.46	607.874
1484.01	596.874
1484.56	596.874
1485.11	600.874
1485.66	591.874
1486.22	598.874
1486.77	597.874
1487.32	599.874
1487.87	595.874
1488.42	589.874
1488.97	598.874
1489.53	588.874
1490.08	599.874
1490.63	593.874
1491.18	601.874
1491.73	598.874
1492.28	597.874
1492.83	593.874
1493.39	588.874
1493.94	593.874
1494.49	596.874
1495.04	598.874
1495.59	593.874
1496.14	598.874
1496.69	605.874
1497.24	597.874
1497.79	593.874
1498.34	591.874
1498.9	600.874
1499.45	596.874
1500	597.874
