19.6939	4266.9
20.3726	4187.9
21.049	4390.9
21.7253	4450.9
22.4015	4388.9
23.0778	4611.9
23.7539	4839.9
24.4301	4911.9
25.1061	5018.9
25.7822	5118.9
26.4581	5472.9
27.1341	5584.9
27.81	5554.9
28.4858	5766.9
29.1639	5854.9
29.8396	6096.9
30.5153	6338.9
31.191	6619.9
31.8643	6715.9
32.5398	6978.9
33.2154	7270.9
33.8908	7573.9
34.5662	7966.9
35.2416	7970.9
35.9169	8292.9
36.5922	8494.9
37.2674	8689.9
37.9426	8992.9
38.6178	9257.9
39.2928	9259.9
39.9679	9378.9
40.6406	9849.9
41.3155	10161.9
41.9904	10546.9
42.6653	10826.9
43.3401	11077.9
44.0148	11170.9
44.6895	11153.9
45.3619	11639.9
46.0365	11914.9
46.7111	12100.9
47.3856	12330.9
48.0601	12556.9
48.7322	12754.9
49.4066	12860.9
50.081	13108.9
50.7553	13220.9
51.4272	13395.9
52.1014	13713.9
52.7756	13706.9
53.4474	13998.9
54.1214	14260.9
54.7954	14286.9
55.4671	14490.9
56.141	14584.9
56.8149	14977.9
57.4864	15263.9
58.1602	15733.9
58.8339	15221.9
59.5053	15335.9
60.1789	15628.9
60.8525	15519.9
61.5238	15614.9
62.1973	15951.9
62.8684	16114.9
63.5418	16230.9
64.2152	16610.9
64.8862	16253.9
65.5594	16629.9
66.2304	16369.9
66.9035	16578.9
67.5744	16594.9
68.2474	16679.9
68.9182	16838.9
69.5912	17051.9
70.2618	17320.9
70.9347	16958.9
71.6052	17123.9
72.278	17106.9
72.9485	17195.9
73.6212	17257.9
74.2916	17548.9
74.9619	17892.9
75.6344	17832.9
76.3047	17658.9
76.9771	17751.9
77.6473	17563.9
78.3173	17813.9
78.9897	17526.9
79.6597	17832.9
80.3319	18018.9
81.0018	18130.9
81.6717	18202.9
82.3438	18066.9
83.0135	17928.9
83.6832	18158.9
84.3552	17985.9
85.0248	17771.9
85.6944	17998.9
86.3639	17832.9
87.0357	18022.9
87.7051	17916.9
88.3745	18146.9
89.0438	18201.9
89.7154	18200.9
90.3847	18411.9
91.0539	17993.9
91.723	18002.9
92.3944	18004.9
93.0635	18166.9
93.7325	18280.9
94.4015	18589.9
95.0704	18246.9
95.7393	18550.9
96.4104	18276.9
97.0792	18258.9
97.7479	18099.9
98.4166	18105.9
99.0853	18113.9
99.7539	17828.9
100.422	17913.9
101.091	18138.9
101.759	17931.9
102.428	17977.9
103.098	17743.9
103.767	18155.9
104.435	18010.9
105.103	17976.9
105.772	17979.9
106.44	18072.9
107.108	18105.9
107.776	17988.9
108.444	17857.9
109.112	17794.9
109.78	17763.9
110.448	17740.9
111.115	17744.9
111.783	17743.9
112.449	17724.9
113.116	17710.9
113.784	17964.9
114.451	17989.9
115.119	17945.9
115.787	17385.9
116.454	17647.9
117.121	17636.9
117.789	17520.9
118.456	17392.9
119.121	17276.9
119.788	17328.9
120.455	17524.9
121.123	17538.9
121.79	17400.9
122.454	17014.9
123.121	17210.9
123.788	17209.9
124.455	17175.9
125.122	17246.9
125.787	17165.9
126.453	17272.9
127.12	17105.9
127.787	17114.9
128.451	16884.9
129.118	17156.9
129.784	16813.9
130.448	16966.9
131.115	16949.9
131.781	17318.9
132.448	16807.9
133.112	16890.9
133.778	17047.9
134.442	16638.9
135.108	16518.9
135.774	16463.9
136.438	16411.9
137.104	16658.9
137.77	16606.9
138.433	16394.9
139.099	16536.9
139.763	16436.9
140.429	16194.9
141.092	16407.9
141.758	16477.9
142.424	16579.9
143.087	16933.9
143.752	16658.9
144.416	16118.9
145.081	15925.9
145.744	16234.9
146.41	16069.9
147.073	15887.9
147.738	15873.9
148.401	15906.9
149.064	15830.9
149.729	16054.9
150.392	15711.9
151.057	15632.9
151.72	15728.9
152.385	15628.9
153.047	15514.9
153.71	15503.9
154.375	15582.9
155.037	15514.9
155.702	15494.9
156.364	15387.9
157.027	15552.9
157.691	15660.9
158.354	15706.9
159.016	15219.9
159.678	15511.9
160.343	15337.9
161.005	15202.9
161.667	15369.9
162.331	15153.9
162.993	14979.9
163.655	14984.9
164.317	14959.9
164.981	15069.9
165.643	14950.9
166.304	14968.9
166.966	14774.9
167.63	14763.9
168.292	14972.9
168.953	14669.9
169.615	14629.9
170.276	14404.9
170.938	14761.9
171.601	14546.9
172.263	14653.9
172.924	14329.9
173.585	14536.9
174.246	14199.9
174.907	14434.9
175.569	14345.9
176.23	14477.9
176.891	14197.9
177.552	14348.9
178.215	14523.9
178.876	14394.9
179.537	14214.9
180.197	14331.9
180.858	13896.9
181.519	14248.9
182.179	14033.9
182.84	13895.9
183.501	14073.9
184.161	14156.9
184.822	14105.9
185.482	14018.9
186.142	14210.9
186.8	13724.9
187.461	13644.9
188.121	13613.9
188.781	13911.9
189.441	13836.9
190.101	13690.9
190.762	13576.9
191.422	13706.9
192.081	13755.9
192.741	13660.9
193.399	13444.9
194.059	13667.9
194.719	13803.9
195.378	13469.9
196.038	13487.9
196.698	13613.9
197.355	13269.9
198.015	13428.9
198.674	13264.9
199.334	13493.9
199.991	13012.9
200.65	13177.9
201.31	13262.9
201.969	13318.9
202.626	13295.9
203.285	13060.9
203.944	13206.9
204.603	13300.9
205.26	13205.9
205.919	13067.9
206.578	13282.9
207.235	13050.9
207.894	12811.9
208.553	13046.9
209.209	12959.9
209.868	12916.9
210.524	12946.9
211.183	12903.9
211.842	12657.9
212.498	12794.9
213.156	12963.9
213.813	12899.9
214.471	12818.9
215.13	12784.9
215.786	12800.9
216.444	12761.9
217.1	12410.9
217.758	12714.9
218.414	12395.9
219.072	12642.9
219.728	12676.9
220.386	12368.9
221.042	12537.9
221.7	12558.9
222.355	12487.9
223.013	12041.9
223.669	12510.9
224.324	12456.9
224.982	12414.9
225.637	12461.9
226.295	12314.9
226.95	12347.9
227.606	12278.9
228.263	12362.9
228.918	12168.9
229.573	12315.9
230.231	12019.9
230.886	12322.9
231.543	12151.9
232.198	12468.9
232.853	12341.9
233.508	11972.9
234.165	12050.9
234.82	12199.9
235.475	12335.9
236.132	12344.9
236.786	12107.9
237.441	11823.9
238.095	12042.9
238.752	12067.9
239.407	12188.9
240.061	12008.9
240.715	12006.9
241.37	12133.9
242.026	12096.9
242.681	12165.9
243.335	12109.9
243.989	12135.9
244.643	11977.9
245.297	11892.9
245.951	11747.9
246.607	11976.9
247.261	11848.9
247.915	12123.9
248.569	12158.9
249.223	12066.9
249.877	11910.9
250.53	11862.9
251.184	11754.9
251.838	11913.9
252.491	11823.9
253.145	11790.9
253.798	11858.9
254.452	11726.9
255.105	11756.9
255.759	11854.9
256.412	11806.9
257.065	11786.9
257.719	11702.9
258.372	11762.9
259.025	11800.9
259.678	11740.9
260.331	11581.9
260.984	11808.9
261.637	11482.9
262.29	11554.9
262.943	11627.9
263.596	11660.9
264.246	11840.9
264.899	11644.9
265.552	11550.9
266.204	11452.9
266.857	11496.9
267.509	11458.9
268.16	11508.9
268.812	11609.9
269.465	11609.9
270.117	11591.9
270.769	11547.9
271.419	11356.9
272.072	11582.9
272.724	11497.9
273.376	11466.9
274.026	11347.9
274.678	11529.9
275.33	11484.9
275.982	11391.9
276.632	11442.9
277.284	11507.9
277.935	11320.9
278.585	11368.9
279.237	11365.9
279.889	11229.9
280.538	11324.9
281.19	11251.9
281.841	11229.9
282.491	11403.9
283.142	11508.9
283.791	11490.9
284.443	11333.9
285.094	11334.9
285.743	11234.9
286.394	11166.9
287.043	11266.9
287.695	11452.9
288.343	11091.9
288.995	11186.9
289.643	11265.9
290.294	11068.9
290.943	11020.9
291.594	10947.9
292.243	10953.9
292.894	10950.9
293.542	10884.9
294.193	11020.9
294.841	10922.9
295.492	11148.9
296.14	10868.9
296.789	10754.9
297.439	11032.9
298.088	11008.9
298.738	10859.9
299.386	10835.9
300.034	11098.9
300.685	10824.9
301.333	10884.9
301.981	10831.9
302.631	10747.9
303.279	10773.9
303.927	10847.9
304.577	10775.9
305.224	10770.9
305.872	10678.9
306.522	10833.9
307.17	10693.9
307.817	10772.9
308.465	10510.9
309.114	10640.9
309.762	10658.9
310.409	10668.9
311.057	10482.9
311.704	10693.9
312.354	10501.9
313.001	10301.9
313.648	10422.9
314.295	10776.9
314.942	10336.9
315.592	10455.9
316.239	10403.9
316.886	10355.9
317.532	10379.9
318.179	10618.9
318.826	10489.9
319.473	10539.9
320.12	10462.9
320.766	10386.9
321.413	10417.9
322.06	10218.9
322.709	10151.9
323.355	10257.9
324.002	10313.9
324.648	9930.9
325.294	10298.9
325.941	10256.9
326.587	10215.9
327.233	10044.9
327.88	10191.9
328.526	10230.9
329.17	10069.9
329.816	10170.9
330.462	10314.9
331.108	10065.9
331.754	10194.9
332.4	10248.9
333.046	10026.9
333.692	9816.9
334.337	10030.9
334.983	10159.9
335.629	9903.9
336.272	9988.9
336.918	9947.9
337.564	9901.9
338.209	9828.9
338.855	9995.9
339.498	9870.9
340.143	10082.9
340.789	9752.9
341.434	9682.9
342.079	9745.9
342.722	9755.9
343.367	9729.9
344.012	9878.9
344.658	9735.9
345.3	9838.9
345.945	9891.9
346.59	9716.9
347.233	9640.9
347.878	9705.9
348.523	9814.9
349.165	9922.9
349.81	9669.9
350.455	9662.9
351.097	9762.9
351.742	9704.9
352.386	9733.9
353.029	9828.9
353.673	9636.9
354.315	9659.9
354.96	9607.9
355.604	9700.9
356.246	9544.9
356.891	9811.9
357.533	9523.9
358.177	9656.9
358.819	9870.9
359.463	9692.9
360.105	9816.9
360.749	9719.9
361.39	9621.9
362.034	9773.9
362.676	9727.9
363.32	9580.9
363.961	9762.9
364.605	9765.9
365.247	9732.9
365.888	9766.9
366.532	9726.9
367.173	9874.9
367.817	9835.9
368.458	9753.9
369.099	9710.9
369.742	9946.9
370.384	9706.9
371.025	9620.9
371.668	9933.9
372.309	9914.9
372.95	9792.9
373.593	9908.9
374.234	9842.9
374.875	9943.9
375.518	9724.9
376.159	9966.9
376.799	9826.9
377.44	10042.9
378.083	9986.9
378.723	9786.9
379.364	9907.9
380.004	10035.9
380.647	9827.9
381.288	10058.9
381.928	10041.9
382.568	10110.9
383.209	10101.9
383.849	10040.9
384.491	10085.9
385.131	9955.9
385.771	10155.9
386.411	9804.9
387.052	10092.9
387.692	10112.9
388.331	10025.9
388.971	10144.9
389.611	10264.9
390.253	10232.9
390.893	10185.9
391.533	10050.9
392.172	10083.9
392.812	9879.9
393.452	10028.9
394.091	10026.9
394.731	9936.9
395.37	9893.9
396.01	9936.9
396.649	10040.9
397.288	10051.9
397.928	10169.9
398.567	10172.9
399.204	10002.9
399.843	10156.9
400.482	9954.9
401.121	9890.9
401.76	9848.9
402.399	10052.9
403.038	10238.9
403.677	10015.9
404.316	10008.9
404.953	9941.9
405.591	10020.9
406.23	9885.9
406.869	9997.9
407.507	10012.9
408.146	10008.9
408.782	9853.9
409.421	10071.9
410.059	10073.9
410.698	9802.9
411.334	9786.9
411.972	9792.9
412.611	9685.9
413.249	9785.9
413.885	9738.9
414.523	9937.9
415.161	9734.9
415.797	9714.9
416.435	9683.9
417.073	9884.9
417.709	9694.9
418.347	9493.9
418.985	9547.9
419.62	9786.9
420.258	9455.9
420.896	9538.9
421.531	9570.9
422.169	9503.9
422.804	9395.9
423.442	9500.9
424.077	9373.9
424.715	9618.9
425.352	9437.9
425.987	9675.9
426.625	9445.9
427.26	9575.9
427.897	9534.9
428.532	9593.9
429.169	9501.9
429.804	9478.9
430.442	9478.9
431.076	9300.9
431.711	9156.9
432.348	9374.9
432.983	9282.9
433.62	9379.9
434.254	9153.9
434.891	9138.9
435.526	9188.9
436.16	9357.9
436.797	9163.9
437.431	9289.9
438.066	9227.9
438.702	9312.9
439.337	9217.9
439.971	9218.9
440.607	9257.9
441.242	8963.9
441.876	9191.9
442.512	8831.9
443.146	8734.9
443.78	8906.9
444.414	8820.9
445.05	9019.9
445.684	8878.9
446.318	8870.9
446.952	8861.9
447.588	8923.9
448.221	8802.9
448.855	8694.9
449.489	8754.9
450.122	8742.9
450.758	8830.9
451.392	8682.9
452.025	8622.9
452.659	8879.9
453.292	8508.9
453.925	8600.9
454.559	8578.9
455.192	8506.9
455.827	8638.9
456.46	8655.9
457.093	8456.9
457.727	8414.9
458.36	8787.9
458.993	8464.9
459.626	8354.9
460.258	8485.9
460.891	8342.9
461.524	8378.9
462.157	8284.9
462.79	8577.9
463.422	8354.9
464.055	8343.9
464.688	8528.9
465.32	8431.9
465.953	8411.9
466.585	8280.9
467.216	8270.9
467.848	8312.9
468.48	8246.9
469.113	8454.9
469.745	8318.9
470.377	8093.9
471.009	8105.9
471.642	8334.9
472.271	8277.9
472.904	8059.9
473.536	8152.9
474.168	8170.9
474.799	8068.9
475.429	8136.9
476.061	8416.9
476.693	8230.9
477.325	8213.9
477.956	8270.9
478.586	8356.9
479.218	8059.9
479.849	8216.9
480.479	8389.9
481.11	8286.9
481.742	8488.9
482.373	8328.9
483.002	8417.9
483.634	8408.9
484.265	8267.9
484.894	8365.9
485.525	8431.9
486.154	8841.9
486.785	8557.9
487.416	8652.9
488.045	8646.9
488.676	8673.9
489.305	8682.9
489.936	8616.9
490.567	9084.9
491.196	9250.9
491.826	9225.9
492.455	9270.9
493.086	9005.9
493.714	9192.9
494.345	9165.9
494.973	9188.9
495.604	9214.9
496.232	9321.9
496.863	9412.9
497.491	9632.9
498.121	9574.9
498.749	9800.9
499.378	9677.9
500.008	9774.9
500.636	9814.9
501.266	10121.9
501.894	10277.9
502.522	10543.9
503.152	10299.9
503.78	10414.9
504.408	10726.9
505.037	10652.9
505.665	11018.9
506.293	11188.9
506.923	11404.9
507.55	11450.9
508.178	11352.9
508.807	11544.9
509.435	11602.9
510.062	11711.9
510.69	11896.9
511.319	12159.9
511.946	12006.9
512.574	12413.9
513.201	12498.9
513.828	12706.9
514.457	12647.9
515.084	12809.9
515.711	13072.9
516.338	13083.9
516.965	13450.9
517.592	13569.9
518.221	13858.9
518.848	13818.9
519.475	13845.9
520.102	14173.9
520.728	14185.9
521.355	14474.9
521.982	14423.9
522.608	14610.9
523.235	14778.9
523.861	14782.9
524.488	15036.9
525.114	15430.9
525.741	15352.9
526.367	15429.9
526.993	15640.9
527.619	15948.9
528.246	15986.9
528.872	15947.9
529.498	16157.9
530.124	16498.9
530.75	16489.9
531.376	16616.9
532.002	16974.9
532.628	16942.9
533.254	16956.9
533.88	17055.9
534.505	17362.9
535.131	17306.9
535.755	17615.9
536.38	17476.9
537.006	17615.9
537.632	17640.9
538.257	17593.9
538.883	17922.9
539.506	17757.9
540.131	17748.9
540.757	18007.9
541.382	18124.9
542.005	18051.9
542.63	18408.9
543.256	18049.9
543.881	17897.9
544.504	18278.9
545.129	18503.9
545.754	18361.9
546.379	18517.9
547.002	18231.9
547.627	18210.9
548.251	18472.9
548.874	18553.9
549.499	18162.9
550.121	18616.9
550.746	18293.9
551.371	18338.9
551.993	18352.9
552.618	18517.9
553.242	18188.9
553.865	18192.9
554.489	18258.9
555.112	18162.9
555.736	18085.9
556.358	18100.9
556.982	18154.9
557.604	17712.9
558.229	17691.9
558.851	17494.9
559.475	17574.9
560.097	17538.9
560.721	17263.9
561.343	17510.9
561.967	17077.9
562.588	17051.9
563.212	16994.9
563.834	16802.9
564.456	16584.9
565.079	16855.9
565.701	16374.9
566.325	16420.9
566.946	16322.9
567.568	16120.9
568.191	15883.9
568.812	15793.9
569.434	15522.9
570.057	15662.9
570.678	15708.9
571.3	15198.9
571.923	15219.9
572.544	15032.9
573.165	14884.9
573.786	14641.9
574.409	14540.9
575.03	14156.9
575.651	14163.9
576.272	13861.9
576.895	14259.9
577.516	13792.9
578.136	13613.9
578.757	13522.9
579.378	13418.9
580	13442.9
580.621	12964.9
581.242	12972.9
581.862	12912.9
582.483	12777.9
583.103	12762.9
583.723	12368.9
584.344	12330.9
584.964	12133.9
585.586	12063.9
586.207	11645.9
586.827	11889.9
587.447	11560.9
588.067	11375.9
588.687	11332.9
589.307	11168.9
589.927	11026.9
590.547	11007.9
591.167	10870.9
591.787	10628.9
592.406	10647.9
593.026	10498.9
593.646	10343.9
594.265	10212.9
594.885	10230.9
595.503	10099.9
596.122	9896.9
596.742	9577.9
597.361	9712.9
597.98	9638.9
598.6	9422.9
599.219	9236.9
599.839	9207.9
600.456	9201.9
601.075	8901.9
601.694	9010.9
602.313	8906.9
602.932	8788.9
603.551	8443.9
604.168	8601.9
604.787	8472.9
605.406	8606.9
606.025	8596.9
606.642	8452.9
607.261	8249.9
607.879	8244.9
608.496	8138.78
609.115	8095.73
609.733	7980.5
610.352	7655.41
610.968	7974.94
611.587	7827.72
612.205	7661.82
612.822	7748.42
613.44	7637.26
614.056	7306.82
614.675	7509.82
615.293	7408.28
615.909	7588.3
616.527	7249.35
617.143	7294.86
617.761	7193.1
618.379	6989.63
618.995	7039.86
619.613	7013.62
620.229	7017.49
620.847	6998.64
621.463	6894.55
622.081	6744.15
622.696	6717.79
623.314	6578.42
623.93	6701.12
624.545	6691.12
625.163	6606.38
625.778	6642.8
626.396	6478.77
627.011	6564.45
627.629	6368.57
628.244	6472.91
628.859	6284.33
629.476	6327.02
630.092	6349.12
630.707	6331.04
631.324	6297.64
631.939	6187.29
632.554	6225.14
633.171	6147.85
633.786	6060.16
634.401	6097.33
635.018	6114.19
635.633	5906.65
636.247	6079.36
636.862	5857.02
637.479	5874.51
638.094	5899.09
638.708	5876.73
639.323	5881.81
639.939	5908.29
640.554	5782.89
641.168	5793.94
641.783	5631.33
642.397	5671.76
643.011	5587.96
643.628	5634.73
644.242	5656.13
644.856	5563.47
645.47	5570.63
646.085	5567.14
646.699	5478.34
647.313	5508.11
647.927	5354.51
648.541	5363.39
649.154	5348.53
649.771	5342.81
650.384	5381.88
650.998	5401.08
651.612	5304.86
652.226	5238.67
652.839	5339.09
653.453	5169.44
654.067	5214.96
654.68	5145.1
655.093	5152.1
655.715	5171.1
656.34	5095.1
656.964	5073.1
657.586	4895.1
658.21	4968.1
658.834	4939.1
659.456	4929.1
660.08	4857.1
660.704	4940.1
661.325	4880.1
661.949	4793.1
662.571	4895.1
663.195	4821.1
663.818	4856.1
664.44	4840.1
665.063	4833.1
665.685	4666.1
666.308	4801.1
666.93	4688.1
667.553	4730.1
668.174	4667.1
668.798	4579.1
669.419	4513.1
670.042	4615.1
670.664	4598.1
671.287	4518.1
671.908	4517.1
672.531	4452.1
673.152	4385.1
673.775	4431.1
674.396	4545.1
675.017	4389.1
675.639	4478.1
676.26	4423.1
676.883	4391.1
677.504	4319.1
678.124	4351.1
678.747	4434.1
679.368	4249.1
679.988	4314.1
680.611	4274.1
681.231	4226.1
681.851	4318.1
682.474	4209.1
683.094	4262.1
683.714	4164.1
684.337	4188.1
684.957	4235.1
685.577	4177.1
686.197	4235.1
686.819	4240.1
687.439	4283.1
688.059	4163.1
688.679	4203.1
689.301	4091.1
689.921	4066.1
690.541	4205.1
691.161	4221.1
691.78	4152.1
692.4	4136.1
693.022	4103.1
693.641	4113.1
694.261	4125.1
694.88	4118.1
695.5	4087.1
696.119	4022.1
696.739	4142.1
697.36	4033.1
697.979	4038.1
698.599	4162.1
699.218	4172.1
699.837	4151.1
700.456	4147.1
701.075	4189.1
701.694	4105.1
702.313	4156.1
702.932	4138.1
703.551	4171.1
704.17	4197.1
704.789	4212.1
705.408	4348.1
706.026	4229.1
706.645	4224.1
707.264	4233.1
707.883	4341.1
708.501	4295.1
709.12	4411.1
709.738	4321.1
710.355	4344.1
710.973	4423.1
711.591	4447.1
712.21	4468.1
712.828	4570.1
713.446	4332.1
714.065	4458.1
714.681	4494.1
715.299	4674.1
715.917	4670.1
716.535	4680.1
717.153	4676.1
717.771	4607.1
718.387	4748.1
719.005	4758.1
719.623	4720.1
720.24	4886.1
720.856	4964.1
721.474	4932.1
722.091	4960.1
722.709	5086.1
723.325	5103.1
723.942	5044.1
724.56	5145.1
725.175	5170.1
725.793	5157.1
726.41	5254.1
727.025	5292.1
727.643	5373.1
728.26	5426.1
728.875	5400.1
729.492	5562.1
730.109	5546.1
730.724	5518.1
731.341	5573.1
731.956	5659.1
732.573	5834.1
733.19	5849.1
733.805	5891.1
734.422	5787.1
735.037	5864.1
735.654	6037.1
736.268	6039.1
736.885	6077.1
737.5	6132.1
738.116	6235.1
738.731	6216.1
739.347	6224.1
739.962	6369.1
740.578	6289.1
741.192	6536.1
741.809	6367.1
742.423	6620.1
743.037	6594.1
743.654	6535.1
744.268	6531.1
744.884	6767.1
745.498	6695.1
746.112	6742.1
746.728	6877.1
747.342	6867.1
747.956	6907.1
748.572	7059.1
749.185	7073.1
749.799	7069.1
750.415	7147.1
751.029	7236.1
751.642	7192.1
752.258	7285.1
752.872	7216.1
753.485	7189.1
754.101	7231.1
754.714	7225.1
755.328	7339.1
755.941	7384.1
756.554	7596.1
757.17	7676.1
757.783	7572.1
758.396	7673.1
759.009	7500.1
759.622	7673.1
760.237	7680.1
760.85	7808.1
761.463	7851.1
762.076	7866.1
762.689	7952.1
763.302	7769.1
763.915	7941.1
764.53	8024.1
765.143	8077.1
765.755	7866.1
766.368	7978.1
766.981	8151.1
767.593	8073.1
768.206	8111.1
768.818	8184.1
769.431	8279.1
770.043	8029.1
770.655	8225.1
771.268	8046.1
771.88	8338.1
772.492	8278.1
773.104	8395.1
773.717	8344.1
774.329	8323.1
774.941	8584.1
775.553	8551.1
776.165	8470.1
776.777	8370.1
777.389	8435.1
777.999	8438.1
778.61	8546.1
779.222	8664.1
779.834	8765.1
780.446	8608.1
781.057	8733.1
781.669	8714.1
782.281	8857.1
782.89	8765.1
783.502	8891.1
784.113	8923.1
784.725	9024.1
785.336	9049.1
785.945	9017.1
786.557	9257.1
787.168	9104.1
787.779	9081.1
788.388	9284.1
789	9422.1
789.611	9175.1
790.222	9478.1
790.831	9564.1
791.442	9609.1
792.053	9925.1
792.661	9822.1
793.272	9895.1
793.883	9951.1
794.492	9917.1
795.103	10117.1
795.713	10399.1
796.322	10487.1
796.933	10338.1
797.543	10722.1
798.152	10778.1
798.762	10859.1
799.371	11068.1
799.981	11433.1
800.589	11617.1
801.2	11765.1
801.808	11914.1
802.418	12084.1
803.029	12549.1
803.637	12509.1
804.247	12970.1
804.855	13153.1
805.465	13507.1
806.073	13875.1
806.683	14102.1
807.291	14446.1
807.898	14846.1
808.508	15190.1
809.116	15546.1
809.726	15985.1
810.334	16189.1
810.943	16601.1
811.551	17037.1
812.159	17792.1
812.768	18217.1
813.376	18423.1
813.983	18530.1
814.592	19529.1
815.2	19645.1
815.807	20255.1
816.417	20613.1
817.024	21323.1
817.631	21541.1
818.24	22241.1
818.847	22465.1
819.454	23107.1
820.061	23553.1
820.67	24155.1
821.277	24668.1
821.884	25134.1
822.491	25592.1
823.1	25909.1
823.707	26583.1
824.314	27009.1
824.92	27611.1
825.527	28241.1
826.136	28465.1
826.742	28840.1
827.349	29233.1
827.955	29955.1
828.562	30158.1
829.168	30720.1
829.775	31158.1
830.383	31781.1
830.989	31873.1
831.596	32635.1
832.202	32917.1
832.808	33380.1
833.414	33478.1
834.02	34067.1
834.627	34217.1
835.233	34420.1
835.839	34805.1
836.445	35129.1
837.05	35252.1
837.656	35579.1
838.262	35711.1
838.868	35930.1
839.474	36049.1
840.079	36425.1
840.685	36473.1
841.291	36599.1
841.896	36818.1
842.502	37101.1
843.107	36773.1
843.711	37411.1
844.316	37421.1
844.922	37511.1
845.527	37290.1
846.132	37673.1
846.738	37536.1
847.343	37852.1
847.948	37708.1
848.551	37749.1
849.156	37791.1
849.761	37990.1
850.366	37965.1
850.971	37817.1
851.574	38025.1
852.179	37829.1
852.784	38249.1
853.389	37753.1
853.992	38127.1
854.596	38050.1
855.201	37867.1
855.806	37943.1
856.408	37833.1
857.013	37674.1
857.618	37647.1
858.22	37834.1
858.825	37679.1
859.429	37415.1
860.031	37656.1
860.636	37647.1
861.24	37425.1
861.842	37242.1
862.446	37354.1
863.049	37203.1
863.653	37097.1
864.257	36805.1
864.859	36806.1
865.463	36536.1
866.065	36279.1
866.669	36184.1
867.271	35992.1
867.875	35754.1
868.476	35487.1
869.08	35755.1
869.682	35133.1
870.286	35047.1
870.887	34741.1
871.491	34540.1
872.092	34349.1
872.696	34073.1
873.298	33926.1
873.901	33813.1
874.502	33454.1
875.104	32976.1
875.707	32720.1
876.308	32099.1
876.912	32074.1
877.513	31712.1
878.114	31548.1
878.717	30906.1
879.318	30348.1
879.919	30133.1
880.522	29883.1
881.123	29293.1
881.724	28935.1
882.327	28960.1
882.928	28464.1
883.529	27925.1
884.13	27399.1
884.732	27086.1
885.333	27079.1
885.934	26120.1
886.534	26209.1
887.137	25715.1
887.738	25621.1
888.338	25181.1
888.938	24832.1
889.539	24467.1
890.141	23966.1
890.742	23977.1
891.342	23421.1
891.942	23133.1
892.542	22661.1
893.143	22263.1
893.743	22061.1
894.345	21696.1
894.945	21293.1
895.545	21071.1
896.145	20621.1
896.745	20087.1
897.345	19913.1
897.945	19850.1
898.544	19519.1
899.144	18945.1
899.744	18588.1
900.344	18381.1
900.943	18143.1
901.543	17704.1
902.143	17745.1
902.742	17101.1
903.342	16988.1
903.941	16809.1
904.54	16364.1
905.14	16101.1
905.739	16091.1
906.339	15781.1
906.938	15445.1
907.537	15420.1
908.134	14929.1
908.733	14601.1
909.332	14462.1
909.932	14184.1
910.531	13891.1
911.13	13727.1
911.729	13597.1
912.325	13282.1
912.924	12901.1
913.523	12875.1
914.122	12373.1
914.721	12407.1
915.317	12193.1
915.916	11956.1
916.515	11915.1
917.113	11595.1
917.71	11461.1
918.308	11340.1
918.907	11223.1
919.505	10757.1
920.102	10631.1
920.7	10563.1
921.298	10305.1
921.895	10063.1
922.493	9899.1
923.091	9953.1
923.687	9539.1
924.285	9468.1
924.883	9307.1
925.479	9107.1
926.077	9003.1
926.673	8621.1
927.271	8803.1
927.869	8471.1
928.465	8382.1
929.063	8320.1
929.659	8126.1
930.256	8042.1
930.852	7968.1
931.45	7731.1
932.045	7541.1
932.643	7456.1
933.238	7313.1
933.836	7241.1
934.431	7104.1
935.029	6958.1
935.624	6833.1
936.221	6606.1
936.817	6655.1
937.412	6535.1
938.009	6364.1
938.604	6219.1
939.202	6273.1
939.797	6113.1
940.392	5906.1
940.989	5912.1
941.584	5769.1
942.181	5627.1
942.776	5539.1
943.37	5589.1
943.967	5472.1
944.562	5437.1
945.157	5292.1
945.751	5254.1
946.348	5072.1
946.943	5017.1
947.537	4945.1
948.132	4887.1
948.728	4913.1
949.323	4755.1
949.917	4704.1
950.512	4724.1
951.108	4644.1
951.702	4523.1
952.297	4495.1
952.891	4435.1
953.485	4431.1
954.079	4323.1
954.675	4307.1
955.269	4211.1
955.863	4238.1
956.457	4011.1
957.051	4149.1
957.645	3989.1
958.239	3859.1
958.833	3855.1
959.427	3853.1
960.021	3775.1
960.616	3791.1
961.21	3762.1
961.804	3654.1
962.397	3569.1
962.991	3580.1
963.584	3570.1
964.178	3519.1
964.771	3466.1
965.365	3402.1
965.958	3337.1
966.549	3345.1
967.143	3298.1
967.736	3273.1
968.329	3281.1
968.922	3167.1
969.516	3193.1
970.109	3205.1
970.702	3100.1
971.295	3083.1
971.888	3145.1
972.479	3093.1
973.072	2965.1
973.665	2999.1
974.257	2985.1
974.85	2882.1
975.443	2887.1
976.034	2879.1
976.626	2905.1
977.219	2780.1
977.812	2908.1
978.404	2786.1
978.995	2771.1
979.587	2729.1
980.18	2731.1
980.77	2668.1
981.362	2682.1
981.955	2635.1
982.547	2572.1
983.137	2588.1
983.729	2569.1
984.322	2548.1
984.912	2522.1
985.504	2508.1
986.094	2521.1
986.686	2473.1
987.278	2484.1
987.868	2355.1
988.46	2392.1
989.052	2410.1
989.641	2373.1
990.233	2332.1
990.823	2328.1
991.415	2340.1
992.004	2253.1
992.596	2256.1
993.186	2195.1
993.777	2173.1
994.367	2215.1
994.958	2166.1
995.548	2166.1
996.139	2149.1
996.728	2140.1
997.32	2101.1
997.909	2052.1
998.5	2072.1
999.09	2062.1
999.679	2061.1
1000.27	2037.1
1000.86	2012.1
1001.45	1953.1
1002.04	1969.1
1002.63	1963.1
1003.22	1917.1
1003.81	1929.1
1004.4	1854.1
1004.99	1868.1
1005.58	1833.1
1006.17	1855.1
1006.76	1872.1
1007.34	1781.1
1007.93	1831.1
1008.52	1759.1
1009.11	1764.1
1009.7	1756.1
1010.29	1741.1
1010.88	1726.1
1011.47	1713.1
1012.06	1708.1
1012.64	1676.1
1013.23	1649.1
1013.82	1645.1
1014.41	1635.1
1015	1645.1
1015.59	1608.1
1016.18	1607.1
1016.76	1585.1
1017.35	1553.1
1017.94	1555.1
1018.53	1520.1
1019.12	1546.1
1019.71	1521.1
1020.29	1505.1
1020.88	1480.1
1021.47	1431.1
1022.06	1412.1
1022.64	1425.1
1023.23	1411.1
1023.82	1382.1
1024.41	1377.1
1024.99	1395.1
1025.58	1358.1
1026.17	1337.1
1026.76	1332.1
1027.34	1307.1
1027.93	1304.1
1028.52	1289.1
1029.1	1272.1
1029.69	1258.1
1030.28	1282.1
1030.87	1243.1
1031.45	1225.1
1032.04	1228.1
1032.63	1191.1
1033.21	1214.1
1033.8	1185.1
1034.39	1204.1
1034.97	1157.1
1035.56	1165.1
1036.15	1141.1
1036.73	1135.1
1037.32	1122.1
1037.9	1099.1
1038.49	1101.1
1039.08	1113.1
1039.66	1084.1
1040.25	1053.1
1040.84	1075.1
1041.42	1075.1
1042.01	1023.1
1042.59	1051.1
1043.18	1021.1
1043.76	1025.1
1044.35	1009.1
1044.94	1008.1
1045.52	987.099
1046.11	985.099
1046.69	994.099
1047.28	963.099
1047.86	963.099
1048.45	957.099
1049.03	937.099
1049.62	962.099
1050.2	940.099
1050.79	939.099
1051.37	912.099
1051.96	911.099
1052.54	901.099
1053.13	885.099
1053.71	904.099
1054.3	899.099
1054.88	883.099
1055.47	887.099
1056.05	885.099
1056.63	872.099
1057.22	872.099
1057.8	867.099
1058.39	866.099
1058.97	843.099
1059.56	842.099
1060.14	839.099
1060.72	842.099
1061.31	823.099
1061.89	834.099
1062.48	817.099
1063.06	818.099
1063.64	812.099
1064.23	811.099
1064.81	823.099
1065.39	818.099
1065.98	815.099
1066.56	810.099
1067.14	814.099
1067.73	793.099
1068.31	779.099
1068.89	799.099
1069.48	787.099
1070.06	788.099
1070.64	782.099
1071.23	788.099
1071.81	773.099
1072.39	775.099
1072.97	766.099
1073.56	762.099
1074.14	775.099
1074.72	763.099
1075.3	741.099
1075.89	749.099
1076.47	750.099
1077.05	754.099
1077.63	745.099
1078.22	742.099
1078.8	755.099
1079.38	739.099
1079.96	719.099
1080.54	737.099
1081.13	736.099
1081.71	729.099
1082.29	720.099
1082.87	738.099
1083.45	739.099
1084.04	714.099
1084.62	722.099
1085.2	724.099
1085.78	729.099
1086.36	724.099
1086.94	735.099
1087.52	713.099
1088.11	719.099
1088.69	700.099
1089.27	705.099
1089.85	696.099
1090.43	709.099
1091.01	705.099
1091.59	700.099
1092.17	709.099
1092.75	695.099
1093.34	702.099
1093.92	698.099
1094.5	699.099
1095.08	685.099
1095.66	689.099
1096.24	685.099
1096.82	683.099
1097.4	690.099
1097.98	689.099
1098.56	693.099
1099.14	698.099
1099.72	692.099
1100.3	689.099
1100.88	693.099
1101.46	680.099
1102.04	677.099
1102.62	678.099
1103.2	680.099
1103.78	678.099
1104.36	673.099
1104.94	669.099
1105.52	674.099
1106.1	669.099
1106.68	673.099
1107.26	676.099
1107.84	659.099
1108.42	670.099
1109	670.099
1109.57	659.099
1110.15	666.099
1110.73	657.099
1111.31	645.099
1111.89	665.099
1112.47	663.099
1113.05	645.099
1113.63	653.099
1114.2	653.099
1114.78	655.099
1115.36	652.099
1115.94	645.099
1116.52	647.099
1117.1	643.099
1117.68	633.099
1118.25	647.099
1118.83	647.487
1119.41	636.817
1119.99	649.576
1120.57	627.598
1121.15	628.581
1121.72	643.1
1122.3	639.333
1122.88	626.087
1123.46	636.703
1124.04	635.662
1124.61	636.924
1125.19	658.723
1125.77	617.122
1126.35	625.927
1126.92	634.029
1127.5	633.063
1128.08	629.171
1128.66	619.364
1129.23	615.586
1129.81	626.739
1130.39	616.641
1130.96	610.686
1131.54	606.006
1132.12	619.222
1132.69	613.792
1133.27	609.026
1133.85	604.602
1134.43	599.356
1135	611.109
1135.58	604.845
1136.15	613.279
1136.73	603.318
1137.31	675.734
1137.88	612.934
1138.46	596.67
1139.04	658.823
1139.61	689.16
1140.19	594.25
1140.77	589.478
1141.34	593.809
1141.92	590.773
1142.49	582.264
1143.07	582.726
1143.64	589.76
1144.22	584.604
1144.8	585.547
1145.37	579.871
1145.95	586.716
1146.52	690.778
1147.1	689.2
1147.67	591.399
1148.25	571.656
1148.83	578.398
1149.4	573.168
1149.97	569.448
1150.55	575.487
1151.13	566.366
1151.7	571.366
1152.28	571.348
1152.85	562.43
1153.42	561.726
1154	646.519
1154.58	618.333
1155.15	564.461
1155.72	558.351
1156.3	552.968
1156.87	548.464
1157.45	556.614
1158.02	551.905
1158.6	549.198
1159.17	542.509
1159.74	542.751
1160.32	555.739
1160.89	549.838
1161.47	549.326
1162.04	546.502
1162.62	549.244
1163.19	542.22
1163.76	540.98
1164.34	542.136
1164.91	538.812
1165.48	536.623
1166.06	526.788
1166.63	540.741
1167.2	536.297
1167.78	527.362
1168.35	533.807
1168.93	527.026
1169.5	530.166
1170.07	525.759
1170.64	520.824
1171.22	523.266
1171.79	524.551
1172.36	517.499
1172.94	530.021
1173.51	515.917
1174.08	521.456
1174.66	526.347
1175.23	526.306
1175.8	528.079
1176.37	521.221
1176.95	516.735
1177.52	514.7
1178.09	506.516
1178.66	514.255
1179.24	519.252
1179.81	516.931
1180.38	514.31
1180.95	505.669
1181.52	512.343
1182.1	503.439
1182.67	507.947
1183.24	509.22
1183.81	503.902
1184.38	503.71
1184.95	498.403
1185.53	505.722
1186.1	516.859
1186.67	493.137
1187.24	496.44
1187.81	500.114
1188.39	497.216
1188.96	498.501
1189.53	500.42
1190.1	489.436
1190.67	495.995
1191.24	478.235
1191.81	492.548
1192.38	488.867
1192.95	498.026
1193.53	490.677
1194.1	494.825
1194.67	493.681
1195.24	507.309
1195.81	498.919
1196.38	483.159
1196.95	487.918
1197.52	481.62
1198.09	493.305
1198.66	476.647
1199.23	490.583
1199.8	478.554
1200.37	481.181
1200.94	479.695
1201.51	491.38
1202.08	487.093
1202.65	464.578
1203.22	484.497
1203.79	465.245
1204.36	480.633
1204.93	490.975
1205.5	482.3
1206.07	467.173
1206.64	491.761
1207.21	455.571
1207.78	472.656
1208.35	470.49
1208.92	469.683
1209.49	451.58
1210.06	443.927
1210.63	443.452
1211.19	434.566
1211.76	432.016
1212.33	438.421
1212.9	449.42
1213.47	450.105
1214.04	456.636
1214.61	454.429
1215.18	458.08
1215.75	452.982
1216.31	465.415
1216.88	456.329
1217.45	468.762
1218.02	459.641
1218.59	463.298
1219.16	465.954
1219.69	454.954
1220.27	460.954
1220.85	451.954
1221.42	454.954
1222	469.954
1222.58	465.954
1223.16	464.954
1223.73	452.954
1224.31	465.954
1224.89	468.954
1225.47	465.954
1226.04	455.954
1226.62	460.954
1227.2	462.954
1227.77	451.954
1228.35	450.954
1228.93	464.954
1229.5	468.954
1230.08	442.954
1230.65	461.954
1231.23	468.954
1231.81	468.954
1232.38	446.954
1232.96	459.954
1233.54	443.954
1234.11	457.954
1234.69	459.954
1235.27	452.954
1235.84	447.954
1236.42	455.954
1236.99	456.954
1237.57	449.954
1238.15	455.954
1238.72	466.954
1239.3	456.954
1239.87	448.954
1240.45	466.954
1241.02	472.954
1241.6	446.954
1242.18	457.954
1242.75	471.954
1243.32	444.954
1243.9	451.954
1244.48	449.954
1245.05	452.954
1245.63	456.954
1246.2	445.954
1246.78	465.954
1247.35	454.954
1247.93	442.954
1248.5	435.954
1249.08	452.954
1249.65	446.954
1250.23	443.954
1250.8	456.954
1251.37	436.954
1251.95	460.954
1252.52	442.954
1253.1	462.954
1253.67	451.954
1254.25	452.954
1254.82	461.954
1255.4	440.954
1255.97	451.954
1256.54	439.954
1257.12	445.954
1257.69	447.954
1258.27	444.954
1258.84	454.954
1259.41	444.954
1259.99	449.954
1260.56	464.954
1261.13	606.954
1261.71	456.954
1262.28	443.954
1262.85	440.954
1263.43	446.954
1264	457.954
1264.57	459.954
1265.15	471.954
1265.72	441.954
1266.29	444.954
1266.87	448.954
1267.44	446.954
1268.01	440.954
1268.59	445.954
1269.16	450.954
1269.73	441.954
1270.3	447.954
1270.88	462.954
1271.45	452.954
1272.02	440.954
1272.59	450.954
1273.17	453.954
1273.74	454.954
1274.31	447.954
1274.88	434.954
1275.46	453.954
1276.03	435.954
1276.6	448.954
1277.17	427.954
1277.75	435.954
1278.32	448.954
1278.89	416.954
1279.46	459.954
1280.03	436.954
1280.6	432.954
1281.18	422.954
1281.75	423.954
1282.32	454.954
1282.89	431.954
1283.46	454.954
1284.03	449.954
1284.6	437.954
1285.18	435.954
1285.75	442.954
1286.32	442.954
1286.89	433.954
1287.46	449.954
1288.03	436.954
1288.6	445.954
1289.17	440.954
1289.74	446.954
1290.32	434.954
1290.89	442.954
1291.46	443.954
1292.03	440.954
1292.6	428.954
1293.17	436.954
1293.74	436.954
1294.31	423.954
1294.88	434.954
1295.45	429.954
1296.02	422.954
1296.59	428.954
1297.16	435.954
1297.73	437.954
1298.3	436.954
1298.87	437.954
1299.44	431.954
1300.01	430.954
1300.58	442.954
1301.15	432.954
1301.72	432.954
1302.29	434.954
1302.86	437.954
1303.43	437.954
1304	429.954
1304.57	449.954
1305.14	448.954
1305.71	435.954
1306.28	435.954
1306.85	432.954
1307.42	432.954
1307.99	437.954
1308.55	434.954
1309.12	421.954
1309.69	435.954
1310.26	424.954
1310.83	429.954
1311.4	425.954
1311.97	440.954
1312.54	442.954
1313.1	437.954
1313.67	438.954
1314.24	442.954
1314.81	437.954
1315.38	423.954
1315.95	436.954
1316.52	422.954
1317.08	440.954
1317.65	437.954
1318.22	419.954
1318.79	432.954
1319.36	430.954
1319.92	424.954
1320.49	429.954
1321.06	430.954
1321.63	433.954
1322.2	439.954
1322.76	442.954
1323.33	418.954
1323.9	446.954
1324.47	444.954
1325.03	433.954
1325.6	448.954
1326.17	421.954
1326.73	421.954
1327.3	428.954
1327.87	425.954
1328.44	418.954
1329	441.954
1329.57	430.954
1330.14	434.954
1330.7	437.954
1331.27	416.954
1331.84	422.954
1332.4	420.954
1332.97	452.954
1333.54	433.954
1334.11	420.954
1334.67	430.954
1335.24	437.954
1335.8	442.954
1336.37	422.954
1336.94	425.954
1337.5	435.954
1338.07	423.954
1338.64	440.954
1339.2	432.954
1339.77	433.954
1340.34	433.954
1340.9	434.954
1341.47	443.954
1342.03	422.954
1342.6	434.954
1343.16	427.954
1343.73	416.954
1344.3	426.954
1344.86	433.954
1345.43	420.954
1345.99	418.954
1346.56	442.954
1347.12	430.954
1347.69	430.954
1348.25	437.954
1348.82	421.954
1349.38	441.954
1349.95	434.954
1350.51	452.954
1351.08	436.954
1351.64	420.954
1352.21	417.954
1352.77	433.954
1353.34	428.954
1353.9	429.954
1354.47	422.954
1355.03	418.954
1355.6	435.954
1356.16	416.954
1356.73	422.954
1357.29	439.954
1357.85	425.954
1358.42	439.954
1358.98	418.954
1359.55	425.954
1360.11	423.954
1360.67	435.954
1361.24	442.954
1361.8	442.954
1362.37	427.954
1362.93	426.954
1363.49	423.954
1364.06	426.954
1364.62	433.954
1365.19	428.954
1365.75	424.954
1366.31	427.954
1366.88	429.954
1367.44	426.954
1368	400.954
1368.57	426.954
1369.13	578.954
1369.69	466.954
1370.26	428.954
1370.82	425.954
1371.38	445.954
1371.95	434.954
1372.51	439.954
1373.07	432.954
1373.63	422.954
1374.2	420.954
1374.76	427.954
1375.32	427.954
1375.88	439.954
1376.45	427.954
1377.01	418.954
1377.57	422.954
1378.13	424.954
1378.7	440.954
1379.26	428.954
1379.82	431.954
1380.38	427.954
1380.95	426.954
1381.51	448.954
1382.07	568.954
1382.63	427.954
1383.19	426.954
1383.76	422.954
1384.32	422.954
1384.88	418.954
1385.44	437.954
1386	412.954
1386.56	413.954
1387.13	429.954
1387.69	433.954
1388.25	424.954
1388.81	419.954
1389.37	430.954
1389.93	430.954
1390.49	430.954
1391.05	415.954
1391.62	415.954
1392.18	417.954
1392.74	410.954
1393.3	424.954
1393.86	432.954
1394.42	418.954
1394.98	407.954
1395.54	411.954
1396.1	422.954
1396.66	423.954
1397.22	437.954
1397.78	430.954
1398.34	433.954
1398.91	417.954
1399.47	418.954
1400.03	430.954
1400.58	414.954
1401.14	430.954
1401.7	412.954
1402.27	422.954
1402.83	422.954
1403.39	421.954
1403.95	422.954
1404.5	400.954
1405.06	407.954
1405.62	419.954
1406.19	422.954
1406.74	411.954
1407.3	419.954
1407.86	412.954
1408.42	425.954
1408.98	418.954
1409.54	432.954
1410.1	434.954
1410.66	411.954
1411.22	422.954
1411.78	410.954
1412.34	420.954
1412.9	409.954
1413.46	411.954
1414.01	417.954
1414.57	422.954
1415.13	432.954
1415.69	415.954
1416.25	424.954
1416.81	426.954
1417.37	414.954
1417.92	411.954
1418.48	408.954
1419.04	418.954
1419.6	424.954
1420.16	421.954
1420.72	424.954
1421.28	425.954
1421.83	432.954
1422.39	394.954
1422.95	415.954
1423.51	416.954
1424.07	401.954
1424.62	420.954
1425.18	412.954
1425.74	420.954
1426.3	418.954
1426.85	421.954
1427.41	412.954
1427.97	421.954
1428.53	426.954
1429.08	426.954
1429.64	408.954
1430.2	426.954
1430.76	415.954
1431.31	416.954
1431.87	407.954
1432.43	419.954
1432.99	423.954
1433.54	402.954
1434.1	409.954
1434.66	400.954
1435.21	394.954
1435.77	403.954
1436.33	407.954
1436.88	417.954
1437.44	412.954
1438	406.954
1438.55	396.954
1439.11	421.954
1439.67	410.954
1440.22	411.954
1440.78	399.954
1441.33	408.954
1441.89	412.954
1442.45	429.954
1443	395.954
1443.56	411.954
1444.11	411.954
1444.67	413.954
1445.23	413.954
1445.78	413.954
1446.34	416.954
1446.89	414.954
1447.45	423.954
1448.01	402.954
1448.56	411.954
1449.12	388.954
1449.67	401.954
1450.23	413.954
1450.78	414.954
1451.34	406.954
1451.9	403.954
1452.45	411.954
1453	390.954
1453.56	403.954
1454.12	397.954
1454.67	413.954
1455.22	411.954
1455.78	396.954
1456.34	402.954
1456.89	422.954
1457.44	399.954
1458	415.954
1458.55	405.954
1459.11	408.954
1459.66	408.954
1460.22	410.954
1460.77	408.954
1461.33	398.954
1461.88	400.954
1462.43	415.954
1462.99	422.954
1463.54	413.954
1464.1	393.954
1464.65	401.954
1465.2	393.954
1465.76	396.954
1466.31	408.954
1466.87	395.954
1467.42	399.954
1467.97	416.954
1468.53	405.954
1469.08	403.954
1469.63	393.954
1470.19	393.954
1470.74	395.954
1471.3	411.954
1471.85	399.954
1472.4	407.954
1472.96	399.954
1473.51	402.954
1474.06	402.954
1474.61	398.954
1475.17	393.954
1475.72	412.954
1476.27	396.954
1476.83	406.954
1477.38	397.954
1477.93	385.954
1478.48	406.954
1479.04	407.954
1479.59	387.954
1480.14	395.954
1480.69	411.954
1481.25	396.954
1481.8	404.954
1482.35	398.954
1482.9	398.954
1483.46	401.954
1484.01	406.954
1484.56	398.954
1485.11	405.954
1485.66	412.954
1486.22	397.954
1486.77	404.954
1487.32	404.954
1487.87	404.954
1488.42	406.954
1488.97	427.954
1489.53	403.954
1490.08	399.954
1490.63	379.954
1491.18	400.954
1491.73	401.954
1492.28	396.954
1492.83	406.954
1493.39	407.954
1493.94	405.954
1494.49	414.954
1495.04	404.954
1495.59	405.954
1496.14	387.954
1496.69	395.954
1497.24	395.954
1497.79	404.954
1498.34	397.954
1498.9	401.954
1499.45	416.954
1500	406.954
