19.6939	1474.2
20.3726	1464.2
21.049	1470.2
21.7253	1556.2
22.4015	1590.2
23.0778	1655.2
23.7539	1736.2
24.4301	1787.2
25.1061	1804.2
25.7822	1930.2
26.4581	1948.2
27.1341	1999.2
27.81	2074.2
28.4858	2157.2
29.1639	2201.2
29.8396	2322.2
30.5153	2434.2
31.191	2414.2
31.8643	2505.2
32.5398	2600.2
33.2154	2772.2
33.8908	2933.2
34.5662	2978.2
35.2416	3081.2
35.9169	3236.2
36.5922	3284.2
37.2674	3389.2
37.9426	3431.2
38.6178	3539.2
39.2928	3735.2
39.9679	3805.2
40.6406	3943.2
41.3155	4030.2
41.9904	4239.2
42.6653	4312.2
43.3401	4307.2
44.0148	4558.2
44.6895	4545.2
45.3619	4541.2
46.0365	4878.2
46.7111	4855.2
47.3856	5105.2
48.0601	4969.2
48.7322	5087.2
49.4066	5170.2
50.081	5334.2
50.7553	5403.2
51.4272	5633.2
52.1014	5632.2
52.7756	5604.2
53.4474	5709.2
54.1214	5718.2
54.7954	5773.2
55.4671	5816.2
56.141	5962.2
56.8149	6070.2
57.4864	6135.2
58.1602	6290.2
58.8339	6188.2
59.5053	6297.2
60.1789	6131.2
60.8525	6155.2
61.5238	6325.2
62.1973	6385.2
62.8684	6467.2
63.5418	6502.2
64.2152	6610.2
64.8862	6604.2
65.5594	6606.2
66.2304	6609.2
66.9035	6643.2
67.5744	6729.2
68.2474	6877.2
68.9182	6715.2
69.5912	6772.2
70.2618	6918.2
70.9347	6852.2
71.6052	6702.2
72.278	6900.2
72.9485	6912.2
73.6212	6892.2
74.2916	6858.2
74.9619	6802.2
75.6344	6873.2
76.3047	6838.2
76.9771	6894.2
77.6473	6969.2
78.3173	6830.2
78.9897	6916.2
79.6597	6930.2
80.3319	6804.2
81.0018	7157.2
81.6717	6995.2
82.3438	7101.2
83.0135	6862.2
83.6832	6970.2
84.3552	6936.2
85.0248	7040.2
85.6944	6995.2
86.3639	6973.2
87.0357	6988.2
87.7051	7074.2
88.3745	7135.2
89.0438	6829.2
89.7154	6937.2
90.3847	6961.2
91.0539	6766.2
91.723	6848.2
92.3944	6897.2
93.0635	6840.2
93.7325	7050.2
94.4015	6842.2
95.0704	6904.2
95.7393	7047.2
96.4104	6819.2
97.0792	6889.2
97.7479	6651.2
98.4166	6724.2
99.0853	6718.2
99.7539	6828.2
100.422	6791.2
101.091	6628.2
101.759	6762.2
102.428	6751.2
103.098	6865.2
103.767	6901.2
104.435	6891.2
105.103	6943.2
105.772	6702.2
106.44	6774.2
107.108	6793.2
107.776	6777.2
108.444	6917.2
109.112	6757.2
109.78	6581.2
110.448	6667.2
111.115	6610.2
111.783	6555.2
112.449	6708.2
113.116	6500.2
113.784	6646.2
114.451	6422.2
115.119	6648.2
115.787	6617.2
116.454	6663.2
117.121	6556.2
117.789	6452.2
118.456	6381.2
119.121	6466.2
119.788	6471.2
120.455	6468.2
121.123	6464.2
121.79	6346.2
122.454	6225.2
123.121	6311.2
123.788	6279.2
124.455	6365.2
125.122	6270.2
125.787	6454.2
126.453	6341.2
127.12	6206.2
127.787	6297.2
128.451	6363.2
129.118	6298.2
129.784	6208.2
130.448	6191.2
131.115	6216.2
131.781	6227.2
132.448	6148.2
133.112	6255.2
133.778	6273.2
134.442	6086.2
135.108	6222.2
135.774	6124.2
136.438	5978.2
137.104	6102.2
137.77	6064.2
138.433	6150.2
139.099	5972.2
139.763	6113.2
140.429	6036.2
141.092	6023.2
141.758	5936.2
142.424	5856.2
143.087	6098.2
143.752	5945.2
144.416	5902.2
145.081	5940.2
145.744	5890.2
146.41	5952.2
147.073	5912.2
147.738	5995.2
148.401	5736.2
149.064	5788.2
149.729	5825.2
150.392	5861.2
151.057	5716.2
151.72	5847.2
152.385	5752.2
153.047	5516.2
153.71	5824.2
154.375	5701.2
155.037	5745.2
155.702	5730.2
156.364	5702.2
157.027	5828.2
157.691	5721.2
158.354	5659.2
159.016	5644.2
159.678	5617.2
160.343	5644.2
161.005	5734.2
161.667	5634.2
162.331	5568.2
162.993	5543.2
163.655	5505.2
164.317	5604.2
164.981	5589.2
165.643	5561.2
166.304	5522.2
166.966	5470.2
167.63	5474.2
168.292	5354.2
168.953	5615.2
169.615	5369.2
170.276	5360.2
170.938	5299.2
171.601	5348.2
172.263	5433.2
172.924	5358.2
173.585	5400.2
174.246	5371.2
174.907	5359.2
175.569	5291.2
176.23	5343.2
176.891	5395.2
177.552	5309.2
178.215	5204.2
178.876	5303.2
179.537	5330.2
180.197	5451.2
180.858	5254.2
181.519	5290.2
182.179	5220.2
182.84	5308.2
183.501	5283.2
184.161	5295.2
184.822	5323.2
185.482	5178.2
186.142	5204.2
186.8	5288.2
187.461	5260.2
188.121	5184.2
188.781	5217.2
189.441	5050.2
190.101	5244.2
190.762	5089.2
191.422	5178.2
192.081	5144.2
192.741	5150.2
193.399	5012.2
194.059	5033.2
194.719	5046.2
195.378	5134.2
196.038	5087.2
196.698	5089.2
197.355	5159.2
198.015	5126.2
198.674	5113.2
199.334	5049.2
199.991	5008.2
200.65	5047.2
201.31	4977.2
201.969	5052.2
202.626	5036.2
203.285	5052.2
203.944	5097.2
204.603	5087.2
205.26	5019.2
205.919	4925.2
206.578	5010.2
207.235	5001.2
207.894	4966.2
208.553	5013.2
209.209	4857.2
209.868	4950.2
210.524	4929.2
211.183	5046.2
211.842	4985.2
212.498	4933.2
213.156	4988.2
213.813	5009.2
214.471	4978.2
215.13	5026.2
215.786	5023.2
216.444	4975.2
217.1	4828.2
217.758	4948.2
218.414	4861.2
219.072	4809.2
219.728	4941.2
220.386	4914.2
221.042	4880.2
221.7	4694.2
222.355	4958.2
223.013	4715.2
223.669	4803.2
224.324	4679.2
224.982	4948.2
225.637	4886.2
226.295	4745.2
226.95	4966.2
227.606	4981.2
228.263	4932.2
228.918	4893.2
229.573	4864.2
230.231	4868.2
230.886	4964.2
231.543	4952.2
232.198	4981.2
232.853	4768.2
233.508	4928.2
234.165	4868.2
234.82	4886.2
235.475	4916.2
236.132	5052.2
236.786	4884.2
237.441	4922.2
238.095	4754.2
238.752	4928.2
239.407	4790.2
240.061	4887.2
240.715	4806.2
241.37	4842.2
242.026	4959.2
242.681	4870.2
243.335	4918.2
243.989	4892.2
244.643	4936.2
245.297	4921.2
245.951	4931.2
246.607	4943.2
247.261	4817.2
247.915	4975.2
248.569	4815.2
249.223	4858.2
249.877	4946.2
250.53	4906.2
251.184	4852.2
251.838	4849.2
252.491	4849.2
253.145	4930.2
253.798	4934.2
254.452	4891.2
255.105	4951.2
255.759	4833.2
256.412	4941.2
257.065	4916.2
257.719	4934.2
258.372	4831.2
259.025	4951.2
259.678	4874.2
260.331	4967.2
260.984	4917.2
261.637	4950.2
262.29	4880.2
262.943	5143.2
263.596	4928.2
264.246	4964.2
264.899	4912.2
265.552	4909.2
266.204	4907.2
266.857	4871.2
267.509	4910.2
268.16	4881.2
268.812	4970.2
269.465	4852.2
270.117	4974.2
270.769	4950.2
271.419	4940.2
272.072	5011.2
272.724	4974.2
273.376	4948.2
274.026	5098.2
274.678	5095.2
275.33	4955.2
275.982	4971.2
276.632	4888.2
277.284	5087.2
277.935	5044.2
278.585	4965.2
279.237	5054.2
279.889	5053.2
280.538	5073.2
281.19	4981.2
281.841	4986.2
282.491	4994.2
283.142	4992.2
283.791	5096.2
284.443	5006.2
285.094	4926.2
285.743	5096.2
286.394	4940.2
287.043	5056.2
287.695	5029.2
288.343	5069.2
288.995	5043.2
289.643	4983.2
290.294	5070.2
290.943	5166.2
291.594	5155.2
292.243	5067.2
292.894	5171.2
293.542	5136.2
294.193	5038.2
294.841	5059.2
295.492	5120.2
296.14	5122.2
296.789	5061.2
297.439	5091.2
298.088	5008.2
298.738	5234.2
299.386	5139.2
300.034	5150.2
300.685	5227.2
301.333	5174.2
301.981	5098.2
302.631	5107.2
303.279	5219.2
303.927	5184.2
304.577	5128.2
305.224	5321.2
305.872	5153.2
306.522	5237.2
307.17	5306.2
307.817	5308.2
308.465	5306.2
309.114	5150.2
309.762	5255.2
310.409	5288.2
311.057	5206.2
311.704	5286.2
312.354	5280.2
313.001	5294.2
313.648	5276.2
314.295	5335.2
314.942	5263.2
315.592	5168.2
316.239	5182.2
316.886	5454.2
317.532	5335.2
318.179	5227.2
318.826	5331.2
319.473	5315.2
320.12	5198.2
320.766	5363.2
321.413	5340.2
322.06	5335.2
322.709	5400.2
323.355	5359.2
324.002	5463.2
324.648	5466.2
325.294	5460.2
325.941	5536.2
326.587	5411.2
327.233	5387.2
327.88	5418.2
328.526	5538.2
329.17	5461.2
329.816	5628.2
330.462	5608.2
331.108	5467.2
331.754	5471.2
332.4	5467.2
333.046	5410.2
333.692	5425.2
334.337	5420.2
334.983	5559.2
335.629	5639.2
336.272	5621.2
336.918	5599.2
337.564	5591.2
338.209	5574.2
338.855	5671.2
339.498	5596.2
340.143	5565.2
340.789	5536.2
341.434	5713.2
342.079	5679.2
342.722	5703.2
343.367	5656.2
344.012	5659.2
344.658	5689.2
345.3	5546.2
345.945	5644.2
346.59	5719.2
347.233	5637.2
347.878	5799.2
348.523	5669.2
349.165	5825.2
349.81	5896.2
350.455	5637.2
351.097	5843.2
351.742	5731.2
352.386	5671.2
353.029	5882.2
353.673	5743.2
354.315	5814.2
354.96	5848.2
355.604	5961.2
356.246	5838.2
356.891	5851.2
357.533	5770.2
358.177	5855.2
358.819	6017.2
359.463	5957.2
360.105	6066.2
360.749	5895.2
361.39	6045.2
362.034	5917.2
362.676	6025.2
363.32	5902.2
363.961	5941.2
364.605	6091.2
365.247	5983.2
365.888	6018.2
366.532	5977.2
367.173	6023.2
367.817	5976.2
368.458	6083.2
369.099	6116.2
369.742	6049.2
370.384	6149.2
371.025	6186.2
371.668	6200.2
372.309	6341.2
372.95	6346.2
373.593	6174.2
374.234	6200.2
374.875	6238.2
375.518	6137.2
376.159	6144.2
376.799	6181.2
377.44	6112.2
378.083	6247.2
378.723	6314.2
379.364	6267.2
380.004	6308.2
380.647	6424.2
381.288	6353.2
381.928	6363.2
382.568	6243.2
383.209	6275.2
383.849	6388.2
384.491	6434.2
385.131	6435.2
385.771	6409.2
386.411	6291.2
387.052	6506.2
387.692	6442.2
388.331	6481.2
388.971	6590.2
389.611	6520.2
390.253	6530.2
390.893	6491.2
391.533	6548.2
392.172	6524.2
392.812	6684.2
393.452	6517.2
394.091	6770.2
394.731	6637.2
395.37	6473.2
396.01	6759.2
396.649	6707.2
397.288	6705.2
397.928	6685.2
398.567	6680.2
399.204	6778.2
399.843	6501.2
400.482	6714.2
401.121	6664.2
401.76	6899.2
402.399	6893.2
403.038	6764.2
403.677	6783.2
404.316	6898.2
404.953	6829.2
405.591	6891.2
406.23	6973.2
406.869	6895.2
407.507	6925.2
408.146	6972.2
408.782	7079.2
409.421	7007.2
410.059	7135.2
410.698	7000.2
411.334	7002.2
411.972	7051.2
412.611	7151.2
413.249	7159.2
413.885	6957.2
414.523	7197.2
415.161	7282.2
415.797	7263.2
416.435	7177.2
417.073	7241.2
417.709	7393.2
418.347	7427.2
418.985	7447.2
419.62	7424.2
420.258	7435.2
420.896	7489.2
421.531	7288.2
422.169	7577.2
422.804	7434.2
423.442	7543.2
424.077	7690.2
424.715	7596.2
425.352	7534.2
425.987	7721.2
426.625	7601.2
427.26	7696.2
427.897	7486.2
428.532	7634.2
429.169	7758.2
429.804	7832.2
430.442	7826.2
431.076	7884.2
431.711	7726.2
432.348	7950.2
432.983	7828.2
433.62	7879.2
434.254	8020.2
434.891	8058.2
435.526	8197.2
436.16	8029.2
436.797	8181.2
437.431	8085.2
438.066	8208.2
438.702	8240.2
439.337	8118.2
439.971	8342.2
440.607	8345.2
441.242	8406.2
441.876	8342.2
442.512	8305.2
443.146	8310.2
443.78	8295.2
444.414	8488.2
445.05	8503.2
445.684	8395.2
446.318	8373.2
446.952	8611.2
447.588	8569.2
448.221	8615.2
448.855	8582.2
449.489	8695.2
450.122	8613.2
450.758	8684.2
451.392	8815.2
452.025	8776.2
452.659	9008.2
453.292	8956.2
453.925	8896.2
454.559	8998.2
455.192	8938.2
455.827	9045.2
456.46	9072.2
457.093	8984.2
457.727	8968.2
458.36	9107.2
458.993	9293.2
459.626	9319.2
460.258	9206.2
460.891	9266.2
461.524	9302.2
462.157	9440.2
462.79	9341.2
463.422	9362.2
464.055	9576.2
464.688	9461.2
465.32	9570.2
465.953	9565.2
466.585	9356.2
467.216	9602.2
467.848	9672.2
468.48	9578.2
469.113	9638.2
469.745	9542.2
470.377	9692.2
471.009	9730.2
471.642	9595.2
472.271	9665.2
472.904	9849.2
473.536	9650.2
474.168	9619.2
474.799	9973.2
475.429	9769.2
476.061	9947.2
476.693	9850.2
477.325	9813.2
477.956	9920.2
478.586	10014.2
479.218	10142.2
479.849	10168.2
480.479	10162.2
481.11	10059.2
481.742	10285.2
482.373	10095.2
483.002	10231.2
483.634	10178.2
484.265	10225.2
484.894	10401.2
485.525	10168.2
486.154	10309.2
486.785	10353.2
487.416	10262.2
488.045	10493.2
488.676	10442.2
489.305	10361.2
489.936	10593.2
490.567	10592.2
491.196	10454.2
491.826	10556.2
492.455	10698.2
493.086	10567.2
493.714	10694.2
494.345	10529.2
494.973	10839.2
495.604	10314.2
496.232	10792.2
496.863	10511.2
497.491	10480.2
498.121	10767.2
498.749	10570.2
499.378	10784.2
500.008	10916.2
500.636	10758.2
501.266	10748.2
501.894	10757.2
502.522	10858.2
503.152	10591.2
503.78	10744.2
504.408	10838.2
505.037	10713.2
505.665	10827.2
506.293	10713.2
506.923	10936.2
507.55	10774.2
508.178	10971.2
508.807	10565.2
509.435	11027.2
510.062	10682.2
510.69	10693.2
511.319	10540.2
511.946	10627.2
512.574	10721.2
513.201	10713.2
513.828	10713.2
514.457	10785.2
515.084	10445.2
515.711	10521.2
516.338	10556.2
516.965	10703.2
517.592	10476.2
518.221	10491.2
518.848	10318.2
519.475	10434.2
520.102	10560.2
520.728	10356.2
521.355	10256.2
521.982	10231.2
522.608	10353.2
523.235	10243.2
523.861	10125.2
524.488	10233.2
525.114	10145.2
525.741	9918.2
526.367	9748.2
526.993	9790.2
527.619	9758.2
528.246	9711.2
528.872	9526.2
529.498	9795.2
530.124	9898.2
530.75	9475.2
531.376	9416.2
532.002	9612.2
532.628	9460.2
533.254	9604.2
533.88	9234.2
534.505	9184.2
535.131	9225.2
535.755	9065.2
536.38	9002.2
537.006	9167.2
537.632	9001.2
538.257	8920.2
538.883	8872.2
539.506	8945.2
540.131	8819.2
540.757	8643.2
541.382	8688.2
542.005	8675.2
542.63	8675.2
543.256	8413.2
543.881	8474.2
544.504	8386.2
545.129	8323.2
545.754	8406.2
546.379	8320.2
547.002	8154.2
547.627	8469.2
548.251	8050.2
548.874	8203.2
549.499	8178.2
550.121	8231.2
550.746	7952.2
551.371	8023.2
551.993	8022.2
552.618	7959.2
553.242	7837.2
553.865	7887.2
554.489	7804.2
555.112	7930.2
555.736	7906.2
556.358	7858.2
556.982	7859.2
557.604	7677.2
558.229	7771.2
558.851	7889.2
559.475	7645.2
560.097	7580.2
560.721	7499.2
561.343	7722.2
561.967	7609.2
562.588	7599.2
563.212	7599.2
563.834	7664.2
564.456	7562.2
565.079	7510.2
565.701	7559.2
566.325	7518.2
566.946	7521.2
567.568	7527.2
568.191	7533.2
568.812	7434.2
569.434	7443.2
570.057	7463.2
570.678	7222.2
571.3	7270.2
571.923	7302.2
572.544	7459.2
573.165	7266.2
573.786	7525.2
574.409	7216.2
575.03	7252.2
575.651	7181.2
576.272	7220.2
576.895	7147.2
577.516	7148.2
578.136	7019.2
578.757	7038.2
579.378	7019.2
580	7100.2
580.621	6875.2
581.242	6881.2
581.862	6921.2
582.483	6615.2
583.103	6764.2
583.723	6720.2
584.344	6784.2
584.964	6507.2
585.586	6670.2
586.207	6524.2
586.827	6287.2
587.447	6424.2
588.067	6288.2
588.687	6324.2
589.307	6233.2
589.927	6196.2
590.547	6200.2
591.167	6078.2
591.787	6176.2
592.406	6020.2
593.026	5999.2
593.646	5828.2
594.265	5783.2
594.885	5786.2
595.503	5758.2
596.122	5617.2
596.742	5708.2
597.361	5593.2
597.98	5559.2
598.6	5499.2
599.219	5372.2
599.839	5391.2
600.456	5321.2
601.075	5203.2
601.694	5353.2
602.313	5191.2
602.932	5159.2
603.551	5146.2
604.168	5059.2
604.787	5048.2
605.406	4853.2
606.025	4804.2
606.642	4763.2
607.261	4841.2
607.879	4650.2
608.496	4660.9
609.115	4683.06
609.733	4668.58
610.352	4691.31
610.968	4542.78
611.587	4502.59
612.205	4452.27
612.822	4441.56
613.44	4465.61
614.056	4365.43
614.675	4381.77
615.293	4284.65
615.909	4366.84
616.527	4229.38
617.143	4230.11
617.761	4248.13
618.379	4097.24
618.995	4183.68
619.613	4143.44
620.229	4210.63
620.847	4086.52
621.463	4053.02
622.081	4073.5
622.696	3990.6
623.314	4017.64
623.93	3920.45
624.545	3997.38
625.163	3885.54
625.778	3901.03
626.396	3889.44
627.011	3843.1
627.629	3812.82
628.244	3812.03
628.859	3711.02
629.476	3778.13
630.092	3739.98
630.707	3748.91
631.324	3705.38
631.939	3708.54
632.554	3699.95
633.171	3749.48
633.786	3680.67
634.401	3649.46
635.018	3611.74
635.633	3608.33
636.247	3646.22
636.862	3514.11
637.479	3488.44
638.094	3550.56
638.708	3469.58
639.323	3497.14
639.939	3465.43
640.554	3450.14
641.168	3455.29
641.783	3392.58
642.397	3415.13
643.011	3382.39
643.628	3351.34
644.242	3330.52
644.856	3289.2
645.47	3306.94
646.085	3308.55
646.699	3250.31
647.313	3289.62
647.927	3264.55
648.541	3189.46
649.154	3187.14
649.771	3218.99
650.384	3163.48
650.998	3147.43
651.612	3146.32
652.226	3137.79
652.839	3110.95
653.453	2992.01
654.067	2982.41
654.68	3053.8
655.093	2982.8
655.715	3030.8
656.34	3024.8
656.964	2990.8
657.586	2900.8
658.21	2854.8
658.834	2904.8
659.456	2884.8
660.08	2883.8
660.704	2787.8
661.325	2821.8
661.949	2798.8
662.571	2813.8
663.195	2769.8
663.818	2750.8
664.44	2767.8
665.063	2761.8
665.685	2746.8
666.308	2680.8
666.93	2629.8
667.553	2649.8
668.174	2593.8
668.798	2641.8
669.419	2631.8
670.042	2590.8
670.664	2558.8
671.287	2566.8
671.908	2540.8
672.531	2551.8
673.152	2475.8
673.775	2452.8
674.396	2428.8
675.017	2476.8
675.639	2424.8
676.26	2390.8
676.883	2380.8
677.504	2368.8
678.124	2337.8
678.747	2386.8
679.368	2296.8
679.988	2305.8
680.611	2259.8
681.231	2236.8
681.851	2254.8
682.474	2221.8
683.094	2201.8
683.714	2162.8
684.337	2169.8
684.957	2182.8
685.577	2171.8
686.197	2137.8
686.819	2158.8
687.439	2114.8
688.059	2097.8
688.679	2126.8
689.301	2043.8
689.921	2052.8
690.541	2051.8
691.161	2056.8
691.78	2020.8
692.4	1994.8
693.022	1987.8
693.641	1949.8
694.261	1942.8
694.88	1905.8
695.5	1930.8
696.119	1947.8
696.739	1902.8
697.36	1854.8
697.979	1847.8
698.599	1894.8
699.218	1851.8
699.837	1853.8
700.456	1852.8
701.075	1801.8
701.694	1786.8
702.313	1798.8
702.932	1795.8
703.551	1739.8
704.17	1740.8
704.789	1747.8
705.408	1724.8
706.026	1694.8
706.645	1697.8
707.264	1670.8
707.883	1667.8
708.501	1675.8
709.12	1677.8
709.738	1648.8
710.355	1657.8
710.973	1639.8
711.591	1604.8
712.21	1604.8
712.828	1574.8
713.446	1597.8
714.065	1595.8
714.681	1573.8
715.299	1582.8
715.917	1545.8
716.535	1507.8
717.153	1542.8
717.771	1510.8
718.387	1518.8
719.005	1522.8
719.623	1495.8
720.24	1511.8
720.856	1482.8
721.474	1467.8
722.091	1480.8
722.709	1455.8
723.325	1434.8
723.942	1457.8
724.56	1466.8
725.175	1417.8
725.793	1437.8
726.41	1427.8
727.025	1397.8
727.643	1424.8
728.26	1409.8
728.875	1407.8
729.492	1396.8
730.109	1367.8
730.724	1368.8
731.341	1398.8
731.956	1379.8
732.573	1371.8
733.19	1354.8
733.805	1352.8
734.422	1334.8
735.037	1350.8
735.654	1322.8
736.268	1339.8
736.885	1352.8
737.5	1310.8
738.116	1286.8
738.731	1294.8
739.347	1301.8
739.962	1306.8
740.578	1301.8
741.192	1302.8
741.809	1290.8
742.423	1277.8
743.037	1266.8
743.654	1269.8
744.268	1247.8
744.884	1282.8
745.498	1232.8
746.112	1230.8
746.728	1275.8
747.342	1211.8
747.956	1237.8
748.572	1246.8
749.185	1217.8
749.799	1192.8
750.415	1223.8
751.029	1203.8
751.642	1198.8
752.258	1187.8
752.872	1215.8
753.485	1187.8
754.101	1189.8
754.714	1168.8
755.328	1192.8
755.941	1202.8
756.554	1177.8
757.17	1181.8
757.783	1168.8
758.396	1193.8
759.009	1146.8
759.622	1187.8
760.237	1189.8
760.85	1159.8
761.463	1143.8
762.076	1107.8
762.689	1145.8
763.302	1133.8
763.915	1147.8
764.53	1113.8
765.143	1117.8
765.755	1128.8
766.368	1100.8
766.981	1105.8
767.593	1113.8
768.206	1119.8
768.818	1097.8
769.431	1110.8
770.043	1089.8
770.655	1123.8
771.268	1103.8
771.88	1095.8
772.492	1077.8
773.104	1066.8
773.717	1071.8
774.329	1056.8
774.941	1056.8
775.553	1063.8
776.165	1066.8
776.777	1055.8
777.389	1056.8
777.999	1032.8
778.61	1066.8
779.222	1041.8
779.834	1019.8
780.446	1033.8
781.057	1016.8
781.669	1013.8
782.281	995.799
782.89	1014.8
783.502	1003.8
784.113	1003.8
784.725	989.799
785.336	972.799
785.945	970.799
786.557	975.799
787.168	957.799
787.779	950.799
788.388	963.799
789	961.799
789.611	957.799
790.222	924.799
790.831	939.799
791.442	929.799
792.053	921.799
792.661	936.799
793.272	919.799
793.883	895.799
794.492	888.799
795.103	881.799
795.713	891.799
796.322	883.799
796.933	881.799
797.543	844.799
798.152	849.799
798.762	857.799
799.371	819.799
799.981	837.799
800.589	836.799
801.2	819.799
801.808	818.799
802.418	802.799
803.029	795.799
803.637	801.799
804.247	795.799
804.855	779.799
805.465	767.799
806.073	783.799
806.683	766.799
807.291	757.799
807.898	736.799
808.508	750.799
809.116	735.799
809.726	708.799
810.334	719.799
810.943	709.799
811.551	697.799
812.159	694.799
812.768	700.799
813.376	665.799
813.983	671.799
814.592	679.799
815.2	658.799
815.807	644.799
816.417	643.799
817.024	626.799
817.631	629.799
818.24	630.799
818.847	623.799
819.454	613.799
820.061	599.799
820.67	605.799
821.277	605.799
821.884	592.799
822.491	591.799
823.1	581.799
823.707	578.799
824.314	575.799
824.92	572.799
825.527	570.799
826.136	560.799
826.742	557.799
827.349	566.799
827.955	561.799
828.562	545.799
829.168	540.799
829.775	543.799
830.383	531.799
830.989	545.799
831.596	533.799
832.202	536.799
832.808	539.799
833.414	537.799
834.02	537.799
834.627	533.799
835.233	531.799
835.839	538.799
836.445	543.799
837.05	539.799
837.656	536.799
838.262	544.799
838.868	538.799
839.474	533.799
840.079	535.799
840.685	540.799
841.291	548.799
841.896	526.799
842.502	562.799
843.107	555.799
843.711	567.799
844.316	582.799
844.922	564.799
845.527	569.799
846.132	580.799
846.738	587.799
847.343	584.799
847.948	591.799
848.551	595.799
849.156	597.799
849.761	610.799
850.366	607.799
850.971	610.799
851.574	639.799
852.179	635.799
852.784	640.799
853.389	640.799
853.992	655.799
854.596	675.799
855.201	683.799
855.806	675.799
856.408	693.799
857.013	689.799
857.618	701.799
858.22	713.799
858.825	719.799
859.429	739.799
860.031	745.799
860.636	739.799
861.24	760.799
861.842	787.799
862.446	785.799
863.049	770.799
863.653	785.799
864.257	795.799
864.859	813.799
865.463	827.799
866.065	843.799
866.669	847.799
867.271	857.799
867.875	859.799
868.476	875.799
869.08	893.799
869.682	914.799
870.286	918.799
870.887	919.799
871.491	943.799
872.092	952.799
872.696	983.799
873.298	982.799
873.901	1001.8
874.502	1014.8
875.104	1036.8
875.707	1039.8
876.308	1046.8
876.912	1074.8
877.513	1081.8
878.114	1091.8
878.717	1101.8
879.318	1119.8
879.919	1146.8
880.522	1149.8
881.123	1180.8
881.724	1176.8
882.327	1201.8
882.928	1228.8
883.529	1251.8
884.13	1261.8
884.732	1270.8
885.333	1271.8
885.934	1327.8
886.534	1348.8
887.137	1345.8
887.738	1342.8
888.338	1381.8
888.938	1368.8
889.539	1387.8
890.141	1444.8
890.742	1469.8
891.342	1469.8
891.942	1503.8
892.542	1512.8
893.143	1574.8
893.743	1590.8
894.345	1607.8
894.945	1594.8
895.545	1648.8
896.145	1631.8
896.745	1698.8
897.345	1699.8
897.945	1722.8
898.544	1734.8
899.144	1794.8
899.744	1774.8
900.344	1791.8
900.943	1785.8
901.543	1876.8
902.143	1925.8
902.742	1912.8
903.342	1938.8
903.941	1962.8
904.54	2013.8
905.14	2009.8
905.739	2065.8
906.339	2109.8
906.938	2045.8
907.537	2116.8
908.134	2118.8
908.733	2147.8
909.332	2211.8
909.932	2158.8
910.531	2255.8
911.13	2286.8
911.729	2291.8
912.325	2310.8
912.924	2313.8
913.523	2319.8
914.122	2388.8
914.721	2423.8
915.317	2494.8
915.916	2509.8
916.515	2510.8
917.113	2557.8
917.71	2549.8
918.308	2615.8
918.907	2633.8
919.505	2630.8
920.102	2648.8
920.7	2715.8
921.298	2738.8
921.895	2741.8
922.493	2748.8
923.091	2802.8
923.687	2850.8
924.285	2849.8
924.883	2889.8
925.479	2913.8
926.077	2873.8
926.673	2918.8
927.271	2918.8
927.869	3044.8
928.465	3020.8
929.063	3077.8
929.659	3115.8
930.256	3094.8
930.852	3166.8
931.45	3219.8
932.045	3224.8
932.643	3244.8
933.238	3260.8
933.836	3197.8
934.431	3323.8
935.029	3283.8
935.624	3350.8
936.221	3375.8
936.817	3406.8
937.412	3447.8
938.009	3486.8
938.604	3490.8
939.202	3436.8
939.797	3472.8
940.392	3482.8
940.989	3505.8
941.584	3531.8
942.181	3658.8
942.776	3480.8
943.37	3699.8
943.967	3686.8
944.562	3708.8
945.157	3700.8
945.751	3767.8
946.348	3741.8
946.943	3711.8
947.537	3740.8
948.132	3764.8
948.728	3822.8
949.323	3827.8
949.917	3852.8
950.512	3905.8
951.108	3989.8
951.702	3950.8
952.297	4040.8
952.891	4000.8
953.485	4007.8
954.079	3995.8
954.675	4046.8
955.269	4077.8
955.863	4075.8
956.457	4117.8
957.051	4089.8
957.645	4179.8
958.239	4111.8
958.833	4062.8
959.427	4158.8
960.021	4268.8
960.616	4227.8
961.21	4340.8
961.804	4296.8
962.397	4326.8
962.991	4367.8
963.584	4391.8
964.178	4333.8
964.771	4498.8
965.365	4453.8
965.958	4517.8
966.549	4486.8
967.143	4451.8
967.736	4476.8
968.329	4557.8
968.922	4490.8
969.516	4649.8
970.109	4668.8
970.702	4544.8
971.295	4798.8
971.888	4767.8
972.479	4725.8
973.072	4755.8
973.665	4685.8
974.257	4817.8
974.85	4817.8
975.443	4881.8
976.034	4926.8
976.626	4862.8
977.219	4972.8
977.812	4971.8
978.404	4962.8
978.995	5034.8
979.587	5059.8
980.18	5074.8
980.77	5011.8
981.362	5148.8
981.955	5133.8
982.547	5181.8
983.137	5208.8
983.729	5239.8
984.322	5271.8
984.912	5323.8
985.504	5340.8
986.094	5200.8
986.686	5371.8
987.278	5388.8
987.868	5397.8
988.46	5463.8
989.052	5594.8
989.641	5570.8
990.233	5614.8
990.823	5764.8
991.415	5624.8
992.004	5606.8
992.596	5729.8
993.186	5708.8
993.777	5760.8
994.367	5651.8
994.958	5673.8
995.548	5987.8
996.139	5852.8
996.728	5907.8
997.32	5820.8
997.909	5850.8
998.5	5940.8
999.09	5892.8
999.679	6112.8
1000.27	6108.8
1000.86	5957.8
1001.45	6064.8
1002.04	6036.8
1002.63	6082.8
1003.22	6155.8
1003.81	6041.8
1004.4	6286.8
1004.99	6310.8
1005.58	6225.8
1006.17	6275.8
1006.76	6234.8
1007.34	6208.8
1007.93	6417.8
1008.52	6293.8
1009.11	6317.8
1009.7	6471.8
1010.29	6531.8
1010.88	6373.8
1011.47	6455.8
1012.06	6403.8
1012.64	6303.8
1013.23	6571.8
1013.82	6618.8
1014.41	6528.8
1015	6566.8
1015.59	6519.8
1016.18	6601.8
1016.76	6534.8
1017.35	6574.8
1017.94	6718.8
1018.53	6619.8
1019.12	6665.8
1019.71	6543.8
1020.29	6650.8
1020.88	6516.8
1021.47	6543.8
1022.06	6756.8
1022.64	6719.8
1023.23	6724.8
1023.82	6665.8
1024.41	6682.8
1024.99	6711.8
1025.58	6763.8
1026.17	6744.8
1026.76	6643.8
1027.34	6618.8
1027.93	6657.8
1028.52	6620.8
1029.1	6552.8
1029.69	6662.8
1030.28	6571.8
1030.87	6569.8
1031.45	6759.8
1032.04	6817.8
1032.63	6519.8
1033.21	6669.8
1033.8	6543.8
1034.39	6528.8
1034.97	6431.8
1035.56	6663.8
1036.15	6476.8
1036.73	6510.8
1037.32	6440.8
1037.9	6406.8
1038.49	6417.8
1039.08	6382.8
1039.66	6412.8
1040.25	6312.8
1040.84	6262.8
1041.42	6342.8
1042.01	6333.8
1042.59	6201.8
1043.18	6173.8
1043.76	6242.8
1044.35	6181.8
1044.94	5984.8
1045.52	6007.8
1046.11	6017.8
1046.69	6189.8
1047.28	5862.8
1047.86	5931.8
1048.45	5921.8
1049.03	5821.8
1049.62	5799.8
1050.2	5621.8
1050.79	5743.8
1051.37	5734.8
1051.96	5803.8
1052.54	5358.8
1053.13	5402.8
1053.71	5504.8
1054.3	5358.8
1054.88	5288.8
1055.47	5414.8
1056.05	5376.8
1056.63	5278.8
1057.22	5143.8
1057.8	5066.8
1058.39	5139.8
1058.97	4950.8
1059.56	5054.8
1060.14	4980.8
1060.72	4854.8
1061.31	4854.8
1061.89	4790.8
1062.48	4817.8
1063.06	4563.8
1063.64	4592.8
1064.23	4572.8
1064.81	4553.8
1065.39	4393.8
1065.98	4373.8
1066.56	4344.8
1067.14	4212.8
1067.73	4206.8
1068.31	4196.8
1068.89	4100.8
1069.48	3966.8
1070.06	3928.8
1070.64	4088.8
1071.23	4035.8
1071.81	3886.8
1072.39	3740.8
1072.97	3688.8
1073.56	3652.8
1074.14	3670.8
1074.72	3628.8
1075.3	3539.8
1075.89	3545.8
1076.47	3478.8
1077.05	3440.8
1077.63	3320.8
1078.22	3321.8
1078.8	3383.8
1079.38	3289.8
1079.96	3246.8
1080.54	3209.8
1081.13	3105.8
1081.71	3017.8
1082.29	3019.8
1082.87	2989.8
1083.45	2988.8
1084.04	2855.8
1084.62	2935.8
1085.2	2770.8
1085.78	2803.8
1086.36	2744.8
1086.94	2707.8
1087.52	2570.8
1088.11	2589.8
1088.69	2605.8
1089.27	2577.8
1089.85	2590.8
1090.43	2488.8
1091.01	2368.8
1091.59	2373.8
1092.17	2362.8
1092.75	2308.8
1093.34	2314.8
1093.92	2293.8
1094.5	2210.8
1095.08	2202.8
1095.66	2179.8
1096.24	2157.8
1096.82	2119.8
1097.4	2116.8
1097.98	2099.8
1098.56	2077.8
1099.14	2034.8
1099.72	2032.8
1100.3	1982.8
1100.88	1907.8
1101.46	1906.8
1102.04	1959.8
1102.62	1860.8
1103.2	1830.8
1103.78	1835.8
1104.36	1785.8
1104.94	1797.8
1105.52	1750.8
1106.1	1706.8
1106.68	1706.8
1107.26	1673.8
1107.84	1659.8
1108.42	1662.8
1109	1602.8
1109.57	1581.8
1110.15	1585.8
1110.73	1543.8
1111.31	1553.8
1111.89	1518.8
1112.47	1476.8
1113.05	1496.8
1113.63	1462.8
1114.2	1453.8
1114.78	1459.8
1115.36	1403.8
1115.94	1406.8
1116.52	1389.8
1117.1	1367.8
1117.68	1366.8
1118.25	1349.8
1118.83	1299.05
1119.41	1297.14
1119.99	1301.05
1120.57	1299.24
1121.15	1239.25
1121.72	1225.51
1122.3	1227.27
1122.88	1214.73
1123.46	1198.71
1124.04	1212.5
1124.61	1193.83
1125.19	1169.97
1125.77	1165.63
1126.35	1141.85
1126.92	1144.8
1127.5	1130.93
1128.08	1108.37
1128.66	1099.56
1129.23	1091.29
1129.81	1096.54
1130.39	1074.44
1130.96	1058.23
1131.54	1053.42
1132.12	1048.21
1132.69	1049.33
1133.27	1020
1133.85	1010.27
1134.43	1005.23
1135	991.783
1135.58	990.49
1136.15	952.683
1136.73	968.59
1137.31	945.2
1137.88	944.804
1138.46	934.739
1139.04	922.48
1139.61	916.124
1140.19	905.311
1140.77	899.161
1141.34	892.331
1141.92	881.186
1142.49	864.767
1143.07	859.634
1143.64	852.661
1144.22	850.665
1144.8	840.309
1145.37	838.827
1145.95	826.923
1146.52	820.195
1147.1	812.856
1147.67	783.632
1148.25	803.636
1148.83	784.474
1149.4	765.535
1149.97	781.199
1150.55	767.458
1151.13	763.017
1151.7	762.158
1152.28	758.005
1152.85	737.537
1153.42	726.064
1154	725.611
1154.58	725.764
1155.15	712.991
1155.72	708.003
1156.3	703.704
1156.87	697.045
1157.45	694.284
1158.02	692.113
1158.6	675.34
1159.17	672.19
1159.74	677.614
1160.32	664.075
1160.89	677.813
1161.47	648.732
1162.04	641.316
1162.62	643.308
1163.19	643.71
1163.76	631.236
1164.34	631.035
1164.91	615.162
1165.48	613.689
1166.06	610.23
1166.63	608.251
1167.2	605.446
1167.78	590.507
1168.35	592.914
1168.93	576.65
1169.5	584.534
1170.07	575.769
1170.64	575.887
1171.22	570.414
1171.79	562.113
1172.36	560.611
1172.94	552.878
1173.51	550.536
1174.08	544.503
1174.66	540.69
1175.23	531.062
1175.8	520.866
1176.37	523.548
1176.95	519.926
1177.52	519.91
1178.09	517.428
1178.66	498.512
1179.24	505.916
1179.81	496.057
1180.38	494.016
1180.95	485.154
1181.52	486.221
1182.1	481.302
1182.67	486.68
1183.24	478.679
1183.81	476.797
1184.38	472.135
1184.95	464.142
1185.53	463.629
1186.1	454.784
1186.67	455.722
1187.24	456.916
1187.81	447.194
1188.39	444.456
1188.96	444.802
1189.53	446.315
1190.1	437.542
1190.67	436.015
1191.24	427.104
1191.81	426.457
1192.38	430.295
1192.95	422.888
1193.53	418.52
1194.1	413.376
1194.67	412.734
1195.24	404.812
1195.81	403.725
1196.38	409.455
1196.95	389.802
1197.52	398.474
1198.09	391.312
1198.66	390.265
1199.23	385.16
1199.8	379.582
1200.37	377.517
1200.94	371.041
1201.51	367.679
1202.08	371.381
1202.65	360.35
1203.22	358.909
1203.79	373.707
1204.36	357.557
1204.93	351.686
1205.5	344.93
1206.07	345.957
1206.64	350.43
1207.21	348.097
1207.78	344.764
1208.35	333.928
1208.92	322.406
1209.49	321.278
1210.06	310.511
1210.63	312.612
1211.19	304.005
1211.76	308.026
1212.33	306.79
1212.9	309.994
1213.47	307.689
1214.04	302.431
1214.61	301.863
1215.18	301.313
1215.75	300.763
1216.31	298.052
1216.88	300.365
1217.45	297.666
1218.02	307.841
1218.59	292.291
1219.16	301.501
1219.69	294.501
1220.27	294.501
1220.85	288.501
1221.42	286.501
1222	289.501
1222.58	274.501
1223.16	276.501
1223.73	289.501
1224.31	274.501
1224.89	280.501
1225.47	278.501
1226.04	281.501
1226.62	275.501
1227.2	282.501
1227.77	278.501
1228.35	275.501
1228.93	272.501
1229.5	271.501
1230.08	275.501
1230.65	264.501
1231.23	262.501
1231.81	266.501
1232.38	270.501
1232.96	267.501
1233.54	264.501
1234.11	264.501
1234.69	264.501
1235.27	268.501
1235.84	265.501
1236.42	254.501
1236.99	254.501
1237.57	262.501
1238.15	258.501
1238.72	256.501
1239.3	259.501
1239.87	250.501
1240.45	254.501
1241.02	255.501
1241.6	257.501
1242.18	256.501
1242.75	252.501
1243.32	256.501
1243.9	253.501
1244.48	253.501
1245.05	251.501
1245.63	246.501
1246.2	251.501
1246.78	248.501
1247.35	243.501
1247.93	245.501
1248.5	248.501
1249.08	246.501
1249.65	244.501
1250.23	248.501
1250.8	251.501
1251.37	241.501
1251.95	249.501
1252.52	240.501
1253.1	248.501
1253.67	235.501
1254.25	240.501
1254.82	244.501
1255.4	239.501
1255.97	243.501
1256.54	244.501
1257.12	243.501
1257.69	246.501
1258.27	244.501
1258.84	236.501
1259.41	240.501
1259.99	240.501
1260.56	245.501
1261.13	242.501
1261.71	243.501
1262.28	241.501
1262.85	242.501
1263.43	245.501
1264	241.501
1264.57	241.501
1265.15	240.501
1265.72	239.501
1266.29	240.501
1266.87	236.501
1267.44	238.501
1268.01	233.501
1268.59	239.501
1269.16	247.501
1269.73	236.501
1270.3	246.501
1270.88	236.501
1271.45	239.501
1272.02	238.501
1272.59	240.501
1273.17	241.501
1273.74	234.501
1274.31	237.501
1274.88	237.501
1275.46	243.501
1276.03	240.501
1276.6	244.501
1277.17	232.501
1277.75	243.501
1278.32	235.501
1278.89	232.501
1279.46	237.501
1280.03	242.501
1280.6	270.501
1281.18	246.501
1281.75	242.501
1282.32	237.501
1282.89	232.501
1283.46	233.501
1284.03	236.501
1284.6	240.501
1285.18	229.501
1285.75	236.501
1286.32	239.501
1286.89	233.501
1287.46	237.501
1288.03	234.501
1288.6	241.501
1289.17	235.501
1289.74	234.501
1290.32	242.501
1290.89	238.501
1291.46	236.501
1292.03	235.501
1292.6	234.501
1293.17	234.501
1293.74	239.501
1294.31	230.501
1294.88	232.501
1295.45	239.501
1296.02	233.501
1296.59	238.501
1297.16	230.501
1297.73	237.501
1298.3	233.501
1298.87	229.501
1299.44	238.501
1300.01	240.501
1300.58	235.501
1301.15	239.501
1301.72	232.501
1302.29	237.501
1302.86	226.501
1303.43	233.501
1304	233.501
1304.57	239.501
1305.14	236.501
1305.71	240.501
1306.28	230.501
1306.85	233.501
1307.42	237.501
1307.99	230.501
1308.55	234.501
1309.12	232.501
1309.69	237.501
1310.26	237.501
1310.83	239.501
1311.4	231.501
1311.97	233.501
1312.54	237.501
1313.1	235.501
1313.67	242.501
1314.24	236.501
1314.81	237.501
1315.38	234.501
1315.95	240.501
1316.52	240.501
1317.08	232.501
1317.65	231.501
1318.22	240.501
1318.79	231.501
1319.36	231.501
1319.92	237.501
1320.49	240.501
1321.06	231.501
1321.63	241.501
1322.2	234.501
1322.76	234.501
1323.33	237.501
1323.9	235.501
1324.47	230.501
1325.03	242.501
1325.6	235.501
1326.17	234.501
1326.73	237.501
1327.3	233.501
1327.87	236.501
1328.44	243.501
1329	236.501
1329.57	237.501
1330.14	236.501
1330.7	233.501
1331.27	237.501
1331.84	240.501
1332.4	237.501
1332.97	240.501
1333.54	237.501
1334.11	241.501
1334.67	235.501
1335.24	232.501
1335.8	233.501
1336.37	237.501
1336.94	238.501
1337.5	236.501
1338.07	236.501
1338.64	237.501
1339.2	236.501
1339.77	242.501
1340.34	232.501
1340.9	243.501
1341.47	240.501
1342.03	239.501
1342.6	234.501
1343.16	240.501
1343.73	235.501
1344.3	242.501
1344.86	244.501
1345.43	241.501
1345.99	242.501
1346.56	240.501
1347.12	239.501
1347.69	239.501
1348.25	239.501
1348.82	248.501
1349.38	242.501
1349.95	246.501
1350.51	245.501
1351.08	242.501
1351.64	237.501
1352.21	247.501
1352.77	240.501
1353.34	240.501
1353.9	239.501
1354.47	244.501
1355.03	243.501
1355.6	246.501
1356.16	242.501
1356.73	243.501
1357.29	241.501
1357.85	246.501
1358.42	242.501
1358.98	250.501
1359.55	243.501
1360.11	245.501
1360.67	252.501
1361.24	241.501
1361.8	243.501
1362.37	241.501
1362.93	250.501
1363.49	248.501
1364.06	244.501
1364.62	246.501
1365.19	242.501
1365.75	250.501
1366.31	246.501
1366.88	248.501
1367.44	247.501
1368	238.501
1368.57	254.501
1369.13	250.501
1369.69	247.501
1370.26	243.501
1370.82	244.501
1371.38	249.501
1371.95	254.501
1372.51	242.501
1373.07	244.501
1373.63	246.501
1374.2	242.501
1374.76	242.501
1375.32	248.501
1375.88	237.501
1376.45	242.501
1377.01	245.501
1377.57	247.501
1378.13	243.501
1378.7	247.501
1379.26	248.501
1379.82	248.501
1380.38	250.501
1380.95	250.501
1381.51	249.501
1382.07	248.501
1382.63	245.501
1383.19	249.501
1383.76	248.501
1384.32	252.501
1384.88	252.501
1385.44	248.501
1386	254.501
1386.56	247.501
1387.13	242.501
1387.69	250.501
1388.25	250.501
1388.81	246.501
1389.37	251.501
1389.93	254.501
1390.49	245.501
1391.05	244.501
1391.62	245.501
1392.18	248.501
1392.74	252.501
1393.3	248.501
1393.86	254.501
1394.42	253.501
1394.98	250.501
1395.54	249.501
1396.1	253.501
1396.66	247.501
1397.22	259.501
1397.78	255.501
1398.34	255.501
1398.91	250.501
1399.47	253.501
1400.03	245.501
1400.58	252.501
1401.14	256.501
1401.7	251.501
1402.27	254.501
1402.83	258.501
1403.39	256.501
1403.95	256.501
1404.5	251.501
1405.06	254.501
1405.62	259.501
1406.19	256.501
1406.74	242.501
1407.3	258.501
1407.86	249.501
1408.42	254.501
1408.98	255.501
1409.54	258.501
1410.1	263.501
1410.66	254.501
1411.22	259.501
1411.78	256.501
1412.34	247.501
1412.9	261.501
1413.46	256.501
1414.01	258.501
1414.57	258.501
1415.13	252.501
1415.69	254.501
1416.25	252.501
1416.81	265.501
1417.37	262.501
1417.92	252.501
1418.48	258.501
1419.04	256.501
1419.6	262.501
1420.16	259.501
1420.72	257.501
1421.28	258.501
1421.83	257.501
1422.39	257.501
1422.95	263.501
1423.51	266.501
1424.07	266.501
1424.62	258.501
1425.18	260.501
1425.74	261.501
1426.3	259.501
1426.85	259.501
1427.41	251.501
1427.97	267.501
1428.53	256.501
1429.08	269.501
1429.64	255.501
1430.2	265.501
1430.76	259.501
1431.31	263.501
1431.87	260.501
1432.43	265.501
1432.99	267.501
1433.54	264.501
1434.1	266.501
1434.66	264.501
1435.21	264.501
1435.77	258.501
1436.33	258.501
1436.88	265.501
1437.44	261.501
1438	256.501
1438.55	270.501
1439.11	267.501
1439.67	262.501
1440.22	265.501
1440.78	266.501
1441.33	273.501
1441.89	268.501
1442.45	262.501
1443	264.501
1443.56	269.501
1444.11	268.501
1444.67	270.501
1445.23	265.501
1445.78	264.501
1446.34	264.501
1446.89	272.501
1447.45	262.501
1448.01	272.501
1448.56	266.501
1449.12	264.501
1449.67	264.501
1450.23	270.501
1450.78	270.501
1451.34	274.501
1451.9	272.501
1452.45	276.501
1453	270.501
1453.56	266.501
1454.12	271.501
1454.67	272.501
1455.22	275.501
1455.78	268.501
1456.34	271.501
1456.89	268.501
1457.44	280.501
1458	277.501
1458.55	281.501
1459.11	272.501
1459.66	275.501
1460.22	268.501
1460.77	274.501
1461.33	270.501
1461.88	276.501
1462.43	274.501
1462.99	275.501
1463.54	280.501
1464.1	280.501
1464.65	277.501
1465.2	274.501
1465.76	275.501
1466.31	278.501
1466.87	271.501
1467.42	276.501
1467.97	274.501
1468.53	272.501
1469.08	280.501
1469.63	276.501
1470.19	285.501
1470.74	273.501
1471.3	273.501
1471.85	289.501
1472.4	278.501
1472.96	270.501
1473.51	278.501
1474.06	271.501
1474.61	278.501
1475.17	276.501
1475.72	273.501
1476.27	277.501
1476.83	278.501
1477.38	281.501
1477.93	270.501
1478.48	280.501
1479.04	284.501
1479.59	271.501
1480.14	284.501
1480.69	278.501
1481.25	287.501
1481.8	279.501
1482.35	282.501
1482.9	283.501
1483.46	280.501
1484.01	278.501
1484.56	282.501
1485.11	276.501
1485.66	274.501
1486.22	281.501
1486.77	277.501
1487.32	284.501
1487.87	287.501
1488.42	282.501
1488.97	285.501
1489.53	278.501
1490.08	286.501
1490.63	277.501
1491.18	276.501
1491.73	294.501
1492.28	292.501
1492.83	285.501
1493.39	286.501
1493.94	289.501
1494.49	286.501
1495.04	284.501
1495.59	277.501
1496.14	277.501
1496.69	287.501
1497.24	288.501
1497.79	278.501
1498.34	272.501
1498.9	286.501
1499.45	288.501
1500	284.501
