20.6602	1005.58
21.3365	996.581
22.0128	982.581
22.6891	968.581
23.3653	939.581
24.0414	925.581
24.7175	931.581
25.3936	999.581
26.0696	1004.58
26.7455	1015.58
27.4237	1061.58
28.0996	1057.58
28.7754	1040.58
29.4512	1043.58
30.1269	1066.58
30.8026	1048.58
31.4782	1067.58
32.1538	1063.58
32.8294	1127.58
33.5049	1154.58
34.1803	1206.58
34.8557	1229.58
35.531	1229.58
36.2063	1319.58
36.8793	1352.58
37.5545	1324.58
38.2297	1314.58
38.9048	1332.58
39.5798	1355.58
40.2549	1372.58
40.9298	1425.58
41.6048	1434.58
42.2797	1498.58
42.9545	1592.58
43.627	1644.58
44.3017	1643.58
44.9764	1595.58
45.651	1696.58
46.3256	1708.58
47.0002	1721.58
47.6724	1767.58
48.3469	1885.58
49.0213	1906.58
49.6956	1898.58
50.3677	1942.58
51.0419	1972.58
51.7162	2043.58
52.3903	2026.58
53.0622	2057.58
53.7362	2079.58
54.4103	2090.58
55.0843	2141.58
55.7559	2161.58
56.4298	2189.58
57.1037	2223.58
57.7752	2270.58
58.4489	2305.58
59.1226	2569.58
59.794	2608.58
60.4676	2631.58
61.1412	2501.58
61.8124	2549.58
62.4859	2472.58
63.157	2530.58
63.8304	2523.58
64.5037	2553.58
65.1747	2719.58
65.848	2820.58
66.5189	2683.58
67.192	2797.58
67.8628	2735.58
68.5359	2737.58
69.2066	2785.58
69.8796	2736.58
70.5502	2834.58
71.2231	2889.58
71.8936	2896.58
72.5664	2866.58
73.2368	2886.58
73.9095	2880.58
74.5798	2999.58
75.2524	3119.58
75.9227	3146.58
76.5952	3407.58
77.2653	3261.58
77.9354	3077.58
78.6078	3014.58
79.2778	3009.58
79.9501	2960.58
80.62	2994.58
81.2899	3063.58
81.962	3049.58
82.6318	3225.58
83.3015	3244.58
83.9735	3195.58
84.6431	3096.58
85.3127	3109.58
85.9846	3141.58
86.6541	3116.58
87.3236	3108.58
87.993	3029.58
88.6646	3095.58
89.334	3225.58
90.0032	3099.58
90.6747	3313.58
91.3439	3293.58
92.0131	3288.58
92.6822	3274.58
93.3512	3139.58
94.0225	3242.58
94.6914	3321.58
95.3604	3290.58
96.0292	3171.58
96.698	3204.58
97.3668	3114.58
98.0378	3218.58
98.7065	3279.58
99.3751	3229.58
100.044	3243.58
100.712	3250.58
101.381	3215.58
102.049	3237.58
102.718	3180.58
103.386	3182.58
104.056	3261.58
104.725	3191.58
105.393	3232.58
106.061	3247.58
106.729	3424.58
107.397	3392.58
108.065	3349.58
108.733	3235.58
109.401	3178.58
110.069	3203.58
110.737	3285.58
111.405	3247.58
112.073	3277.58
112.74	3230.58
113.408	3232.58
114.076	3210.58
114.741	3226.58
115.408	3266.58
116.076	3346.58
116.743	3291.58
117.411	3164.58
118.078	3296.58
118.745	3234.58
119.412	3090.58
120.08	3136.58
120.745	3055.58
121.412	3075.58
122.079	3141.58
122.746	3225.58
123.413	3132.58
124.08	3127.58
124.744	3120.58
125.411	3068.58
126.078	3076.58
126.745	3074.58
127.409	3134.58
128.076	3156.58
128.742	3131.58
129.409	3090.58
130.073	3101.58
130.74	3146.58
131.406	3157.58
132.072	3055.58
132.736	3063.58
133.403	3120.58
134.069	3003.58
134.733	3026.58
135.399	3071.58
136.065	3042.58
136.729	2973.58
137.395	2999.58
138.058	2967.58
138.724	3076.58
139.39	3089.58
140.054	3033.58
140.72	2896.58
141.383	2907.58
142.049	2930.58
142.714	2961.58
143.378	3025.58
144.043	2908.58
144.706	2943.58
145.372	2869.58
146.035	2975.58
146.7	2923.58
147.363	2890.58
148.029	2912.58
148.692	2904.58
149.357	2877.58
150.02	2838.58
150.682	2850.58
151.348	2933.58
152.01	2879.58
152.675	2906.58
153.338	2837.58
154.003	2844.58
154.665	2857.58
155.328	2805.58
155.992	2814.58
156.655	2781.58
157.319	2737.58
157.982	2816.58
158.644	2780.58
159.309	2753.58
159.971	2724.58
160.633	2746.58
161.297	2721.58
161.959	2744.58
162.621	2637.58
163.283	2742.58
163.947	2703.58
164.609	2665.58
165.271	2640.58
165.933	2680.58
166.597	2640.58
167.258	2719.58
167.92	2663.58
168.582	2696.58
169.245	2677.58
169.907	2690.58
170.568	2674.58
171.23	2638.58
171.891	2617.58
172.552	2615.58
173.216	2583.58
173.877	2659.58
174.538	2526.58
175.2	2585.58
175.861	2495.58
176.522	2590.58
177.183	2567.58
177.844	2507.58
178.505	2516.58
179.165	2530.58
179.828	2489.58
180.489	2488.58
181.15	2518.58
181.811	2575.58
182.471	2670.58
183.132	2434.58
183.792	2498.58
184.453	2494.58
185.113	2542.58
185.774	2504.58
186.434	2450.58
187.094	2464.58
187.755	2457.58
188.413	2353.58
189.073	2418.58
189.733	2405.58
190.393	2449.58
191.053	2432.58
191.713	2405.58
192.373	2370.58
193.033	2322.58
193.693	2391.58
194.353	2378.58
195.01	2358.58
195.67	2303.58
196.33	2368.58
196.989	2308.58
197.649	2303.58
198.308	2322.58
198.966	2267.58
199.625	2306.58
200.284	2322.58
200.944	2282.58
201.601	2261.58
202.26	2305.58
202.919	2301.58
203.579	2221.58
204.235	2235.58
204.895	2235.58
205.554	2220.58
206.213	2207.58
206.869	2198.58
207.528	2212.58
208.187	2164.58
208.844	2227.58
209.502	2176.58
210.161	2128.58
210.818	2173.58
211.476	2144.58
212.133	2193.58
212.791	2135.58
213.45	2177.58
214.106	2110.58
214.764	2128.58
215.42	2130.58
216.079	2132.58
216.735	2094.58
217.393	2110.58
218.051	2095.58
218.707	2063.58
219.365	2118.58
220.021	2082.58
220.679	2114.58
221.335	2060.58
221.993	2049.58
222.648	2091.58
223.306	2035.58
223.962	2081.58
224.617	2066.58
225.275	2043.58
225.93	2001.58
226.588	2032.58
227.243	2021.58
227.901	1993.58
228.556	2013.58
229.211	2043.58
229.868	2014.58
230.523	1981.58
231.179	1970.58
231.836	2032.58
232.491	2060.58
233.146	2029.58
233.803	1969.58
234.458	2000.58
235.112	2007.58
235.769	1995.58
236.424	1991.58
237.079	1986.58
237.733	1968.58
238.39	2010.58
239.045	2002.58
239.699	1962.58
240.353	1979.58
241.01	2006.58
241.664	1953.58
242.319	1970.58
242.973	1943.58
243.627	1947.58
244.283	1951.58
244.938	1888.58
245.592	1905.58
246.246	1934.58
246.9	1943.58
247.554	1897.58
248.21	1898.58
248.864	1899.58
249.517	1928.58
250.171	1893.58
250.825	1861.58
251.478	1849.58
252.132	1905.58
252.786	1892.58
253.439	1851.58
254.093	1853.58
254.746	1879.58
255.399	1887.58
256.053	1851.58
256.706	1833.58
257.359	1877.58
258.013	1855.58
258.666	1891.58
259.319	1852.58
259.972	1837.58
260.625	1874.58
261.278	1834.58
261.931	1891.58
262.584	1809.58
263.237	1898.58
263.889	1844.58
264.542	1882.58
265.193	1831.58
265.845	1898.58
266.498	1831.58
267.151	1849.58
267.803	1853.58
268.456	1855.58
269.108	1893.58
269.758	1849.58
270.411	1820.58
271.063	1846.58
271.715	1789.58
272.367	1835.58
273.017	1855.58
273.67	1845.58
274.322	1817.58
274.974	1831.58
275.624	1783.58
276.276	1818.58
276.927	1797.58
277.577	1787.58
278.229	1814.58
278.881	1786.58
279.532	1759.58
280.182	1811.58
280.834	1777.58
281.485	1780.58
282.135	1817.58
282.786	1783.58
283.435	1772.58
284.087	1794.58
284.738	1750.58
285.387	1802.58
286.039	1749.58
286.688	1827.58
287.339	1755.58
287.99	1707.58
288.639	1764.58
289.29	1776.58
289.939	1760.58
290.59	1759.58
291.238	1755.58
291.889	1770.58
292.538	1759.58
293.189	1750.58
293.837	1730.58
294.488	1724.58
295.137	1781.58
295.787	1775.58
296.436	1734.58
297.086	1712.58
297.734	1749.58
298.383	1740.58
299.033	1746.58
299.681	1735.58
300.331	1728.58
300.98	1729.58
301.628	1711.58
302.278	1734.58
302.926	1723.58
303.574	1757.58
304.224	1719.58
304.871	1749.58
305.519	1738.58
306.169	1762.58
306.817	1758.58
307.464	1719.58
308.112	1760.58
308.762	1728.58
309.409	1705.58
310.057	1739.58
310.704	1725.58
311.354	1733.58
312.001	1689.58
312.648	1739.58
313.295	1716.58
313.945	1713.58
314.592	1709.58
315.239	1703.58
315.886	1675.58
316.533	1727.58
317.18	1710.58
317.829	1705.58
318.476	1721.58
319.123	1698.58
319.77	1706.58
320.416	1686.58
321.063	1711.58
321.71	1710.58
322.356	1716.58
323.003	1690.58
323.649	1717.58
324.296	1702.58
324.942	1691.58
325.589	1694.58
326.235	1720.58
326.884	1698.58
327.53	1707.58
328.174	1697.58
328.82	1689.58
329.466	1703.58
330.112	1704.58
330.758	1741.58
331.404	1686.58
332.05	1742.58
332.696	1730.58
333.342	1700.58
333.988	1710.58
334.634	1659.58
335.279	1714.58
335.925	1709.58
336.571	1669.58
337.214	1694.58
337.86	1716.58
338.505	1706.58
339.151	1731.58
339.796	1696.58
340.441	1718.58
341.084	1730.58
341.73	1691.58
342.375	1724.58
343.02	1697.58
343.663	1738.58
344.308	1713.58
344.953	1743.58
345.598	1718.58
346.241	1703.58
346.886	1721.58
347.531	1683.58
348.176	1724.58
348.818	1727.58
349.463	1700.58
350.108	1746.58
350.75	1698.58
351.395	1705.58
352.04	1747.58
352.682	1702.58
353.327	1699.58
353.969	1743.58
354.613	1695.58
355.258	1726.58
355.9	1711.58
356.544	1702.58
357.186	1735.58
357.83	1736.58
358.474	1706.58
359.116	1779.58
359.76	1707.58
360.402	1750.58
361.046	1741.58
361.688	1755.58
362.332	1743.58
362.973	1753.58
363.617	1745.58
364.259	1779.58
364.903	1724.58
365.544	1725.58
366.185	1770.58
366.829	1766.58
367.47	1797.58
368.114	1783.58
368.755	1765.58
369.399	1797.58
370.04	1796.58
370.681	1775.58
371.324	1774.58
371.965	1801.58
372.606	1824.58
373.249	1790.58
373.89	1759.58
374.531	1801.58
375.174	1807.58
375.815	1827.58
376.456	1818.58
377.099	1814.58
377.739	1796.58
378.38	1771.58
379.02	1797.58
379.663	1836.58
380.304	1768.58
380.944	1838.58
381.585	1823.58
382.225	1807.58
382.867	1822.58
383.508	1860.58
384.148	1781.58
384.788	1824.58
385.428	1824.58
386.068	1852.58
386.71	1809.58
387.35	1837.58
387.99	1857.58
388.63	1884.58
389.27	1839.58
389.91	1834.58
390.55	1941.58
391.19	1875.58
391.829	1858.58
392.469	1841.58
393.109	1890.58
393.75	1874.58
394.39	1910.58
395.029	1879.58
395.669	1927.58
396.308	1922.58
396.948	1886.58
397.587	1951.58
398.226	1906.58
398.863	1899.58
399.502	1933.58
400.142	1893.58
400.781	1904.58
401.42	2008.58
402.059	1910.58
402.698	1947.58
403.337	2014.58
403.975	1973.58
404.614	2006.58
405.253	2039.58
405.89	2066.58
406.528	1997.58
407.167	2079.58
407.806	2117.58
408.444	2130.58
409.083	2141.58
409.719	2130.58
410.358	2133.58
410.996	2140.58
411.634	2194.58
412.27	2179.58
412.909	2229.58
413.547	2244.58
414.185	2227.58
414.821	2243.58
415.459	2285.58
416.097	2318.58
416.735	2290.58
417.371	2285.58
418.009	2385.58
418.647	2330.58
419.283	2405.58
419.92	2401.58
420.558	2457.58
421.194	2434.58
421.831	2411.58
422.467	2508.58
423.104	2498.58
423.742	2505.58
424.377	2499.58
425.015	2543.58
425.65	2570.58
426.287	2553.58
426.923	2539.58
427.56	2596.58
428.195	2565.58
428.832	2515.58
429.469	2557.58
430.104	2536.58
430.739	2472.58
431.376	2527.58
432.011	2558.58
432.648	2490.58
433.283	2511.58
433.92	2526.58
434.554	2548.58
435.191	2530.58
435.826	2507.58
436.46	2531.58
437.097	2504.58
437.731	2436.58
438.368	2490.58
439.002	2505.58
439.636	2447.58
440.273	2530.58
440.907	2520.58
441.541	2494.58
442.177	2424.58
442.811	2510.58
443.446	2523.58
444.082	2424.58
444.716	2434.58
445.35	2440.58
445.983	2482.58
446.62	2560.58
447.253	2504.58
447.887	2452.58
448.521	2460.58
449.157	2519.58
449.79	2489.58
450.424	2490.58
451.057	2511.58
451.691	2511.58
452.324	2516.58
452.96	2498.58
453.593	2533.58
454.227	2454.58
454.86	2555.58
455.493	2598.58
456.126	2537.58
456.759	2534.58
457.392	2617.58
458.026	2609.58
458.661	2619.58
459.294	2610.58
459.927	2644.58
460.56	2638.58
461.192	2646.58
461.825	2660.58
462.458	2653.58
463.091	2664.58
463.723	2647.58
464.356	2649.58
464.989	2719.58
465.621	2744.58
466.254	2744.58
466.886	2795.58
467.516	2830.58
468.149	2751.58
468.781	2765.58
469.413	2791.58
470.046	2825.58
470.678	2830.58
471.31	2901.58
471.942	2872.58
472.574	2919.58
473.204	2887.58
473.836	2949.58
474.468	2940.58
475.1	2952.58
475.732	2953.58
476.364	3037.58
476.993	3065.58
477.625	3128.58
478.257	3082.58
478.889	3093.58
479.518	3098.58
480.15	3096.58
480.781	3217.58
481.413	3186.58
482.042	3175.58
482.673	3174.58
483.305	3210.58
483.934	3184.58
484.565	3265.58
485.196	3304.58
485.825	3344.58
486.457	3364.58
487.088	3473.58
487.717	3374.58
488.348	3503.58
488.979	3537.58
489.607	3658.58
490.238	3615.58
490.867	3749.58
491.498	3791.58
492.126	3741.58
492.757	3952.58
493.388	4054.58
494.016	4175.58
494.647	4409.58
495.275	4493.58
495.906	4678.58
496.534	4845.58
497.165	5106.58
497.793	5424.58
498.421	5712.58
499.051	5978.58
499.68	6184.58
500.31	6697.58
500.938	7025.58
501.568	7327.58
502.196	7707.58
502.824	7991.58
503.454	8103.58
504.082	8432.58
504.712	8375.58
505.339	8345.58
505.967	8266.58
506.597	8377.58
507.224	8281.58
507.852	8266.58
508.482	7886.58
509.109	7918.58
509.737	7784.58
510.364	7695.58
510.993	7492.58
511.621	7527.58
512.248	7188.58
512.875	7299.58
513.505	7061.58
514.132	6814.58
514.759	6773.58
515.386	6498.58
516.015	6523.58
516.642	6442.58
517.269	6331.58
517.896	6203.58
518.523	6215.58
519.15	6173.58
519.776	6029.58
520.405	6003.58
521.032	5965.58
521.659	5853.58
522.285	6017.58
522.912	5906.58
523.538	5724.58
524.165	5825.58
524.791	5685.58
525.418	5732.58
526.044	5422.58
526.67	5323.58
527.297	5466.58
527.923	5303.58
528.549	5315.58
529.175	5324.58
529.801	5212.58
530.427	5196.58
531.053	5040.58
531.679	5063.58
532.305	5054.58
532.931	5036.58
533.557	4928.58
534.183	4849.58
534.808	4946.58
535.434	4902.58
536.06	4893.58
536.683	4822.58
537.309	4844.58
537.935	4741.58
538.56	4722.58
539.186	4830.58
539.811	4821.58
540.434	4778.58
541.06	4702.58
541.685	4738.58
542.31	4495.58
542.935	4713.58
543.558	4615.58
544.184	4626.58
544.809	4522.58
545.434	4514.58
546.057	4481.58
546.682	4519.58
547.306	4479.58
547.929	4444.58
548.554	4434.58
549.179	4533.58
549.801	4419.58
550.426	4469.58
551.051	4424.58
551.673	4404.58
552.298	4310.58
552.923	4365.58
553.545	4367.58
554.169	4299.58
554.792	4307.58
555.416	4312.58
556.04	4294.58
556.663	4201.58
557.287	4205.58
557.909	4089.58
558.533	4155.58
559.155	4047.58
559.779	4071.58
560.401	4053.58
561.025	4134.58
561.647	4037.58
562.271	4030.58
562.893	3914.58
563.517	3990.58
564.138	3953.58
564.76	4002.58
565.384	3857.58
566.005	3895.58
566.629	3876.58
567.25	3930.58
567.874	3930.58
568.495	3812.58
569.117	3711.58
569.74	3682.58
570.361	3669.58
570.982	3727.58
571.606	3722.58
572.227	3602.58
572.848	3564.58
573.471	3502.58
574.092	3550.58
574.713	3560.58
575.334	3431.58
575.957	3462.58
576.578	3418.58
577.199	3331.58
577.82	3393.58
578.442	3249.58
579.063	3337.58
579.684	3259.58
580.304	3299.58
580.925	3265.58
581.545	3148.58
582.168	3142.58
582.788	3140.58
583.409	3128.58
584.029	3055.58
584.649	3065.58
585.27	3077.58
585.89	3040.58
586.51	2951.58
587.13	3003.58
587.753	2913.58
588.373	2923.58
588.993	2877.58
589.613	2832.58
590.233	2821.58
590.852	2768.58
591.472	2804.58
592.092	2801.58
592.712	2726.58
593.332	2674.58
593.951	2670.58
594.571	2661.58
595.191	2612.58
595.81	2556.58
596.427	2553.58
597.047	2494.58
597.666	2552.58
598.286	2532.58
598.905	2471.58
599.525	2456.58
600.144	2440.58
600.763	2450.58
601.382	2433.58
601.999	2422.58
602.618	2343.58
603.237	2403.58
603.857	2377.58
604.476	2359.58
605.092	2360.58
605.711	2262.58
606.33	2312.58
606.949	2322.58
607.568	2280.58
608.184	2266.58
608.803	2253.58
609.422	2258.8
610.038	2206.93
610.657	2255.7
611.275	2223.25
611.892	2177.78
612.51	2224.13
613.129	2138.62
613.745	2138.67
614.363	2106.94
614.982	2096.82
615.598	2135.72
616.216	2123.83
616.834	2071.24
617.45	2078.43
618.068	2093.81
618.684	2074.15
619.302	2054.29
619.918	2036.81
620.536	2054.27
621.154	2022.56
621.769	2028.08
622.387	2033.07
623.003	2006.26
623.621	1956.35
624.236	1962.24
624.854	2005.95
625.469	1941.41
626.085	1918.85
626.702	1902.82
627.318	1926.38
627.935	1893.24
628.55	1910.78
629.168	1901.39
629.783	1881.93
630.398	1874.02
631.015	1861.37
631.63	1860.07
632.245	1843.51
632.862	1815.98
633.477	1810.77
634.092	1789.79
634.709	1786.49
635.324	1763.8
635.939	1781.45
636.556	1763.52
637.171	1744.05
637.785	1732.18
638.4	1753.09
639.017	1721.71
639.631	1691.85
640.246	1692.19
640.86	1679.8
641.477	1662.43
642.091	1635.35
642.705	1654.44
643.32	1637.55
643.934	1635.02
644.548	1620.78
645.164	1590.06
645.779	1590
646.393	1580.44
647.007	1571.3
647.621	1565.77
648.235	1545.2
648.849	1548.3
649.463	1549.53
650.076	1525.6
650.69	1497.06
651.304	1493.23
651.92	1507.49
652.534	1501.78
653.147	1495.79
653.761	1480.96
654.374	1487.97
654.988	1459.55
655.601	1465.42
656.043	1447.42
656.667	1462.42
657.291	1449.42
657.913	1403.42
658.537	1424.42
659.161	1407.42
659.783	1425.42
660.407	1405.42
661.031	1402.42
661.652	1378.42
662.276	1369.42
662.9	1315.42
663.522	1367.42
664.145	1351.42
664.767	1338.42
665.39	1334.42
666.012	1332.42
666.635	1335.42
667.257	1316.42
667.88	1301.42
668.503	1292.42
669.125	1316.42
669.748	1318.42
670.369	1306.42
670.992	1271.42
671.613	1268.42
672.234	1279.42
672.857	1266.42
673.478	1271.42
674.101	1257.42
674.722	1247.42
675.345	1259.42
675.966	1220.42
676.587	1228.42
677.209	1217.42
677.83	1226.42
678.453	1217.42
679.073	1216.42
679.694	1198.42
680.316	1187.42
680.937	1195.42
681.557	1194.42
682.18	1176.42
682.8	1165.42
683.42	1160.42
684.043	1161.42
684.663	1144.42
685.283	1160.42
685.903	1132.42
686.525	1163.42
687.145	1124.42
687.765	1134.42
688.385	1133.42
689.007	1121.42
689.627	1130.42
690.247	1110.42
690.867	1112.42
691.486	1109.42
692.108	1100.42
692.728	1092.42
693.348	1083.42
693.967	1091.42
694.587	1065.42
695.206	1092.42
695.826	1045.42
696.447	1054.42
697.066	1050.42
697.686	1058.42
698.305	1043.42
698.924	1030.42
699.543	1039.42
700.163	1028.42
700.782	1034.42
701.401	1031.42
702.02	1034.42
702.639	1011.42
703.258	1012.42
703.877	993.419
704.496	1002.42
705.114	1013.42
705.733	1006.42
706.352	994.419
706.971	994.419
707.589	990.419
708.208	988.419
708.826	972.419
709.445	992.419
710.063	975.419
710.682	965.419
711.3	975.419
711.919	960.419
712.535	959.419
713.153	961.419
713.771	960.419
714.39	946.419
715.008	954.419
715.626	951.419
716.244	949.419
716.86	940.419
717.478	928.419
718.096	939.419
718.714	934.419
719.332	948.419
719.948	924.419
720.565	936.419
721.183	916.419
721.801	920.419
722.416	928.419
723.034	914.419
723.652	919.419
724.267	921.419
724.885	916.419
725.502	903.419
726.12	910.419
726.735	917.419
727.352	908.419
727.969	898.419
728.585	908.419
729.202	896.419
729.817	908.419
730.434	903.419
731.051	905.419
731.666	895.419
732.283	890.419
732.898	900.419
733.515	876.419
734.132	882.419
734.747	877.419
735.363	887.419
735.978	875.419
736.595	876.419
737.209	891.419
737.826	871.419
738.44	858.419
739.057	861.419
739.672	865.419
740.288	861.419
740.902	869.419
741.519	849.419
742.133	858.419
742.749	864.419
743.364	848.419
743.978	859.419
744.594	862.419
745.208	866.419
745.824	873.419
746.438	852.419
747.052	849.419
747.668	856.419
748.282	837.419
748.896	862.419
749.512	858.419
750.125	848.419
750.739	856.419
751.355	853.419
751.968	853.419
752.582	853.419
753.198	827.419
753.811	838.419
754.424	850.419
755.038	826.419
755.653	840.419
756.267	835.419
756.88	832.419
757.493	842.419
758.106	851.419
758.722	852.419
759.335	852.419
759.948	844.419
760.561	862.419
761.174	847.419
761.787	873.419
762.402	860.419
763.015	864.419
763.628	862.419
764.24	866.419
764.853	874.419
765.466	866.419
766.079	864.419
766.691	882.419
767.304	868.419
767.919	882.419
768.531	888.419
769.143	892.419
769.756	880.419
770.368	890.419
770.981	904.419
771.593	908.419
772.205	926.419
772.818	892.419
773.43	910.419
774.042	920.419
774.654	909.419
775.266	910.419
775.876	897.419
776.488	916.419
777.1	921.419
777.712	919.419
778.324	922.419
778.936	940.419
779.547	924.419
780.159	945.419
780.771	940.419
781.382	934.419
781.992	946.419
782.604	953.419
783.215	948.419
783.827	958.419
784.438	947.419
785.047	974.419
785.659	973.419
786.27	975.419
786.881	966.419
787.493	978.419
788.102	970.419
788.713	974.419
789.324	969.419
789.935	987.419
790.544	966.419
791.155	969.419
791.766	981.419
792.375	996.419
792.986	975.419
793.597	980.419
794.206	976.419
794.816	975.419
795.427	988.419
796.036	1001.42
796.646	999.419
797.257	1004.42
797.866	992.419
798.476	993.419
799.084	993.419
799.695	1004.42
800.305	995.419
800.914	1002.42
801.524	1019.42
802.132	1014.42
802.742	1006.42
803.351	976.419
803.961	977.419
804.569	1014.42
805.179	1010.42
805.787	1022.42
806.397	979.419
807.005	1015.42
807.615	1022.42
808.223	1005.42
808.832	1012.42
809.44	998.419
810.048	1006.42
810.658	1015.42
811.265	1013.42
811.875	1024.42
812.482	1012.42
813.09	1014.42
813.699	1007.42
814.307	1030.42
814.916	1011.42
815.524	1002.42
816.131	1013.42
816.74	1014.42
817.347	1010.42
817.955	1005.42
818.562	995.419
819.171	1000.42
819.778	1032.42
820.385	1038.42
820.994	1008.42
821.601	997.419
822.208	995.419
822.815	1004.42
823.421	1014.42
824.03	1014.42
824.637	1018.42
825.244	1028.42
825.85	1028.42
826.457	1028.42
827.066	1049.42
827.672	1050.42
828.279	1022.42
828.885	1044.42
829.492	1053.42
830.098	1043.42
830.704	1040.42
831.313	1085.42
831.919	1073.42
832.525	1085.42
833.131	1078.42
833.737	1074.42
834.344	1076.42
834.95	1081.42
835.556	1101.42
836.162	1117.42
836.768	1116.42
837.373	1124.42
837.979	1144.42
838.585	1133.42
839.191	1124.42
839.797	1138.42
840.402	1135.42
841.008	1164.42
841.614	1147.42
842.219	1147.42
842.825	1184.42
843.43	1169.42
844.034	1184.42
844.639	1192.42
845.244	1200.42
845.85	1211.42
846.455	1176.42
847.06	1208.42
847.665	1213.42
848.271	1211.42
848.874	1208.42
849.479	1200.42
850.084	1198.42
850.689	1196.42
851.294	1184.42
851.897	1206.42
852.502	1191.42
853.107	1160.42
853.711	1187.42
854.314	1192.42
854.919	1191.42
855.523	1164.42
856.128	1153.42
856.731	1144.42
857.335	1167.42
857.94	1170.42
858.542	1134.42
859.147	1164.42
859.751	1144.42
860.353	1140.42
860.958	1149.42
861.562	1150.42
862.164	1126.42
862.769	1119.42
863.371	1166.42
863.975	1144.42
864.579	1154.42
865.181	1162.42
865.785	1156.42
866.387	1168.42
866.991	1156.42
867.593	1144.42
868.197	1154.42
868.798	1162.42
869.402	1149.42
870.004	1157.42
870.607	1168.42
871.209	1164.42
871.813	1183.42
872.414	1181.42
873.018	1157.42
873.619	1184.42
874.223	1192.42
874.824	1183.42
875.425	1198.42
876.029	1196.42
876.63	1198.42
877.233	1182.42
877.835	1188.42
878.436	1184.42
879.039	1205.42
879.64	1228.42
880.241	1207.42
880.844	1215.42
881.445	1222.42
882.046	1232.42
882.649	1258.42
883.25	1236.42
883.85	1250.42
884.453	1240.42
885.054	1234.42
885.654	1263.42
886.255	1248.42
886.858	1269.42
887.458	1284.42
888.059	1287.42
888.659	1273.42
889.26	1279.42
889.862	1305.42
890.462	1295.42
891.063	1316.42
891.663	1294.42
892.263	1322.42
892.863	1339.42
893.466	1328.42
894.066	1324.42
894.666	1348.42
895.266	1341.42
895.866	1353.42
896.466	1359.42
897.066	1372.42
897.666	1403.42
898.266	1388.42
898.865	1391.42
899.465	1420.42
900.065	1404.42
900.664	1401.42
901.264	1440.42
901.864	1437.42
902.463	1440.42
903.063	1468.42
903.662	1446.42
904.262	1472.42
904.861	1489.42
905.461	1514.42
906.06	1521.42
906.659	1511.42
907.258	1542.42
907.858	1539.42
908.457	1540.42
909.056	1521.42
909.653	1561.42
910.252	1586.42
910.851	1579.42
911.45	1599.42
912.049	1622.42
912.648	1626.42
913.247	1612.42
913.843	1638.42
914.442	1645.42
915.041	1642.42
915.64	1659.42
916.236	1662.42
916.835	1678.42
917.434	1682.42
918.032	1668.42
918.628	1667.42
919.227	1690.42
919.825	1667.42
920.424	1674.42
921.02	1671.42
921.618	1683.42
922.217	1696.42
922.813	1670.42
923.411	1685.42
924.009	1672.42
924.605	1683.42
925.203	1646.42
925.801	1673.42
926.397	1666.42
926.995	1627.42
927.591	1625.42
928.189	1613.42
928.785	1631.42
929.383	1621.42
929.98	1610.42
930.576	1586.42
931.174	1598.42
931.769	1579.42
932.367	1570.42
932.963	1534.42
933.56	1533.42
934.156	1568.42
934.753	1506.42
935.348	1502.42
935.946	1494.42
936.541	1501.42
937.136	1482.42
937.734	1527.42
938.329	1476.42
938.926	1466.42
939.521	1462.42
940.116	1434.42
940.713	1440.42
941.308	1404.42
941.905	1432.42
942.5	1380.42
943.095	1392.42
943.692	1374.42
944.287	1398.42
944.881	1381.42
945.478	1370.42
946.073	1364.42
946.667	1352.42
947.262	1348.42
947.859	1331.42
948.453	1294.42
949.048	1326.42
949.642	1298.42
950.238	1303.42
950.833	1288.42
951.427	1267.42
952.021	1274.42
952.616	1268.42
953.212	1271.42
953.806	1273.42
954.4	1226.42
954.994	1234.42
955.588	1241.42
956.182	1226.42
956.776	1214.42
957.372	1231.42
957.966	1226.42
958.56	1211.42
959.154	1205.42
959.748	1172.42
960.341	1160.42
960.935	1164.42
961.529	1168.42
962.122	1156.42
962.716	1154.42
963.31	1126.42
963.903	1134.42
964.497	1146.42
965.09	1130.42
965.683	1106.42
966.277	1088.42
966.87	1101.42
967.463	1097.42
968.057	1094.42
968.65	1084.42
969.243	1086.42
969.836	1083.42
970.429	1069.42
971.02	1070.42
971.613	1055.42
972.206	1055.42
972.799	1054.42
973.392	1027.42
973.985	1026.42
974.578	1023.42
975.168	1028.42
975.761	1011.42
976.354	999.419
976.947	990.419
977.539	994.419
978.13	990.419
978.722	988.419
979.315	976.419
979.907	972.419
980.498	959.419
981.09	941.419
981.682	946.419
982.273	945.419
982.865	932.419
983.457	933.419
984.049	942.419
984.64	932.419
985.232	916.419
985.824	900.419
986.414	910.419
987.006	910.419
987.596	896.419
988.188	898.419
988.78	903.419
989.369	872.419
989.961	888.419
990.551	876.419
991.143	872.419
991.732	860.419
992.324	878.419
992.916	858.419
993.505	849.419
994.097	838.419
994.686	832.419
995.278	832.419
995.867	839.419
996.457	829.419
997.048	834.419
997.637	826.419
998.229	815.419
998.818	816.419
999.409	787.419
999.998	796.419
1000.59	791.419
1001.18	788.419
1001.77	794.419
1002.36	788.419
1002.95	787.419
1003.54	780.419
1004.13	779.419
1004.72	780.419
1005.3	768.419
1005.9	751.419
1006.48	762.419
1007.07	762.419
1007.66	754.419
1008.25	750.419
1008.84	740.419
1009.43	740.419
1010.02	733.419
1010.61	727.419
1011.2	725.419
1011.79	725.419
1012.38	726.419
1012.96	722.419
1013.55	716.419
1014.14	718.419
1014.73	716.419
1015.32	710.419
1015.91	718.419
1016.49	706.419
1017.08	703.419
1017.67	696.419
1018.26	696.419
1018.85	683.419
1019.43	692.419
1020.02	686.419
1020.61	696.419
1021.2	684.419
1021.79	697.419
1022.38	677.419
1022.96	681.419
1023.55	679.419
1024.14	672.419
1024.73	669.419
1025.31	658.419
1025.9	671.419
1026.49	664.419
1027.08	651.419
1027.66	651.419
1028.25	655.419
1028.84	635.419
1029.42	653.419
1030.01	643.419
1030.6	641.419
1031.18	647.419
1031.77	643.419
1032.36	639.419
1032.95	626.419
1033.53	632.419
1034.12	626.419
1034.7	631.419
1035.29	626.419
1035.88	611.419
1036.46	615.419
1037.05	608.419
1037.64	617.419
1038.22	605.419
1038.81	597.419
1039.4	604.419
1039.98	607.419
1040.57	608.419
1041.15	601.419
1041.74	591.419
1042.32	588.419
1042.91	582.419
1043.5	594.419
1044.08	579.419
1044.67	588.419
1045.25	573.419
1045.84	574.419
1046.42	567.419
1047.01	571.419
1047.59	566.419
1048.18	567.419
1048.76	567.419
1049.35	559.419
1049.94	562.419
1050.52	560.419
1051.11	550.419
1051.69	555.419
1052.28	542.419
1052.86	552.419
1053.44	532.419
1054.03	538.419
1054.61	534.419
1055.2	540.419
1055.78	529.419
1056.37	533.419
1056.95	535.419
1057.54	529.419
1058.12	522.419
1058.7	524.419
1059.29	524.419
1059.87	514.419
1060.46	519.419
1061.04	526.419
1061.62	521.419
1062.21	512.419
1062.79	502.419
1063.38	517.419
1063.96	513.419
1064.54	512.419
1065.13	511.419
1065.71	504.419
1066.29	510.419
1066.88	496.419
1067.46	506.419
1068.04	502.419
1068.63	493.419
1069.21	496.419
1069.79	497.419
1070.38	491.419
1070.96	485.419
1071.54	485.419
1072.12	490.419
1072.71	481.419
1073.29	481.419
1073.87	480.419
1074.46	479.419
1075.04	485.419
1075.62	476.419
1076.2	484.419
1076.79	471.419
1077.37	476.419
1077.95	476.419
1078.53	478.419
1079.12	465.419
1079.7	463.419
1080.28	470.419
1080.86	464.419
1081.44	457.419
1082.03	463.419
1082.61	467.419
1083.19	470.419
1083.77	461.419
1084.35	468.419
1084.93	469.419
1085.52	472.419
1086.1	480.419
1086.68	472.419
1087.26	473.419
1087.84	476.419
1088.42	459.419
1089	461.419
1089.59	451.419
1090.17	449.419
1090.75	448.419
1091.33	448.419
1091.91	448.419
1092.49	447.419
1093.07	443.419
1093.65	447.419
1094.23	450.419
1094.81	439.419
1095.4	443.419
1095.97	437.419
1096.55	443.419
1097.14	439.419
1097.72	430.419
1098.3	436.419
1098.88	435.419
1099.46	439.419
1100.04	438.419
1100.62	431.419
1101.2	440.419
1101.78	432.419
1102.36	425.419
1102.94	430.419
1103.52	429.419
1104.1	433.419
1104.68	431.419
1105.26	429.419
1105.83	432.419
1106.41	421.419
1106.99	428.419
1107.57	431.419
1108.15	428.419
1108.73	418.419
1109.31	428.419
1109.89	427.419
1110.47	428.419
1111.05	423.419
1111.63	423.419
1112.21	422.419
1112.79	424.419
1113.36	422.419
1113.94	424.419
1114.52	419.419
1115.1	420.419
1115.68	424.419
1116.26	417.419
1116.84	414.419
1117.41	420.419
1117.99	413.419
1118.57	426.419
1119.15	420.419
1119.73	414.773
1120.31	416.943
1120.88	413.965
1121.46	420.278
1122.04	421.585
1122.62	421.59
1123.2	418.771
1123.77	411.724
1124.35	416.689
1124.93	418.694
1125.51	407.275
1126.08	411.691
1126.66	405.993
1127.24	404.563
1127.82	416.916
1128.39	412.115
1128.97	410.137
1129.55	407.753
1130.13	413.66
1130.7	419.882
1131.28	411.835
1131.86	406.382
1132.43	407.078
1133.01	407.197
1133.59	409.39
1134.16	409.269
1134.74	407.302
1135.32	402.627
1135.89	405.574
1136.47	409.927
1137.05	403.132
1137.62	406.994
1138.2	406.987
1138.78	400.911
1139.35	398.979
1139.93	405.029
1140.5	401.416
1141.08	406.512
1141.66	400.694
1142.23	398.202
1142.81	398.406
1143.38	401.651
1143.96	400.684
1144.54	402.334
1145.11	406.681
1145.69	399.006
1146.26	403.845
1146.84	396.524
1147.42	402.363
1147.99	401.647
1148.56	395.697
1149.14	396.228
1149.72	399.998
1150.29	401.092
1150.87	405.193
1151.44	403.426
1152.02	399.897
1152.59	400.753
1153.17	402.994
1153.74	401.83
1154.32	401.978
1154.89	399.482
1155.46	400.49
1156.04	401.814
1156.61	398.447
1157.19	401.489
1157.76	400.562
1158.34	396.941
1158.91	402.643
1159.49	397.573
1160.06	395.489
1160.64	391.305
1161.21	396.392
1161.78	389.674
1162.36	390.947
1162.93	396.8
1163.5	397.276
1164.08	394.144
1164.65	395.768
1165.23	393.97
1165.8	399.606
1166.37	398.353
1166.95	389.309
1167.52	393.054
1168.09	393.25
1168.67	390.174
1169.24	393.422
1169.81	387.318
1170.39	395.214
1170.96	396.667
1171.53	392.592
1172.11	390.81
1172.68	385.626
1173.25	387.625
1173.82	396.51
1174.4	395.306
1174.97	388.933
1175.54	393.163
1176.12	390.485
1176.69	389.364
1177.26	391.52
1177.83	389.022
1178.41	395.029
1178.98	385.148
1179.55	392.161
1180.12	389.445
1180.69	392.473
1181.27	389.466
1181.84	389.513
1182.41	393.152
1182.98	390.505
1183.55	391.096
1184.13	381.86
1184.7	391.559
1185.27	392.398
1185.84	385.165
1186.41	392.983
1186.98	392.586
1187.56	390.1
1188.13	387.641
1188.7	387.337
1189.27	389.302
1189.84	381.849
1190.41	386.517
1190.98	382.853
1191.55	381.417
1192.13	393.873
1192.7	385.129
1193.27	378.597
1193.84	384.893
1194.41	383.44
1194.98	380.799
1195.55	388.426
1196.12	382.905
1196.69	375.807
1197.26	382.834
1197.83	388.719
1198.4	388.952
1198.97	385.911
1199.54	378.784
1200.12	379.857
1200.69	379.25
1201.26	386.403
1201.83	391.093
1202.4	376.275
1202.97	380.737
1203.54	384.89
1204.11	379.409
1204.67	384.95
1205.24	381.704
1205.81	383.531
1206.38	375.633
1206.95	379.66
1207.52	384.882
1208.09	374.681
1208.66	377.439
1209.23	380.193
1209.8	378.797
1210.37	381.185
1210.94	360.103
1211.51	357.777
1212.08	364.953
1212.65	360.786
1213.22	373.967
1213.78	365.532
1214.35	370.628
1214.92	365.198
1215.49	361.174
1216.06	375.904
1216.63	370.332
1217.2	377.222
1217.77	371.581
1218.33	373.74
1218.9	370.967
1219.47	379.029
1220.04	380.216
1220.58	384.216
1221.16	376.216
1221.74	368.216
1222.32	372.216
1222.89	378.216
1223.47	383.216
1224.05	376.216
1224.62	383.216
1225.2	376.216
1225.78	385.216
1226.36	372.216
1226.93	376.216
1227.51	381.216
1228.09	378.216
1228.66	376.216
1229.24	377.216
1229.82	377.216
1230.39	380.216
1230.97	379.216
1231.54	378.216
1232.12	385.216
1232.7	381.216
1233.27	383.216
1233.85	381.216
1234.43	380.216
1235	377.216
1235.58	378.216
1236.16	382.216
1236.73	385.216
1237.31	387.216
1237.88	386.216
1238.46	376.216
1239.04	381.216
1239.61	381.216
1240.19	382.216
1240.76	388.216
1241.34	371.216
1241.91	380.216
1242.49	381.216
1243.06	383.216
1243.64	376.216
1244.21	385.216
1244.79	384.216
1245.36	383.216
1245.94	385.216
1246.52	387.216
1247.09	380.216
1247.66	382.216
1248.24	387.216
1248.82	381.216
1249.39	378.216
1249.96	385.216
1250.54	381.216
1251.11	382.216
1251.69	386.216
1252.26	376.216
1252.84	374.216
1253.41	381.216
1253.99	384.216
1254.56	388.216
1255.13	386.216
1255.71	372.216
1256.28	370.216
1256.86	380.216
1257.43	378.216
1258	376.216
1258.58	387.216
1259.15	384.216
1259.73	377.216
1260.3	385.216
1260.87	386.216
1261.45	389.216
1262.02	385.216
1262.59	386.216
1263.17	382.216
1263.74	383.216
1264.31	389.216
1264.89	384.216
1265.46	372.216
1266.03	390.216
1266.61	392.216
1267.18	388.216
1267.75	392.216
1268.32	388.216
1268.9	389.216
1269.47	393.216
1270.05	391.216
1270.62	389.216
1271.19	391.216
1271.76	389.216
1272.33	384.216
1272.91	378.216
1273.48	385.216
1274.05	387.216
1274.62	381.216
1275.2	392.216
1275.77	386.216
1276.34	394.216
1276.91	396.216
1277.49	387.216
1278.06	386.216
1278.63	394.216
1279.2	384.216
1279.77	388.216
1280.34	396.216
1280.92	389.216
1281.49	391.216
1282.06	394.216
1282.63	386.216
1283.2	390.216
1283.77	388.216
1284.35	390.216
1284.92	391.216
1285.49	391.216
1286.06	394.216
1286.63	389.216
1287.2	393.216
1287.77	391.216
1288.34	389.216
1288.92	393.216
1289.49	385.216
1290.06	391.216
1290.63	392.216
1291.2	391.216
1291.77	393.216
1292.34	399.216
1292.91	402.216
1293.48	394.216
1294.05	396.216
1294.62	397.216
1295.19	397.216
1295.76	394.216
1296.33	404.216
1296.9	394.216
1297.47	400.216
1298.04	392.216
1298.61	398.216
1299.18	394.216
1299.75	388.216
1300.32	396.216
1300.89	399.216
1301.46	403.216
1302.03	404.216
1302.6	397.216
1303.17	400.216
1303.74	406.216
1304.31	392.216
1304.88	407.216
1305.45	399.216
1306.02	404.216
1306.59	397.216
1307.16	399.216
1307.73	396.216
1308.3	400.216
1308.87	394.216
1309.43	399.216
1310	402.216
1310.57	404.216
1311.14	396.216
1311.71	396.216
1312.28	395.216
1312.85	397.216
1313.42	394.216
1313.98	391.216
1314.55	389.216
1315.12	395.216
1315.69	402.216
1316.26	401.216
1316.83	393.216
1317.39	398.216
1317.96	401.216
1318.53	398.216
1319.1	402.216
1319.67	396.216
1320.24	394.216
1320.8	393.216
1321.37	389.216
1321.94	398.216
1322.51	393.216
1323.07	391.216
1323.64	390.216
1324.21	399.216
1324.78	402.216
1325.35	397.216
1325.91	396.216
1326.48	393.216
1327.05	403.216
1327.61	396.216
1328.18	391.216
1328.75	397.216
1329.32	391.216
1329.88	392.216
1330.45	398.216
1331.02	396.216
1331.58	389.216
1332.15	382.216
1332.72	393.216
1333.28	389.216
1333.85	395.216
1334.42	386.216
1334.98	396.216
1335.55	393.216
1336.12	396.216
1336.68	403.216
1337.25	392.216
1337.82	392.216
1338.38	394.216
1338.95	393.216
1339.51	396.216
1340.08	391.216
1340.65	386.216
1341.21	399.216
1341.78	390.216
1342.34	401.216
1342.91	398.216
1343.47	400.216
1344.04	397.216
1344.61	391.216
1345.17	401.216
1345.74	396.216
1346.3	403.216
1346.87	395.216
1347.43	400.216
1348	406.216
1348.56	393.216
1349.13	400.216
1349.69	396.216
1350.26	391.216
1350.83	396.216
1351.39	399.216
1351.96	396.216
1352.52	393.216
1353.08	401.216
1353.65	402.216
1354.21	402.216
1354.78	392.216
1355.34	393.216
1355.91	393.216
1356.47	396.216
1357.04	404.216
1357.6	396.216
1358.16	402.216
1358.73	396.216
1359.29	397.216
1359.86	397.216
1360.42	413.216
1360.99	402.216
1361.55	404.216
1362.11	402.216
1362.68	398.216
1363.24	398.216
1363.8	392.216
1364.37	401.216
1364.93	398.216
1365.5	398.216
1366.06	404.216
1366.62	398.216
1367.19	399.216
1367.75	405.216
1368.31	403.216
1368.88	402.216
1369.44	410.216
1370	398.216
1370.57	410.216
1371.13	407.216
1371.69	402.216
1372.26	397.216
1372.82	408.216
1373.38	402.216
1373.94	393.216
1374.51	393.216
1375.07	400.216
1375.63	403.216
1376.19	401.216
1376.76	395.216
1377.32	406.216
1377.88	398.216
1378.45	404.216
1379.01	392.216
1379.57	402.216
1380.13	403.216
1380.69	390.216
1381.25	395.216
1381.82	398.216
1382.38	399.216
1382.94	406.216
1383.5	392.216
1384.07	392.216
1384.63	396.216
1385.19	399.216
1385.75	396.216
1386.31	394.216
1386.87	404.216
1387.44	387.216
1388	399.216
1388.56	396.216
1389.12	402.216
1389.68	402.216
1390.24	398.216
1390.8	392.216
1391.36	398.216
1391.93	402.216
1392.49	399.216
1393.05	400.216
1393.61	406.216
1394.17	396.216
1394.73	395.216
1395.29	396.216
1395.85	405.216
1396.41	397.216
1396.97	403.216
1397.53	398.216
1398.09	402.216
1398.65	405.216
1399.21	399.216
1399.77	401.216
1400.33	400.216
1400.89	412.216
1401.45	407.216
1402.01	404.216
1402.58	401.216
1403.14	404.216
1403.7	396.216
1404.25	400.216
1404.81	400.216
1405.37	408.216
1405.93	405.216
1406.49	403.216
1407.05	411.216
1407.61	411.216
1408.17	402.216
1408.73	423.216
1409.29	400.216
1409.85	405.216
1410.41	406.216
1410.97	411.216
1411.53	398.216
1412.09	406.216
1412.65	412.216
1413.21	409.216
1413.76	410.216
1414.32	411.216
1414.88	410.216
1415.44	416.216
1416	413.216
1416.56	409.216
1417.12	406.216
1417.68	414.216
1418.23	412.216
1418.79	407.216
1419.35	412.216
1419.91	410.216
1420.47	414.216
1421.03	402.216
1421.58	413.216
1422.14	409.216
1422.7	407.216
1423.26	422.216
1423.82	409.216
1424.38	408.216
1424.93	402.216
1425.49	416.216
1426.05	411.216
1426.61	417.216
1427.16	415.216
1427.72	409.216
1428.28	417.216
1428.84	419.216
1429.39	412.216
1429.95	413.216
1430.51	414.216
1431.06	416.216
1431.62	420.216
1432.18	412.216
1432.74	420.216
1433.29	416.216
1433.85	428.216
1434.41	421.216
1434.97	429.216
1435.52	430.216
1436.08	425.216
1436.64	436.216
1437.19	417.216
1437.75	430.216
1438.3	430.216
1438.86	423.216
1439.42	430.216
1439.98	426.216
1440.53	430.216
1441.09	427.216
1441.64	429.216
1442.2	425.216
1442.76	431.216
1443.31	433.216
1443.87	431.216
1444.43	425.216
1444.98	437.216
1445.54	427.216
1446.09	435.216
1446.65	435.216
1447.2	429.216
1447.76	422.216
1448.31	427.216
1448.87	432.216
1449.43	428.216
1449.98	423.216
1450.54	434.216
1451.09	432.216
1451.65	426.216
1452.2	418.216
1452.76	425.216
1453.31	426.216
1453.87	420.216
1454.42	425.216
1454.98	419.216
1455.53	420.216
1456.09	422.216
1456.64	425.216
1457.2	427.216
1457.75	426.216
1458.31	414.216
1458.86	414.216
1459.42	433.216
1459.97	423.216
1460.52	436.216
1461.08	420.216
1461.63	417.216
1462.19	420.216
1462.74	424.216
1463.3	428.216
1463.85	427.216
1464.4	416.216
1464.96	418.216
1465.51	424.216
1466.07	416.216
1466.62	407.216
1467.17	416.216
1467.73	417.216
1468.28	426.216
1468.83	421.216
1469.39	420.216
1469.94	420.216
1470.5	424.216
1471.05	411.216
1471.6	414.216
1472.16	419.216
1472.71	413.216
1473.26	420.216
1473.82	410.216
1474.37	415.216
1474.92	416.216
1475.47	413.216
1476.03	406.216
1476.58	418.216
1477.13	406.216
1477.69	404.216
1478.24	414.216
1478.79	416.216
1479.34	403.216
1479.9	413.216
1480.45	413.216
1481	414.216
1481.55	419.216
1482.11	424.216
1482.66	415.216
1483.21	416.216
1483.76	412.216
1484.31	408.216
1484.87	410.216
1485.42	410.216
1485.97	410.216
1486.52	412.216
1487.08	417.216
1487.63	408.216
1488.18	414.216
1488.73	413.216
1489.28	418.216
1489.83	418.216
1490.39	417.216
1490.94	413.216
1491.49	417.216
1492.04	420.216
1492.59	412.216
1493.14	422.216
1493.69	410.216
1494.25	414.216
1494.8	421.216
1495.35	422.216
1495.9	411.216
1496.45	417.216
1497	418.216
1497.55	425.216
1498.1	404.216
1498.65	413.216
1499.2	412.216
1499.75	411.216
