20.6602	1587.48
21.3365	1602.48
22.0128	1622.48
22.6891	1645.48
23.3653	1669.48
24.0414	1712.48
24.7175	1748.48
25.3936	1817.48
26.0696	1842.48
26.7455	1961.48
27.4237	1994.48
28.0996	2058.48
28.7754	2038.48
29.4512	2099.48
30.1269	2140.48
30.8026	2202.48
31.4782	2328.48
32.1538	2405.48
32.8294	2491.48
33.5049	2619.48
34.1803	2685.48
34.8557	2805.48
35.531	2909.48
36.2063	3113.48
36.8793	3222.48
37.5545	3299.48
38.2297	3295.48
38.9048	3439.48
39.5798	3525.48
40.2549	3539.48
40.9298	3735.48
41.6048	3992.48
42.2797	4159.48
42.9545	4390.48
43.627	4430.48
44.3017	4385.48
44.9764	4491.48
45.651	4515.48
46.3256	4760.48
47.0002	4923.48
47.6724	5312.48
48.3469	5462.48
49.0213	5492.48
49.6956	5424.48
50.3677	5683.48
51.0419	5759.48
51.7162	5785.48
52.3903	5912.48
53.0622	5901.48
53.7362	5991.48
54.4103	6148.48
55.0843	6262.48
55.7559	6544.48
56.4298	6771.48
57.1037	6475.48
57.7752	6876.48
58.4489	7316.48
59.1226	7337.48
59.794	7536.48
60.4676	7278.48
61.1412	7142.48
61.8124	7437.48
62.4859	7410.48
63.157	7318.48
63.8304	7512.48
64.5037	7827.48
65.1747	8095.48
65.848	7949.48
66.5189	8177.48
67.192	7969.48
67.8628	8104.48
68.5359	8239.48
69.2066	8079.48
69.8796	8234.48
70.5502	8170.48
71.2231	8284.48
71.8936	8097.48
72.5664	8376.48
73.2368	8343.48
73.9095	8335.48
74.5798	8730.48
75.2524	8806.48
75.9227	9057.48
76.5952	9102.48
77.2653	8997.48
77.9354	8624.48
78.6078	8604.48
79.2778	8636.48
79.9501	8405.48
80.62	8637.48
81.2899	8726.48
81.962	9064.48
82.6318	8862.48
83.3015	8879.48
83.9735	8799.48
84.6431	8663.48
85.3127	8914.48
85.9846	8616.48
86.6541	8568.48
87.3236	8993.48
87.993	8614.48
88.6646	8514.48
89.334	8768.48
90.0032	9153.48
90.6747	9084.48
91.3439	9141.48
92.0131	8907.48
92.6822	9007.48
93.3512	8891.48
94.0225	8985.48
94.6914	9022.48
95.3604	8691.48
96.0292	8694.48
96.698	8730.48
97.3668	8684.48
98.0378	8693.48
98.7065	8714.48
99.3751	8725.48
100.044	8599.48
100.712	8759.48
101.381	8602.48
102.049	8627.48
102.718	8380.48
103.386	8621.48
104.056	8693.48
104.725	8588.48
105.393	8709.48
106.061	8871.48
106.729	8689.48
107.397	8550.48
108.065	8387.48
108.733	8528.48
109.401	8401.48
110.069	8380.48
110.737	8280.48
111.405	8639.48
112.073	8225.48
112.74	8151.48
113.408	8364.48
114.076	8510.48
114.741	8674.48
115.408	8472.48
116.076	8537.48
116.743	8302.48
117.411	8220.48
118.078	8394.48
118.745	8174.48
119.412	8082.48
120.08	8026.48
120.745	8133.48
121.412	8015.48
122.079	8383.48
122.746	8214.48
123.413	8175.48
124.08	7979.48
124.744	7988.48
125.411	7853.48
126.078	7727.48
126.745	7855.48
127.409	7737.48
128.076	8067.48
128.742	7955.48
129.409	7926.48
130.073	7829.48
130.74	8043.48
131.406	7719.48
132.072	7792.48
132.736	7630.48
133.403	7712.48
134.069	7733.48
134.733	7580.48
135.399	7704.48
136.065	7428.48
136.729	7379.48
137.395	7648.48
138.058	7504.48
138.724	7766.48
139.39	7567.48
140.054	7512.48
140.72	7255.48
141.383	7428.48
142.049	7486.48
142.714	7324.48
143.378	7473.48
144.043	7403.48
144.706	7324.48
145.372	7299.48
146.035	7294.48
146.7	7306.48
147.363	7232.48
148.029	7376.48
148.692	7219.48
149.357	7063.48
150.02	7072.48
150.682	7019.48
151.348	7072.48
152.01	7064.48
152.675	6997.48
153.338	6932.48
154.003	6708.48
154.665	6915.48
155.328	7021.48
155.992	6796.48
156.655	7006.48
157.319	6947.48
157.982	6723.48
158.644	6993.48
159.309	6872.48
159.971	6655.48
160.633	6863.48
161.297	6679.48
161.959	6611.48
162.621	6761.48
163.283	6744.48
163.947	6715.48
164.609	6568.48
165.271	6672.48
165.933	6422.48
166.597	6504.48
167.258	6417.48
167.92	6513.48
168.582	6383.48
169.245	6401.48
169.907	6449.48
170.568	6498.48
171.23	6447.48
171.891	6355.48
172.552	6391.48
173.216	6269.48
173.877	6511.48
174.538	6352.48
175.2	6299.48
175.861	6473.48
176.522	6186.48
177.183	6196.48
177.844	6111.48
178.505	6115.48
179.165	6063.48
179.828	6056.48
180.489	6071.48
181.15	6009.48
181.811	6098.48
182.471	6083.48
183.132	6108.48
183.792	6103.48
184.453	6009.48
185.113	5897.48
185.774	5936.48
186.434	5997.48
187.094	6013.48
187.755	6086.48
188.413	5824.48
189.073	5849.48
189.733	5966.48
190.393	5875.48
191.053	5735.48
191.713	5850.48
192.373	5784.48
193.033	5789.48
193.693	5803.48
194.353	5772.48
195.01	5819.48
195.67	5715.48
196.33	5727.48
196.989	5835.48
197.649	5824.48
198.308	5649.48
198.966	5645.48
199.625	5583.48
200.284	5765.48
200.944	5670.48
201.601	5766.48
202.26	5714.48
202.919	5526.48
203.579	5571.48
204.235	5606.48
204.895	5549.48
205.554	5485.48
206.213	5683.48
206.869	5664.48
207.528	5552.48
208.187	5537.48
208.844	5654.48
209.502	5766.48
210.161	5636.48
210.818	5740.48
211.476	5451.48
212.133	5391.48
212.791	5490.48
213.45	5561.48
214.106	5468.48
214.764	5380.48
215.42	5420.48
216.079	5343.48
216.735	5404.48
217.393	5323.48
218.051	5358.48
218.707	5376.48
219.365	5402.48
220.021	5378.48
220.679	5122.48
221.335	5347.48
221.993	5306.48
222.648	5351.48
223.306	5364.48
223.962	5335.48
224.617	5255.48
225.275	5137.48
225.93	5210.48
226.588	5273.48
227.243	5311.48
227.901	5201.48
228.556	5192.48
229.211	5294.48
229.868	5295.48
230.523	5185.48
231.179	5110.48
231.836	5177.48
232.491	5257.48
233.146	5105.48
233.803	5185.48
234.458	5281.48
235.112	5144.48
235.769	4999.48
236.424	5216.48
237.079	5154.48
237.733	5228.48
238.39	5107.48
239.045	5216.48
239.699	5163.48
240.353	5118.48
241.01	5242.48
241.664	5120.48
242.319	5130.48
242.973	5075.48
243.627	5149.48
244.283	4984.48
244.938	5067.48
245.592	5088.48
246.246	5015.48
246.9	5245.48
247.554	5203.48
248.21	5112.48
248.864	5111.48
249.517	4998.48
250.171	4966.48
250.825	5163.48
251.478	5061.48
252.132	5104.48
252.786	5067.48
253.439	4995.48
254.093	5061.48
254.746	5030.48
255.399	5105.48
256.053	5102.48
256.706	4962.48
257.359	5066.48
258.013	5080.48
258.666	4957.48
259.319	5093.48
259.972	5020.48
260.625	5159.48
261.278	5041.48
261.931	5104.48
262.584	5048.48
263.237	5048.48
263.889	5104.48
264.542	5005.48
265.193	5132.48
265.845	5186.48
266.498	5176.48
267.151	4982.48
267.803	4995.48
268.456	5203.48
269.108	5038.48
269.758	5040.48
270.411	5102.48
271.063	5070.48
271.715	5148.48
272.367	5057.48
273.017	5102.48
273.67	5075.48
274.322	4926.48
274.974	5110.48
275.624	5251.48
276.276	5257.48
276.927	5020.48
277.577	5091.48
278.229	5040.48
278.881	5048.48
279.532	4962.48
280.182	5050.48
280.834	5158.48
281.485	4997.48
282.135	5073.48
282.786	4904.48
283.435	4980.48
284.087	4947.48
284.738	5208.48
285.387	4886.48
286.039	4909.48
286.688	4944.48
287.339	4962.48
287.99	5031.48
288.639	4870.48
289.29	4941.48
289.939	4947.48
290.59	4990.48
291.238	5016.48
291.889	5020.48
292.538	5024.48
293.189	5009.48
293.837	5067.48
294.488	5072.48
295.137	5072.48
295.787	5086.48
296.436	5039.48
297.086	5024.48
297.734	4977.48
298.383	4893.48
299.033	4865.48
299.681	5056.48
300.331	4926.48
300.98	5005.48
301.628	4992.48
302.278	4955.48
302.926	5277.48
303.574	5090.48
304.224	5054.48
304.871	5004.48
305.519	5045.48
306.169	5059.48
306.817	5127.48
307.464	5216.48
308.112	5091.48
308.762	5071.48
309.409	5079.48
310.057	5046.48
310.704	5171.48
311.354	5075.48
312.001	5160.48
312.648	5116.48
313.295	4959.48
313.945	5059.48
314.592	4972.48
315.239	5110.48
315.886	5016.48
316.533	5012.48
317.18	5142.48
317.829	5111.48
318.476	5217.48
319.123	5106.48
319.77	5033.48
320.416	5178.48
321.063	5323.48
321.71	5120.48
322.356	5232.48
323.003	5042.48
323.649	5097.48
324.296	5126.48
324.942	5198.48
325.589	5172.48
326.235	5264.48
326.884	5280.48
327.53	5258.48
328.174	5252.48
328.82	5182.48
329.466	5306.48
330.112	5285.48
330.758	5281.48
331.404	5209.48
332.05	5326.48
332.696	5376.48
333.342	5314.48
333.988	5304.48
334.634	5337.48
335.279	5369.48
335.925	5366.48
336.571	5273.48
337.214	5310.48
337.86	5532.48
338.505	5415.48
339.151	5411.48
339.796	5343.48
340.441	5458.48
341.084	5385.48
341.73	5561.48
342.375	5407.48
343.02	5621.48
343.663	5442.48
344.308	5482.48
344.953	5477.48
345.598	5448.48
346.241	5381.48
346.886	5386.48
347.531	5645.48
348.176	5355.48
348.818	5454.48
349.463	5706.48
350.108	5571.48
350.75	5605.48
351.395	5579.48
352.04	5443.48
352.682	5556.48
353.327	5544.48
353.969	5590.48
354.613	5561.48
355.258	5603.48
355.9	5503.48
356.544	5739.48
357.186	5491.48
357.83	5629.48
358.474	5586.48
359.116	5670.48
359.76	5578.48
360.402	5613.48
361.046	5645.48
361.688	5722.48
362.332	5680.48
362.973	5641.48
363.617	5692.48
364.259	5599.48
364.903	5682.48
365.544	5664.48
366.185	5566.48
366.829	5696.48
367.47	5661.48
368.114	5675.48
368.755	5676.48
369.399	5504.48
370.04	5555.48
370.681	5742.48
371.324	5727.48
371.965	5630.48
372.606	5707.48
373.249	5636.48
373.89	5560.48
374.531	5580.48
375.174	5768.48
375.815	5865.48
376.456	5554.48
377.099	5763.48
377.739	5594.48
378.38	5692.48
379.02	5650.48
379.663	5650.48
380.304	5672.48
380.944	5710.48
381.585	5552.48
382.225	5607.48
382.867	5703.48
383.508	5699.48
384.148	5635.48
384.788	5675.48
385.428	5722.48
386.068	5674.48
386.71	5599.48
387.35	5644.48
387.99	5540.48
388.63	5622.48
389.27	5528.48
389.91	5532.48
390.55	5757.48
391.19	5591.48
391.829	5561.48
392.469	5625.48
393.109	5507.48
393.75	5619.48
394.39	5589.48
395.029	5672.48
395.669	5543.48
396.308	5457.48
396.948	5398.48
397.587	5572.48
398.226	5453.48
398.863	5449.48
399.502	5674.48
400.142	5579.48
400.781	5412.48
401.42	5486.48
402.059	5500.48
402.698	5440.48
403.337	5495.48
403.975	5347.48
404.614	5546.48
405.253	5579.48
405.89	5422.48
406.528	5416.48
407.167	5330.48
407.806	5375.48
408.444	5543.48
409.083	5636.48
409.719	5595.48
410.358	5328.48
410.996	5619.48
411.634	5484.48
412.27	5425.48
412.909	5484.48
413.547	5422.48
414.185	5409.48
414.821	5407.48
415.459	5576.48
416.097	5515.48
416.735	5407.48
417.371	5453.48
418.009	5328.48
418.647	5500.48
419.283	5379.48
419.92	5506.48
420.558	5499.48
421.194	5459.48
421.831	5408.48
422.467	5427.48
423.104	5375.48
423.742	5333.48
424.377	5376.48
425.015	5426.48
425.65	5576.48
426.287	5364.48
426.923	5384.48
427.56	5600.48
428.195	5392.48
428.832	5487.48
429.469	5394.48
430.104	5521.48
430.739	5462.48
431.376	5490.48
432.011	5418.48
432.648	5347.48
433.283	5483.48
433.92	5443.48
434.554	5549.48
435.191	5404.48
435.826	5541.48
436.46	5480.48
437.097	5429.48
437.731	5459.48
438.368	5532.48
439.002	5651.48
439.636	5559.48
440.273	5412.48
440.907	5472.48
441.541	5674.48
442.177	5673.48
442.811	5593.48
443.446	5500.48
444.082	5550.48
444.716	5645.48
445.35	5457.48
445.983	5542.48
446.62	5536.48
447.253	5534.48
447.887	5664.48
448.521	5505.48
449.157	5731.48
449.79	5638.48
450.424	5635.48
451.057	5658.48
451.691	5601.48
452.324	5776.48
452.96	5744.48
453.593	5654.48
454.227	5561.48
454.86	5707.48
455.493	5665.48
456.126	5737.48
456.759	5597.48
457.392	5683.48
458.026	5784.48
458.661	5586.48
459.294	5699.48
459.927	5774.48
460.56	5849.48
461.192	5688.48
461.825	5650.48
462.458	5770.48
463.091	5950.48
463.723	5746.48
464.356	5678.48
464.989	5803.48
465.621	5771.48
466.254	5808.48
466.886	5872.48
467.516	5899.48
468.149	5875.48
468.781	5781.48
469.413	5997.48
470.046	5980.48
470.678	5877.48
471.31	5973.48
471.942	5807.48
472.574	5894.48
473.204	6042.48
473.836	5990.48
474.468	5953.48
475.1	5993.48
475.732	6011.48
476.364	6016.48
476.993	6056.48
477.625	6000.48
478.257	6124.48
478.889	6079.48
479.518	6123.48
480.15	6093.48
480.781	6209.48
481.413	6236.48
482.042	6137.48
482.673	6190.48
483.305	6258.48
483.934	6097.48
484.565	6330.48
485.196	6273.48
485.825	6366.48
486.457	6154.48
487.088	6262.48
487.717	6215.48
488.348	6290.48
488.979	6436.48
489.607	6509.48
490.238	6402.48
490.867	6446.48
491.498	6407.48
492.126	6421.48
492.757	6776.48
493.388	6874.48
494.016	6699.48
494.647	6699.48
495.275	6565.48
495.906	6643.48
496.534	6792.48
497.165	6749.48
497.793	6871.48
498.421	6672.48
499.051	6801.48
499.68	6695.48
500.31	6922.48
500.938	6958.48
501.568	6987.48
502.196	7037.48
502.824	6900.48
503.454	6930.48
504.082	6915.48
504.712	7098.48
505.339	7173.48
505.967	7043.48
506.597	7132.48
507.224	7263.48
507.852	7258.48
508.482	6976.48
509.109	7339.48
509.737	7204.48
510.364	7524.48
510.993	7333.48
511.621	7230.48
512.248	7444.48
512.875	7427.48
513.505	7234.48
514.132	7296.48
514.759	7458.48
515.386	7560.48
516.015	7544.48
516.642	7597.48
517.269	7624.48
517.896	7793.48
518.523	7750.48
519.15	7920.48
519.776	7653.48
520.405	7624.48
521.032	7714.48
521.659	7788.48
522.285	7779.48
522.912	7788.48
523.538	7880.48
524.165	7892.48
524.791	7913.48
525.418	8104.48
526.044	7919.48
526.67	7898.48
527.297	8156.48
527.923	7954.48
528.549	8032.48
529.175	8073.48
529.801	8126.48
530.427	8257.48
531.053	8226.48
531.679	8375.48
532.305	8395.48
532.931	8235.48
533.557	8360.48
534.183	8396.48
534.808	8371.48
535.434	8280.48
536.06	8457.48
536.683	8798.48
537.309	8572.48
537.935	8733.48
538.56	8591.48
539.186	8689.48
539.811	8534.48
540.434	8681.48
541.06	8878.48
541.685	8758.48
542.31	9016.48
542.935	9096.48
543.558	8994.48
544.184	9239.48
544.809	9128.48
545.434	9254.48
546.057	9291.48
546.682	9374.48
547.306	9338.48
547.929	9186.48
548.554	9474.48
549.179	9484.48
549.801	9515.48
550.426	9712.48
551.051	9737.48
551.673	9752.48
552.298	9806.48
552.923	10006.5
553.545	10063.5
554.169	10087.5
554.792	10187.5
555.416	10340.5
556.04	10256.5
556.663	10132.5
557.287	10307.5
557.909	10121.5
558.533	10458.5
559.155	10492.5
559.779	10769.5
560.401	10738.5
561.025	10817.5
561.647	10678.5
562.271	10871.5
562.893	11257.5
563.517	10938.5
564.138	11269.5
564.76	11176.5
565.384	10996.5
566.005	11276.5
566.629	11239.5
567.25	11372.5
567.874	11465.5
568.495	11225.5
569.117	11455.5
569.74	11363.5
570.361	11539.5
570.982	11390.5
571.606	11464.5
572.227	11570.5
572.848	11628.5
573.471	11440.5
574.092	11333.5
574.713	11451.5
575.334	11490.5
575.957	11581.5
576.578	11315.5
577.199	11174.5
577.82	11164.5
578.442	11174.5
579.063	11500.5
579.684	11034.5
580.304	11375.5
580.925	11174.5
581.545	11030.5
582.168	10918.5
582.788	10910.5
583.409	10860.5
584.029	10669.5
584.649	10471.5
585.27	10591.5
585.89	10442.5
586.51	10303.5
587.13	10251.5
587.753	10087.5
588.373	10065.5
588.993	10003.5
589.613	9687.48
590.233	9577.48
590.852	9626.48
591.472	9480.48
592.092	9286.48
592.712	8911.48
593.332	8915.48
593.951	9027.48
594.571	8801.48
595.191	8849.48
595.81	8640.48
596.427	8409.48
597.047	8193.48
597.666	8033.48
598.286	8098.48
598.905	7922.48
599.525	7889.48
600.144	7645.48
600.763	7772.48
601.382	7728.48
601.999	7303.48
602.618	7402.48
603.237	7173.48
603.857	7147.48
604.476	7156.48
605.092	6918.48
605.711	6644.48
606.33	6682.48
606.949	6531.48
607.568	6585.48
608.184	6571.48
608.803	6549.48
609.422	6204.67
610.038	6266.03
610.657	6363.87
611.275	6149.2
611.892	6104.46
612.51	6068.99
613.129	6060.47
613.745	5869.88
614.363	5966.19
614.982	5919.89
615.598	5868.34
616.216	5769.94
616.834	5680.46
617.45	5734.23
618.068	5763.38
618.684	5789.23
619.302	5701.76
619.918	5694.32
620.536	5608.18
621.154	5609.94
621.769	5558.06
622.387	5623.05
623.003	5677.67
623.621	5729.5
624.236	5669.03
624.854	5532.14
625.469	5620.59
626.085	5467.08
626.702	5560.6
627.318	5538.21
627.935	5482.46
628.55	5530.02
629.168	5505.19
629.783	5565.9
630.398	5623.21
631.015	5668.41
631.63	5609.91
632.245	5543.09
632.862	5426.79
633.477	5486.57
634.092	5564.65
634.709	5529.54
635.324	5542.4
635.939	5462.89
636.556	5604.4
637.171	5480.84
637.785	5550.33
638.4	5513.59
639.017	5581.22
639.631	5626.36
640.246	5518.06
640.86	5523.7
641.477	5571.66
642.091	5473.17
642.705	5500.1
643.32	5571.9
643.934	5415.99
644.548	5631.05
645.164	5622.55
645.779	5550.12
646.393	5413.05
647.007	5588.59
647.621	5670.19
648.235	5472.91
648.849	5597.89
649.463	5507.56
650.076	5468.25
650.69	5498.27
651.304	5524.49
651.92	5450.26
652.534	5565.71
653.147	5541.86
653.761	5491.11
654.374	5511.88
654.988	5613.08
655.601	5464.52
656.043	5424.52
656.667	5451.52
657.291	5465.52
657.913	5488.52
658.537	5414.52
659.161	5437.52
659.783	5409.52
660.407	5517.52
661.031	5337.52
661.652	5390.52
662.276	5368.52
662.9	5453.52
663.522	5387.52
664.145	5363.52
664.767	5247.52
665.39	5285.52
666.012	5245.52
666.635	5161.52
667.257	5264.52
667.88	5444.52
668.503	5280.52
669.125	5458.52
669.748	5279.52
670.369	5049.52
670.992	5001.52
671.613	5066.52
672.234	5185.52
672.857	5048.52
673.478	4997.52
674.101	4941.52
674.722	4858.52
675.345	4928.52
675.966	4711.52
676.587	4819.52
677.209	4870.52
677.83	4835.52
678.453	4732.52
679.073	4758.52
679.694	4643.52
680.316	4639.52
680.937	4756.52
681.557	4539.52
682.18	4597.52
682.8	4584.52
683.42	4464.52
684.043	4460.52
684.663	4536.52
685.283	4435.52
685.903	4277.52
686.525	4482.52
687.145	4348.52
687.765	4447.52
688.385	4221.52
689.007	4305.52
689.627	4317.52
690.247	4218.52
690.867	4226.52
691.486	4233.52
692.108	4188.52
692.728	4123.52
693.348	4068.52
693.967	4125.52
694.587	4245.52
695.206	3943.52
695.826	3964.52
696.447	3900.52
697.066	3803.52
697.686	3850.52
698.305	3870.52
698.924	3785.52
699.543	3756.52
700.163	3716.52
700.782	3753.52
701.401	3660.52
702.02	3658.52
702.639	3607.52
703.258	3640.52
703.877	3506.52
704.496	3560.52
705.114	3553.52
705.733	3362.52
706.352	3413.52
706.971	3415.52
707.589	3412.52
708.208	3354.52
708.826	3418.52
709.445	3340.52
710.063	3192.52
710.682	3264.52
711.3	3234.52
711.919	3207.52
712.535	3176.52
713.153	3126.52
713.771	3186.52
714.39	3098.52
715.008	3080.52
715.626	3087.52
716.244	3023.52
716.86	3031.52
717.478	3020.52
718.096	2946.52
718.714	2951.52
719.332	2861.52
719.948	2855.52
720.565	3031.52
721.183	2954.52
721.801	2861.52
722.416	2768.52
723.034	2775.52
723.652	2748.52
724.267	2674.52
724.885	2746.52
725.502	2700.52
726.12	2665.52
726.735	2597.52
727.352	2591.52
727.969	2588.52
728.585	2542.52
729.202	2583.52
729.817	2545.52
730.434	2506.52
731.051	2492.52
731.666	2432.52
732.283	2460.52
732.898	2369.52
733.515	2367.52
734.132	2334.52
734.747	2360.52
735.363	2380.52
735.978	2259.52
736.595	2314.52
737.209	2254.52
737.826	2255.52
738.44	2234.52
739.057	2170.52
739.672	2130.52
740.288	2200.52
740.902	2165.52
741.519	2116.52
742.133	2141.52
742.749	2065.52
743.364	2054.52
743.978	2037.52
744.594	2013.52
745.208	1977.52
745.824	1971.52
746.438	1963.52
747.052	1957.52
747.668	1934.52
748.282	1910.52
748.896	1866.52
749.512	1836.52
750.125	1811.52
750.739	1828.52
751.355	1822.52
751.968	1759.52
752.582	1775.52
753.198	1753.52
753.811	1727.52
754.424	1708.52
755.038	1712.52
755.653	1696.52
756.267	1661.52
756.88	1629.52
757.493	1621.52
758.106	1629.52
758.722	1594.52
759.335	1590.52
759.948	1555.52
760.561	1546.52
761.174	1533.52
761.787	1484.52
762.402	1501.52
763.015	1488.52
763.628	1461.52
764.24	1430.52
764.853	1444.52
765.466	1424.52
766.079	1386.52
766.691	1373.52
767.304	1349.52
767.919	1356.52
768.531	1340.52
769.143	1310.52
769.756	1295.52
770.368	1304.52
770.981	1286.52
771.593	1273.52
772.205	1247.52
772.818	1230.52
773.43	1224.52
774.042	1233.52
774.654	1235.52
775.266	1184.52
775.876	1178.52
776.488	1148.52
777.1	1147.52
777.712	1109.52
778.324	1122.52
778.936	1125.52
779.547	1099.52
780.159	1091.52
780.771	1077.52
781.382	1071.52
781.992	1065.52
782.604	1045.52
783.215	1042.52
783.827	1024.52
784.438	1013.52
785.047	1015.52
785.659	984.525
786.27	985.525
786.881	992.525
787.493	974.525
788.102	959.525
788.713	957.525
789.324	933.525
789.935	944.525
790.544	953.525
791.155	942.525
791.766	940.525
792.375	917.525
792.986	931.525
793.597	892.525
794.206	914.525
794.816	904.525
795.427	903.525
796.036	901.525
796.646	901.525
797.257	888.525
797.866	891.525
798.476	890.525
799.084	884.525
799.695	891.525
800.305	897.525
800.914	881.525
801.524	880.525
802.132	875.525
802.742	898.525
803.351	875.525
803.961	874.525
804.569	881.525
805.179	903.525
805.787	905.525
806.397	898.525
807.005	889.525
807.615	911.525
808.223	914.525
808.832	934.525
809.44	919.525
810.048	941.525
810.658	951.525
811.265	951.525
811.875	945.525
812.482	962.525
813.09	974.525
813.699	981.525
814.307	996.525
814.916	1001.52
815.524	1033.52
816.131	1031.52
816.74	1033.52
817.347	1066.52
817.955	1082.52
818.562	1081.52
819.171	1096.52
819.778	1117.52
820.385	1139.52
820.994	1150.52
821.601	1158.52
822.208	1200.52
822.815	1191.52
823.421	1221.52
824.03	1259.52
824.637	1276.52
825.244	1278.52
825.85	1301.52
826.457	1334.52
827.066	1376.52
827.672	1433.52
828.279	1429.52
828.885	1453.52
829.492	1500.52
830.098	1543.52
830.704	1578.52
831.313	1591.52
831.919	1615.52
832.525	1668.52
833.131	1708.52
833.737	1738.52
834.344	1788.52
834.95	1853.52
835.556	1855.52
836.162	1944.52
836.768	1969.52
837.373	2011.52
837.979	2089.52
838.585	2134.52
839.191	2195.52
839.797	2275.52
840.402	2351.52
841.008	2317.52
841.614	2479.52
842.219	2530.52
842.825	2553.52
843.43	2654.52
844.034	2704.52
844.639	2820.52
845.244	2876.52
845.85	3018.52
846.455	2992.52
847.06	3141.52
847.665	3225.52
848.271	3280.52
848.874	3422.52
849.479	3542.52
850.084	3527.52
850.689	3761.52
851.294	3797.52
851.897	3943.52
852.502	4184.52
853.107	4292.52
853.711	4415.52
854.314	4618.52
854.919	4637.52
855.523	4895.52
856.128	4999.52
856.731	5122.52
857.335	5312.52
857.94	5407.52
858.542	5554.52
859.147	5723.52
859.751	5917.52
860.353	6163.52
860.958	6282.52
861.562	6462.52
862.164	6567.52
862.769	6788.52
863.371	7058.52
863.975	7222.52
864.579	7620.52
865.181	7527.52
865.785	7852.52
866.387	8127.52
866.991	8272.52
867.593	8534.52
868.197	8486.52
868.798	8821.52
869.402	8969.52
870.004	9300.52
870.607	9345.52
871.209	9512.52
871.813	9594.52
872.414	9855.52
873.018	9995.52
873.619	10148.5
874.223	10398.5
874.824	10618.5
875.425	10759.5
876.029	10992.5
876.63	10990.5
877.233	11113.5
877.835	11424.5
878.436	11700.5
879.039	11656.5
879.64	11585.5
880.241	11852.5
880.844	12051.5
881.445	12259.5
882.046	12521.5
882.649	12678.5
883.25	12491.5
883.85	12859.5
884.453	12722.5
885.054	13126.5
885.654	12947.5
886.255	13118.5
886.858	13585.5
887.458	13367.5
888.059	13861.5
888.659	13869.5
889.26	13933.5
889.862	13928.5
890.462	14181.5
891.063	14214.5
891.663	14644.5
892.263	14772.5
892.863	14460.5
893.466	14674.5
894.066	14912.5
894.666	15071.5
895.266	15240.5
895.866	14925.5
896.466	15732.5
897.066	15817.5
897.666	15753.5
898.266	15958.5
898.865	16047.5
899.465	16024.5
900.065	16013.5
900.664	16322.5
901.264	16634.5
901.864	16533.5
902.463	16655.5
903.063	16689.5
903.662	16861.5
904.262	16953.5
904.861	17146.5
905.461	17188.5
906.06	17272.5
906.659	17513.5
907.258	17849.5
907.858	17608.5
908.457	17897.5
909.056	17926.5
909.653	18075.5
910.252	18140.5
910.851	18034.5
911.45	18573.5
912.049	18603.5
912.648	18657.5
913.247	18672.5
913.843	18539.5
914.442	18711.5
915.041	18852.5
915.64	19053.5
916.236	19163.5
916.835	18932.5
917.434	19193.5
918.032	19216.5
918.628	19289.5
919.227	19263.5
919.825	19737.5
920.424	19299.5
921.02	19510.5
921.618	19636.5
922.217	19953.5
922.813	19769.5
923.411	19612.5
924.009	19919.5
924.605	19890.5
925.203	20042.5
925.801	20111.5
926.397	19958.5
926.995	19948.5
927.591	20069.5
928.189	20080.5
928.785	20292.5
929.383	20360.5
929.98	20228.5
930.576	20243.5
931.174	20437.5
931.769	20499.5
932.367	20237.5
932.963	20311.5
933.56	20473.5
934.156	20720.5
934.753	20482.5
935.348	20274.5
935.946	20768.5
936.541	20297.5
937.136	20850.5
937.734	20764.5
938.329	20833.5
938.926	20682.5
939.521	20834.5
940.116	20601.5
940.713	20661.5
941.308	20629.5
941.905	20804.5
942.5	20792.5
943.095	20885.5
943.692	21153.5
944.287	20685.5
944.881	20664.5
945.478	20613.5
946.073	20750.5
946.667	20741.5
947.262	20899.5
947.859	20667.5
948.453	20672.5
949.048	20654.5
949.642	20407.5
950.238	20507.5
950.833	20475.5
951.427	20587.5
952.021	20519.5
952.616	20488.5
953.212	20493.5
953.806	20337.5
954.4	20315.5
954.994	20301.5
955.588	20523.5
956.182	20375.5
956.776	20391.5
957.372	20321.5
957.966	20493.5
958.56	20097.5
959.154	20038.5
959.748	19935.5
960.341	19867.5
960.935	19773.5
961.529	19809.5
962.122	20087.5
962.716	19762.5
963.31	19391.5
963.903	19745.5
964.497	19399.5
965.09	19467.5
965.683	19693.5
966.277	19267.5
966.87	19126.5
967.463	19009.5
968.057	19325.5
968.65	19239.5
969.243	18934.5
969.836	19037.5
970.429	18766.5
971.02	18482.5
971.613	18658.5
972.206	18865.5
972.799	18610.5
973.392	18501.5
973.985	18417.5
974.578	18280.5
975.168	18088.5
975.761	17981.5
976.354	17869.5
976.947	18199.5
977.539	17824.5
978.13	17952.5
978.722	17559.5
979.315	17423.5
979.907	17322.5
980.498	17263.5
981.09	17358.5
981.682	16989.5
982.273	16945.5
982.865	16903.5
983.457	16539.5
984.049	16695.5
984.64	16863.5
985.232	16397.5
985.824	16717.5
986.414	16347.5
987.006	16452.5
987.596	16329.5
988.188	15926.5
988.78	15804.5
989.369	15643.5
989.961	15893.5
990.551	15643.5
991.143	15702.5
991.732	15387.5
992.324	15372.5
992.916	15032.5
993.505	15152.5
994.097	14930.5
994.686	14906.5
995.278	14787.5
995.867	14512.5
996.457	14512.5
997.048	14514.5
997.637	14263.5
998.229	14091.5
998.818	14064.5
999.409	13983.5
999.998	13819.5
1000.59	13474.5
1001.18	13682.5
1001.77	13747.5
1002.36	13380.5
1002.95	13301.5
1003.54	13038.5
1004.13	13367.5
1004.72	12785.5
1005.3	12757.5
1005.9	12646.5
1006.48	12537.5
1007.07	12548.5
1007.66	11980.5
1008.25	12100.5
1008.84	12199.5
1009.43	11675.5
1010.02	11845.5
1010.61	11818.5
1011.2	11449.5
1011.79	11726.5
1012.38	11397.5
1012.96	11180.5
1013.55	11036.5
1014.14	11198.5
1014.73	11020.5
1015.32	10787.5
1015.91	10596.5
1016.49	10543.5
1017.08	10503.5
1017.67	10216.5
1018.26	10213.5
1018.85	10289.5
1019.43	10280.5
1020.02	10152.5
1020.61	9797.52
1021.2	9878.52
1021.79	9983.52
1022.38	9659.52
1022.96	9248.52
1023.55	9310.52
1024.14	9041.52
1024.73	9135.52
1025.31	8931.52
1025.9	8565.52
1026.49	9001.52
1027.08	8927.52
1027.66	8330.52
1028.25	8383.52
1028.84	8239.52
1029.42	8220.52
1030.01	7835.52
1030.6	7794.52
1031.18	7788.52
1031.77	7759.52
1032.36	7624.52
1032.95	7501.52
1033.53	7191.52
1034.12	6947.52
1034.7	7302.52
1035.29	6845.52
1035.88	6913.52
1036.46	6853.52
1037.05	6683.52
1037.64	6821.52
1038.22	6510.52
1038.81	6364.52
1039.4	6179.52
1039.98	6319.52
1040.57	6138.52
1041.15	6052.52
1041.74	6031.52
1042.32	6046.52
1042.91	5778.52
1043.5	5759.52
1044.08	5525.52
1044.67	5531.52
1045.25	5467.52
1045.84	5387.52
1046.42	5271.52
1047.01	5149.52
1047.59	5106.52
1048.18	5095.52
1048.76	4925.52
1049.35	4854.52
1049.94	4685.52
1050.52	4727.52
1051.11	4684.52
1051.69	4635.52
1052.28	4557.52
1052.86	4434.52
1053.44	4312.52
1054.03	4399.52
1054.61	4437.52
1055.2	4467.52
1055.78	4320.52
1056.37	4110.52
1056.95	3990.52
1057.54	4027.52
1058.12	3918.52
1058.7	3833.52
1059.29	3768.52
1059.87	3751.52
1060.46	3757.52
1061.04	3681.52
1061.62	3614.52
1062.21	3526.52
1062.79	3549.52
1063.38	3450.52
1063.96	3357.52
1064.54	3316.52
1065.13	3276.52
1065.71	3199.52
1066.29	3204.52
1066.88	3141.52
1067.46	3099.52
1068.04	3072.52
1068.63	3063.52
1069.21	2945.52
1069.79	2956.52
1070.38	2876.52
1070.96	2830.52
1071.54	2786.52
1072.12	2775.52
1072.71	2759.52
1073.29	2639.52
1073.87	2791.52
1074.46	2615.52
1075.04	2612.52
1075.62	2574.52
1076.2	2527.52
1076.79	2487.52
1077.37	2474.52
1077.95	2440.52
1078.53	2372.52
1079.12	2381.52
1079.7	2281.52
1080.28	2293.52
1080.86	2277.52
1081.44	2217.52
1082.03	2220.52
1082.61	2154.52
1083.19	2103.52
1083.77	2090.52
1084.35	2062.52
1084.93	2002.52
1085.52	2012.52
1086.1	2008.52
1086.68	1939.52
1087.26	1939.52
1087.84	1896.52
1088.42	1866.52
1089	1841.52
1089.59	1823.52
1090.17	1793.52
1090.75	1735.52
1091.33	1725.52
1091.91	1729.52
1092.49	1685.52
1093.07	1663.52
1093.65	1654.52
1094.23	1627.52
1094.81	1575.52
1095.4	1581.52
1095.97	1555.52
1096.55	1517.52
1097.14	1526.52
1097.72	1481.52
1098.3	1481.52
1098.88	1447.52
1099.46	1421.52
1100.04	1432.52
1100.62	1414.52
1101.2	1361.52
1101.78	1345.52
1102.36	1315.52
1102.94	1320.52
1103.52	1305.52
1104.1	1255.52
1104.68	1269.52
1105.26	1224.52
1105.83	1234.52
1106.41	1191.52
1106.99	1175.52
1107.57	1175.52
1108.15	1175.52
1108.73	1144.52
1109.31	1128.52
1109.89	1099.52
1110.47	1109.52
1111.05	1103.52
1111.63	1085.52
1112.21	1049.52
1112.79	1041.52
1113.36	1035.52
1113.94	1007.52
1114.52	1009.52
1115.1	997.525
1115.68	984.525
1116.26	965.525
1116.84	963.525
1117.41	937.525
1117.99	932.525
1118.57	927.525
1119.15	915.525
1119.73	904.784
1120.31	897.918
1120.88	886.96
1121.46	877.534
1122.04	854.422
1122.62	845.298
1123.2	842.5
1123.77	831.04
1124.35	824.236
1124.93	821.576
1125.51	820.601
1126.08	811.426
1126.66	796.405
1127.24	803.556
1127.82	780.501
1128.39	785.092
1128.97	781.58
1129.55	773.862
1130.13	749.156
1130.7	752.084
1131.28	742.452
1131.86	737.06
1132.43	734.371
1133.01	730.601
1133.59	715.438
1134.16	721.423
1134.74	711.728
1135.32	702.948
1135.89	698.104
1136.47	695.478
1137.05	681.697
1137.62	684.208
1138.2	682.884
1138.78	674.938
1139.35	662.803
1139.93	660.108
1140.5	661.688
1141.08	660.181
1141.66	654.269
1142.23	643.586
1142.81	644.994
1143.38	650.179
1143.96	644.461
1144.54	640.852
1145.11	635.654
1145.69	633.582
1146.26	629.453
1146.84	626.049
1147.42	618.475
1147.99	616.78
1148.56	618.645
1149.14	622.43
1149.72	606.346
1150.29	609.453
1150.87	609.418
1151.44	600.5
1152.02	602.257
1152.59	596.768
1153.17	593.31
1153.74	599.158
1154.32	591.746
1154.89	586.985
1155.46	590.165
1156.04	585.038
1156.61	586.666
1157.19	580.449
1157.76	576.454
1158.34	583.119
1158.91	579.458
1159.49	568.958
1160.06	572.028
1160.64	571.331
1161.21	569.33
1161.78	562.089
1162.36	558.137
1162.93	568.065
1163.5	565.828
1164.08	557.413
1164.65	562.346
1165.23	560.074
1165.8	559.205
1166.37	552.996
1166.95	552.624
1167.52	553.737
1168.09	552.125
1168.67	548.968
1169.24	550.821
1169.81	551.221
1170.39	544.057
1170.96	546.497
1171.53	542.799
1172.11	536.318
1172.68	542.932
1173.25	535.911
1173.82	537.376
1174.4	535.004
1174.97	537.264
1175.54	531.372
1176.12	534.548
1176.69	534.828
1177.26	530.67
1177.83	527.832
1178.41	533.354
1178.98	532.014
1179.55	530.873
1180.12	519.881
1180.69	532.158
1181.27	525.408
1181.84	524.468
1182.41	519.999
1182.98	528.355
1183.55	519.66
1184.13	519.348
1184.7	515.213
1185.27	512.77
1185.84	513.323
1186.41	521.831
1186.98	520.415
1187.56	512.56
1188.13	514.511
1188.7	514.651
1189.27	512.596
1189.84	512.369
1190.41	515.635
1190.98	507.922
1191.55	506.519
1192.13	510.007
1192.7	508.392
1193.27	505.526
1193.84	506.859
1194.41	508.216
1194.98	503.852
1195.55	505.718
1196.12	502.223
1196.69	501.448
1197.26	505.399
1197.83	503.069
1198.4	500.346
1198.97	505.274
1199.54	495.27
1200.12	498.638
1200.69	501.698
1201.26	494.631
1201.83	502.234
1202.4	500.099
1202.97	495.135
1203.54	491.823
1204.11	491.134
1204.67	493.485
1205.24	496.316
1205.81	496.289
1206.38	488.703
1206.95	498.202
1207.52	489.765
1208.09	491.87
1208.66	478.215
1209.23	491.068
1209.8	488.025
1210.37	486.147
1210.94	477.098
1211.51	473.026
1212.08	463.525
1212.65	468.03
1213.22	470.353
1213.78	475.315
1214.35	476.323
1214.92	468.097
1215.49	473.162
1216.06	474.341
1216.63	482.395
1217.2	477.791
1217.77	474.131
1218.33	476.293
1218.9	474.535
1219.47	480.703
1220.04	470.917
1220.58	480.917
1221.16	482.917
1221.74	488.917
1222.32	480.917
1222.89	476.917
1223.47	476.917
1224.05	486.917
1224.62	482.917
1225.2	474.917
1225.78	486.917
1226.36	476.917
1226.93	477.917
1227.51	474.917
1228.09	476.917
1228.66	478.917
1229.24	475.917
1229.82	477.917
1230.39	475.917
1230.97	480.917
1231.54	474.917
1232.12	479.917
1232.7	475.917
1233.27	477.917
1233.85	480.917
1234.43	475.917
1235	474.917
1235.58	466.917
1236.16	469.917
1236.73	471.917
1237.31	478.917
1237.88	472.917
1238.46	477.917
1239.04	485.917
1239.61	479.917
1240.19	472.917
1240.76	474.917
1241.34	478.917
1241.91	470.917
1242.49	470.917
1243.06	478.917
1243.64	474.917
1244.21	476.917
1244.79	472.917
1245.36	473.917
1245.94	476.917
1246.52	469.917
1247.09	473.917
1247.66	471.917
1248.24	475.917
1248.82	479.917
1249.39	469.917
1249.96	475.917
1250.54	472.917
1251.11	468.917
1251.69	472.917
1252.26	475.917
1252.84	472.917
1253.41	477.917
1253.99	468.917
1254.56	470.917
1255.13	469.917
1255.71	471.917
1256.28	471.917
1256.86	468.917
1257.43	471.917
1258	473.917
1258.58	474.917
1259.15	472.917
1259.73	475.917
1260.3	473.917
1260.87	467.917
1261.45	472.917
1262.02	470.917
1262.59	477.917
1263.17	462.917
1263.74	462.917
1264.31	475.917
1264.89	472.917
1265.46	470.917
1266.03	472.917
1266.61	475.917
1267.18	474.917
1267.75	480.917
1268.32	478.917
1268.9	476.917
1269.47	472.917
1270.05	469.917
1270.62	466.917
1271.19	475.917
1271.76	470.917
1272.33	471.917
1272.91	472.917
1273.48	470.917
1274.05	467.917
1274.62	469.917
1275.2	471.917
1275.77	467.917
1276.34	472.917
1276.91	474.917
1277.49	471.917
1278.06	470.917
1278.63	470.917
1279.2	463.917
1279.77	471.917
1280.34	472.917
1280.92	474.917
1281.49	477.917
1282.06	469.917
1282.63	474.917
1283.2	474.917
1283.77	463.917
1284.35	472.917
1284.92	468.917
1285.49	474.917
1286.06	474.917
1286.63	467.917
1287.2	468.917
1287.77	468.917
1288.34	473.917
1288.92	468.917
1289.49	467.917
1290.06	467.917
1290.63	466.917
1291.2	467.917
1291.77	472.917
1292.34	469.917
1292.91	463.917
1293.48	468.917
1294.05	465.917
1294.62	469.917
1295.19	475.917
1295.76	468.917
1296.33	474.917
1296.9	463.917
1297.47	474.917
1298.04	463.917
1298.61	472.917
1299.18	468.917
1299.75	471.917
1300.32	477.917
1300.89	465.917
1301.46	469.917
1302.03	472.917
1302.6	474.917
1303.17	474.917
1303.74	476.917
1304.31	466.917
1304.88	468.917
1305.45	471.917
1306.02	470.917
1306.59	465.917
1307.16	471.917
1307.73	471.917
1308.3	470.917
1308.87	476.917
1309.43	471.917
1310	458.917
1310.57	472.917
1311.14	465.917
1311.71	472.917
1312.28	471.917
1312.85	463.917
1313.42	472.917
1313.98	475.917
1314.55	475.917
1315.12	470.917
1315.69	477.917
1316.26	473.917
1316.83	466.917
1317.39	479.917
1317.96	470.917
1318.53	479.917
1319.1	468.917
1319.67	471.917
1320.24	473.917
1320.8	470.917
1321.37	470.917
1321.94	468.917
1322.51	467.917
1323.07	476.917
1323.64	468.917
1324.21	478.917
1324.78	474.917
1325.35	475.917
1325.91	472.917
1326.48	473.917
1327.05	476.917
1327.61	478.917
1328.18	472.917
1328.75	471.917
1329.32	473.917
1329.88	472.917
1330.45	468.917
1331.02	470.917
1331.58	475.917
1332.15	476.917
1332.72	466.917
1333.28	475.917
1333.85	476.917
1334.42	477.917
1334.98	476.917
1335.55	473.917
1336.12	477.917
1336.68	475.917
1337.25	476.917
1337.82	474.917
1338.38	481.917
1338.95	474.917
1339.51	476.917
1340.08	483.917
1340.65	470.917
1341.21	477.917
1341.78	472.917
1342.34	477.917
1342.91	481.917
1343.47	472.917
1344.04	472.917
1344.61	472.917
1345.17	480.917
1345.74	491.917
1346.3	475.917
1346.87	480.917
1347.43	474.917
1348	469.917
1348.56	472.917
1349.13	482.917
1349.69	484.917
1350.26	481.917
1350.83	484.917
1351.39	483.917
1351.96	469.917
1352.52	479.917
1353.08	477.917
1353.65	476.917
1354.21	480.917
1354.78	478.917
1355.34	480.917
1355.91	483.917
1356.47	480.917
1357.04	480.917
1357.6	473.917
1358.16	477.917
1358.73	475.917
1359.29	485.917
1359.86	480.917
1360.42	480.917
1360.99	482.917
1361.55	483.917
1362.11	475.917
1362.68	481.917
1363.24	474.917
1363.8	485.917
1364.37	482.917
1364.93	478.917
1365.5	482.917
1366.06	486.917
1366.62	487.917
1367.19	478.917
1367.75	482.917
1368.31	480.917
1368.88	480.917
1369.44	485.917
1370	478.917
1370.57	475.917
1371.13	484.917
1371.69	478.917
1372.26	478.917
1372.82	483.917
1373.38	480.917
1373.94	478.917
1374.51	476.917
1375.07	482.917
1375.63	474.917
1376.19	490.917
1376.76	481.917
1377.32	486.917
1377.88	484.917
1378.45	480.917
1379.01	483.917
1379.57	480.917
1380.13	484.917
1380.69	483.917
1381.25	484.917
1381.82	476.917
1382.38	483.917
1382.94	486.917
1383.5	481.917
1384.07	484.917
1384.63	487.917
1385.19	480.917
1385.75	489.917
1386.31	487.917
1386.87	482.917
1387.44	481.917
1388	485.917
1388.56	491.917
1389.12	483.917
1389.68	487.917
1390.24	489.917
1390.8	486.917
1391.36	487.917
1391.93	484.917
1392.49	491.917
1393.05	491.917
1393.61	493.917
1394.17	504.917
1394.73	494.917
1395.29	486.917
1395.85	488.917
1396.41	489.917
1396.97	482.917
1397.53	492.917
1398.09	486.917
1398.65	484.917
1399.21	493.917
1399.77	488.917
1400.33	486.917
1400.89	492.917
1401.45	484.917
1402.01	492.917
1402.58	488.917
1403.14	484.917
1403.7	488.917
1404.25	483.917
1404.81	484.917
1405.37	489.917
1405.93	492.917
1406.49	492.917
1407.05	491.917
1407.61	483.917
1408.17	492.917
1408.73	487.917
1409.29	488.917
1409.85	485.917
1410.41	495.917
1410.97	490.917
1411.53	495.917
1412.09	494.917
1412.65	496.917
1413.21	496.917
1413.76	503.917
1414.32	496.917
1414.88	497.917
1415.44	490.917
1416	495.917
1416.56	492.917
1417.12	488.917
1417.68	498.917
1418.23	495.917
1418.79	491.917
1419.35	492.917
1419.91	500.917
1420.47	496.917
1421.03	491.917
1421.58	493.917
1422.14	502.917
1422.7	492.917
1423.26	495.917
1423.82	499.917
1424.38	497.917
1424.93	496.917
1425.49	502.917
1426.05	501.917
1426.61	498.917
1427.16	497.917
1427.72	494.917
1428.28	491.917
1428.84	498.917
1429.39	492.917
1429.95	496.917
1430.51	492.917
1431.06	498.917
1431.62	496.917
1432.18	499.917
1432.74	495.917
1433.29	500.917
1433.85	500.917
1434.41	484.917
1434.97	509.917
1435.52	499.917
1436.08	500.917
1436.64	495.917
1437.19	494.917
1437.75	491.917
1438.3	505.917
1438.86	500.917
1439.42	498.917
1439.98	501.917
1440.53	500.917
1441.09	493.917
1441.64	494.917
1442.2	494.917
1442.76	502.917
1443.31	489.917
1443.87	485.917
1444.43	503.917
1444.98	502.917
1445.54	502.917
1446.09	501.917
1446.65	496.917
1447.2	501.917
1447.76	492.917
1448.31	501.917
1448.87	497.917
1449.43	498.917
1449.98	501.917
1450.54	498.917
1451.09	496.917
1451.65	504.917
1452.2	499.917
1452.76	491.917
1453.31	502.917
1453.87	499.917
1454.42	494.917
1454.98	502.917
1455.53	497.917
1456.09	506.917
1456.64	502.917
1457.2	500.917
1457.75	491.917
1458.31	492.917
1458.86	497.917
1459.42	497.917
1459.97	499.917
1460.52	503.917
1461.08	504.917
1461.63	499.917
1462.19	509.917
1462.74	502.917
1463.3	498.917
1463.85	498.917
1464.4	500.917
1464.96	509.917
1465.51	504.917
1466.07	501.917
1466.62	499.917
1467.17	497.917
1467.73	499.917
1468.28	506.917
1468.83	500.917
1469.39	490.917
1469.94	507.917
1470.5	510.917
1471.05	498.917
1471.6	500.917
1472.16	497.917
1472.71	501.917
1473.26	500.917
1473.82	504.917
1474.37	500.917
1474.92	501.917
1475.47	502.917
1476.03	504.917
1476.58	499.917
1477.13	504.917
1477.69	506.917
1478.24	502.917
1478.79	499.917
1479.34	495.917
1479.9	509.917
1480.45	501.917
1481	500.917
1481.55	509.917
1482.11	502.917
1482.66	506.917
1483.21	499.917
1483.76	502.917
1484.31	501.917
1484.87	498.917
1485.42	511.917
1485.97	504.917
1486.52	506.917
1487.08	505.917
1487.63	510.917
1488.18	508.917
1488.73	504.917
1489.28	504.917
1489.83	512.917
1490.39	506.917
1490.94	507.917
1491.49	500.917
1492.04	509.917
1492.59	507.917
1493.14	506.917
1493.69	497.917
1494.25	506.917
1494.8	503.917
1495.35	502.917
1495.9	502.917
1496.45	509.917
1497	501.917
1497.55	504.917
1498.1	506.917
1498.65	507.917
1499.2	498.917
1499.75	501.917
