19.6939	1012.2
20.3726	992.198
21.049	998.198
21.7253	1007.2
22.4015	1033.2
23.0778	1060.2
23.7539	1086.2
24.4301	1094.2
25.1061	1107.2
25.7822	1154.2
26.4581	1182.2
27.1341	1165.2
27.81	1234.2
28.4858	1265.2
29.1639	1284.2
29.8396	1312.2
30.5153	1325.2
31.191	1363.2
31.8643	1403.2
32.5398	1467.2
33.2154	1533.2
33.8908	1585.2
34.5662	1586.2
35.2416	1649.2
35.9169	1673.2
36.5922	1726.2
37.2674	1740.2
37.9426	1808.2
38.6178	1803.2
39.2928	1853.2
39.9679	1883.2
40.6406	1979.2
41.3155	2016.2
41.9904	2107.2
42.6653	2082.2
43.3401	2142.2
44.0148	2182.2
44.6895	2142.2
45.3619	2241.2
46.0365	2319.2
46.7111	2340.2
47.3856	2353.2
48.0601	2426.2
48.7322	2429.2
49.4066	2499.2
50.081	2468.2
50.7553	2511.2
51.4272	2702.2
52.1014	2712.2
52.7756	2678.2
53.4474	2707.2
54.1214	2765.2
54.7954	2714.2
55.4671	2731.2
56.141	2848.2
56.8149	2820.2
57.4864	2877.2
58.1602	2981.2
58.8339	2888.2
59.5053	2902.2
60.1789	2883.2
60.8525	2937.2
61.5238	2981.2
62.1973	3081.2
62.8684	3062.2
63.5418	3084.2
64.2152	3081.2
64.8862	3126.2
65.5594	3073.2
66.2304	3182.2
66.9035	3185.2
67.5744	3251.2
68.2474	3125.2
68.9182	3208.2
69.5912	3263.2
70.2618	3303.2
70.9347	3163.2
71.6052	3161.2
72.278	3285.2
72.9485	3304.2
73.6212	3264.2
74.2916	3373.2
74.9619	3369.2
75.6344	3308.2
76.3047	3285.2
76.9771	3300.2
77.6473	3201.2
78.3173	3310.2
78.9897	3329.2
79.6597	3326.2
80.3319	3355.2
81.0018	3308.2
81.6717	3407.2
82.3438	3446.2
83.0135	3355.2
83.6832	3244.2
84.3552	3393.2
85.0248	3337.2
85.6944	3411.2
86.3639	3413.2
87.0357	3388.2
87.7051	3462.2
88.3745	3348.2
89.0438	3380.2
89.7154	3371.2
90.3847	3400.2
91.0539	3362.2
91.723	3383.2
92.3944	3401.2
93.0635	3428.2
93.7325	3353.2
94.4015	3342.2
95.0704	3433.2
95.7393	3320.2
96.4104	3329.2
97.0792	3353.2
97.7479	3283.2
98.4166	3271.2
99.0853	3267.2
99.7539	3321.2
100.422	3330.2
101.091	3347.2
101.759	3289.2
102.428	3325.2
103.098	3281.2
103.767	3344.2
104.435	3333.2
105.103	3367.2
105.772	3241.2
106.44	3379.2
107.108	3259.2
107.776	3298.2
108.444	3280.2
109.112	3326.2
109.78	3234.2
110.448	3242.2
111.115	3340.2
111.783	3265.2
112.449	3177.2
113.116	3094.2
113.784	3256.2
114.451	3261.2
115.119	3277.2
115.787	3227.2
116.454	3250.2
117.121	3230.2
117.789	3191.2
118.456	3081.2
119.121	3121.2
119.788	3208.2
120.455	3202.2
121.123	3195.2
121.79	3143.2
122.454	3187.2
123.121	3161.2
123.788	3157.2
124.455	3124.2
125.122	3126.2
125.787	3126.2
126.453	3129.2
127.12	3075.2
127.787	3069.2
128.451	3094.2
129.118	3182.2
129.784	3049.2
130.448	3041.2
131.115	2983.2
131.781	3094.2
132.448	3033.2
133.112	3104.2
133.778	3085.2
134.442	3043.2
135.108	3050.2
135.774	3085.2
136.438	3044.2
137.104	2989.2
137.77	2977.2
138.433	3066.2
139.099	3001.2
139.763	2945.2
140.429	2939.2
141.092	3004.2
141.758	2906.2
142.424	2985.2
143.087	2970.2
143.752	3000.2
144.416	2897.2
145.081	2881.2
145.744	2931.2
146.41	2938.2
147.073	2895.2
147.738	2909.2
148.401	2882.2
149.064	2880.2
149.729	2924.2
150.392	2866.2
151.057	2880.2
151.72	2830.2
152.385	2858.2
153.047	2867.2
153.71	2865.2
154.375	2843.2
155.037	2947.2
155.702	2827.2
156.364	2833.2
157.027	2753.2
157.691	2867.2
158.354	2830.2
159.016	2738.2
159.678	2819.2
160.343	2791.2
161.005	2813.2
161.667	2714.2
162.331	2832.2
162.993	2723.2
163.655	2713.2
164.317	2802.2
164.981	2732.2
165.643	2791.2
166.304	2758.2
166.966	2727.2
167.63	2744.2
168.292	2684.2
168.953	2729.2
169.615	2723.2
170.276	2696.2
170.938	2659.2
171.601	2609.2
172.263	2670.2
172.924	2657.2
173.585	2678.2
174.246	2688.2
174.907	2612.2
175.569	2651.2
176.23	2582.2
176.891	2654.2
177.552	2603.2
178.215	2660.2
178.876	2630.2
179.537	2620.2
180.197	2565.2
180.858	2617.2
181.519	2619.2
182.179	2579.2
182.84	2603.2
183.501	2579.2
184.161	2548.2
184.822	2580.2
185.482	2568.2
186.142	2535.2
186.8	2504.2
187.461	2658.2
188.121	2562.2
188.781	2546.2
189.441	2569.2
190.101	2506.2
190.762	2542.2
191.422	2558.2
192.081	2568.2
192.741	2477.2
193.399	2533.2
194.059	2477.2
194.719	2485.2
195.378	2547.2
196.038	2519.2
196.698	2454.2
197.355	2476.2
198.015	2541.2
198.674	2432.2
199.334	2521.2
199.991	2458.2
200.65	2515.2
201.31	2475.2
201.969	2433.2
202.626	2514.2
203.285	2472.2
203.944	2450.2
204.603	2398.2
205.26	2426.2
205.919	2420.2
206.578	2491.2
207.235	2404.2
207.894	2394.2
208.553	2385.2
209.209	2414.2
209.868	2385.2
210.524	2359.2
211.183	2498.2
211.842	2414.2
212.498	2349.2
213.156	2428.2
213.813	2372.2
214.471	2370.2
215.13	2345.2
215.786	2410.2
216.444	2398.2
217.1	2381.2
217.758	2374.2
218.414	2370.2
219.072	2417.2
219.728	2371.2
220.386	2339.2
221.042	2426.2
221.7	2355.2
222.355	2385.2
223.013	2283.2
223.669	2360.2
224.324	2323.2
224.982	2375.2
225.637	2406.2
226.295	2382.2
226.95	2333.2
227.606	2313.2
228.263	2372.2
228.918	2341.2
229.573	2303.2
230.231	2298.2
230.886	2332.2
231.543	2310.2
232.198	2368.2
232.853	2279.2
233.508	2317.2
234.165	2400.2
234.82	2411.2
235.475	2330.2
236.132	2276.2
236.786	2314.2
237.441	2305.2
238.095	2248.2
238.752	2298.2
239.407	2326.2
240.061	2324.2
240.715	2343.2
241.37	2283.2
242.026	2273.2
242.681	2327.2
243.335	2294.2
243.989	2327.2
244.643	2281.2
245.297	2279.2
245.951	2252.2
246.607	2321.2
247.261	2268.2
247.915	2290.2
248.569	2256.2
249.223	2387.2
249.877	2274.2
250.53	2268.2
251.184	2297.2
251.838	2279.2
252.491	2286.2
253.145	2273.2
253.798	2310.2
254.452	2247.2
255.105	2305.2
255.759	2322.2
256.412	2323.2
257.065	2283.2
257.719	2234.2
258.372	2337.2
259.025	2300.2
259.678	2317.2
260.331	2285.2
260.984	2281.2
261.637	2248.2
262.29	2257.2
262.943	2255.2
263.596	2265.2
264.246	2305.2
264.899	2270.2
265.552	2261.2
266.204	2304.2
266.857	2280.2
267.509	2260.2
268.16	2281.2
268.812	2263.2
269.465	2230.2
270.117	2245.2
270.769	2212.2
271.419	2205.2
272.072	2271.2
272.724	2283.2
273.376	2270.2
274.026	2187.2
274.678	2317.2
275.33	2179.2
275.982	2253.2
276.632	2201.2
277.284	2264.2
277.935	2184.2
278.585	2239.2
279.237	2303.2
279.889	2246.2
280.538	2241.2
281.19	2279.2
281.841	2248.2
282.491	2219.2
283.142	2258.2
283.791	2286.2
284.443	2173.2
285.094	2272.2
285.743	2273.2
286.394	2220.2
287.043	2257.2
287.695	2247.2
288.343	2203.2
288.995	2161.2
289.643	2235.2
290.294	2233.2
290.943	2224.2
291.594	2235.2
292.243	2195.2
292.894	2179.2
293.542	2238.2
294.193	2212.2
294.841	2207.2
295.492	2233.2
296.14	2246.2
296.789	2183.2
297.439	2186.2
298.088	2205.2
298.738	2239.2
299.386	2158.2
300.034	2276.2
300.685	2297.2
301.333	2200.2
301.981	2224.2
302.631	2154.2
303.279	2271.2
303.927	2179.2
304.577	2238.2
305.224	2192.2
305.872	2234.2
306.522	2247.2
307.17	2195.2
307.817	2241.2
308.465	2166.2
309.114	2302.2
309.762	2243.2
310.409	2203.2
311.057	2238.2
311.704	2204.2
312.354	2200.2
313.001	2191.2
313.648	2255.2
314.295	2243.2
314.942	2231.2
315.592	2172.2
316.239	2205.2
316.886	2226.2
317.532	2163.2
318.179	2237.2
318.826	2179.2
319.473	2209.2
320.12	2287.2
320.766	2244.2
321.413	2202.2
322.06	2253.2
322.709	2244.2
323.355	2230.2
324.002	2258.2
324.648	2238.2
325.294	2225.2
325.941	2240.2
326.587	2235.2
327.233	2237.2
327.88	2259.2
328.526	2223.2
329.17	2189.2
329.816	2239.2
330.462	2229.2
331.108	2213.2
331.754	2191.2
332.4	2198.2
333.046	2247.2
333.692	2179.2
334.337	2186.2
334.983	2261.2
335.629	2279.2
336.272	2238.2
336.918	2285.2
337.564	2269.2
338.209	2192.2
338.855	2220.2
339.498	2233.2
340.143	2237.2
340.789	2234.2
341.434	2270.2
342.079	2272.2
342.722	2241.2
343.367	2222.2
344.012	2274.2
344.658	2243.2
345.3	2276.2
345.945	2286.2
346.59	2282.2
347.233	2221.2
347.878	2241.2
348.523	2296.2
349.165	2254.2
349.81	2268.2
350.455	2156.2
351.097	2273.2
351.742	2269.2
352.386	2273.2
353.029	2244.2
353.673	2279.2
354.315	2279.2
354.96	2282.2
355.604	2279.2
356.246	2285.2
356.891	2267.2
357.533	2260.2
358.177	2287.2
358.819	2248.2
359.463	2269.2
360.105	2261.2
360.749	2271.2
361.39	2315.2
362.034	2295.2
362.676	2292.2
363.32	2243.2
363.961	2205.2
364.605	2300.2
365.247	2278.2
365.888	2311.2
366.532	2274.2
367.173	2296.2
367.817	2291.2
368.458	2270.2
369.099	2268.2
369.742	2255.2
370.384	2301.2
371.025	2252.2
371.668	2354.2
372.309	2317.2
372.95	2260.2
373.593	2250.2
374.234	2263.2
374.875	2325.2
375.518	2255.2
376.159	2301.2
376.799	2317.2
377.44	2330.2
378.083	2306.2
378.723	2293.2
379.364	2341.2
380.004	2336.2
380.647	2347.2
381.288	2313.2
381.928	2323.2
382.568	2315.2
383.209	2254.2
383.849	2261.2
384.491	2310.2
385.131	2267.2
385.771	2305.2
386.411	2269.2
387.052	2336.2
387.692	2332.2
388.331	2349.2
388.971	2339.2
389.611	2297.2
390.253	2275.2
390.893	2282.2
391.533	2370.2
392.172	2266.2
392.812	2333.2
393.452	2289.2
394.091	2288.2
394.731	2341.2
395.37	2334.2
396.01	2302.2
396.649	2258.2
397.288	2269.2
397.928	2299.2
398.567	2326.2
399.204	2297.2
399.843	2323.2
400.482	2265.2
401.121	2251.2
401.76	2343.2
402.399	2281.2
403.038	2340.2
403.677	2318.2
404.316	2363.2
404.953	2262.2
405.591	2315.2
406.23	2308.2
406.869	2329.2
407.507	2299.2
408.146	2279.2
408.782	2333.2
409.421	2305.2
410.059	2277.2
410.698	2331.2
411.334	2373.2
411.972	2313.2
412.611	2398.2
413.249	2315.2
413.885	2329.2
414.523	2310.2
415.161	2339.2
415.797	2363.2
416.435	2360.2
417.073	2379.2
417.709	2330.2
418.347	2318.2
418.985	2374.2
419.62	2393.2
420.258	2323.2
420.896	2368.2
421.531	2306.2
422.169	2397.2
422.804	2406.2
423.442	2322.2
424.077	2340.2
424.715	2401.2
425.352	2362.2
425.987	2399.2
426.625	2364.2
427.26	2350.2
427.897	2293.2
428.532	2393.2
429.169	2331.2
429.804	2390.2
430.442	2361.2
431.076	2404.2
431.711	2407.2
432.348	2389.2
432.983	2378.2
433.62	2435.2
434.254	2379.2
434.891	2422.2
435.526	2429.2
436.16	2398.2
436.797	2387.2
437.431	2406.2
438.066	2481.2
438.702	2438.2
439.337	2481.2
439.971	2503.2
440.607	2454.2
441.242	2385.2
441.876	2400.2
442.512	2475.2
443.146	2427.2
443.78	2438.2
444.414	2468.2
445.05	2483.2
445.684	2460.2
446.318	2468.2
446.952	2473.2
447.588	2499.2
448.221	2507.2
448.855	2521.2
449.489	2510.2
450.122	2562.2
450.758	2489.2
451.392	2489.2
452.025	2537.2
452.659	2539.2
453.292	2511.2
453.925	2540.2
454.559	2551.2
455.192	2518.2
455.827	2550.2
456.46	2528.2
457.093	2524.2
457.727	2544.2
458.36	2580.2
458.993	2540.2
459.626	2563.2
460.258	2483.2
460.891	2525.2
461.524	2574.2
462.157	2560.2
462.79	2619.2
463.422	2590.2
464.055	2600.2
464.688	2644.2
465.32	2587.2
465.953	2638.2
466.585	2654.2
467.216	2612.2
467.848	2672.2
468.48	2709.2
469.113	2612.2
469.745	2665.2
470.377	2584.2
471.009	2652.2
471.642	2569.2
472.271	2680.2
472.904	2678.2
473.536	2657.2
474.168	2697.2
474.799	2741.2
475.429	2701.2
476.061	2721.2
476.693	2758.2
477.325	2766.2
477.956	2814.2
478.586	2746.2
479.218	2742.2
479.849	2798.2
480.479	2795.2
481.11	2806.2
481.742	2791.2
482.373	2808.2
483.002	2818.2
483.634	2817.2
484.265	2858.2
484.894	2822.2
485.525	2877.2
486.154	2882.2
486.785	2877.2
487.416	2857.2
488.045	2897.2
488.676	2913.2
489.305	2889.2
489.936	2981.2
490.567	2929.2
491.196	3012.2
491.826	3016.2
492.455	2951.2
493.086	3122.2
493.714	2992.2
494.345	2993.2
494.973	3030.2
495.604	3039.2
496.232	3100.2
496.863	3037.2
497.491	3026.2
498.121	3104.2
498.749	3111.2
499.378	3065.2
500.008	3051.2
500.636	3128.2
501.266	3117.2
501.894	3125.2
502.522	3118.2
503.152	3122.2
503.78	3185.2
504.408	3185.2
505.037	3151.2
505.665	3100.2
506.293	3157.2
506.923	3222.2
507.55	3204.2
508.178	3230.2
508.807	3213.2
509.435	3200.2
510.062	3227.2
510.69	3260.2
511.319	3227.2
511.946	3294.2
512.574	3235.2
513.201	3217.2
513.828	3332.2
514.457	3312.2
515.084	3334.2
515.711	3266.2
516.338	3318.2
516.965	3247.2
517.592	3296.2
518.221	3357.2
518.848	3349.2
519.475	3319.2
520.102	3351.2
520.728	3376.2
521.355	3513.2
521.982	3462.2
522.608	3454.2
523.235	3447.2
523.861	3483.2
524.488	3495.2
525.114	3450.2
525.741	3515.2
526.367	3487.2
526.993	3476.2
527.619	3495.2
528.246	3483.2
528.872	3521.2
529.498	3622.2
530.124	3568.2
530.75	3600.2
531.376	3582.2
532.002	3704.2
532.628	3772.2
533.254	3822.2
533.88	3676.2
534.505	3644.2
535.131	3768.2
535.755	3689.2
536.38	3650.2
537.006	3731.2
537.632	3630.2
538.257	3713.2
538.883	3781.2
539.506	3823.2
540.131	3722.2
540.757	3722.2
541.382	3757.2
542.005	3771.2
542.63	3909.2
543.256	3828.2
543.881	3847.2
544.504	3909.2
545.129	3900.2
545.754	3981.2
546.379	3935.2
547.002	3977.2
547.627	4089.2
548.251	4001.2
548.874	4101.2
549.499	3980.2
550.121	4012.2
550.746	4068.2
551.371	4134.2
551.993	4057.2
552.618	4225.2
553.242	4047.2
553.865	4251.2
554.489	4182.2
555.112	4200.2
555.736	4150.2
556.358	4137.2
556.982	4263.2
557.604	4253.2
558.229	4341.2
558.851	4297.2
559.475	4300.2
560.097	4236.2
560.721	4345.2
561.343	4373.2
561.967	4256.2
562.588	4240.2
563.212	4348.2
563.834	4370.2
564.456	4263.2
565.079	4256.2
565.701	4352.2
566.325	4298.2
566.946	4326.2
567.568	4406.2
568.191	4343.2
568.812	4311.2
569.434	4249.2
570.057	4306.2
570.678	4268.2
571.3	4230.2
571.923	4186.2
572.544	4231.2
573.165	4197.2
573.786	4137.2
574.409	4249.2
575.03	4174.2
575.651	4110.2
576.272	4172.2
576.895	4099.2
577.516	4043.2
578.136	3893.2
578.757	3964.2
579.378	3962.2
580	4034.2
580.621	3930.2
581.242	3861.2
581.862	3761.2
582.483	3703.2
583.103	3823.2
583.723	3745.2
584.344	3695.2
584.964	3606.2
585.586	3641.2
586.207	3495.2
586.827	3594.2
587.447	3518.2
588.067	3431.2
588.687	3441.2
589.307	3372.2
589.927	3310.2
590.547	3306.2
591.167	3241.2
591.787	3299.2
592.406	3201.2
593.026	3094.2
593.646	3064.2
594.265	3036.2
594.885	2993.2
595.503	2983.2
596.122	2974.2
596.742	2923.2
597.361	2869.2
597.98	2865.2
598.6	2814.2
599.219	2739.2
599.839	2771.2
600.456	2748.2
601.075	2652.2
601.694	2619.2
602.313	2600.2
602.932	2582.2
603.551	2542.2
604.168	2535.2
604.787	2485.2
605.406	2497.2
606.025	2477.2
606.642	2409.2
607.261	2430.2
607.879	2387.2
608.496	2289.27
609.115	2331.36
609.733	2259.15
610.352	2314.07
610.968	2264.36
611.587	2239.07
612.205	2253.62
612.822	2264.04
613.44	2150.3
614.056	2211.54
614.675	2196.69
615.293	2143.74
615.909	2155.58
616.527	2135.05
617.143	2109.5
617.761	2088.05
618.379	2086.17
618.995	2103.5
619.613	2036.75
620.229	2058.41
620.847	2003.86
621.463	1988.65
622.081	2011.17
622.696	1993.38
623.314	1984.7
623.93	1969.24
624.545	1963.84
625.163	1950.98
625.778	1991.4
626.396	1946.01
627.011	1974.19
627.629	1953.19
628.244	1930.47
628.859	1932.6
629.476	1913.38
630.092	1904.59
630.707	1940.11
631.324	1894.41
631.939	1860.56
632.554	1873.93
633.171	1862.46
633.786	1876.99
634.401	1856.27
635.018	1839.76
635.633	1836.42
636.247	1844.71
636.862	1836.11
637.479	1822.94
638.094	1831.31
638.708	1830.91
639.323	1791.48
639.939	1821.49
640.554	1812.78
641.168	1815.67
641.783	1789.3
642.397	1789.88
643.011	1779.42
643.628	1756.79
644.242	1796.55
644.856	1763.43
645.47	1729.58
646.085	1748.18
646.699	1781.05
647.313	1721.59
647.927	1714.48
648.541	1733.6
649.154	1695.02
649.771	1714.18
650.384	1727.58
650.998	1715.07
651.612	1722.88
652.226	1721.72
652.839	1698.13
653.453	1675.66
654.067	1685.14
654.68	1669.8
655.093	1680.8
655.715	1650.8
656.34	1655.8
656.964	1706.8
657.586	1652.8
658.21	1653.8
658.834	1620.8
659.456	1616.8
660.08	1633.8
660.704	1615.8
661.325	1658.8
661.949	1606.8
662.571	1631.8
663.195	1564.8
663.818	1617.8
664.44	1575.8
665.063	1595.8
665.685	1579.8
666.308	1618.8
666.93	1596.8
667.553	1590.8
668.174	1567.8
668.798	1567.8
669.419	1588.8
670.042	1561.8
670.664	1566.8
671.287	1551.8
671.908	1514.8
672.531	1495.8
673.152	1535.8
673.775	1551.8
674.396	1541.8
675.017	1509.8
675.639	1481.8
676.26	1526.8
676.883	1485.8
677.504	1516.8
678.124	1465.8
678.747	1517.8
679.368	1459.8
679.988	1455.8
680.611	1410.8
681.231	1445.8
681.851	1454.8
682.474	1466.8
683.094	1431.8
683.714	1420.8
684.337	1442.8
684.957	1407.8
685.577	1434.8
686.197	1409.8
686.819	1420.8
687.439	1412.8
688.059	1415.8
688.679	1380.8
689.301	1388.8
689.921	1404.8
690.541	1388.8
691.161	1403.8
691.78	1360.8
692.4	1383.8
693.022	1351.8
693.641	1366.8
694.261	1358.8
694.88	1351.8
695.5	1343.8
696.119	1343.8
696.739	1326.8
697.36	1295.8
697.979	1329.8
698.599	1318.8
699.218	1324.8
699.837	1293.8
700.456	1289.8
701.075	1329.8
701.694	1277.8
702.313	1291.8
702.932	1272.8
703.551	1276.8
704.17	1284.8
704.789	1275.8
705.408	1251.8
706.026	1263.8
706.645	1268.8
707.264	1222.8
707.883	1247.8
708.501	1236.8
709.12	1211.8
709.738	1220.8
710.355	1222.8
710.973	1201.8
711.591	1215.8
712.21	1194.8
712.828	1176.8
713.446	1174.8
714.065	1178.8
714.681	1178.8
715.299	1181.8
715.917	1178.8
716.535	1150.8
717.153	1167.8
717.771	1143.8
718.387	1117.8
719.005	1131.8
719.623	1126.8
720.24	1112.8
720.856	1100.8
721.474	1122.8
722.091	1108.8
722.709	1096.8
723.325	1097.8
723.942	1077.8
724.56	1077.8
725.175	1067.8
725.793	1073.8
726.41	1056.8
727.025	1056.8
727.643	1053.8
728.26	1067.8
728.875	1046.8
729.492	1061.8
730.109	1041.8
730.724	1037.8
731.341	1039.8
731.956	1005.8
732.573	1004.8
733.19	996.802
733.805	969.802
734.422	985.802
735.037	964.802
735.654	966.802
736.268	987.802
736.885	956.802
737.5	956.802
738.116	960.802
738.731	946.802
739.347	929.802
739.962	916.802
740.578	919.802
741.192	931.802
741.809	903.802
742.423	880.802
743.037	904.802
743.654	894.802
744.268	888.802
744.884	878.802
745.498	860.802
746.112	862.802
746.728	857.802
747.342	844.802
747.956	834.802
748.572	822.802
749.185	820.802
749.799	850.802
750.415	825.802
751.029	816.802
751.642	807.802
752.258	806.802
752.872	789.802
753.485	759.802
754.101	796.802
754.714	772.802
755.328	780.802
755.941	764.802
756.554	757.802
757.17	742.802
757.783	728.802
758.396	732.802
759.009	745.802
759.622	715.802
760.237	703.802
760.85	690.802
761.463	702.802
762.076	689.802
762.689	668.802
763.302	670.802
763.915	671.802
764.53	658.802
765.143	650.802
765.755	634.802
766.368	641.802
766.981	628.802
767.593	620.802
768.206	600.802
768.818	606.802
769.431	606.802
770.043	594.802
770.655	586.802
771.268	572.802
771.88	576.802
772.492	562.802
773.104	566.802
773.717	558.802
774.329	546.802
774.941	546.802
775.553	545.802
776.165	537.802
776.777	533.802
777.389	525.802
777.999	518.802
778.61	513.802
779.222	508.802
779.834	495.802
780.446	511.802
781.057	476.802
781.669	508.802
782.281	482.802
782.89	483.802
783.502	477.802
784.113	463.802
784.725	457.802
785.336	461.802
785.945	453.802
786.557	460.802
787.168	450.802
787.779	444.802
788.388	444.802
789	448.802
789.611	444.802
790.222	432.802
790.831	439.802
791.442	430.802
792.053	436.802
792.661	432.802
793.272	425.802
793.883	422.802
794.492	434.802
795.103	421.802
795.713	412.802
796.322	423.802
796.933	419.802
797.543	408.802
798.152	409.802
798.762	416.802
799.371	402.802
799.981	398.802
800.589	402.802
801.2	416.802
801.808	425.802
802.418	416.802
803.029	409.802
803.637	406.802
804.247	421.802
804.855	412.802
805.465	419.802
806.073	432.802
806.683	434.802
807.291	436.802
807.898	435.802
808.508	434.802
809.116	437.802
809.726	428.802
810.334	441.802
810.943	453.802
811.551	437.802
812.159	447.802
812.768	460.802
813.376	454.802
813.983	473.802
814.592	473.802
815.2	471.802
815.807	493.802
816.417	488.802
817.024	488.802
817.631	496.802
818.24	508.802
818.847	510.802
819.454	527.802
820.061	527.802
820.67	539.802
821.277	550.802
821.884	551.802
822.491	561.802
823.1	560.802
823.707	583.802
824.314	584.802
824.92	582.802
825.527	599.802
826.136	606.802
826.742	616.802
827.349	627.802
827.955	647.802
828.562	657.802
829.168	674.802
829.775	668.802
830.383	688.802
830.989	728.802
831.596	722.802
832.202	741.802
832.808	747.802
833.414	778.802
834.02	772.802
834.627	780.802
835.233	814.802
835.839	818.802
836.445	832.802
837.05	870.802
837.656	876.802
838.262	881.802
838.868	904.802
839.474	940.802
840.079	933.802
840.685	983.802
841.291	997.802
841.896	1003.8
842.502	1027.8
843.107	1063.8
843.711	1096.8
844.316	1067.8
844.922	1110.8
845.527	1146.8
846.132	1163.8
846.738	1175.8
847.343	1201.8
847.948	1243.8
848.551	1272.8
849.156	1291.8
849.761	1289.8
850.366	1376.8
850.971	1379.8
851.574	1457.8
852.179	1448.8
852.784	1472.8
853.389	1513.8
853.992	1538.8
854.596	1607.8
855.201	1581.8
855.806	1648.8
856.408	1657.8
857.013	1716.8
857.618	1698.8
858.22	1775.8
858.825	1818.8
859.429	1830.8
860.031	1918.8
860.636	1928.8
861.24	2008.8
861.842	2036.8
862.446	2079.8
863.049	2136.8
863.653	2096.8
864.257	2137.8
864.859	2183.8
865.463	2261.8
866.065	2278.8
866.669	2343.8
867.271	2390.8
867.875	2386.8
868.476	2495.8
869.08	2531.8
869.682	2527.8
870.286	2602.8
870.887	2649.8
871.491	2746.8
872.092	2764.8
872.696	2849.8
873.298	2861.8
873.901	2878.8
874.502	2910.8
875.104	2950.8
875.707	3037.8
876.308	3068.8
876.912	3120.8
877.513	3190.8
878.114	3317.8
878.717	3299.8
879.318	3394.8
879.919	3300.8
880.522	3436.8
881.123	3370.8
881.724	3538.8
882.327	3542.8
882.928	3596.8
883.529	3626.8
884.13	3644.8
884.732	3795.8
885.333	3805.8
885.934	3744.8
886.534	3872.8
887.137	3848.8
887.738	3938.8
888.338	4124.8
888.938	4096.8
889.539	4125.8
890.141	4218.8
890.742	4315.8
891.342	4454.8
891.942	4391.8
892.542	4360.8
893.143	4478.8
893.743	4577.8
894.345	4513.8
894.945	4647.8
895.545	4638.8
896.145	4799.8
896.745	4796.8
897.345	4845.8
897.945	4971.8
898.544	4850.8
899.144	4959.8
899.744	5018.8
900.344	5065.8
900.943	5081.8
901.543	5166.8
902.143	5245.8
902.742	5300.8
903.342	5435.8
903.941	5495.8
904.54	5431.8
905.14	5484.8
905.739	5536.8
906.339	5472.8
906.938	5535.8
907.537	5572.8
908.134	5501.8
908.733	5573.8
909.332	5684.8
909.932	5668.8
910.531	5697.8
911.13	5854.8
911.729	5938.8
912.325	5744.8
912.924	5913.8
913.523	5820.8
914.122	6067.8
914.721	5838.8
915.317	5793.8
915.916	6019.8
916.515	5865.8
917.113	5963.8
917.71	5823.8
918.308	6008.8
918.907	5833.8
919.505	5964.8
920.102	6027.8
920.7	5971.8
921.298	6142.8
921.895	5876.8
922.493	6121.8
923.091	6087.8
923.687	6065.8
924.285	6127.8
924.883	6086.8
925.479	6111.8
926.077	6022.8
926.673	6066.8
927.271	6132.8
927.869	6083.8
928.465	6130.8
929.063	5929.8
929.659	6069.8
930.256	6016.8
930.852	5977.8
931.45	5976.8
932.045	5983.8
932.643	6030.8
933.238	6074.8
933.836	6110.8
934.431	5961.8
935.029	5977.8
935.624	5779.8
936.221	5910.8
936.817	5875.8
937.412	6037.8
938.009	5985.8
938.604	5959.8
939.202	5918.8
939.797	5931.8
940.392	5847.8
940.989	5885.8
941.584	5725.8
942.181	5868.8
942.776	5735.8
943.37	5882.8
943.967	5769.8
944.562	5730.8
945.157	5755.8
945.751	5807.8
946.348	5756.8
946.943	5830.8
947.537	5831.8
948.132	5740.8
948.728	5720.8
949.323	5790.8
949.917	5600.8
950.512	5655.8
951.108	5658.8
951.702	5439.8
952.297	5502.8
952.891	5480.8
953.485	5329.8
954.079	5468.8
954.675	5630.8
955.269	5164.8
955.863	5323.8
956.457	5316.8
957.051	5292.8
957.645	5199.8
958.239	5121.8
958.833	5224.8
959.427	5222.8
960.021	5142.8
960.616	5111.8
961.21	5160.8
961.804	5059.8
962.397	5060.8
962.991	5110.8
963.584	5017.8
964.178	4960.8
964.771	4853.8
965.365	4904.8
965.958	5020.8
966.549	5099.8
967.143	4891.8
967.736	4849.8
968.329	4829.8
968.922	4781.8
969.516	4764.8
970.109	4692.8
970.702	4712.8
971.295	4628.8
971.888	4684.8
972.479	4566.8
973.072	4558.8
973.665	4527.8
974.257	4592.8
974.85	4493.8
975.443	4429.8
976.034	4464.8
976.626	4336.8
977.219	4319.8
977.812	4399.8
978.404	4341.8
978.995	4210.8
979.587	4238.8
980.18	4237.8
980.77	4146.8
981.362	4195.8
981.955	4100.8
982.547	3959.8
983.137	4073.8
983.729	4203.8
984.322	3956.8
984.912	3868.8
985.504	3950.8
986.094	3900.8
986.686	3960.8
987.278	3866.8
987.868	3870.8
988.46	3678.8
989.052	3746.8
989.641	3830.8
990.233	3661.8
990.823	3665.8
991.415	3642.8
992.004	3646.8
992.596	3635.8
993.186	3593.8
993.777	3584.8
994.367	3511.8
994.958	3430.8
995.548	3532.8
996.139	3502.8
996.728	3486.8
997.32	3347.8
997.909	3335.8
998.5	3287.8
999.09	3344.8
999.679	3276.8
1000.27	3274.8
1000.86	3209.8
1001.45	3166.8
1002.04	3147.8
1002.63	3134.8
1003.22	3147.8
1003.81	3093.8
1004.4	3102.8
1004.99	2994.8
1005.58	2927.8
1006.17	2995.8
1006.76	2975.8
1007.34	2913.8
1007.93	2923.8
1008.52	2914.8
1009.11	2902.8
1009.7	2869.8
1010.29	2801.8
1010.88	2844.8
1011.47	2821.8
1012.06	2756.8
1012.64	2675.8
1013.23	2743.8
1013.82	2630.8
1014.41	2654.8
1015	2635.8
1015.59	2566.8
1016.18	2529.8
1016.76	2487.8
1017.35	2547.8
1017.94	2505.8
1018.53	2531.8
1019.12	2450.8
1019.71	2442.8
1020.29	2345.8
1020.88	2397.8
1021.47	2361.8
1022.06	2330.8
1022.64	2332.8
1023.23	2321.8
1023.82	2261.8
1024.41	2231.8
1024.99	2243.8
1025.58	2227.8
1026.17	2221.8
1026.76	2180.8
1027.34	2146.8
1027.93	2115.8
1028.52	2122.8
1029.1	2049.8
1029.69	2028.8
1030.28	2036.8
1030.87	2026.8
1031.45	1994.8
1032.04	1983.8
1032.63	1946.8
1033.21	1933.8
1033.8	1914.8
1034.39	1921.8
1034.97	1911.8
1035.56	1871.8
1036.15	1844.8
1036.73	1824.8
1037.32	1854.8
1037.9	1806.8
1038.49	1790.8
1039.08	1773.8
1039.66	1738.8
1040.25	1759.8
1040.84	1703.8
1041.42	1692.8
1042.01	1703.8
1042.59	1655.8
1043.18	1626.8
1043.76	1636.8
1044.35	1632.8
1044.94	1610.8
1045.52	1585.8
1046.11	1577.8
1046.69	1578.8
1047.28	1526.8
1047.86	1503.8
1048.45	1540.8
1049.03	1487.8
1049.62	1475.8
1050.2	1467.8
1050.79	1464.8
1051.37	1450.8
1051.96	1386.8
1052.54	1436.8
1053.13	1404.8
1053.71	1359.8
1054.3	1360.8
1054.88	1342.8
1055.47	1329.8
1056.05	1335.8
1056.63	1298.8
1057.22	1284.8
1057.8	1294.8
1058.39	1279.8
1058.97	1251.8
1059.56	1265.8
1060.14	1224.8
1060.72	1218.8
1061.31	1200.8
1061.89	1196.8
1062.48	1178.8
1063.06	1172.8
1063.64	1153.8
1064.23	1138.8
1064.81	1128.8
1065.39	1117.8
1065.98	1105.8
1066.56	1080.8
1067.14	1063.8
1067.73	1051.8
1068.31	1079.8
1068.89	1062.8
1069.48	1000.8
1070.06	1020.8
1070.64	1012.8
1071.23	989.802
1071.81	979.802
1072.39	975.802
1072.97	983.802
1073.56	934.802
1074.14	948.802
1074.72	919.802
1075.3	933.802
1075.89	897.802
1076.47	893.802
1077.05	880.802
1077.63	867.802
1078.22	879.802
1078.8	874.802
1079.38	852.802
1079.96	825.802
1080.54	839.802
1081.13	806.802
1081.71	818.802
1082.29	783.802
1082.87	786.802
1083.45	790.802
1084.04	770.802
1084.62	756.802
1085.2	751.802
1085.78	740.802
1086.36	739.802
1086.94	724.802
1087.52	714.802
1088.11	695.802
1088.69	691.802
1089.27	676.802
1089.85	677.802
1090.43	658.802
1091.01	660.802
1091.59	657.802
1092.17	638.802
1092.75	626.802
1093.34	624.802
1093.92	614.802
1094.5	620.802
1095.08	620.802
1095.66	588.802
1096.24	568.802
1096.82	584.802
1097.4	558.802
1097.98	556.802
1098.56	554.802
1099.14	545.802
1099.72	540.802
1100.3	536.802
1100.88	521.802
1101.46	513.802
1102.04	503.802
1102.62	497.802
1103.2	493.802
1103.78	489.802
1104.36	463.802
1104.94	470.802
1105.52	458.802
1106.1	463.802
1106.68	440.802
1107.26	448.802
1107.84	436.802
1108.42	437.802
1109	425.802
1109.57	417.802
1110.15	427.802
1110.73	410.802
1111.31	409.802
1111.89	404.802
1112.47	391.802
1113.05	399.802
1113.63	395.802
1114.2	379.802
1114.78	368.802
1115.36	379.802
1115.94	375.802
1116.52	364.802
1117.1	353.802
1117.68	359.802
1118.25	356.802
1118.83	348.176
1119.41	346.378
1119.99	342.444
1120.57	339.903
1121.15	337.471
1121.72	328.851
1122.3	330.379
1122.88	316.73
1123.46	326.206
1124.04	316.969
1124.61	310.2
1125.19	305.145
1125.77	306.867
1126.35	301.955
1126.92	301.466
1127.5	299.194
1128.08	290.843
1128.66	288.228
1129.23	283.436
1129.81	290.821
1130.39	287.452
1130.96	285.46
1131.54	274.594
1132.12	269.253
1132.69	275.29
1133.27	276.15
1133.85	265.558
1134.43	263.109
1135	259.888
1135.58	260.159
1136.15	264.75
1136.73	256.952
1137.31	259.183
1137.88	252.746
1138.46	250.085
1139.04	246.802
1139.61	244.507
1140.19	246.201
1140.77	246.666
1141.34	242.154
1141.92	237.385
1142.49	239.542
1143.07	238.99
1143.64	239.878
1144.22	236.795
1144.8	234.443
1145.37	235.199
1145.95	229.173
1146.52	227.319
1147.1	234.064
1147.67	225.26
1148.25	220.548
1148.83	225.477
1149.4	225.525
1149.97	224.888
1150.55	223.494
1151.13	219.708
1151.7	221.324
1152.28	220.258
1152.85	216.903
1153.42	215.452
1154	215.92
1154.58	212.665
1155.15	210.244
1155.72	210.69
1156.3	209.472
1156.87	208.02
1157.45	206.562
1158.02	207.093
1158.6	208.613
1159.17	205.718
1159.74	202.252
1160.32	199.931
1160.89	197.517
1161.47	199.039
1162.04	198.941
1162.62	199.175
1163.19	202.472
1163.76	196.363
1164.34	198.817
1164.91	193.633
1165.48	192.01
1166.06	192.684
1166.63	192.366
1167.2	188.657
1167.78	189.677
1168.35	187.582
1168.93	188.51
1169.5	187.921
1170.07	188.32
1170.64	182.674
1171.22	184.177
1171.79	184.979
1172.36	183.338
1172.94	179.766
1173.51	181.663
1174.08	181.171
1174.66	179.348
1175.23	179.905
1175.8	181.804
1176.37	180.724
1176.95	184.243
1177.52	181.845
1178.09	180.628
1178.66	179.079
1179.24	179.995
1179.81	177.144
1180.38	181.457
1180.95	174.66
1181.52	173.548
1182.1	170.279
1182.67	172.413
1183.24	172.641
1183.81	171.803
1184.38	177.914
1184.95	171.496
1185.53	172.753
1186.1	173.353
1186.67	170.265
1187.24	171.485
1187.81	168.116
1188.39	170.175
1188.96	167.332
1189.53	172.443
1190.1	164.799
1190.67	170.527
1191.24	165.421
1191.81	172.492
1192.38	171.552
1192.95	164.788
1193.53	168.425
1194.1	165.125
1194.67	160.293
1195.24	172.478
1195.81	166.103
1196.38	163.551
1196.95	155.919
1197.52	162.602
1198.09	161.415
1198.66	162.069
1199.23	163.734
1199.8	155.217
1200.37	163.459
1200.94	161.433
1201.51	161.801
1202.08	162.204
1202.65	161.469
1203.22	159.031
1203.79	159.548
1204.36	161.642
1204.93	158.73
1205.5	158.492
1206.07	156.66
1206.64	158.674
1207.21	158.208
1207.78	159.427
1208.35	145.498
1208.92	154.369
1209.49	150.377
1210.06	144.951
1210.63	141.011
1211.19	145.824
1211.76	144.718
1212.33	144.646
1212.9	146.026
1213.47	150.565
1214.04	148.436
1214.61	149.987
1215.18	143.041
1215.75	146.398
1216.31	151.92
1216.88	147.694
1217.45	147.308
1218.02	152.887
1218.59	151.587
1219.16	155.218
1219.69	147.218
1220.27	153.218
1220.85	156.218
1221.42	149.218
1222	146.218
1222.58	146.218
1223.16	153.218
1223.73	146.218
1224.31	152.218
1224.89	152.218
1225.47	151.218
1226.04	156.218
1226.62	153.218
1227.2	151.218
1227.77	149.218
1228.35	149.218
1228.93	149.218
1229.5	152.218
1230.08	148.218
1230.65	145.218
1231.23	152.218
1231.81	150.218
1232.38	150.218
1232.96	153.218
1233.54	150.218
1234.11	141.218
1234.69	152.218
1235.27	148.218
1235.84	145.218
1236.42	146.218
1236.99	148.218
1237.57	149.218
1238.15	141.218
1238.72	152.218
1239.3	147.218
1239.87	153.218
1240.45	150.218
1241.02	146.218
1241.6	150.218
1242.18	147.218
1242.75	147.218
1243.32	145.218
1243.9	144.218
1244.48	145.218
1245.05	148.218
1245.63	148.218
1246.2	152.218
1246.78	147.218
1247.35	150.218
1247.93	151.218
1248.5	142.218
1249.08	146.218
1249.65	145.218
1250.23	139.218
1250.8	148.218
1251.37	148.218
1251.95	140.218
1252.52	147.218
1253.1	141.218
1253.67	144.218
1254.25	142.218
1254.82	141.218
1255.4	144.218
1255.97	145.218
1256.54	148.218
1257.12	145.218
1257.69	149.218
1258.27	149.218
1258.84	148.218
1259.41	141.218
1259.99	148.218
1260.56	144.218
1261.13	146.218
1261.71	143.218
1262.28	150.218
1262.85	150.218
1263.43	141.218
1264	145.218
1264.57	145.218
1265.15	147.218
1265.72	147.218
1266.29	142.218
1266.87	149.218
1267.44	148.218
1268.01	150.218
1268.59	142.218
1269.16	144.218
1269.73	148.218
1270.3	145.218
1270.88	150.218
1271.45	140.218
1272.02	149.218
1272.59	144.218
1273.17	145.218
1273.74	146.218
1274.31	144.218
1274.88	144.218
1275.46	145.218
1276.03	147.218
1276.6	150.218
1277.17	141.218
1277.75	149.218
1278.32	149.218
1278.89	150.218
1279.46	140.218
1280.03	148.218
1280.6	148.218
1281.18	148.218
1281.75	142.218
1282.32	145.218
1282.89	140.218
1283.46	149.218
1284.03	141.218
1284.6	143.218
1285.18	146.218
1285.75	142.218
1286.32	147.218
1286.89	143.218
1287.46	145.218
1288.03	142.218
1288.6	141.218
1289.17	148.218
1289.74	146.218
1290.32	148.218
1290.89	146.218
1291.46	145.218
1292.03	144.218
1292.6	146.218
1293.17	147.218
1293.74	144.218
1294.31	147.218
1294.88	141.218
1295.45	143.218
1296.02	142.218
1296.59	143.218
1297.16	140.218
1297.73	149.218
1298.3	143.218
1298.87	146.218
1299.44	146.218
1300.01	146.218
1300.58	150.218
1301.15	148.218
1301.72	143.218
1302.29	145.218
1302.86	142.218
1303.43	144.218
1304	151.218
1304.57	148.218
1305.14	148.218
1305.71	142.218
1306.28	144.218
1306.85	148.218
1307.42	146.218
1307.99	149.218
1308.55	146.218
1309.12	147.218
1309.69	144.218
1310.26	144.218
1310.83	146.218
1311.4	152.218
1311.97	150.218
1312.54	144.218
1313.1	156.218
1313.67	147.218
1314.24	141.218
1314.81	143.218
1315.38	144.218
1315.95	151.218
1316.52	142.218
1317.08	142.218
1317.65	152.218
1318.22	146.218
1318.79	148.218
1319.36	149.218
1319.92	149.218
1320.49	146.218
1321.06	144.218
1321.63	148.218
1322.2	147.218
1322.76	148.218
1323.33	148.218
1323.9	147.218
1324.47	147.218
1325.03	144.218
1325.6	147.218
1326.17	150.218
1326.73	144.218
1327.3	150.218
1327.87	146.218
1328.44	144.218
1329	147.218
1329.57	147.218
1330.14	151.218
1330.7	151.218
1331.27	156.218
1331.84	148.218
1332.4	147.218
1332.97	145.218
1333.54	149.218
1334.11	146.218
1334.67	151.218
1335.24	145.218
1335.8	148.218
1336.37	146.218
1336.94	145.218
1337.5	147.218
1338.07	146.218
1338.64	154.218
1339.2	144.218
1339.77	145.218
1340.34	157.218
1340.9	147.218
1341.47	152.218
1342.03	148.218
1342.6	153.218
1343.16	150.218
1343.73	151.218
1344.3	144.218
1344.86	150.218
1345.43	152.218
1345.99	151.218
1346.56	150.218
1347.12	146.218
1347.69	152.218
1348.25	148.218
1348.82	147.218
1349.38	152.218
1349.95	151.218
1350.51	152.218
1351.08	153.218
1351.64	148.218
1352.21	149.218
1352.77	152.218
1353.34	153.218
1353.9	151.218
1354.47	155.218
1355.03	154.218
1355.6	143.218
1356.16	152.218
1356.73	149.218
1357.29	152.218
1357.85	155.218
1358.42	150.218
1358.98	149.218
1359.55	153.218
1360.11	150.218
1360.67	145.218
1361.24	153.218
1361.8	146.218
1362.37	153.218
1362.93	152.218
1363.49	158.218
1364.06	156.218
1364.62	153.218
1365.19	152.218
1365.75	153.218
1366.31	157.218
1366.88	153.218
1367.44	154.218
1368	146.218
1368.57	149.218
1369.13	152.218
1369.69	155.218
1370.26	152.218
1370.82	148.218
1371.38	153.218
1371.95	153.218
1372.51	154.218
1373.07	150.218
1373.63	155.218
1374.2	156.218
1374.76	155.218
1375.32	156.218
1375.88	146.218
1376.45	153.218
1377.01	154.218
1377.57	154.218
1378.13	145.218
1378.7	157.218
1379.26	157.218
1379.82	160.218
1380.38	152.218
1380.95	151.218
1381.51	154.218
1382.07	155.218
1382.63	157.218
1383.19	158.218
1383.76	163.218
1384.32	157.218
1384.88	156.218
1385.44	150.218
1386	156.218
1386.56	160.218
1387.13	160.218
1387.69	156.218
1388.25	160.218
1388.81	157.218
1389.37	156.218
1389.93	152.218
1390.49	154.218
1391.05	152.218
1391.62	156.218
1392.18	160.218
1392.74	158.218
1393.3	151.218
1393.86	156.218
1394.42	162.218
1394.98	157.218
1395.54	156.218
1396.1	156.218
1396.66	156.218
1397.22	161.218
1397.78	154.218
1398.34	153.218
1398.91	154.218
1399.47	156.218
1400.03	153.218
1400.58	164.218
1401.14	151.218
1401.7	156.218
1402.27	155.218
1402.83	155.218
1403.39	161.218
1403.95	150.218
1404.5	156.218
1405.06	161.218
1405.62	151.218
1406.19	160.218
1406.74	161.218
1407.3	160.218
1407.86	162.218
1408.42	162.218
1408.98	160.218
1409.54	163.218
1410.1	159.218
1410.66	159.218
1411.22	160.218
1411.78	162.218
1412.34	159.218
1412.9	162.218
1413.46	155.218
1414.01	159.218
1414.57	164.218
1415.13	162.218
1415.69	162.218
1416.25	159.218
1416.81	162.218
1417.37	169.218
1417.92	164.218
1418.48	157.218
1419.04	157.218
1419.6	162.218
1420.16	165.218
1420.72	162.218
1421.28	162.218
1421.83	164.218
1422.39	166.218
1422.95	157.218
1423.51	162.218
1424.07	159.218
1424.62	166.218
1425.18	164.218
1425.74	159.218
1426.3	164.218
1426.85	156.218
1427.41	166.218
1427.97	164.218
1428.53	162.218
1429.08	162.218
1429.64	158.218
1430.2	161.218
1430.76	160.218
1431.31	166.218
1431.87	161.218
1432.43	164.218
1432.99	159.218
1433.54	172.218
1434.1	171.218
1434.66	164.218
1435.21	161.218
1435.77	164.218
1436.33	164.218
1436.88	164.218
1437.44	172.218
1438	160.218
1438.55	169.218
1439.11	166.218
1439.67	164.218
1440.22	164.218
1440.78	158.218
1441.33	166.218
1441.89	161.218
1442.45	164.218
1443	160.218
1443.56	160.218
1444.11	159.218
1444.67	166.218
1445.23	165.218
1445.78	165.218
1446.34	161.218
1446.89	170.218
1447.45	161.218
1448.01	159.218
1448.56	162.218
1449.12	170.218
1449.67	168.218
1450.23	165.218
1450.78	155.218
1451.34	162.218
1451.9	158.218
1452.45	172.218
1453	166.218
1453.56	162.218
1454.12	170.218
1454.67	166.218
1455.22	161.218
1455.78	165.218
1456.34	163.218
1456.89	172.218
1457.44	168.218
1458	168.218
1458.55	166.218
1459.11	168.218
1459.66	165.218
1460.22	164.218
1460.77	164.218
1461.33	166.218
1461.88	164.218
1462.43	168.218
1462.99	168.218
1463.54	172.218
1464.1	164.218
1464.65	164.218
1465.2	167.218
1465.76	167.218
1466.31	163.218
1466.87	168.218
1467.42	167.218
1467.97	165.218
1468.53	167.218
1469.08	168.218
1469.63	167.218
1470.19	173.218
1470.74	166.218
1471.3	166.218
1471.85	158.218
1472.4	167.218
1472.96	163.218
1473.51	166.218
1474.06	162.218
1474.61	167.218
1475.17	174.218
1475.72	164.218
1476.27	170.218
1476.83	166.218
1477.38	165.218
1477.93	165.218
1478.48	169.218
1479.04	165.218
1479.59	167.218
1480.14	171.218
1480.69	168.218
1481.25	165.218
1481.8	167.218
1482.35	167.218
1482.9	165.218
1483.46	177.218
1484.01	162.218
1484.56	167.218
1485.11	165.218
1485.66	168.218
1486.22	170.218
1486.77	165.218
1487.32	175.218
1487.87	168.218
1488.42	160.218
1488.97	165.218
1489.53	170.218
1490.08	175.218
1490.63	165.218
1491.18	172.218
1491.73	173.218
1492.28	173.218
1492.83	168.218
1493.39	169.218
1493.94	167.218
1494.49	171.218
1495.04	174.218
1495.59	170.218
1496.14	169.218
1496.69	166.218
1497.24	172.218
1497.79	165.218
1498.34	164.218
1498.9	166.218
1499.45	168.218
1500	174.218
