19.6939	830.533
20.3622	819.533
21.038	789.533
21.7212	800.533
22.397	822.533
23.0727	830.533
23.7485	872.533
24.4242	899.533
25.1	907.533
25.7758	914.533
26.4515	951.533
27.1273	932.533
27.803	939.533
28.4788	965.533
29.1546	1010.53
29.8303	1009.53
30.5061	1044.53
31.1819	1061.53
31.8576	1087.53
32.5334	1117.53
33.2091	1190.53
33.8849	1209.53
34.5607	1249.53
35.2364	1246.53
35.9122	1270.53
36.5879	1310.53
37.2637	1308.53
37.932	1366.53
38.6078	1329.53
39.2836	1421.53
39.9593	1419.53
40.6351	1458.53
41.3108	1517.53
41.9866	1540.53
42.6549	1597.53
43.3307	1594.53
44.0065	1585.53
44.6822	1622.53
45.358	1665.53
46.0263	1735.53
46.7021	1741.53
47.3778	1790.53
48.0536	1754.53
48.7219	1843.53
49.3977	1863.53
50.0735	1884.53
50.7492	1865.53
51.4176	1901.53
52.0933	1972.53
52.7691	1896.53
53.4374	1974.53
54.1132	1981.53
54.7889	2019.53
55.4573	2029.53
56.133	2065.53
56.8088	2144.53
57.4771	2183.53
58.1529	2171.53
58.8287	2218.53
59.497	2218.53
60.1728	2163.53
60.8485	2217.53
61.5169	2188.53
62.1926	2268.53
62.861	2296.53
63.5367	2281.53
64.205	2309.53
64.8808	2320.53
65.5491	2335.53
66.2249	2328.53
66.8932	2307.53
67.569	2377.53
68.2373	2338.53
68.9131	2392.53
69.5814	2402.53
70.2572	2411.53
70.9255	2403.53
71.6013	2339.53
72.2696	2441.53
72.938	2493.53
73.6137	2502.53
74.2821	2538.53
74.9578	2514.53
75.6262	2523.53
76.2945	2474.53
76.9703	2392.53
77.6386	2483.53
78.3069	2426.53
78.9827	2451.53
79.651	2482.53
80.3268	2545.53
80.9951	2552.53
81.6635	2562.53
82.3392	2550.53
83.0076	2559.53
83.6759	2489.53
84.3442	2517.53
85.02	2517.53
85.6883	2428.53
86.3567	2441.53
87.025	2515.53
87.7008	2530.53
88.3691	2497.53
89.0374	2611.53
89.7058	2582.53
90.3741	2529.53
91.0499	2521.53
91.7182	2530.53
92.3865	2603.53
93.0549	2566.53
93.7232	2538.53
94.3915	2526.53
95.0599	2476.53
95.7356	2510.53
96.404	2493.53
97.0723	2512.53
97.7406	2559.53
98.409	2440.53
99.0773	2397.53
99.7456	2537.53
100.414	2461.53
101.082	2536.53
101.751	2497.53
102.419	2445.53
103.095	2515.53
103.763	2556.53
104.431	2460.53
105.092	2490.53
105.761	2491.53
106.429	2569.53
107.097	2438.53
107.766	2533.53
108.434	2465.53
109.102	2429.53
109.771	2482.53
110.439	2470.53
111.107	2498.53
111.776	2484.15
112.444	2566.53
113.112	2457.53
113.773	2524.53
114.442	2475.53
115.11	2473.53
115.778	2442.53
116.447	2441.53
117.115	2448.53
117.783	2374.53
118.452	2406.53
119.113	2331.53
119.781	2435.53
120.449	2444.53
121.118	2382.53
121.786	2416.23
122.447	2416.23
123.115	2364.53
123.783	2331.53
124.444	2311.53
125.113	2359.53
125.781	2354.16
126.449	2385.2
127.11	2338.64
127.779	2368.53
128.447	2321.53
129.108	2327.53
129.776	2287.53
130.445	2233.53
131.105	2296.53
131.774	2305.53
132.442	2262.53
133.103	2262.53
133.771	2338.53
134.432	2331.53
135.101	2281.53
135.769	2283.53
136.43	2287.53
137.098	2329.53
137.759	2227.53
138.427	2278.53
139.088	2250.53
139.757	2219.53
140.425	2275.53
141.086	2294.53
141.754	2200.53
142.415	2175.53
143.076	2291.53
143.744	2233.53
144.405	2215.53
145.074	2237.53
145.735	2188.53
146.403	2159.53
147.064	2194.53
147.732	2198.53
148.393	2142.53
149.054	2172.53
149.722	2134.53
150.383	2196.53
151.052	2136.53
151.712	2138.53
152.381	2159.53
153.042	2177.53
153.703	2172.53
154.371	2171.53
155.032	2125.53
155.693	2089.53
156.354	2154.53
157.022	2080.53
157.683	2087.53
158.344	2123.53
159.012	2097.53
159.673	2110.53
160.334	2077.53
160.995	2083.53
161.656	2120.53
162.324	2098.53
162.985	2086.53
163.646	2036.53
164.307	2082.53
164.975	2050.53
165.636	2031.53
166.297	2068.53
166.958	2050.53
167.626	2130.53
168.287	2026.53
168.948	1985.53
169.609	1969.53
170.27	2009.53
170.931	2003.53
171.592	1906.53
172.253	1961.53
172.914	1997.53
173.574	1985.53
174.235	1974.53
174.904	1947.53
175.565	1930.53
176.225	1980.53
176.886	1926.53
177.547	1963.53
178.208	1989.53
178.869	1968.53
179.53	1934.53
180.191	1926.53
180.852	1932.53
181.513	1967.53
182.174	1937.53
182.835	1938.53
183.495	1934.53
184.156	1969.53
184.817	1921.53
185.478	1856.53
186.132	1840.53
186.793	1905.53
187.454	1873.53
188.114	1889.53
188.775	1952.53
189.436	1847.53
190.097	1859.53
190.751	1890.53
191.412	1950.53
192.072	1875.53
192.733	1870.53
193.394	1878.53
194.055	1869.53
194.709	1894.53
195.37	1869.53
196.03	1826.53
196.691	1875.53
197.345	1798.53
198.006	1831.53
198.667	1837.53
199.328	1846.53
199.981	1816.53
200.642	1845.53
201.303	1852.53
201.964	1792.53
202.617	1806.53
203.278	1811.53
203.939	1837.53
204.593	1764.53
205.254	1800.53
205.914	1827.53
206.568	1789.53
207.229	1827.53
207.89	1775.53
208.543	1784.53
209.204	1744.53
209.858	1836.53
210.519	1789.53
211.172	1770.53
211.833	1769.53
212.494	1790.53
213.147	1825.53
213.808	1778.53
214.462	1802.53
215.123	1772.53
215.776	1766.53
216.437	1838.53
217.09	1761.53
217.751	1789.53
218.405	1762.53
219.066	1748.53
219.719	1752.53
220.38	1755.53
221.034	1747.53
221.695	1720.53
222.348	1758.53
223.009	1716.53
223.662	1713.53
224.316	1734.53
224.977	1723.53
225.63	1742.53
226.291	1707.53
226.945	1745.53
227.598	1696.53
228.259	1724.53
228.913	1753.53
229.566	1708.53
230.227	1685.53
230.88	1711.53
231.534	1674.53
232.187	1674.53
232.848	1684.53
233.502	1734.53
234.155	1720.53
234.809	1728.53
235.47	1695.53
236.123	1737.53
236.777	1660.53
237.43	1658.53
238.091	1695.53
238.745	1662.53
239.398	1659.53
240.052	1664.53
240.705	1709.53
241.366	1664.53
242.019	1697.53
242.673	1710.53
243.326	1707.53
243.98	1723.53
244.633	1731.53
245.287	1664.53
245.94	1698.53
246.601	1669.53
247.255	1694.53
247.908	1711.53
248.562	1690.53
249.215	1648.53
249.869	1679.53
250.522	1710.53
251.176	1650.53
251.829	1647.53
252.483	1651.53
253.136	1647.53
253.79	1639.53
254.443	1652.53
255.096	1624.53
255.75	1644.53
256.403	1602.53
257.057	1664.53
257.71	1627.53
258.364	1678.53
259.017	1670.53
259.671	1657.53
260.324	1623.53
260.978	1652.53
261.631	1605.53
262.285	1658.53
262.938	1648.53
263.592	1667.53
264.238	1608.53
264.891	1658.53
265.545	1618.53
266.198	1633.53
266.852	1589.53
267.505	1633.53
268.151	1634.53
268.805	1643.53
269.458	1595.53
270.112	1609.53
270.765	1622.53
271.411	1641.53
272.065	1665.53
272.718	1646.53
273.372	1647.53
274.018	1650.53
274.671	1634.53
275.325	1650.53
275.978	1632.53
276.624	1593.53
277.278	1626.53
277.931	1613.53
278.577	1600.53
279.231	1599.53
279.884	1615.53
280.53	1554.53
281.184	1621.53
281.837	1600.53
282.483	1594.53
283.137	1598.53
283.783	1594.53
284.436	1608.53
285.09	1601.53
285.736	1614.53
286.389	1581.53
287.035	1624.86
287.689	1592.94
288.335	1615.53
288.989	1568.53
289.635	1606.53
290.288	1586.53
290.934	1597.53
291.588	1551.53
292.234	1612.53
292.887	1557.53
293.533	1541.53
294.187	1609.53
294.833	1595.53
295.486	1541.53
296.132	1564.53
296.778	1614.53
297.432	1568.53
298.078	1557.53
298.731	1558.53
299.377	1553.53
300.023	1589.53
300.677	1577.53
301.323	1574.53
301.977	1524.53
302.623	1592.53
303.269	1560.53
303.922	1547.53
304.568	1549.53
305.214	1572.53
305.868	1550.53
306.514	1590.53
307.16	1558.53
307.813	1550.53
308.459	1529.53
309.105	1550.53
309.751	1542.53
310.405	1542.53
311.051	1538.53
311.697	1585.53
312.343	1531.53
312.997	1547.53
313.643	1569.53
314.289	1604.53
314.935	1555.53
315.581	1517.53
316.234	1524.53
316.88	1515.53
317.526	1492.53
318.173	1547.53
318.819	1534.53
319.465	1525.53
320.111	1529.53
320.757	1551.53
321.403	1511.53
322.049	1517.53
322.702	1504.53
323.348	1537.53
323.994	1539.53
324.641	1519.53
325.287	1531.53
325.933	1505.53
326.579	1512.53
327.225	1525.53
327.871	1549.53
328.517	1512.53
329.163	1549.53
329.809	1511.53
330.455	1523.53
331.101	1529.53
331.747	1507.53
332.393	1517.53
333.039	1493.53
333.685	1529.53
334.331	1496.53
334.977	1497.53
335.623	1525.53
336.262	1471.53
336.908	1499.53
337.554	1516.53
338.2	1511.53
338.846	1523.53
339.492	1509.53
340.138	1515.53
340.785	1510.53
341.423	1501.53
342.069	1531.53
342.715	1513.53
343.361	1489.53
344.007	1519.53
344.653	1480.53
345.292	1497.53
345.938	1558.53
346.584	1516.53
347.223	1490.53
347.869	1507.53
348.515	1522.53
349.161	1498.53
349.8	1507.53
350.446	1493.53
351.092	1511.53
351.738	1482.53
352.376	1503.53
353.022	1557.53
353.669	1504.53
354.307	1509.53
354.953	1493.53
355.599	1554.53
356.238	1518.53
356.884	1497.53
357.523	1500.53
358.169	1531.53
358.815	1516.53
359.453	1499.53
360.099	1531.53
360.738	1513.53
361.384	1502.53
362.03	1533.53
362.669	1526.53
363.315	1550.53
363.953	1533.53
364.6	1549.53
365.238	1545.53
365.884	1588.53
366.523	1539.53
367.169	1510.53
367.808	1535.53
368.454	1541.53
369.092	1547.53
369.738	1567.53
370.377	1523.53
371.016	1562.53
371.662	1574.53
372.3	1527.53
372.946	1508.53
373.585	1583.53
374.224	1515.53
374.87	1545.53
375.508	1517.53
376.154	1504.53
376.793	1547.53
377.432	1535.53
378.078	1550.53
378.716	1534.53
379.355	1567.53
379.994	1521.53
380.64	1550.53
381.278	1592.53
381.924	1551.53
382.563	1593.83
383.202	1578.31
383.84	1562.79
384.486	1543.53
385.125	1553.53
385.763	1569.53
386.402	1523.53
387.041	1566.53
387.687	1550.53
388.325	1535.53
388.964	1539.53
389.603	1602.53
390.249	1558.53
390.887	1590.53
391.526	1553.53
392.165	1530.53
392.803	1542.53
393.442	1613.53
394.081	1564.53
394.727	1560.53
395.365	1546.53
396.004	1547.53
396.643	1538.53
397.281	1559.53
397.92	1558.53
398.558	1561.53
399.197	1541.53
399.836	1558.53
400.474	1536.53
401.113	1542.53
401.752	1551.53
402.39	1570.53
403.029	1550.53
403.667	1555.53
404.306	1587.53
404.945	1562.79
405.583	1562.79
406.222	1562.79
406.861	1547.28
407.499	1540.53
408.138	1540.53
408.777	1535.53
409.415	1525.53
410.054	1530.53
410.692	1561.53
411.324	1564.53
411.962	1522.53
412.601	1560.53
413.24	1574.53
413.878	1579.53
414.517	1564.53
415.155	1611.53
415.787	1544.53
416.425	1531.53
417.064	1520.53
417.702	1540.53
418.341	1576.53
418.98	1537.53
419.611	1546.53
420.25	1538.53
420.888	1559.53
421.527	1505.53
422.158	1505.53
422.797	1545.53
423.435	1520.53
424.067	1542.53
424.705	1529.53
425.344	1557.53
425.982	1509.53
426.621	1508.53
427.252	1545.53
427.891	1513.53
428.522	1521.53
429.161	1560.53
429.799	1576.53
430.431	1556.53
431.069	1579.53
431.7	1512.53
432.339	1525.53
432.978	1535.53
433.609	1545.53
434.247	1530.53
434.886	1587.53
435.517	1562.53
436.156	1565.53
436.787	1527.53
437.426	1554.53
438.057	1542.53
438.696	1478.53
439.327	1504.53
439.965	1566.53
440.597	1545.53
441.235	1567.53
441.867	1504.53
442.505	1555.53
443.136	1559.53
443.775	1534.53
444.406	1561.53
445.045	1561.53
445.676	1561.53
446.307	1544.53
446.946	1526.53
447.577	1549.53
448.216	1553.53
448.847	1552.53
449.478	1542.53
450.117	1564.53
450.748	1566.53
451.387	1551.53
452.018	1573.53
452.649	1593.83
453.288	1562.79
453.919	1562.79
454.55	1569.53
455.181	1560.53
455.82	1561.53
456.451	1571.53
457.09	1539.53
457.721	1568.53
458.352	1574.53
458.983	1583.53
459.615	1543.53
460.253	1608.53
460.884	1582.53
461.516	1581.53
462.147	1569.53
462.785	1574.53
463.417	1583.53
464.048	1558.53
464.679	1623.53
465.31	1577.53
465.949	1606.53
466.58	1564.53
467.211	1608.53
467.842	1587.53
468.474	1592.53
469.105	1627.53
469.736	1565.53
470.367	1621.53
470.999	1630.53
471.637	1671.53
472.261	1633.53
472.9	1633.53
473.531	1631.53
474.162	1587.53
474.793	1633.53
475.424	1641.53
476.056	1630.53
476.687	1620.53
477.318	1656.53
477.949	1672.53
478.58	1692.53
479.212	1644.53
479.843	1672.53
480.474	1655.53
481.105	1641.53
481.736	1659.53
482.368	1675.53
482.991	1694.53
483.623	1686.53
484.254	1697.53
484.885	1698.53
485.516	1692.53
486.147	1692.53
486.779	1694.53
487.41	1698.53
488.041	1691.53
488.672	1708.53
489.296	1739.53
489.927	1781.53
490.558	1718.53
491.19	1741.53
491.821	1743.53
492.445	1736.53
493.076	1749.53
493.707	1807.53
494.338	1806.53
494.969	1788.53
495.593	1810.53
496.224	1785.53
496.856	1809.53
497.487	1811.53
498.111	1814.53
498.742	1836.53
499.373	1806.53
499.997	1850.53
500.628	1867.53
501.259	1851.53
501.883	1845.53
502.514	1877.53
503.145	1859.53
503.769	1874.53
504.4	1945.53
505.032	1866.53
505.655	1883.53
506.287	1904.53
506.918	1950.53
507.542	1950.53
508.173	1931.53
508.797	1934.53
509.428	1958.53
510.052	1950.53
510.683	1961.53
511.314	2006.53
511.938	1954.53
512.569	1978.53
513.193	1957.53
513.824	2026.53
514.448	2015.53
515.079	2004.53
515.703	2009.53
516.334	2017.53
516.958	2088.53
517.581	2006.53
518.213	2063.53
518.844	2045.53
519.468	2069.53
520.091	2109.53
520.723	2117.53
521.346	2128.53
521.978	2088.53
522.601	2123.53
523.225	2203.53
523.856	2195.53
524.48	2170.53
525.104	2209.53
525.735	2236.53
526.359	2181.53
526.983	2225.53
527.614	2253.53
528.238	2214.53
528.862	2263.53
529.493	2222.53
530.117	2380.53
530.74	2296.53
531.372	2225.53
531.995	2321.53
532.619	2313.53
533.243	2390.53
533.874	2325.53
534.498	2355.53
535.122	2441.53
535.745	2420.53
536.377	2477.53
537	2450.53
537.624	2460.53
538.248	2521.53
538.872	2557.53
539.495	2518.53
540.127	2541.53
540.75	2532.53
541.374	2583.53
541.998	2590.53
542.622	2594.53
543.246	2608.53
543.877	2613.53
544.493	2633.53
545.124	2736.53
545.748	2794.53
546.372	2658.53
546.996	2752.53
547.619	2813.53
548.243	2769.53
548.867	2764.53
549.491	2802.53
550.115	2822.53
550.738	2802.53
551.362	2814.53
551.986	2870.53
552.61	2869.53
553.234	2939.53
553.857	2870.53
554.481	2926.53
555.105	2951.53
555.729	2910.53
556.352	2947.53
556.976	2978.53
557.6	2865.53
558.224	2948.53
558.84	2922.53
559.464	3005.53
560.088	2928.53
560.711	2918.53
561.335	3020.53
561.959	2989.53
562.583	3017.53
563.207	2975.53
563.823	2997.53
564.447	2949.53
565.07	2967.53
565.694	2974.84
566.318	2959.32
566.942	2938.53
567.558	2875.53
568.182	2947.53
568.806	2916.53
569.43	2969.53
570.053	2940.53
570.67	2952.53
571.293	2918.53
571.917	2902.53
572.534	2918.53
573.157	2840.53
573.781	2915.53
574.405	2825.53
575.021	2792.53
575.645	2705.53
576.261	2774.53
576.885	2757.6
577.509	2709.53
578.133	2664.53
578.749	2689.53
579.373	2653.53
579.997	2620.53
580.613	2592.53
581.237	2562.53
581.853	2572.53
582.477	2459.53
583.093	2548.53
583.717	2534.53
584.333	2503.53
584.957	2436.53
585.581	2444.53
586.197	2460.53
586.821	2385.53
587.437	2353.53
588.061	2289.53
588.678	2288.53
589.301	2253.53
589.918	2229.53
590.541	2243.53
591.158	2180.53
591.782	2198.53
592.398	2159.53
593.022	2129.53
593.638	2103.53
594.254	2025.53
594.878	2093.53
595.495	1987.53
596.118	2052.53
596.735	1972.53
597.351	1999.53
597.975	2004.53
598.591	1908.53
599.215	1913.53
599.831	1861.53
600.448	1856.53
601.064	1845.53
601.688	1805.53
602.304	1813.53
602.928	1814.53
603.544	1799.53
604.161	1759.53
604.777	1709.53
605.401	1724.53
606.017	1701.53
606.633	1653.53
607.25	1665.53
607.874	1664.53
608.49	1595.03
609.106	1663.03
609.723	1595.41
610.346	1656.16
610.963	1598.78
611.579	1593.91
612.195	1572.29
612.812	1578.31
613.436	1584.16
614.052	1518.03
614.668	1571.28
615.285	1539.53
615.901	1519.28
616.517	1486.28
617.134	1476.03
617.758	1486.53
618.374	1472.41
618.99	1488.16
619.607	1474.53
620.223	1387.03
620.839	1427.91
621.456	1418.66
622.072	1420.91
622.688	1427.78
623.305	1432.66
623.921	1433.78
624.537	1386.16
625.154	1389.91
625.77	1373.78
626.387	1372.53
627.003	1401.16
627.619	1392.11
628.236	1349.78
628.852	1371.03
629.468	1350.78
630.085	1346.03
630.701	1345.41
631.317	1346.41
631.934	1330.78
632.55	1330.03
633.166	1331.53
633.775	1312.91
634.392	1297.16
635.008	1305.66
635.624	1308.28
636.241	1316.66
636.857	1280.66
637.473	1292.41
638.09	1297.28
638.699	1294.66
639.315	1287.53
639.931	1278.28
640.548	1267.41
641.164	1292.16
641.773	1266.16
642.389	1253.53
643.006	1281.53
643.622	1241.53
644.231	1239.41
644.847	1253.66
645.464	1261.78
646.08	1244.03
646.689	1230.91
647.305	1256.03
647.922	1253.53
648.531	1237.53
649.147	1236.66
649.763	1230.91
650.38	1254.41
650.989	1240.03
651.605	1216.16
652.221	1209.53
652.83	1210.66
653.447	1208.03
654.056	1218.28
654.672	1215.53
655.088	1201.53
655.712	1194.53
656.335	1207.53
656.959	1190.53
657.576	1180.53
658.199	1177.53
658.823	1203.53
659.447	1179.53
660.071	1158.53
660.694	1158.53
661.318	1158.53
661.942	1168.53
662.566	1169.53
663.19	1162.53
663.813	1178.53
664.43	1172.53
665.053	1159.53
665.677	1172.53
666.301	1161.53
666.925	1145.53
667.549	1143.53
668.165	1139.53
668.789	1141.53
669.412	1112.53
670.036	1121.53
670.653	1122.53
671.276	1101.53
671.9	1102.53
672.524	1097.53
673.148	1120.53
673.764	1088.53
674.388	1106.53
675.012	1088.53
675.635	1102.53
676.252	1080.53
676.876	1110.53
677.499	1106.53
678.116	1099.53
678.739	1104.53
679.363	1067.53
679.98	1065.53
680.603	1055.53
681.227	1053.53
681.844	1056.53
682.467	1047.53
683.084	1036.53
683.707	1036.53
684.331	1034.53
684.948	1044.53
685.571	1057.53
686.188	1043.53
686.811	1025.53
687.435	1001.53
688.052	1024.53
688.675	1004.53
689.292	1002.53
689.916	1012.53
690.532	1008.53
691.156	996.533
691.772	992.533
692.396	986.533
693.012	976.533
693.636	999.533
694.252	980.533
694.876	994.533
695.492	984.533
696.109	941.533
696.733	942.533
697.356	936.533
697.973	928.533
698.589	952.533
699.213	954.533
699.829	948.533
700.445	942.533
701.069	936.533
701.686	927.533
702.309	920.533
702.926	917.533
703.542	908.533
704.166	918.533
704.782	899.533
705.399	903.533
706.022	895.533
706.639	896.533
707.255	867.533
707.871	900.533
708.495	885.533
709.112	857.533
709.728	880.533
710.344	867.533
710.968	855.533
711.584	880.533
712.201	837.533
712.817	853.533
713.441	838.533
714.057	838.533
714.674	833.533
715.29	813.533
715.906	828.533
716.53	810.533
717.146	817.533
717.763	802.533
718.379	796.533
718.996	805.533
719.612	784.533
720.236	797.533
720.852	783.533
721.468	795.533
722.085	773.533
722.701	763.533
723.317	763.533
723.934	763.533
724.55	765.533
725.167	743.533
725.783	739.533
726.399	740.533
727.016	730.533
727.632	727.533
728.256	713.533
728.865	724.533
729.488	706.533
730.105	729.533
730.714	681.533
731.337	699.533
731.946	692.533
732.563	683.533
733.187	682.533
733.795	680.533
734.412	668.533
735.028	681.533
735.645	664.533
736.261	659.533
736.877	658.533
737.494	666.533
738.11	653.533
738.726	643.533
739.343	641.533
739.952	634.533
740.568	634.533
741.184	624.533
741.801	619.533
742.417	612.533
743.033	624.533
743.65	599.533
744.259	600.533
744.875	600.533
745.491	590.533
746.108	589.533
746.724	582.533
747.333	597.533
747.949	579.533
748.566	582.533
749.175	583.533
749.791	565.533
750.407	583.533
751.024	561.533
751.633	564.533
752.249	562.533
752.865	558.533
753.474	560.533
754.091	552.533
754.707	552.533
755.323	545.533
755.932	555.533
756.549	552.533
757.165	541.533
757.774	538.533
758.39	527.533
758.999	533.533
759.615	527.533
760.232	534.533
760.841	526.533
761.457	541.533
762.066	527.533
762.682	528.533
763.291	537.533
763.908	525.533
764.524	532.533
765.133	518.533
765.749	535.533
766.358	526.533
766.975	532.533
767.583	525.533
768.2	519.533
768.809	514.533
769.425	522.533
770.034	526.533
770.65	531.533
771.259	527.533
771.876	523.533
772.485	521.533
773.094	531.533
773.71	535.533
774.319	519.533
774.935	537.533
775.544	517.533
776.16	531.533
776.769	514.533
777.378	524.533
777.995	521.533
778.604	535.533
779.213	528.533
779.829	537.533
780.438	539.533
781.047	542.533
781.663	533.533
782.272	529.533
782.881	552.533
783.497	546.533
784.106	538.533
784.715	543.533
785.332	562.533
785.94	546.533
786.549	546.533
787.158	557.533
787.775	560.533
788.384	563.533
788.992	568.533
789.601	560.533
790.218	565.533
790.827	568.533
791.436	582.533
792.045	573.533
792.654	572.533
793.262	567.533
793.879	581.533
794.488	570.533
795.097	599.533
795.706	596.533
796.315	596.533
796.923	598.533
797.532	614.533
798.141	609.533
798.758	605.533
799.367	616.533
799.976	622.533
800.584	635.533
801.193	630.533
801.802	621.533
802.411	642.533
803.02	647.533
803.629	645.533
804.238	684.533
804.847	682.533
805.456	689.533
806.065	674.533
806.674	686.533
807.283	697.533
807.892	703.533
808.5	721.533
809.109	749.533
809.718	752.533
810.327	746.533
810.936	786.533
811.545	773.533
812.154	800.533
812.763	792.533
813.372	823.533
813.973	830.533
814.582	864.533
815.191	880.533
815.8	884.533
816.409	898.533
817.018	926.533
817.627	909.533
818.236	936.533
818.837	961.533
819.446	993.533
820.055	992.533
820.664	1006.53
821.273	1044.53
821.875	1061.53
822.484	1098.53
823.092	1110.53
823.701	1118.53
824.303	1168.53
824.912	1179.53
825.521	1186.53
826.13	1216.53
826.739	1250.53
827.34	1243.53
827.949	1316.53
828.558	1344.53
829.159	1357.53
829.768	1386.53
830.377	1433.53
830.979	1436.53
831.588	1473.53
832.197	1497.53
832.798	1544.53
833.407	1546.53
834.016	1631.53
834.618	1648.53
835.227	1672.53
835.828	1703.53
836.437	1748.53
837.046	1813.53
837.647	1848.53
838.256	1848.53
838.858	1897.53
839.467	1936.53
840.076	1955.53
840.677	2043.53
841.286	2115.53
841.888	2133.53
842.496	2164.53
843.098	2250.53
843.707	2297.53
844.308	2284.53
844.917	2431.53
845.519	2421.53
846.128	2510.53
846.729	2537.53
847.338	2583.53
847.94	2618.53
848.541	2751.53
849.15	2810.53
849.752	2887.53
850.361	2972.53
850.962	3007.53
851.564	3132.53
852.172	3018.53
852.774	3225.53
853.383	3278.53
853.984	3402.53
854.586	3415.53
855.195	3419.53
855.796	3567.53
856.398	3611.53
857.007	3770.53
857.608	3804.53
858.21	3904.53
858.819	4041.53
859.42	4027.53
860.022	4149.53
860.631	4247.53
861.232	4365.53
861.834	4400.53
862.443	4502.53
863.044	4631.53
863.646	4731.53
864.247	4795.53
864.849	4782.53
865.458	4869.53
866.059	4918.53
866.661	5084.53
867.262	5172.53
867.871	5234.53
868.472	5151.53
869.074	5237.53
869.675	5457.53
870.277	5594.53
870.878	5432.53
871.48	5588.53
872.081	5636.53
872.69	5601.53
873.292	5584.53
873.893	5828.53
874.495	5784.53
875.096	5877.53
875.698	5907.53
876.299	6032.53
876.901	6047.53
877.502	6042.53
878.104	6197.53
878.713	6134.53
879.314	6153.53
879.908	6160.53
880.517	6109.53
881.119	6207.53
881.72	6292.53
882.322	6393.53
882.923	6152.53
883.525	6375.53
884.119	6394.53
884.728	6490.53
885.329	6365.53
885.923	6370.53
886.525	6356.53
887.126	6457.53
887.728	6356.53
888.329	6506.53
888.931	6445.53
889.532	6350.53
890.134	6428.53
890.735	6522.53
891.337	6464.53
891.938	6417.53
892.533	6415.53
893.134	6499.53
893.736	6230.53
894.337	6332.53
894.939	6394.53
895.54	6441.53
896.134	6594.53
896.736	6564.53
897.337	6501.53
897.939	6436.53
898.54	6295.53
899.134	6355.53
899.736	6253.53
900.337	6222.53
900.939	6403.53
901.533	6403.53
902.134	6306.53
902.736	6312.53
903.337	6262.53
903.931	6225.53
904.533	6064.53
905.134	5995.53
905.728	5991.53
906.33	6048.53
906.931	6146.53
907.533	6060.53
908.127	5976.53
908.729	5930.53
909.323	5799.53
909.924	5838.53
910.526	5964.53
911.12	5662.53
911.721	5817.53
912.315	5808.53
912.917	5580.53
913.518	5609.53
914.112	5613.53
914.714	5606.53
915.308	5567.53
915.909	5335.53
916.511	5393.53
917.105	5394.53
917.699	5423.53
918.301	5410.53
918.902	5270.53
919.496	5289.53
920.098	5100.53
920.692	5102.53
921.293	5007.53
921.887	4897.53
922.489	4904.53
923.083	4865.53
923.677	4770.53
924.278	4759.53
924.873	4713.53
925.474	4672.53
926.068	4563.53
926.67	4595.53
927.264	4572.53
927.865	4467.53
928.459	4321.53
929.053	4408.53
929.655	4359.53
930.249	4290.53
930.843	4324.53
931.445	4271.53
932.039	4188.53
932.633	4127.53
933.234	4097.53
933.828	4047.53
934.422	3932.53
935.024	3927.53
935.618	3903.53
936.212	3931.53
936.806	3833.53
937.408	3799.53
938.002	3819.53
938.596	3824.53
939.197	3681.53
939.791	3597.53
940.385	3513.53
940.979	3465.53
941.573	3439.53
942.175	3415.53
942.769	3414.53
943.363	3321.53
943.957	3310.53
944.551	3231.53
945.153	3228.53
945.747	3212.53
946.341	3149.53
946.935	3103.53
947.529	2979.53
948.123	3108.53
948.725	2999.53
949.319	2997.53
949.913	2987.53
950.507	2932.53
951.101	2863.53
951.695	2839.53
952.289	2842.53
952.883	2844.53
953.477	2735.53
954.071	2758.53
954.665	2685.53
955.26	2676.53
955.854	2587.53
956.448	2610.53
957.042	2588.53
957.636	2511.53
958.23	2508.53
958.824	2437.53
959.418	2449.53
960.012	2448.53
960.606	2443.53
961.2	2392.53
961.794	2350.53
962.388	2318.53
962.982	2320.53
963.577	2285.53
964.171	2278.53
964.765	2241.53
965.359	2180.53
965.953	2193.53
966.54	2150.53
967.134	2128.53
967.728	2121.53
968.322	2051.53
968.916	2079.53
969.51	2037.53
970.104	2038.53
970.698	1999.53
971.285	1993.53
971.879	1986.53
972.473	1945.53
973.067	1929.53
973.654	1903.53
974.248	1906.53
974.842	1893.53
975.436	1818.53
976.03	1860.53
976.617	1806.53
977.211	1822.53
977.805	1778.53
978.399	1758.53
978.985	1727.53
979.58	1686.53
980.174	1704.53
980.76	1658.53
981.354	1675.53
981.948	1662.53
982.542	1669.53
983.129	1647.53
983.723	1634.53
984.317	1610.53
984.904	1572.53
985.498	1594.53
986.085	1543.53
986.679	1555.53
987.273	1506.53
987.859	1538.53
988.453	1480.53
989.048	1525.53
989.634	1483.53
990.228	1434.53
990.815	1463.53
991.409	1448.53
991.996	1437.53
992.59	1412.53
993.176	1388.53
993.771	1418.53
994.357	1375.53
994.951	1356.53
995.538	1361.53
996.132	1372.53
996.719	1368.53
997.313	1357.53
997.899	1342.53
998.493	1282.53
999.08	1309.53
999.674	1289.53
1000.26	1268.53
1000.85	1268.53
1001.44	1263.53
1002.03	1243.53
1002.62	1241.53
1003.21	1239.53
1003.8	1206.53
1004.39	1229.53
1004.98	1200.53
1005.57	1180.53
1006.16	1186.53
1006.75	1164.53
1007.34	1152.53
1007.92	1150.53
1008.51	1162.53
1009.11	1155.53
1009.69	1145.53
1010.28	1140.53
1010.87	1092.53
1011.46	1117.53
1012.05	1114.53
1012.64	1080.53
1013.23	1091.53
1013.81	1078.53
1014.4	1036.53
1014.99	1051.53
1015.58	1041.53
1016.17	1042.53
1016.75	1053.53
1017.35	1031.53
1017.93	1069.53
1018.52	1019.53
1019.11	986.533
1019.7	1005.53
1020.29	967.533
1020.88	1005.53
1021.46	976.533
1022.05	987.533
1022.64	967.533
1023.22	947.533
1023.82	960.533
1024.4	946.533
1024.99	923.533
1025.58	922.533
1026.16	937.533
1026.75	910.533
1027.34	917.533
1027.92	908.533
1028.51	903.533
1029.1	887.533
1029.68	888.533
1030.27	872.533
1030.86	854.533
1031.44	871.533
1032.04	868.533
1032.62	855.533
1033.21	839.533
1033.8	850.533
1034.38	846.533
1034.96	818.533
1035.55	818.533
1036.14	820.533
1036.73	818.533
1037.31	811.533
1037.9	800.533
1038.48	801.533
1039.07	786.533
1039.66	780.533
1040.24	780.533
1040.83	775.533
1041.42	752.533
1042	758.533
1042.59	767.533
1043.18	750.533
1043.75	756.533
1044.34	736.533
1044.93	731.533
1045.51	715.533
1046.1	703.533
1046.69	714.533
1047.27	687.533
1047.85	694.533
1048.44	705.533
1049.03	680.533
1049.61	672.533
1050.19	673.533
1050.78	670.533
1051.37	655.533
1051.95	647.533
1052.53	643.533
1053.12	643.533
1053.71	639.533
1054.29	618.533
1054.87	610.533
1055.46	617.533
1056.04	608.533
1056.62	595.533
1057.21	598.533
1057.8	599.533
1058.38	577.533
1058.96	577.533
1059.55	577.533
1060.13	574.533
1060.72	561.533
1061.3	549.533
1061.88	548.533
1062.47	552.533
1063.05	543.533
1063.63	528.533
1064.22	532.533
1064.8	526.533
1065.39	519.533
1065.97	511.533
1066.55	507.533
1067.14	499.533
1067.72	502.533
1068.3	490.533
1068.88	480.533
1069.47	474.533
1070.05	466.533
1070.64	464.533
1071.22	466.533
1071.8	454.533
1072.38	455.533
1072.97	441.533
1073.55	442.533
1074.13	445.533
1074.71	423.533
1075.3	431.533
1075.88	423.533
1076.47	420.533
1077.05	414.533
1077.62	409.533
1078.21	407.533
1078.79	396.533
1079.38	391.533
1079.96	393.533
1080.54	381.533
1081.12	379.533
1081.7	374.533
1082.28	379.533
1082.87	369.533
1083.45	360.533
1084.03	365.533
1084.61	361.533
1085.19	354.533
1085.77	357.533
1086.36	343.533
1086.94	344.533
1087.52	347.533
1088.1	325.533
1088.68	327.533
1089.26	323.533
1089.84	317.533
1090.43	316.533
1091.01	315.533
1091.59	304.533
1092.16	310.533
1092.75	311.533
1093.33	308.533
1093.91	300.533
1094.49	299.533
1095.07	304.533
1095.65	288.533
1096.23	297.533
1096.81	291.533
1097.39	296.533
1097.97	289.533
1098.55	280.533
1099.13	287.533
1099.71	280.533
1100.3	276.533
1100.88	271.533
1101.45	271.533
1102.03	273.533
1102.61	266.533
1103.19	270.533
1103.77	268.533
1104.35	262.533
1104.93	262.533
1105.51	261.533
1106.09	257.533
1106.67	266.533
1107.25	257.533
1107.83	252.533
1108.4	243.533
1108.99	249.533
1109.56	253.533
1110.15	249.533
1110.72	254.533
1111.3	245.533
1111.88	248.533
1112.46	245.533
1113.04	246.533
1113.62	238.533
1114.2	241.533
1114.78	239.533
1115.36	243.533
1115.93	243.533
1116.51	248.533
1117.09	232.533
1117.67	239.533
1118.24	236.533
1118.82	232.908
1119.4	227.158
1119.98	235.033
1120.56	231.533
1121.14	232.033
1121.72	220.533
1122.29	231.033
1122.87	232.908
1123.45	229.908
1124.03	225.783
1124.61	221.908
1125.19	225.908
1125.76	222.908
1126.34	220.158
1126.92	222.533
1127.5	219.783
1128.07	223.283
1128.65	222.033
1129.23	222.908
1129.8	221.658
1130.38	218.783
1130.96	220.283
1131.54	215.533
1132.11	213.908
1132.69	215.783
1133.27	217.533
1133.84	214.408
1134.42	214.783
1135	213.908
1135.57	212.658
1136.15	215.658
1136.73	217.158
1137.3	210.908
1137.88	208.283
1138.45	208.158
1139.03	210.033
1139.6	211.158
1140.18	209.908
1140.76	206.158
1141.33	210.033
1141.91	208.533
1142.48	203.658
1143.06	209.908
1143.63	208.658
1144.21	207.033
1144.79	201.408
1145.36	204.658
1145.94	201.908
1146.51	205.283
1147.09	204.658
1147.67	200.283
1148.25	205.283
1148.82	205.783
1149.4	201.033
1149.97	199.908
1150.54	201.283
1151.12	203.408
1151.69	199.783
1152.27	202.283
1152.84	200.533
1153.42	200.283
1153.99	197.908
1154.56	202.283
1155.14	200.033
1155.72	198.533
1156.29	196.033
1156.87	195.533
1157.44	194.658
1158.02	196.908
1158.59	200.908
1159.16	194.283
1159.74	194.783
1160.31	196.408
1160.88	196.408
1161.46	193.783
1162.04	195.033
1162.61	198.158
1163.18	193.658
1163.76	193.033
1164.33	194.908
1164.9	193.783
1165.48	196.158
1166.05	194.408
1166.62	194.033
1167.2	193.033
1167.77	191.908
1168.35	191.783
1168.92	191.283
1169.49	192.658
1170.06	194.158
1170.63	191.158
1171.21	189.158
1171.79	190.408
1172.36	187.283
1172.93	189.533
1173.5	187.283
1174.07	189.783
1174.65	185.908
1175.22	193.283
1175.8	188.908
1176.37	190.533
1176.94	186.158
1177.51	184.908
1178.08	187.908
1178.65	185.908
1179.23	189.033
1179.8	183.783
1180.37	187.283
1180.95	186.533
1181.51	188.908
1182.09	186.408
1182.66	181.158
1183.24	185.658
1183.81	184.408
1184.37	182.908
1184.94	183.908
1185.52	185.533
1186.1	183.158
1186.66	182.783
1187.23	182.783
1187.81	185.283
1188.37	178.908
1188.95	177.408
1189.52	185.283
1190.09	182.533
1190.66	183.408
1191.23	181.283
1191.81	183.033
1192.38	181.408
1192.95	182.033
1193.52	179.533
1194.09	184.908
1194.66	184.158
1195.23	181.283
1195.8	181.408
1196.37	184.908
1196.94	178.158
1197.51	177.283
1198.08	181.408
1198.65	182.908
1199.22	180.283
1199.8	181.283
1200.36	179.033
1200.93	181.908
1201.5	181.908
1202.08	175.658
1202.65	179.908
1203.21	179.908
1203.78	177.408
1204.36	179.283
1204.92	177.283
1205.49	172.033
1206.06	178.658
1206.64	177.408
1207.2	177.908
1207.77	174.658
1208.34	171.658
1208.91	174.033
1209.48	167.658
1210.05	167.908
1210.62	168.533
1211.19	162.158
1211.76	167.158
1212.32	168.408
1212.9	168.158
1213.46	171.533
1214.03	166.033
1214.6	169.533
1215.17	176.783
1215.74	173.283
1216.3	170.783
1216.88	171.283
1217.45	174.658
1218.01	174.158
1218.58	174.533
1219.15	173.033
1219.68	173.033
1220.26	174.033
1220.84	172.033
1221.42	174.033
1221.99	174.033
1222.57	174.033
1223.15	168.033
1223.72	168.033
1224.3	173.033
1224.88	178.033
1225.46	170.033
1226.03	171.033
1226.61	174.033
1227.19	171.033
1227.76	171.033
1228.34	176.033
1228.92	175.033
1229.49	169.033
1230.07	169.033
1230.65	175.033
1231.22	171.033
1231.8	172.033
1232.37	174.033
1232.95	169.033
1233.53	170.033
1234.1	168.033
1234.68	171.033
1235.25	175.033
1235.83	173.033
1236.41	172.033
1236.99	169.033
1237.56	170.033
1238.14	166.033
1238.72	172.033
1239.29	168.033
1239.87	168.033
1240.44	172.033
1241.02	171.033
1241.59	164.033
1242.17	172.033
1242.74	173.033
1243.32	174.033
1243.89	167.033
1244.47	173.033
1245.04	174.033
1245.62	166.033
1246.19	175.033
1246.77	172.033
1247.34	169.033
1247.92	174.033
1248.5	166.033
1249.07	174.033
1249.65	172.033
1250.22	170.033
1250.79	179.033
1251.37	180.033
1251.94	168.033
1252.51	164.033
1253.09	169.033
1253.66	169.033
1254.24	166.033
1254.81	173.033
1255.39	174.033
1255.96	171.033
1256.54	170.033
1257.11	172.033
1257.68	170.033
1258.26	174.033
1258.83	178.033
1259.4	171.033
1259.98	173.033
1260.56	170.033
1261.13	174.033
1261.7	171.033
1262.27	168.033
1262.85	169.033
1263.42	171.033
1263.99	175.033
1264.57	172.033
1265.14	170.033
1265.72	166.033
1266.29	166.033
1266.86	165.033
1267.43	168.033
1268	170.033
1268.58	172.033
1269.15	163.033
1269.73	166.033
1270.3	170.033
1270.87	169.033
1271.44	168.033
1272.01	169.033
1272.59	166.033
1273.16	172.033
1273.74	170.033
1274.31	164.033
1274.87	169.033
1275.45	168.033
1276.02	167.033
1276.6	172.033
1277.17	168.033
1277.74	168.033
1278.31	170.033
1278.88	172.033
1279.45	169.033
1280.03	171.033
1280.6	168.033
1281.17	173.033
1281.74	170.033
1282.31	167.033
1282.89	164.033
1283.46	173.033
1284.03	174.033
1284.6	165.033
1285.17	165.033
1285.74	167.033
1286.32	170.033
1286.88	168.033
1287.45	167.033
1288.02	166.033
1288.6	167.033
1289.17	168.033
1289.74	170.033
1290.31	171.033
1290.88	169.033
1291.45	166.033
1292.02	168.033
1292.59	164.033
1293.16	174.033
1293.73	166.033
1294.31	168.033
1294.88	168.033
1295.44	166.033
1296.01	167.033
1296.59	170.033
1297.15	168.033
1297.72	165.033
1298.29	169.033
1298.87	166.033
1299.44	170.033
1300	166.033
1300.57	165.033
1301.15	169.033
1301.72	168.033
1302.28	169.033
1302.85	163.033
1303.43	171.033
1303.99	168.033
1304.56	171.033
1305.13	170.033
1305.7	171.033
1306.27	169.033
1306.84	169.033
1307.41	170.033
1307.98	167.033
1308.55	169.033
1309.11	170.033
1309.69	169.033
1310.25	168.033
1310.82	168.033
1311.39	172.033
1311.96	168.033
1312.53	166.033
1313.09	168.033
1313.67	170.033
1314.23	172.033
1314.8	172.033
1315.37	174.033
1315.94	164.033
1316.51	169.033
1317.07	170.033
1317.65	170.033
1318.21	172.033
1318.78	171.033
1319.35	167.033
1319.92	166.033
1320.48	168.033
1321.05	168.033
1321.62	167.033
1322.19	169.033
1322.75	169.033
1323.33	170.033
1323.89	173.033
1324.46	170.033
1325.03	170.033
1325.59	171.033
1326.16	168.033
1326.73	173.033
1327.29	167.033
1327.86	168.033
1328.43	169.033
1328.99	165.033
1329.56	171.033
1330.13	166.033
1330.7	167.033
1331.27	162.033
1331.83	164.033
1332.39	170.033
1332.97	170.033
1333.53	170.033
1334.1	169.033
1334.67	171.033
1335.23	169.033
1335.79	171.033
1336.37	170.033
1336.93	171.033
1337.5	167.033
1338.07	168.033
1338.63	170.033
1339.2	175.033
1339.76	166.033
1340.33	168.033
1340.9	170.033
1341.46	170.033
1342.03	168.033
1342.59	172.033
1343.15	167.033
1343.73	170.033
1344.29	174.033
1344.85	170.033
1345.42	168.033
1345.98	168.033
1346.55	168.033
1347.11	170.033
1347.68	167.033
1348.25	172.033
1348.81	170.033
1349.38	172.033
1349.94	171.033
1350.51	170.033
1351.07	164.033
1351.63	174.033
1352.2	172.033
1352.76	170.033
1353.33	171.033
1353.9	163.033
1354.46	170.033
1355.03	175.033
1355.59	174.033
1356.16	172.033
1356.72	172.033
1357.29	174.033
1357.85	171.033
1358.41	169.033
1358.98	172.033
1359.54	172.033
1360.1	171.033
1360.66	168.033
1361.23	172.033
1361.79	176.033
1362.36	169.033
1362.92	172.033
1363.49	169.033
1364.05	169.033
1364.61	170.033
1365.18	170.033
1365.74	172.033
1366.31	176.033
1366.86	171.033
1367.43	168.033
1367.99	169.033
1368.56	174.033
1369.12	172.033
1369.69	168.033
1370.25	172.033
1370.81	173.033
1371.37	173.033
1371.94	174.033
1372.5	172.033
1373.07	173.033
1373.63	172.033
1374.19	172.033
1374.75	173.033
1375.32	175.033
1375.88	175.033
1376.44	172.033
1377	177.033
1377.57	173.033
1378.13	170.033
1378.69	175.033
1379.25	172.033
1379.82	175.033
1380.37	172.033
1380.94	172.033
1381.5	167.033
1382.07	172.033
1382.62	174.033
1383.19	174.033
1383.74	174.033
1384.31	170.033
1384.87	172.033
1385.43	170.033
1385.99	167.033
1386.56	172.033
1387.12	172.033
1387.68	170.033
1388.24	175.033
1388.8	175.033
1389.37	173.033
1389.92	175.033
1390.49	169.033
1391.04	173.033
1391.61	171.033
1392.17	169.033
1392.73	170.033
1393.29	170.033
1393.85	174.033
1394.42	172.033
1394.97	173.033
1395.54	175.033
1396.09	172.033
1396.66	168.033
1397.21	172.033
1397.78	177.033
1398.34	174.033
1398.9	170.033
1399.46	167.033
1400.01	172.033
1400.58	172.033
1401.14	177.033
1401.7	167.033
1402.26	176.033
1402.82	178.033
1403.38	170.033
1403.94	168.033
1404.5	173.033
1405.06	178.033
1405.61	172.033
1406.18	174.033
1406.73	174.033
1407.3	174.033
1407.86	174.033
1408.41	174.033
1408.98	176.033
1409.53	178.033
1410.09	173.033
1410.66	172.033
1411.21	175.033
1411.77	178.033
1412.33	173.033
1412.89	176.033
1413.45	168.033
1414	175.033
1414.57	172.033
1415.13	172.033
1415.68	167.033
1416.24	175.033
1416.8	173.033
1417.36	178.033
1417.92	172.033
1418.48	167.033
1419.03	171.033
1419.6	167.033
1420.15	171.033
1420.71	178.033
1421.27	171.033
1421.82	174.033
1422.38	171.033
1422.95	176.033
1423.5	178.033
1424.06	170.033
1424.62	172.033
1425.17	173.033
1425.73	170.033
1426.29	174.033
1426.84	177.033
1427.4	176.033
1427.97	178.033
1428.52	175.033
1429.08	169.033
1429.64	180.033
1430.19	171.033
1430.75	177.033
1431.31	173.033
1431.86	180.033
1432.42	170.033
1432.98	170.033
1433.54	172.033
1434.09	173.033
1434.65	175.033
1435.21	166.033
1435.76	170.033
1436.32	173.033
1436.88	175.033
1437.43	180.033
1437.99	173.033
1438.55	172.033
1439.1	174.033
1439.66	174.033
1440.21	175.033
1440.78	173.033
1441.32	174.033
1441.88	175.033
1442.44	173.033
1443	178.033
1443.55	177.033
1444.11	175.033
1444.67	176.033
1445.22	170.033
1445.77	174.033
1446.33	176.033
1446.89	174.033
1447.44	172.033
1448	176.033
1448.56	174.033
1449.11	170.033
1449.66	176.033
1450.22	176.033
1450.78	175.033
1451.33	177.033
1451.88	174.033
1452.44	175.033
1453	169.033
1453.55	171.033
1454.11	168.033
1454.66	167.033
1455.22	172.033
1455.77	177.033
1456.33	172.033
1456.88	171.033
1457.44	170.033
1457.99	172.033
1458.55	182.033
1459.1	178.033
1459.65	173.033
1460.21	173.033
1460.77	175.033
1461.32	172.033
1461.87	172.033
1462.43	172.033
1462.98	172.033
1463.54	179.033
1464.09	175.033
1464.64	172.033
1465.2	172.033
1465.75	170.033
1466.31	170.033
1466.86	172.033
1467.41	168.033
1467.97	178.033
1468.52	175.033
1469.08	174.033
1469.63	173.033
1470.18	177.033
1470.73	172.033
1471.29	170.033
1471.84	177.033
1472.4	177.033
1472.94	174.033
1473.5	171.033
1474.05	166.033
1474.61	177.033
1475.16	173.033
1475.71	177.033
1476.26	172.033
1476.82	171.033
1477.37	172.033
1477.92	173.033
1478.48	174.033
1479.03	171.033
1479.58	171.033
1480.13	171.033
1480.68	175.033
1481.24	176.033
1481.79	175.033
1482.35	172.033
1482.9	177.033
1483.44	172.033
1484	176.033
1484.55	174.033
1485.1	171.033
1485.66	177.033
1486.21	179.033
1486.76	174.033
1487.31	172.033
1487.86	175.033
1488.41	170.033
1488.97	167.033
1489.52	171.033
1490.07	175.033
1490.62	167.033
1491.18	171.033
1491.72	178.033
1492.27	176.033
1492.82	176.033
1493.38	175.033
1493.93	178.033
1494.48	172.033
1495.03	172.033
1495.59	174.033
1496.14	171.033
1496.69	173.033
1497.23	173.033
1497.78	172.033
1498.33	172.033
1498.89	176.033
1499.44	174.033
1500	174.033
