20.6602	6675.65
21.3365	6835.65
22.0128	7070.65
22.6891	7313.65
23.3653	7775.65
24.0414	8041.65
24.7175	8388.65
25.3936	8612.65
26.0696	9303.65
26.7455	9410.65
27.4237	9396.65
28.0996	9761.65
28.7754	10148.6
29.4512	11195.6
30.1269	11454.6
30.8026	11956.6
31.4782	12641.6
32.1538	13255.6
32.8294	13808.6
33.5049	14545.6
34.1803	15446.6
34.8557	15974.6
35.531	16127.6
36.2063	16528.6
36.8793	16847.6
37.5545	17750.6
38.2297	18435.6
38.9048	18668.6
39.5798	19541.6
40.2549	20355.6
40.9298	21018.6
41.6048	21753.6
42.2797	22343.6
42.9545	23628.6
43.627	24369.6
44.3017	24469.6
44.9764	24526.6
45.651	24722.6
46.3256	25381.6
47.0002	26021.6
47.6724	26784.6
48.3469	26764.6
49.0213	27462.6
49.6956	27876.6
50.3677	28642.6
51.0419	28832.6
51.7162	29305.6
52.3903	30137.6
53.0622	30320.6
53.7362	30560.6
54.4103	31116.6
55.0843	31455.6
55.7559	32016.6
56.4298	32638.6
57.1037	33590.6
57.7752	33942.6
58.4489	34472.6
59.1226	33870.6
59.794	33998.6
60.4676	34071.6
61.1412	34400.6
61.8124	34838.6
62.4859	35216.6
63.157	35457.6
63.8304	36086.6
64.5037	36726.6
65.1747	37654.6
65.848	37038.6
66.5189	37175.6
67.192	37137.6
67.8628	37595.6
68.5359	37743.6
69.2066	38154.6
69.8796	38091.6
70.5502	38262.6
71.2231	38162.6
71.8936	38254.6
72.5664	39021.6
73.2368	38942.6
73.9095	39166.6
74.5798	38656.6
75.2524	38668.6
75.9227	39130.6
76.5952	39218.6
77.2653	39236.6
77.9354	39636.6
78.6078	39791.6
79.2778	39972.6
79.9501	40338.6
80.62	40052.6
81.2899	40673.6
81.962	40878.6
82.6318	40468.6
83.3015	40367.6
83.9735	40312.6
84.6431	40231.6
85.3127	40470.6
85.9846	40319.6
86.6541	40699.6
87.3236	40631.6
87.993	40865.6
88.6646	40904.6
89.334	41091.6
90.0032	41079.6
90.6747	40894.6
91.3439	41285.6
92.0131	41035.6
92.6822	40886.6
93.3512	40489.6
94.0225	40473.6
94.6914	40026.6
95.3604	40563.6
96.0292	40830.6
96.698	40980.6
97.3668	40759.6
98.0378	41291.6
98.7065	40690.6
99.3751	40620.6
100.044	40696.6
100.712	40388.6
101.381	40332.6
102.049	40918.6
102.718	41308.6
103.386	40837.6
104.056	40579.6
104.725	41086.6
105.393	41095.6
106.061	40522.6
106.729	40250.6
107.397	40123.6
108.065	40206.6
108.733	40048.6
109.401	40224.6
110.069	40330.6
110.737	40414.6
111.405	40326.6
112.073	40275.6
112.74	40238.6
113.408	40158.6
114.076	39987.6
114.741	39859.6
115.408	39638.6
116.076	39946.6
116.743	39835.6
117.411	39378.6
118.078	39473.6
118.745	39191.6
119.412	39507.6
120.08	39311.6
120.745	39678.6
121.412	39414.6
122.079	39246.6
122.746	38791.6
123.413	38897.6
124.08	39251.6
124.744	38466.6
125.411	39350.6
126.078	38876.6
126.745	38816.6
127.409	38810.6
128.076	38679.6
128.742	38235.6
129.409	38494.6
130.073	38206.6
130.74	38218.6
131.406	37875.6
132.072	37720.6
132.736	37559.6
133.403	37738.6
134.069	37791.6
134.733	37739.6
135.399	37788.6
136.065	37569.6
136.729	37883.6
137.395	37388.6
138.058	37330.6
138.724	37678.6
139.39	37278.6
140.054	36902.6
140.72	36817.6
141.383	36838.6
142.049	36718.6
142.714	36450.6
143.378	36585.6
144.043	36474.6
144.706	36353.6
145.372	36712.6
146.035	36169.6
146.7	35856.6
147.363	35785.6
148.029	35835.6
148.692	36139.6
149.357	35985.6
150.02	35767.6
150.682	35654.6
151.348	35494.6
152.01	35234.6
152.675	35459.6
153.338	35369.6
154.003	34965.6
154.665	34985.6
155.328	35206.6
155.992	34547.6
156.655	34904.6
157.319	34791.6
157.982	34723.6
158.644	34512.6
159.309	34332.6
159.971	34326.6
160.633	34426.6
161.297	34038.6
161.959	33825.6
162.621	33796.6
163.283	33942.6
163.947	33914.6
164.609	34266.6
165.271	33558.6
165.933	33520.6
166.597	33553.6
167.258	33262.6
167.92	33326.6
168.582	33081.6
169.245	34662.6
169.907	33720.6
170.568	33188.6
171.23	33133.6
171.891	33065.6
172.552	32604.6
173.216	32558.6
173.877	32757.6
174.538	32350.6
175.2	32414.6
175.861	32579.6
176.522	32384.6
177.183	32171.6
177.844	31813.6
178.505	32350.6
179.165	31582.6
179.828	31530.6
180.489	31662.6
181.15	31686.6
181.811	31801.6
182.471	31556.6
183.132	31830.6
183.792	31323.6
184.453	31430.6
185.113	31183.6
185.774	31046.6
186.434	30914.6
187.094	31205.6
187.755	31024.6
188.413	30869.6
189.073	30730.6
189.733	30676.6
190.393	30820.6
191.053	30398.6
191.713	30378.6
192.373	30260.6
193.033	30570.6
193.693	30420.6
194.353	30142.6
195.01	30094.6
195.67	30028.6
196.33	29789.6
196.989	29785.6
197.649	29994.6
198.308	29764.6
198.966	29570.6
199.625	29704.6
200.284	29428.6
200.944	30629.6
201.601	29448.6
202.26	29530.6
202.919	29507.6
203.579	29127.6
204.235	29191.6
204.895	29018.6
205.554	29050.6
206.213	29119.6
206.869	28830.6
207.528	28810.6
208.187	28959.6
208.844	28741.6
209.502	28683.6
210.161	28726.6
210.818	28614.6
211.476	28716.6
212.133	28435.6
212.791	28478.6
213.45	28297.6
214.106	28228.6
214.764	28240.6
215.42	27919.6
216.079	28862.6
216.735	29581.6
217.393	28166.6
218.051	28169.6
218.707	27903.6
219.365	27570.6
220.021	27175.6
220.679	27698.6
221.335	27502.6
221.993	27400.6
222.648	27533.6
223.306	27291.6
223.962	27176.6
224.617	27062.6
225.275	27444.6
225.93	26827.6
226.588	27214.6
227.243	26809.6
227.901	26971.6
228.556	26933.6
229.211	26596.6
229.868	27052.6
230.523	26734.6
231.179	27040.6
231.836	26884.6
232.491	26889.6
233.146	26815.6
233.803	26537.6
234.458	26725.6
235.112	26681.6
235.769	26435.6
236.424	26696.6
237.079	26284.6
237.733	26489.6
238.39	26305.6
239.045	26656.6
239.699	26342.6
240.353	26286.6
241.01	26302.6
241.664	26447.6
242.319	26220.6
242.973	26134.6
243.627	26451.6
244.283	25808.6
244.938	26050.6
245.592	26131.6
246.246	25988.6
246.9	26206.6
247.554	25678.6
248.21	25436.6
248.864	25507.6
249.517	25769.6
250.171	25566.6
250.825	25722.6
251.478	25656.6
252.132	25598.6
252.786	25557.6
253.439	25382.6
254.093	25292.6
254.746	25462.6
255.399	25567.6
256.053	25536.6
256.706	25110.6
257.359	25066.6
258.013	25310.6
258.666	25214.6
259.319	25234.6
259.972	25194.6
260.625	25172.6
261.278	25296.6
261.931	25364.6
262.584	24825.6
263.237	25162.6
263.889	25204.6
264.542	24988.6
265.193	24936.6
265.845	25219.6
266.498	24924.6
267.151	25227.6
267.803	24748.6
268.456	24830.6
269.108	24534.6
269.758	24732.6
270.411	24730.6
271.063	24548.6
271.715	24697.6
272.367	24924.6
273.017	24687.6
273.67	24574.6
274.322	24632.6
274.974	25030.6
275.624	24523.6
276.276	24646.6
276.927	24519.6
277.577	24817.6
278.229	24615.6
278.881	24403.6
279.532	24286.6
280.182	24362.6
280.834	24320.6
281.485	24309.6
282.135	24452.6
282.786	24222.6
283.435	23757.6
284.087	24097.6
284.738	24207.6
285.387	24014.6
286.039	24172.6
286.688	24036.6
287.339	23975.6
287.99	23894.6
288.639	24155.6
289.29	23896.6
289.939	23929.6
290.59	23776.6
291.238	23842.6
291.889	23803.6
292.538	23831.6
293.189	23711.6
293.837	23892.6
294.488	23698.6
295.137	23878.6
295.787	23576.6
296.436	23753.6
297.086	23785.6
297.734	23729.6
298.383	23436.6
299.033	23631.6
299.681	23547.6
300.331	23450.6
300.98	23464.6
301.628	23639.6
302.278	23283.6
302.926	23542.6
303.574	23500.6
304.224	23617.6
304.871	23420.6
305.519	23400.6
306.169	23393.6
306.817	23469.6
307.464	23267.6
308.112	23446.6
308.762	23406.6
309.409	23647.6
310.057	23458.6
310.704	23323.6
311.354	23089.6
312.001	23630.6
312.648	23335.6
313.295	23048.6
313.945	22841.6
314.592	22904.6
315.239	22991.6
315.886	23076.6
316.533	23232.6
317.18	23278.6
317.829	22872.6
318.476	22894.6
319.123	22731.6
319.77	23096.6
320.416	22642.6
321.063	22846.6
321.71	22612.6
322.356	22974.6
323.003	22960.6
323.649	22918.6
324.296	22714.6
324.942	22915.6
325.589	22742.6
326.235	22734.6
326.884	22912.6
327.53	22677.6
328.174	22660.6
328.82	22701.6
329.466	22649.6
330.112	22472.6
330.758	22259.6
331.404	22864.6
332.05	22486.6
332.696	22534.6
333.342	22816.6
333.988	22535.6
334.634	22423.6
335.279	22442.6
335.925	22240.6
336.571	22409.6
337.214	22573.6
337.86	22478.6
338.505	22285.6
339.151	22352.6
339.796	22360.6
340.441	22396.6
341.084	22414.6
341.73	22188.6
342.375	22777.6
343.02	22295.6
343.663	22302.6
344.308	22488.6
344.953	22294.6
345.598	22063.6
346.241	21998.6
346.886	22183.6
347.531	22216.6
348.176	22206.6
348.818	22199.6
349.463	22343.6
350.108	21878.6
350.75	21954.6
351.395	22154.6
352.04	22353.6
352.682	22413.6
353.327	22263.6
353.969	22244.6
354.613	21987.6
355.258	22144.6
355.9	22116.6
356.544	22054.6
357.186	21955.6
357.83	21915.6
358.474	22078.6
359.116	22237.6
359.76	22164.6
360.402	22142.6
361.046	22169.6
361.688	22071.6
362.332	21973.6
362.973	22392.6
363.617	22219.6
364.259	22100.6
364.903	22161.6
365.544	22217.6
366.185	21981.6
366.829	21996.6
367.47	22066.6
368.114	21791.6
368.755	22226.6
369.399	22023.6
370.04	22190.6
370.681	22227.6
371.324	22086.6
371.965	21737.6
372.606	22162.6
373.249	21966.6
373.89	22293.6
374.531	22117.6
375.174	22398.6
375.815	22337.6
376.456	22056.6
377.099	22191.6
377.739	22209.6
378.38	21983.6
379.02	22067.6
379.663	21733.6
380.304	22083.6
380.944	22112.6
381.585	22190.6
382.225	22400.6
382.867	22096.6
383.508	22216.6
384.148	22049.6
384.788	22198.6
385.428	23736.6
386.068	22564.6
386.71	22122.6
387.35	22117.6
387.99	22168.6
388.63	22444.6
389.27	21930.6
389.91	22048.6
390.55	22239.6
391.19	22203.6
391.829	22335.6
392.469	22428.6
393.109	22025.6
393.75	22114.6
394.39	22310.6
395.029	22092.6
395.669	22490.6
396.308	22122.6
396.948	22335.6
397.587	22043.6
398.226	21894.6
398.863	21886.6
399.502	22229.6
400.142	22556.6
400.781	22420.6
401.42	22366.6
402.059	21943.6
402.698	22766.6
403.337	22450.6
403.975	22252.6
404.614	22354.6
405.253	22317.6
405.89	22483.6
406.528	22390.6
407.167	22267.6
407.806	22238.6
408.444	22569.6
409.083	22522.6
409.719	22330.6
410.358	22470.6
410.996	22332.6
411.634	22193.6
412.27	22608.6
412.909	22480.6
413.547	22309.6
414.185	22991.6
414.821	24057.6
415.459	22756.6
416.097	22485.6
416.735	22490.6
417.371	22822.6
418.009	22590.6
418.647	22582.6
419.283	22430.6
419.92	22576.6
420.558	22803.6
421.194	22800.6
421.831	23569.6
422.467	23972.6
423.104	23827.6
423.742	23102.6
424.377	22742.6
425.015	22903.6
425.65	22746.6
426.287	22794.6
426.923	22735.6
427.56	23059.6
428.195	23466.6
428.832	22925.6
429.469	23066.6
430.104	23066.6
430.739	22544.6
431.376	22722.6
432.011	22875.6
432.648	23027.6
433.283	23144.6
433.92	22876.6
434.554	23146.6
435.191	23111.6
435.826	22665.6
436.46	23403.6
437.097	23116.6
437.731	23134.6
438.368	23182.6
439.002	22966.6
439.636	23200.6
440.273	22967.6
440.907	23430.6
441.541	22615.6
442.177	23166.6
442.811	23269.6
443.446	23270.6
444.082	23176.6
444.716	23130.6
445.35	23432.6
445.983	23440.6
446.62	23375.6
447.253	23411.6
447.887	23482.6
448.521	23362.6
449.157	23199.6
449.79	23567.6
450.424	23494.6
451.057	23430.6
451.691	23369.6
452.324	23470.6
452.96	23574.6
453.593	23555.6
454.227	23665.6
454.86	23568.6
455.493	23760.6
456.126	23606.6
456.759	23325.6
457.392	23770.6
458.026	23582.6
458.661	23558.6
459.294	23872.6
459.927	23591.6
460.56	23822.6
461.192	23983.6
461.825	23938.6
462.458	24114.6
463.091	24144.6
463.723	23984.6
464.356	23985.6
464.989	23907.6
465.621	24094.6
466.254	24436.6
466.886	24290.6
467.516	24031.6
468.149	23989.6
468.781	24350.6
469.413	24157.6
470.046	24404.6
470.678	24710.6
471.31	24310.6
471.942	24716.6
472.574	24616.6
473.204	24802.6
473.836	24794.6
474.468	25306.6
475.1	24728.6
475.732	25262.6
476.364	25016.6
476.993	25179.6
477.625	25463.6
478.257	25298.6
478.889	25790.6
479.518	25662.6
480.15	25877.6
480.781	25967.6
481.413	25928.6
482.042	26106.6
482.673	26183.6
483.305	26134.6
483.934	26288.6
484.565	26790.6
485.196	26756.6
485.825	26981.6
486.457	27115.6
487.088	27214.6
487.717	27331.6
488.348	27622.6
488.979	28008.6
489.607	27992.6
490.238	28255.6
490.867	28460.6
491.498	28690.6
492.126	28809.6
492.757	29523.6
493.388	29749.6
494.016	29564.6
494.647	29883.6
495.275	30059.6
495.906	30594.6
496.534	30675.6
497.165	30840.6
497.793	31147.6
498.421	31102.6
499.051	31955.6
499.68	31865.6
500.31	32017.6
500.938	32247.6
501.568	32834.6
502.196	33064.6
502.824	32899.6
503.454	33417.6
504.082	33964.6
504.712	34636.6
505.339	34446.6
505.967	34342.6
506.597	34862.6
507.224	35566.6
507.852	35464.6
508.482	35652.6
509.109	36291.6
509.737	36574.6
510.364	37283.6
510.993	37380.6
511.621	37612.6
512.248	38010.6
512.875	38552.6
513.505	38822.6
514.132	38907.6
514.759	39147.6
515.386	39413.6
516.015	39690.6
516.642	40433.6
517.269	40544.6
517.896	40686.6
518.523	40974.6
519.15	41532.6
519.776	41978.6
520.405	42314.6
521.032	42204.6
521.659	42590.6
522.285	43174.6
522.912	43562.6
523.538	43966.6
524.165	44237.6
524.791	44390.6
525.418	45455.6
526.044	45030.6
526.67	45837.6
527.297	46258.6
527.923	46500.6
528.549	46629.6
529.175	47114.6
529.801	46995.6
530.427	47643.6
531.053	48026.6
531.679	48048.6
532.305	48787.6
532.931	49068.6
533.557	49114.6
534.183	49294.6
534.808	49330.6
535.434	49710.6
536.06	50326.6
536.683	50100.6
537.309	50776.6
537.935	50932.6
538.56	50900.6
539.186	50812.6
539.811	51682.6
540.434	51873.6
541.06	51486.6
541.685	52181.6
542.31	52323.6
542.935	51977.6
543.558	52482.6
544.184	52290.6
544.809	52730.6
545.434	52616.6
546.057	52682.6
546.682	52750.6
547.306	52542.6
547.929	52782.6
548.554	52831.6
549.179	52958.6
549.801	52529.6
550.426	52818.6
551.051	52487.6
551.673	53335.6
552.298	52313.6
552.923	52543.6
553.545	52108.6
554.169	52067.6
554.792	51776.6
555.416	51690.6
556.04	51312.6
556.663	51848.6
557.287	51286.6
557.909	51183.6
558.533	50823.6
559.155	50699.6
559.779	50345.6
560.401	49566.6
561.025	50123.6
561.647	49726.6
562.271	49582.6
562.893	48608.6
563.517	48588.6
564.138	48552.6
564.76	48295.6
565.384	48113.6
566.005	47108.6
566.629	47102.6
567.25	46534.6
567.874	46057.6
568.495	46373.6
569.117	45369.6
569.74	44547.6
570.361	44692.6
570.982	44454.6
571.606	44262.6
572.227	43746.6
572.848	42999.6
573.471	42987.6
574.092	42496.6
574.713	41794.6
575.334	41590.6
575.957	41214.6
576.578	40571.6
577.199	40058.6
577.82	39915.6
578.442	39519.6
579.063	39160.6
579.684	38884.6
580.304	38619.6
580.925	37937.6
581.545	37458.6
582.168	37006.6
582.788	37075.6
583.409	35938.6
584.029	35856.6
584.649	35177.6
585.27	34904.6
585.89	34604.6
586.51	34079.6
587.13	33663.6
587.753	33662.6
588.373	33124.6
588.993	32667.6
589.613	32428.6
590.233	31771.6
590.852	31494.6
591.472	31270.6
592.092	30720.6
592.712	30224.6
593.332	30342.6
593.951	30142.6
594.571	29238.6
595.191	29036.6
595.81	28757.6
596.427	28136.6
597.047	27945.6
597.666	27488.6
598.286	27060.6
598.905	26384.6
599.525	26504.6
600.144	26135.6
600.763	25726.6
601.382	25411.6
601.999	25354.6
602.618	25062.6
603.237	24725.6
603.857	24596.6
604.476	24390.6
605.092	24075.6
605.711	23709.6
606.33	23322.6
606.949	23078.6
607.568	22612.6
608.184	22687.6
608.803	22387.6
609.422	22108
610.038	21984.6
610.657	21578.7
611.275	21356.9
611.892	20966.1
612.51	20915.2
613.129	20835.7
613.745	20607.2
614.363	20300.7
614.982	20257.1
615.598	20243.6
616.216	19838.8
616.834	19390.9
617.45	19551.9
618.068	19367.1
618.684	19194.5
619.302	19017.6
619.918	18994.7
620.536	18724.3
621.154	18262.2
621.769	18416.8
622.387	18220.4
623.003	17931.9
623.621	18016.1
624.236	17770.9
624.854	17459.3
625.469	17492
626.085	17485
626.702	17393.6
627.318	16971.3
627.935	16877.9
628.55	16737.5
629.168	16732.7
629.783	16666.3
630.398	16473.7
631.015	16442.9
631.63	16185.3
632.245	16077
632.862	15843.9
633.477	15944.3
634.092	15656.9
634.709	15589.9
635.324	15572.4
635.939	15591.7
636.556	15455.1
637.171	15269.7
637.785	15205.7
638.4	15074.8
639.017	14848.5
639.631	14767.6
640.246	14679.8
640.86	14743.4
641.477	14401.2
642.091	14654.7
642.705	14307.8
643.32	14194.6
643.934	14208.9
644.548	14068
645.164	13861.3
645.779	13912.7
646.393	13954.9
647.007	13728.1
647.621	13625.5
648.235	13571.4
648.849	13521.1
649.463	13439.5
650.076	13369
650.69	13377.1
651.304	13107.2
651.92	13132.7
652.534	13014.4
653.147	13044.4
653.761	12918.2
654.374	13000.5
654.988	12868.6
655.601	12618.4
656.043	12668.4
656.667	12559.4
657.291	12409.4
657.913	12445.4
658.537	12164.4
659.161	12218.4
659.783	11958.4
660.407	12203.4
661.031	11950.4
661.652	11744.4
662.276	11833.4
662.9	11732.4
663.522	11767.4
664.145	11579.4
664.767	11809.4
665.39	11797.4
666.012	11691.4
666.635	11491.4
667.257	11332.4
667.88	11315.4
668.503	11033.4
669.125	11175.4
669.748	10963.4
670.369	11112.4
670.992	11121.4
671.613	10975.4
672.234	10937.4
672.857	10843.4
673.478	11024.4
674.101	10720.4
674.722	10722.4
675.345	10653.4
675.966	10141.4
676.587	10217.4
677.209	10121.4
677.83	10240.4
678.453	10076.4
679.073	10220.4
679.694	10223.4
680.316	10105.4
680.937	10289.4
681.557	10198.4
682.18	10029.4
682.8	9881.35
683.42	9947.35
684.043	10008.4
684.663	9872.35
685.283	9781.35
685.903	9512.35
686.525	9865.35
687.145	9722.35
687.765	9510.35
688.385	9289.35
689.007	9590.35
689.627	9437.35
690.247	9519.35
690.867	9494.35
691.486	9351.35
692.108	9271.35
692.728	9239.35
693.348	9296.35
693.967	9192.35
694.587	9251.35
695.206	9127.35
695.826	9099.35
696.447	9225.35
697.066	9046.35
697.686	8929.35
698.305	8946.35
698.924	9044.35
699.543	9014.35
700.163	8914.35
700.782	8901.35
701.401	8968.35
702.02	8854.35
702.639	8836.35
703.258	8777.35
703.877	8794.35
704.496	8775.35
705.114	8757.35
705.733	8600.35
706.352	8753.35
706.971	8581.35
707.589	8759.35
708.208	8620.35
708.826	8551.35
709.445	8759.35
710.063	8668.35
710.682	8671.35
711.3	8480.35
711.919	8507.35
712.535	8446.35
713.153	8514.35
713.771	8329.35
714.39	8488.35
715.008	8649.35
715.626	8512.35
716.244	8483.35
716.86	8563.35
717.478	8466.35
718.096	8486.35
718.714	8485.35
719.332	8467.35
719.948	8505.35
720.565	8624.35
721.183	8421.35
721.801	8617.35
722.416	8458.35
723.034	8581.35
723.652	8403.35
724.267	8603.35
724.885	8447.35
725.502	8545.35
726.12	8619.35
726.735	8676.35
727.352	8686.35
727.969	8599.35
728.585	8731.35
729.202	8748.35
729.817	8640.35
730.434	8717.35
731.051	8852.35
731.666	8806.35
732.283	8720.35
732.898	8948.35
733.515	9030.35
734.132	8885.35
734.747	9030.35
735.363	9009.35
735.978	9115.35
736.595	9170.35
737.209	9138.35
737.826	9275.35
738.44	9401.35
739.057	9273.35
739.672	9242.35
740.288	9338.35
740.902	9473.35
741.519	9415.35
742.133	9545.35
742.749	9619.35
743.364	9717.35
743.978	9829.35
744.594	9883.35
745.208	9732.35
745.824	10059.4
746.438	10061.4
747.052	10066.4
747.668	10041.4
748.282	10111.4
748.896	10953.4
749.512	10272.4
750.125	10305.4
750.739	10431.4
751.355	10365.4
751.968	10489.4
752.582	10418.4
753.198	10473.4
753.811	10522.4
754.424	10764.4
755.038	10775.4
755.653	10857.4
756.267	10679.4
756.88	10842.4
757.493	10991.4
758.106	10865.4
758.722	11041.4
759.335	11193.4
759.948	11110.4
760.561	11287.4
761.174	11368.4
761.787	11285.4
762.402	11129.4
763.015	11412.4
763.628	11426.4
764.24	11531.4
764.853	11225.4
765.466	11515.4
766.079	11450.4
766.691	11602.4
767.304	11595.4
767.919	11588.4
768.531	11645.4
769.143	11518.4
769.756	11544.4
770.368	11821.4
770.981	11818.4
771.593	11747.4
772.205	11679.4
772.818	11819.4
773.43	11624.4
774.042	11622.4
774.654	11849.4
775.266	11761.4
775.876	11769.4
776.488	12002.4
777.1	11980.4
777.712	11737.4
778.324	11987.4
778.936	12065.4
779.547	11802.4
780.159	11797.4
780.771	11735.4
781.382	11882.4
781.992	11859.4
782.604	11744.4
783.215	11823.4
783.827	11802.4
784.438	11633.4
785.047	11720.4
785.659	11549.4
786.27	11503.4
786.881	11661.4
787.493	11707.4
788.102	11744.4
788.713	11714.4
789.324	11461.4
789.935	11727.4
790.544	11556.4
791.155	11591.4
791.766	11434.4
792.375	11521.4
792.986	11348.4
793.597	11421.4
794.206	11499.4
794.816	11309.4
795.427	11273.4
796.036	11584.4
796.646	11479.4
797.257	11330.4
797.866	11349.4
798.476	11746.4
799.084	11090.4
799.695	11358.4
800.305	11502.4
800.914	11382.4
801.524	11459.4
802.132	11155.4
802.742	11398.4
803.351	11393.4
803.961	11442.4
804.569	11322.4
805.179	11535.4
805.787	11312.4
806.397	11359.4
807.005	11364.4
807.615	11573.4
808.223	11537.4
808.832	11417.4
809.44	11466.4
810.048	11698.4
810.658	11543.4
811.265	11677.4
811.875	11578.4
812.482	11614.4
813.09	11912.4
813.699	11833.4
814.307	11811.4
814.916	11953.4
815.524	12000.4
816.131	11984.4
816.74	12140.4
817.347	11904.4
817.955	12312.4
818.562	12339.4
819.171	12376.4
819.778	12475.4
820.385	12885.4
820.994	12653.4
821.601	12763.4
822.208	13141.4
822.815	12886.4
823.421	13014.4
824.03	13248.4
824.637	13329.4
825.244	13479.4
825.85	13527.4
826.457	13755.4
827.066	13759.4
827.672	14052.4
828.279	13893.4
828.885	14062.4
829.492	14237.4
830.098	14257.4
830.704	14409.4
831.313	14696.4
831.919	14713.4
832.525	14773.4
833.131	15150.4
833.737	15173.4
834.344	15106.4
834.95	15455.4
835.556	15865.4
836.162	15907.4
836.768	16033.4
837.373	16255.4
837.979	16488.4
838.585	16920.4
839.191	16834.4
839.797	16873.4
840.402	17192.4
841.008	17268.4
841.614	17472.4
842.219	17649.4
842.825	17918.4
843.43	17957.4
844.034	18249.4
844.639	18455.4
845.244	18519.4
845.85	18959.4
846.455	19066.4
847.06	19422.4
847.665	19590.4
848.271	19280.4
848.874	19925.4
849.479	20089.4
850.084	20233.4
850.689	20549.4
851.294	20877.4
851.897	20862.4
852.502	21625.4
853.107	21561.4
853.711	22040.4
854.314	21979.4
854.919	22335.4
855.523	22153.4
856.128	22595.4
856.731	22755.4
857.335	23202.4
857.94	23089.4
858.542	23405.4
859.147	23335.4
859.751	23667.4
860.353	25025.4
860.958	25305.4
861.562	24694.4
862.164	24719.4
862.769	24891.4
863.371	25211.4
863.975	25555.4
864.579	25449.4
865.181	25428.4
865.785	26001.4
866.387	25926.4
866.991	25813.4
867.593	26223.4
868.197	26441.4
868.798	27086.4
869.402	26518.4
870.004	27068.4
870.607	27285.4
871.209	26999.4
871.813	27082.4
872.414	27042.4
873.018	27475.4
873.619	27417.4
874.223	27653.4
874.824	27624.4
875.425	27706.4
876.029	27817.4
876.63	27873.4
877.233	27750.4
877.835	28242.4
878.436	27921.4
879.039	27955.4
879.64	27849.4
880.241	28089.4
880.844	27951.4
881.445	28089.4
882.046	27976.4
882.649	28103.4
883.25	28338.4
883.85	27769.4
884.453	27842.4
885.054	28025.4
885.654	27353.4
886.255	27835.4
886.858	27505.4
887.458	28084.4
888.059	27794.4
888.659	27520.4
889.26	27698.4
889.862	27497.4
890.462	27074.4
891.063	27519.4
891.663	28587.4
892.263	27423.4
892.863	27158.4
893.466	26897.4
894.066	27023.4
894.666	26930.4
895.266	26686.4
895.866	26765.4
896.466	26398.4
897.066	26637.4
897.666	26256.4
898.266	25967.4
898.865	26165.4
899.465	26136.4
900.065	25913.4
900.664	25711.4
901.264	25411.4
901.864	25401.4
902.463	25176.4
903.063	25322.4
903.662	25172.4
904.262	25151.4
904.861	24945.4
905.461	24333.4
906.06	24505.4
906.659	24445.4
907.258	24377.4
907.858	24370.4
908.457	23968.4
909.056	23456.4
909.653	23461.4
910.252	23398.4
910.851	23214.4
911.45	22940.4
912.049	22778.4
912.648	22573.4
913.247	22372.4
913.843	22314.4
914.442	21965.4
915.041	21692.4
915.64	21369.4
916.236	21755.4
916.835	20969.4
917.434	21246.4
918.032	21005.4
918.628	20689.4
919.227	20277.4
919.825	19967.4
920.424	20049.4
921.02	19937.4
921.618	19630.4
922.217	19391.4
922.813	19001.4
923.411	19129.4
924.009	18905.4
924.605	18729.4
925.203	18345.4
925.801	17892.4
926.397	18006.4
926.995	17481.4
927.591	17487.4
928.189	17254.4
928.785	17205.4
929.383	16675.4
929.98	16633.4
930.576	16613.4
931.174	15922.4
931.769	15862.4
932.367	15601.4
932.963	15623.4
933.56	15333.4
934.156	15098.4
934.753	15155.4
935.348	14695.4
935.946	14634.4
936.541	14378.4
937.136	14259.4
937.734	13982.4
938.329	13983.4
938.926	13562.4
939.521	13536.4
940.116	13242.4
940.713	13161.4
941.308	12922.4
941.905	12662.4
942.5	12527.4
943.095	12371.4
943.692	12170.4
944.287	11823.4
944.881	11699.4
945.478	11817.4
946.073	11367.4
946.667	11425.4
947.262	11291.4
947.859	11158.4
948.453	11017.4
949.048	11297.4
949.642	10838.4
950.238	10469.4
950.833	10149.4
951.427	10276.4
952.021	10101.4
952.616	9931.35
953.212	10098.4
953.806	9842.35
954.4	9525.35
954.994	9493.35
955.588	9382.35
956.182	9227.35
956.776	9230.35
957.372	9078.35
957.966	9036.35
958.56	8849.35
959.154	8579.35
959.748	8426.35
960.341	8587.35
960.935	8383.35
961.529	8567.35
962.122	8412.35
962.716	8319.35
963.31	8116.35
963.903	8113.35
964.497	7956.35
965.09	7940.35
965.683	7891.35
966.277	7871.35
966.87	7737.35
967.463	7742.35
968.057	7525.35
968.65	7564.35
969.243	7466.35
969.836	7468.35
970.429	7413.35
971.02	7372.35
971.613	7229.35
972.206	7182.35
972.799	7232.35
973.392	7076.35
973.985	7081.35
974.578	7037.35
975.168	7043.35
975.761	6809.35
976.354	6864.35
976.947	6926.35
977.539	6717.35
978.13	6706.35
978.722	6697.35
979.315	6735.35
979.907	6615.35
980.498	6579.35
981.09	6565.35
981.682	6498.35
982.273	6525.35
982.865	6384.35
983.457	6393.35
984.049	6332.35
984.64	6347.35
985.232	6324.35
985.824	6289.35
986.414	6439.35
987.006	6432.35
987.596	6280.35
988.188	6151.35
988.78	6132.35
989.369	6107.35
989.961	6044.35
990.551	6059.35
991.143	5947.35
991.732	6059.35
992.324	5981.35
992.916	5976.35
993.505	5915.35
994.097	5907.35
994.686	5936.35
995.278	5918.35
995.867	5854.35
996.457	5830.35
997.048	5824.35
997.637	5804.35
998.229	5768.35
998.818	5744.35
999.409	5771.35
999.998	5702.35
1000.59	5663.35
1001.18	5823.35
1001.77	5643.35
1002.36	5607.35
1002.95	5597.35
1003.54	5582.35
1004.13	5589.35
1004.72	5552.35
1005.3	5607.35
1005.9	5468.35
1006.48	5509.35
1007.07	5509.35
1007.66	5442.35
1008.25	5483.35
1008.84	5430.35
1009.43	5380.35
1010.02	5401.35
1010.61	5366.35
1011.2	5374.35
1011.79	5344.35
1012.38	5330.35
1012.96	5328.35
1013.55	5283.35
1014.14	5269.35
1014.73	5254.35
1015.32	5249.35
1015.91	5253.35
1016.49	5223.35
1017.08	5285.35
1017.67	5176.35
1018.26	5151.35
1018.85	5204.35
1019.43	5151.35
1020.02	5119.35
1020.61	5117.35
1021.2	5138.35
1021.79	5099.35
1022.38	5080.35
1022.96	5041.35
1023.55	5060.35
1024.14	5065.35
1024.73	4998.35
1025.31	4985.35
1025.9	4987.35
1026.49	4987.35
1027.08	4923.35
1027.66	4929.35
1028.25	4945.35
1028.84	4888.35
1029.42	4893.35
1030.01	4875.35
1030.6	4834.35
1031.18	4841.35
1031.77	4855.35
1032.36	4825.35
1032.95	4817.35
1033.53	4762.35
1034.12	4776.35
1034.7	4745.35
1035.29	4762.35
1035.88	4728.35
1036.46	4714.35
1037.05	4687.35
1037.64	4717.35
1038.22	4672.35
1038.81	4653.35
1039.4	4651.35
1039.98	4642.35
1040.57	4650.35
1041.15	4636.35
1041.74	4603.35
1042.32	4599.35
1042.91	4566.35
1043.5	4566.35
1044.08	4558.35
1044.67	4563.35
1045.25	4521.35
1045.84	4522.35
1046.42	4503.35
1047.01	4509.35
1047.59	4477.35
1048.18	4457.35
1048.76	4472.35
1049.35	4457.35
1049.94	4500.35
1050.52	4437.35
1051.11	4418.35
1051.69	4415.35
1052.28	4386.35
1052.86	4422.35
1053.44	4377.35
1054.03	4348.35
1054.61	4349.35
1055.2	4356.35
1055.78	4333.35
1056.37	4330.35
1056.95	4320.35
1057.54	4316.35
1058.12	4300.35
1058.7	4290.35
1059.29	4289.35
1059.87	4269.35
1060.46	4275.35
1061.04	4265.35
1061.62	4244.35
1062.21	4238.35
1062.79	4235.35
1063.38	4235.35
1063.96	4209.35
1064.54	4213.35
1065.13	4203.35
1065.71	4200.35
1066.29	4173.35
1066.88	4187.35
1067.46	4181.35
1068.04	4178.35
1068.63	4177.35
1069.21	4152.35
1069.79	4157.35
1070.38	4146.35
1070.96	4145.35
1071.54	4145.35
1072.12	4135.35
1072.71	4132.35
1073.29	4129.35
1073.87	4118.35
1074.46	4127.35
1075.04	4113.35
1075.62	4111.35
1076.2	4091.35
1076.79	4089.35
1077.37	4092.35
1077.95	4086.35
1078.53	4076.35
1079.12	4085.35
1079.7	4086.35
1080.28	4071.35
1080.86	4061.35
1081.44	4054.35
1082.03	4065.35
1082.61	4054.35
1083.19	4063.35
1083.77	4060.35
1084.35	4053.35
1084.93	4050.35
1085.52	4040.35
1086.1	4019.35
1086.68	4032.35
1087.26	4029.35
1087.84	4042.35
1088.42	4029.35
1089	4026.35
1089.59	4021.35
1090.17	4009.35
1090.75	4015.35
1091.33	4012.35
1091.91	4011.35
1092.49	4024.35
1093.07	3999.35
1093.65	3998.35
1094.23	4003.35
1094.81	3999.35
1095.4	3993.35
1095.97	4007.35
1096.55	4010.35
1097.14	3992.35
1097.72	3993.35
1098.3	4011.35
1098.88	3989.35
1099.46	3974.35
1100.04	3981.35
1100.62	3992.35
1101.2	3989.35
1101.78	3982.35
1102.36	3966.35
1102.94	3988.35
1103.52	3968.35
1104.1	3981.35
1104.68	3969.35
1105.26	3964.35
1105.83	3977.35
1106.41	3970.35
1106.99	3967.35
1107.57	3971.35
1108.15	3964.35
1108.73	3969.35
1109.31	3979.35
1109.89	3960.35
1110.47	3964.35
1111.05	3951.35
1111.63	3958.35
1112.21	3955.35
1112.79	3960.35
1113.36	3957.35
1113.94	3966.35
1114.52	3948.35
1115.1	3954.35
1115.68	3939.35
1116.26	3941.35
1116.84	3954.35
1117.41	3946.35
1117.99	3953.35
1118.57	3935.35
1119.15	3941.35
1119.73	3933.6
1120.31	3941.6
1120.88	3942.4
1121.46	3938.96
1122.04	3935.06
1122.62	3931.66
1123.2	3932.14
1123.77	3938.96
1124.35	3939.59
1124.93	3938.54
1125.51	3932.07
1126.08	3927.14
1126.66	3926.25
1127.24	3931.69
1127.82	3932.81
1128.39	3930.76
1128.97	3933.24
1129.55	3909.78
1130.13	3924
1130.7	3933.75
1131.28	3927.12
1131.86	3940.03
1132.43	3915.95
1133.01	3924.77
1133.59	3921.17
1134.16	3917.81
1134.74	3911.14
1135.32	3923.43
1135.89	3918.01
1136.47	3918.1
1137.05	3915.33
1137.62	3906.36
1138.2	3914.45
1138.78	3907.94
1139.35	3904.09
1139.93	3914.18
1140.5	3904.31
1141.08	3906.56
1141.66	3924.69
1142.23	3899.74
1142.81	3904.32
1143.38	3905.52
1143.96	3901.7
1144.54	3902.99
1145.11	3904.28
1145.69	3907.97
1146.26	3895.68
1146.84	3907.5
1147.42	3909.63
1147.99	3892.98
1148.56	3908.28
1149.14	3894.46
1149.72	3902.27
1150.29	3902.12
1150.87	3902.74
1151.44	3900.5
1152.02	3897.02
1152.59	3892.07
1153.17	3894.22
1153.74	3885.38
1154.32	3899.08
1154.89	3891.76
1155.46	3891.68
1156.04	3893.37
1156.61	3890.72
1157.19	3892.4
1157.76	3888.9
1158.34	3887.57
1158.91	3889.89
1159.49	3890.98
1160.06	3884.91
1160.64	3891.58
1161.21	3877.53
1161.78	3891.27
1162.36	3880.33
1162.93	3884.36
1163.5	3884.8
1164.08	3881.95
1164.65	3878.97
1165.23	3891.96
1165.8	3885.6
1166.37	3887.85
1166.95	3883.25
1167.52	3883.88
1168.09	3874.69
1168.67	3878.27
1169.24	3880.5
1169.81	3874.71
1170.39	3877.51
1170.96	3886.68
1171.53	3879.21
1172.11	3865.72
1172.68	3877.3
1173.25	3866.12
1173.82	3873.74
1174.4	3875.28
1174.97	3877.34
1175.54	3868.58
1176.12	3871.87
1176.69	3875.9
1177.26	3869.22
1177.83	3868.53
1178.41	3867.27
1178.98	3875.3
1179.55	3863.66
1180.12	3876.3
1180.69	3876.53
1181.27	3862.91
1181.84	3862.94
1182.41	3856.27
1182.98	3863.6
1183.55	3866.22
1184.13	3861.24
1184.7	3863.2
1185.27	3863.92
1185.84	3872.32
1186.41	3869.57
1186.98	3867.76
1187.56	3870.51
1188.13	3880.24
1188.7	3875.1
1189.27	3863.26
1189.84	3864.42
1190.41	3863.85
1190.98	3868.14
1191.55	3857.58
1192.13	3858.19
1192.7	3862.1
1193.27	3882.98
1193.84	3880.35
1194.41	3857.45
1194.98	3862.19
1195.55	3860.21
1196.12	3855.3
1196.69	3859.74
1197.26	3856.36
1197.83	3854.27
1198.4	3850.99
1198.97	3853.05
1199.54	3849.82
1200.12	3864.72
1200.69	3862.01
1201.26	3863.66
1201.83	3846.72
1202.4	3856.37
1202.97	3848.83
1203.54	3862.25
1204.11	3847.43
1204.67	3856.97
1205.24	3853.28
1205.81	3848.54
1206.38	3842.1
1206.95	3851.52
1207.52	3851.75
1208.09	3839.58
1208.66	3853.9
1209.23	3845.42
1209.8	3857.18
1210.37	3836.33
1210.94	3839.53
1211.51	3828.75
1212.08	3835.01
1212.65	3820.04
1213.22	3826.17
1213.78	3827.64
1214.35	3826.08
1214.92	3814.74
1215.49	3823.7
1216.06	3826.2
1216.63	3833.44
1217.2	3849.48
1217.77	3857.9
1218.33	3844.63
1218.9	3837.24
1219.47	3842.63
1220.04	3849.07
1220.58	3845.07
1221.16	3846.07
1221.74	3846.07
1222.32	3854.07
1222.89	3849.07
1223.47	3845.07
1224.05	3843.07
1224.62	3846.07
1225.2	3843.07
1225.78	3839.07
1226.36	3839.07
1226.93	3849.07
1227.51	3852.07
1228.09	3847.07
1228.66	3843.07
1229.24	3851.07
1229.82	3836.07
1230.39	3845.07
1230.97	3849.07
1231.54	3842.07
1232.12	3841.07
1232.7	3845.07
1233.27	3846.07
1233.85	3845.07
1234.43	3846.07
1235	3856.07
1235.58	3842.07
1236.16	3848.07
1236.73	3860.07
1237.31	3849.07
1237.88	3851.07
1238.46	3846.07
1239.04	3846.07
1239.61	3848.07
1240.19	3841.07
1240.76	3838.07
1241.34	3850.07
1241.91	3845.07
1242.49	3845.07
1243.06	3858.07
1243.64	3858.07
1244.21	3853.07
1244.79	3846.07
1245.36	3831.07
1245.94	3858.07
1246.52	3838.07
1247.09	3852.07
1247.66	3843.07
1248.24	3857.07
1248.82	3846.07
1249.39	3862.07
1249.96	3847.07
1250.54	3849.07
1251.11	3847.07
1251.69	3845.07
1252.26	3854.07
1252.84	3845.07
1253.41	3857.07
1253.99	3852.07
1254.56	3848.07
1255.13	3854.07
1255.71	3848.07
1256.28	3851.07
1256.86	3847.07
1257.43	3842.07
1258	3844.07
1258.58	3850.07
1259.15	3846.07
1259.73	3856.07
1260.3	3852.07
1260.87	3845.07
1261.45	3846.07
1262.02	3842.07
1262.59	3853.07
1263.17	3858.07
1263.74	3840.07
1264.31	3850.07
1264.89	3852.07
1265.46	3859.07
1266.03	3852.07
1266.61	3853.07
1267.18	3856.07
1267.75	3854.07
1268.32	3857.07
1268.9	3849.07
1269.47	3857.07
1270.05	3864.07
1270.62	3862.07
1271.19	3842.07
1271.76	3865.07
1272.33	3846.07
1272.91	3845.07
1273.48	3852.07
1274.05	3854.07
1274.62	3857.07
1275.2	3840.07
1275.77	3861.07
1276.34	3850.07
1276.91	3852.07
1277.49	3857.07
1278.06	3860.07
1278.63	3854.07
1279.2	3853.07
1279.77	3858.07
1280.34	3854.07
1280.92	3853.07
1281.49	3866.07
1282.06	3864.07
1282.63	3867.07
1283.2	3865.07
1283.77	3868.07
1284.35	3866.07
1284.92	3862.07
1285.49	3864.07
1286.06	3850.07
1286.63	3850.07
1287.2	3861.07
1287.77	3857.07
1288.34	3860.07
1288.92	3859.07
1289.49	3855.07
1290.06	3861.07
1290.63	3867.07
1291.2	3854.07
1291.77	3858.07
1292.34	3860.07
1292.91	3855.07
1293.48	3860.07
1294.05	3869.07
1294.62	3855.07
1295.19	3875.07
1295.76	3864.07
1296.33	3860.07
1296.9	3853.07
1297.47	3856.07
1298.04	3867.07
1298.61	3858.07
1299.18	3858.07
1299.75	3872.07
1300.32	3865.07
1300.89	3870.07
1301.46	3858.07
1302.03	3849.07
1302.6	3852.07
1303.17	3864.07
1303.74	3868.07
1304.31	3864.07
1304.88	3858.07
1305.45	3869.07
1306.02	3861.07
1306.59	3854.07
1307.16	3860.07
1307.73	3867.07
1308.3	3868.07
1308.87	3864.07
1309.43	3870.07
1310	3856.07
1310.57	3857.07
1311.14	3868.07
1311.71	3861.07
1312.28	3865.07
1312.85	3860.07
1313.42	3861.07
1313.98	3872.07
1314.55	3878.07
1315.12	3871.07
1315.69	3870.07
1316.26	3872.07
1316.83	3862.07
1317.39	3861.07
1317.96	3860.07
1318.53	3871.07
1319.1	3864.07
1319.67	3874.07
1320.24	3870.07
1320.8	3871.07
1321.37	3864.07
1321.94	3876.07
1322.51	3866.07
1323.07	3872.07
1323.64	3863.07
1324.21	3866.07
1324.78	3863.07
1325.35	3866.07
1325.91	3869.07
1326.48	3868.07
1327.05	3875.07
1327.61	3873.07
1328.18	3864.07
1328.75	3870.07
1329.32	3876.07
1329.88	3876.07
1330.45	3864.07
1331.02	3864.07
1331.58	3866.07
1332.15	3878.07
1332.72	3874.07
1333.28	3869.07
1333.85	3869.07
1334.42	3877.07
1334.98	3877.07
1335.55	3861.07
1336.12	3880.07
1336.68	3872.07
1337.25	3874.07
1337.82	3882.07
1338.38	3876.07
1338.95	3878.07
1339.51	3876.07
1340.08	3872.07
1340.65	3876.07
1341.21	3876.07
1341.78	3885.07
1342.34	3882.07
1342.91	3869.07
1343.47	3875.07
1344.04	3883.07
1344.61	3873.07
1345.17	3875.07
1345.74	3870.07
1346.3	3879.07
1346.87	3876.07
1347.43	3882.07
1348	3876.07
1348.56	3878.07
1349.13	3877.07
1349.69	3888.07
1350.26	3880.07
1350.83	3872.07
1351.39	3874.07
1351.96	3880.07
1352.52	3889.07
1353.08	3882.07
1353.65	3884.07
1354.21	3876.07
1354.78	3885.07
1355.34	3890.07
1355.91	3878.07
1356.47	3877.07
1357.04	3884.07
1357.6	3887.07
1358.16	3884.07
1358.73	3888.07
1359.29	3896.07
1359.86	3888.07
1360.42	3882.07
1360.99	3896.07
1361.55	3888.07
1362.11	3892.07
1362.68	3897.07
1363.24	3884.07
1363.8	3881.07
1364.37	3894.07
1364.93	3886.07
1365.5	3891.07
1366.06	3885.07
1366.62	3896.07
1367.19	3889.07
1367.75	3886.07
1368.31	3899.07
1368.88	3886.07
1369.44	3892.07
1370	3900.07
1370.57	3890.07
1371.13	3888.07
1371.69	3894.07
1372.26	3878.07
1372.82	3885.07
1373.38	3904.07
1373.94	3897.07
1374.51	3885.07
1375.07	3889.07
1375.63	3886.07
1376.19	3895.07
1376.76	3893.07
1377.32	3904.07
1377.88	3888.07
1378.45	3888.07
1379.01	3888.07
1379.57	3890.07
1380.13	3898.07
1380.69	3894.07
1381.25	3891.07
1381.82	3890.07
1382.38	3892.07
1382.94	3886.07
1383.5	3896.07
1384.07	3892.07
1384.63	3887.07
1385.19	3896.07
1385.75	3892.07
1386.31	3896.07
1386.87	3899.07
1387.44	3899.07
1388	3903.07
1388.56	3896.07
1389.12	3900.07
1389.68	3891.07
1390.24	3885.07
1390.8	3900.07
1391.36	3899.07
1391.93	3896.07
1392.49	3887.07
1393.05	3892.07
1393.61	3892.07
1394.17	3895.07
1394.73	3906.07
1395.29	3912.07
1395.85	3907.07
1396.41	3906.07
1396.97	3903.07
1397.53	3898.07
1398.09	3894.07
1398.65	3911.07
1399.21	3894.07
1399.77	3907.07
1400.33	3896.07
1400.89	3906.07
1401.45	3899.07
1402.01	3898.07
1402.58	3888.07
1403.14	3896.07
1403.7	3902.07
1404.25	3896.07
1404.81	3911.07
1405.37	3899.07
1405.93	3915.07
1406.49	3911.07
1407.05	3898.07
1407.61	3913.07
1408.17	3899.07
1408.73	3902.07
1409.29	3910.07
1409.85	3905.07
1410.41	3907.07
1410.97	3909.07
1411.53	3909.07
1412.09	3906.07
1412.65	3902.07
1413.21	3906.07
1413.76	3898.07
1414.32	3910.07
1414.88	3909.07
1415.44	3907.07
1416	3903.07
1416.56	3918.07
1417.12	3911.07
1417.68	3918.07
1418.23	3902.07
1418.79	3911.07
1419.35	3907.07
1419.91	3907.07
1420.47	3903.07
1421.03	3917.07
1421.58	3916.07
1422.14	3922.07
1422.7	3914.07
1423.26	3914.07
1423.82	3921.07
1424.38	3909.07
1424.93	3907.07
1425.49	3913.07
1426.05	3916.07
1426.61	3916.07
1427.16	3898.07
1427.72	3912.07
1428.28	3922.07
1428.84	3905.07
1429.39	3916.07
1429.95	3907.07
1430.51	3921.07
1431.06	3914.07
1431.62	3926.07
1432.18	3917.07
1432.74	3903.07
1433.29	3926.07
1433.85	3921.07
1434.41	3906.07
1434.97	3925.07
1435.52	3921.07
1436.08	3905.07
1436.64	3916.07
1437.19	3920.07
1437.75	3907.07
1438.3	3936.07
1438.86	3937.07
1439.42	3944.07
1439.98	3912.07
1440.53	3923.07
1441.09	3918.07
1441.64	3926.07
1442.2	3929.07
1442.76	3932.07
1443.31	3922.07
1443.87	3916.07
1444.43	3932.07
1444.98	3924.07
1445.54	3926.07
1446.09	3941.07
1446.65	3910.07
1447.2	3923.07
1447.76	3932.07
1448.31	3927.07
1448.87	3917.07
1449.43	3919.07
1449.98	3926.07
1450.54	3919.07
1451.09	3928.07
1451.65	3916.07
1452.2	3917.07
1452.76	3926.07
1453.31	3924.07
1453.87	3930.07
1454.42	3919.07
1454.98	3933.07
1455.53	3920.07
1456.09	3924.07
1456.64	3920.07
1457.2	3939.07
1457.75	3928.07
1458.31	3931.07
1458.86	3939.07
1459.42	3920.07
1459.97	3919.07
1460.52	3943.07
1461.08	3933.07
1461.63	3933.07
1462.19	3928.07
1462.74	3930.07
1463.3	3924.07
1463.85	3929.07
1464.4	3927.07
1464.96	3925.07
1465.51	3933.07
1466.07	3940.07
1466.62	3937.07
1467.17	3928.07
1467.73	3923.07
1468.28	3932.07
1468.83	3935.07
1469.39	3936.07
1469.94	3950.07
1470.5	3936.07
1471.05	3935.07
1471.6	3924.07
1472.16	3934.07
1472.71	3934.07
1473.26	3941.07
1473.82	3940.07
1474.37	3940.07
1474.92	3934.07
1475.47	3942.07
1476.03	3942.07
1476.58	3945.07
1477.13	3942.07
1477.69	3940.07
1478.24	3938.07
1478.79	3943.07
1479.34	3926.07
1479.9	3943.07
1480.45	3947.07
1481	3940.07
1481.55	3931.07
1482.11	3932.07
1482.66	3941.07
1483.21	3942.07
1483.76	3935.07
1484.31	3937.07
1484.87	3950.07
1485.42	3938.07
1485.97	3947.07
1486.52	3942.07
1487.08	3952.07
1487.63	3936.07
1488.18	3950.07
1488.73	3940.07
1489.28	3940.07
1489.83	3952.07
1490.39	3927.07
1490.94	3964.07
1491.49	3955.07
1492.04	3954.07
1492.59	3952.07
1493.14	3956.07
1493.69	3951.07
1494.25	3950.07
1494.8	3964.07
1495.35	3955.07
1495.9	3956.07
1496.45	3949.07
1497	3947.07
1497.55	3948.07
1498.1	3951.07
1498.65	3963.07
1499.2	3957.07
1499.75	3949.07
