14.826543	4473.5698
15.501734	4405.5698
16.176924	4535.5698
16.852116	4585.5698
17.527306	4721.5698
18.202496	4741.5698
18.884647	4672.5698
19.559839	4747.5698
20.235029	4786.5698
20.910219	4946.5698
21.585411	5053.5698
22.260601	5123.5698
22.942753	5283.5698
23.617943	5507.5698
24.293135	5748.5698
24.968325	5959.5698
25.643515	6035.5698
26.318707	6141.5698
26.993896	6187.5698
27.669086	6292.5698
28.351238	6283.5698
29.02643	6469.5698
29.70162	6747.5698
30.37681	6797.5698
31.052002	7027.5698
31.727192	7243.5698
32.402382	7440.5698
33.077572	7772.5698
33.752766	8001.5698
34.427956	8319.5703
35.103146	8485.5703
35.778336	8584.5703
36.453526	8834.5703
37.121758	8745.5703
37.796947	8995.5703
38.472137	9135.5703
39.147327	9403.5703
39.822521	9648.5703
40.497711	9796.5703
41.172901	10097.57
41.848091	10159.57
42.523281	10484.57
43.198471	10485.57
43.873665	10435.57
44.541893	10589.57
45.217083	11001.57
45.892277	11181.57
46.567467	11290.57
47.242657	11567.57
47.910885	11783.57
48.586079	11865.57
49.261269	11712.57
49.936459	12157.57
50.611649	12077.57
51.279881	12229.57
51.95507	12152.57
52.63026	12248.57
53.30545	12211.57
53.973682	12411.57
54.648872	12587.57
55.317101	12716.57
55.99229	12880.57
56.667484	13175.57
57.342674	13357.57
58.010902	13591.57
58.686092	13691.57
59.361286	13622.57
60.029514	13295.57
60.704704	13291.57
61.372936	13380.57
62.048126	13391.57
62.716354	13508.57
63.391548	13507.57
64.066734	13579.57
64.73497	13789.57
65.410156	13785.57
66.078384	13850.57
66.753578	13795.57
67.428772	13947.57
68.097	13957.57
68.772186	14209.57
69.440422	14183.57
70.10865	14200.57
70.783844	14218.57
71.452072	14256.57
72.127258	14187.57
72.795494	14359.57
73.47068	14443.57
74.138908	14296.57
74.814102	14387.57
75.48233	14335.57
76.150566	14209.57
76.825752	14257.57
77.49398	14275.57
78.169174	14325.57
78.837402	14263.57
79.50563	14235.57
80.173866	14374.57
80.849052	14486.57
81.517281	14671.57
82.185516	14592.57
82.860703	14559.57
83.528938	14462.57
84.197166	14343.57
84.872353	14258.57
85.540588	14411.57
86.208817	14290.57
86.877045	14331.57
87.552238	14337.57
88.220467	14459.57
88.888695	14495.57
89.556923	14507.57
90.225159	14667.57
90.900345	14539.57
91.568573	14455.57
92.236809	14208.57
92.905037	14351.57
93.573265	14389.57
94.241493	14417.57
94.909729	14419.57
95.584915	14231.57
96.253143	14286.57
96.921379	14461.57
97.589607	14455.57
98.257835	14268.57
98.926064	14435.57
99.594299	14208.57
100.26253	14195.57
100.93076	14200.57
101.59898	14116.57
102.26722	14298.57
102.93545	14261.57
103.60368	14369.57
104.2719	14403.57
104.94014	14493.57
105.60837	14507.57
106.2766	14274.57
106.94482	14221.57
107.61305	13986.57
108.28129	14189.57
108.94952	14168.57
109.61774	14050.57
110.28597	14203.57
110.95421	14082.57
111.62244	14073.57
112.28371	14081.57
112.95193	14053.57
113.62016	14083.57
114.28839	14299.57
114.95663	14252.57
115.62486	13913.57
116.29308	14018.57
116.95435	13834.57
117.62258	13884.57
118.29082	13669.57
118.95905	13952.57
119.62727	13951.57
120.28854	13961.57
120.95677	14073.57
121.625	13909.57
122.29324	13769.57
122.9545	13763.57
123.62273	13879.57
124.29096	13683.57
124.95919	13656.57
125.62046	13795.57
126.28869	13751.57
126.95692	13728.57
127.61819	13800.57
128.28642	13685.57
128.95465	13609.57
129.61592	13470.57
130.28415	13727.57
130.94542	13481.57
131.61365	13543.57
132.28188	13386.57
132.94315	13582.57
133.61137	13406.57
134.27264	13540.57
134.94087	13372.57
135.60214	13431.57
136.27037	13380.57
136.93164	13506.57
137.59987	13541.57
138.26114	13531.57
138.92937	13186.57
139.59064	13388.57
140.25888	13141.57
140.92014	13447.57
141.58838	13271.57
142.24965	13368.57
142.91788	13347.57
143.57915	13327.57
144.24738	13260.57
144.90865	13339.57
145.56992	13115.57
146.23814	13228.57
146.89941	13123.57
147.56764	13115.57
148.22891	13183.57
148.89018	13137.57
149.55841	13167.57
150.21968	13011.57
150.88095	12977.57
151.54918	12961.57
152.21045	13022.57
152.87172	13057.57
153.53995	12899.57
154.20122	12963.57
154.86249	12934.57
155.52376	12806.57
156.19199	12774.57
156.85326	12762.57
157.51453	12881.57
158.1758	12757.57
158.84402	12575.57
159.50529	12836.57
160.16656	12703.57
160.82782	12755.57
161.48909	12829.57
162.15733	12776.57
162.81859	12647.57
163.47986	12651.57
164.14113	12557.57
164.8024	12539.57
165.46367	12661.57
166.12494	12617.57
166.78621	12490.57
167.45444	12435.57
168.11571	12449.57
168.77698	12402.57
169.43825	12526.57
170.09952	12517.57
170.76079	12461.57
171.42206	12344.57
172.08333	12329.57
172.7446	12449.57
173.40587	12364.57
174.06714	12465.57
174.72841	12427.57
175.38966	12421.57
176.05093	12286.57
176.7122	12151.57
177.37347	12285.57
178.03474	12298.57
178.68906	12411.57
179.35033	12334.57
180.0116	12246.57
180.67287	12195.57
181.33414	12227.57
181.99541	12230.57
182.65668	12227.57
183.31795	12136.57
183.97922	12269.57
184.64047	12161.57
185.30174	12123.57
185.95605	12101.57
186.61732	12166.57
187.27859	12146.57
187.93987	12091.57
188.60114	12107.57
189.25545	12168.57
189.91672	12100.57
190.57799	12077.57
191.23926	12051.57
191.89355	12020.57
192.55482	12037.57
193.21609	12051.57
193.87041	11908.57
194.53168	12005.57
195.19295	11989.57
195.84726	12069.57
196.50851	12027.57
197.16978	12199.57
197.8241	11845.57
198.48537	11873.57
199.14664	11976.57
199.80095	11852.57
200.46222	11892.57
201.12349	11818.57
201.77779	11667.57
202.43906	11933.57
203.10033	11671.57
203.75464	11941.57
204.41591	11991.57
205.07022	11814.57
205.73149	11844.57
206.3858	11767.57
207.04706	11950.57
207.70137	11798.57
208.36264	11753.57
209.01695	11811.57
209.67822	11716.57
210.33253	11675.57
210.9938	11700.57
211.6481	11807.57
212.30937	11643.57
212.96368	11702.57
213.618	11782.57
214.27927	11678.57
214.93356	11745.57
215.59483	12083.57
216.24915	11949.57
216.91042	11948.57
217.56473	11609.57
218.21904	11655.57
218.88031	11748.57
219.53461	11997.57
220.18892	11782.57
220.85019	11853.57
221.5045	11595.57
222.15881	11712.57
222.82008	11716.57
223.47438	11676.57
224.12869	11581.57
224.783	11670.57
225.44427	11792.57
226.09859	11640.57
226.75288	11749.57
227.41415	11608.57
228.06847	11575.57
228.72278	11631.57
229.37708	11556.57
230.03139	11618.57
230.69266	11666.57
231.34697	11624.57
232.00128	11641.57
232.65558	11724.57
233.30989	11715.57
233.9642	11624.57
234.61852	11526.57
235.27979	11600.57
235.93408	11571.57
236.58839	11575.57
237.24271	11745.57
237.89702	11633.57
238.55133	11532.57
239.20563	11505.57
239.85994	11592.57
240.51425	11624.57
241.16856	11597.57
241.82286	11560.57
242.47717	11599.57
243.13148	11560.57
243.7858	11599.57
244.44009	11434.57
245.09441	11464.57
245.74872	11551.57
246.40303	11509.57
247.05733	11583.57
247.71164	11563.57
248.36595	11566.57
249.02026	11606.57
249.67456	11477.57
250.32887	11571.57
250.98318	11597.57
251.6375	11692.57
252.29181	11580.57
252.94611	11504.57
253.59346	11537.57
254.24777	11354.57
254.90207	11563.57
255.55638	11466.57
256.21069	11357.57
256.85803	11457.57
257.51236	11615.57
258.16666	11517.57
258.82095	11603.57
259.47528	11683.57
260.12958	11631.57
260.77692	11506.57
261.43124	11604.57
262.08554	11651.57
262.73288	11627.57
263.38721	11397.57
264.0415	11579.57
264.69583	11549.57
265.34317	11662.57
265.99747	11598.57
266.64484	11567.57
267.29913	11600.57
267.95343	11548.57
268.60776	11663.57
269.2551	11595.57
269.90939	11565.57
270.56372	11511.57
271.21106	11633.57
271.86536	11543.57
272.51273	11603.57
273.16702	11605.57
273.81436	11755.57
274.46869	11485.57
275.11603	11549.57
275.77032	11643.57
276.42465	11531.57
277.07199	11556.57
277.72632	11583.57
278.37366	11672.57
279.02795	11612.57
279.67529	11638.57
280.32962	11707.57
280.97696	11583.57
281.63129	11639.57
282.27863	11558.57
282.92596	11643.57
283.58029	11547.57
284.22763	11500.57
284.88193	11579.57
285.52927	11418.57
286.18359	11552.57
286.83093	11571.57
287.47827	11605.57
288.1326	11539.57
288.77994	11537.57
289.42728	11652.57
290.0816	11584.57
290.72894	11512.57
291.37628	11625.57
292.03061	11541.57
292.67795	11748.57
293.32529	11599.57
293.97266	11594.57
294.62695	11707.57
295.27429	11729.57
295.92166	11583.57
296.57596	11649.57
297.2233	11563.57
297.87067	11758.57
298.51801	11542.57
299.1723	11599.57
299.81967	11617.57
300.46701	11794.57
301.11435	11973.57
301.76169	11708.57
302.40906	11665.57
303.06335	11589.57
303.71069	11602.57
304.35806	11663.57
305.0054	11425.57
305.65274	11653.57
306.30011	11711.57
306.94745	11723.57
307.59479	11663.57
308.24908	11694.57
308.89645	11741.57
309.54379	11720.57
310.19113	11821.57
310.8385	11708.57
311.48584	11829.57
312.13318	11718.57
312.78055	11677.57
313.42789	11651.57
314.07523	11871.57
314.72256	11710.57
315.36993	11906.57
316.01727	11608.57
316.66461	11795.57
317.31198	11710.57
317.95932	11744.57
318.5997	11841.57
319.24704	11850.57
319.89441	11837.57
320.54175	11751.57
321.18909	11671.57
321.83646	11784.57
322.4838	11880.57
323.13113	11670.57
323.77847	11822.57
324.42584	11936.57
325.06622	11832.57
325.71356	11871.57
326.3609	11707.57
327.00827	11938.57
327.65561	11758.57
328.29599	11814.57
328.94336	11747.57
329.5907	11831.57
330.23804	11813.57
330.88538	11702.57
331.52579	11767.57
332.17313	11760.57
332.82047	11775.57
333.46085	11841.57
334.10822	11889.57
334.75555	11863.57
335.39594	11872.57
336.04327	11890.57
336.69064	12012.57
337.33102	11900.57
337.97836	12041.57
338.62573	12004.57
339.27307	11843.57
339.91345	11915.57
340.56079	12055.57
341.2012	11899.57
341.84854	12086.57
342.49588	12009.57
343.13626	11991.57
343.78363	11949.57
344.42401	11963.57
345.07135	11908.57
345.71173	11990.57
346.3591	11957.57
346.99948	11883.57
347.64682	11963.57
348.29416	11971.57
348.93457	12011.57
349.58191	12053.57
350.22229	12079.57
350.86267	12044.57
351.51004	12182.57
352.15042	12003.57
352.79776	11907.57
353.43814	12085.57
354.07852	12121.57
354.72589	12015.57
355.36627	12085.57
356.01361	12223.57
356.65399	12118.57
357.30136	12184.57
357.94174	12073.57
358.58212	12099.57
359.22946	12156.57
359.86987	12279.57
360.51025	12175.57
361.15759	12009.57
361.79797	12186.57
362.43839	12093.57
363.07877	12206.57
363.7261	12235.57
364.36649	12021.57
365.00687	12358.57
365.65424	12162.57
366.29462	12303.57
366.935	12131.57
367.58234	12209.57
368.22275	12242.57
368.86313	12400.57
369.50351	12237.57
370.14389	12319.57
370.78427	12066.57
371.43164	12322.57
372.07202	12352.57
372.7124	12242.57
373.35278	12297.57
373.99319	12166.57
374.63358	12327.57
375.27396	12353.57
375.9213	12391.57
376.56168	12288.57
377.20209	12347.57
377.84247	12429.57
378.48285	12366.57
379.12323	12304.57
379.76361	12347.57
380.40402	12363.57
381.0444	12428.57
381.68478	12532.57
382.32516	12419.57
382.96555	12364.57
383.60596	12484.57
384.24634	12503.57
384.88672	12433.57
385.5271	12339.57
386.16751	12548.57
386.80789	12514.57
387.44827	12448.57
388.08865	12537.57
388.72903	12595.57
389.36945	12541.57
390.00983	12691.57
390.65021	12471.57
391.28363	12600.57
391.92401	12563.57
392.56439	12675.57
393.2048	12719.57
393.84518	12701.57
394.48557	12731.57
395.11899	12647.57
395.75937	12661.57
396.39978	12803.57
397.04016	12695.57
397.68054	12819.57
398.32092	12859.57
398.9613	12795.57
399.59473	12783.57
400.23514	12951.57
400.87552	12765.57
401.50894	12880.57
402.14932	12883.57
402.7897	12842.57
403.43011	12917.57
404.06354	12901.57
404.70392	12775.57
405.3443	12920.57
405.97772	12919.57
406.6181	12993.57
407.25851	12974.57
407.89194	13019.57
408.53232	13067.57
409.1727	13051.57
409.80612	13097.57
410.4465	13070.57
411.08691	13167.57
411.72034	13134.57
412.36072	13081.57
412.99414	13212.57
413.63452	13204.57
414.26794	13221.57
414.90836	13207.57
415.54178	13256.57
416.18216	13395.57
416.81558	13339.57
417.45596	13503.57
418.08939	13447.57
418.7298	13445.57
419.36322	13386.57
420.0036	13491.57
420.63702	13615.57
421.2774	13458.57
421.91083	13515.57
422.55124	13693.57
423.18466	13682.57
423.82504	13608.57
424.45847	13765.57
425.09885	13759.57
425.73227	13725.57
426.36569	13778.57
427.0061	13956.57
427.63953	14021.57
428.27295	13937.57
428.91333	14041.57
429.54675	13984.57
430.18018	14033.57
430.82056	14014.57
431.45401	14066.57
432.08743	14133.57
432.72781	14179.57
433.36124	14163.57
433.99466	14207.57
434.62808	14294.57
435.26846	14367.57
435.90192	14442.57
436.53534	14244.57
437.16876	14405.57
437.80914	14463.57
438.44257	14369.57
439.07599	14481.57
439.70941	14669.57
440.34982	14627.57
440.98325	14559.57
441.61667	14798.57
442.25009	14804.57
442.88351	14757.57
443.51694	14724.57
444.15732	14843.57
444.79074	14891.57
445.42419	15035.57
446.05762	14891.57
446.69104	14915.57
447.32446	15021.57
447.95789	15147.57
448.59131	15056.57
449.22473	15124.57
449.85815	15132.57
450.49158	15283.57
451.12503	15251.57
451.75845	15359.57
452.39188	15375.57
453.0253	15502.57
453.65872	15314.57
454.29214	15390.57
454.92557	15373.57
455.55899	15515.57
456.19241	15521.57
456.82587	15664.57
457.45929	15655.57
458.09271	15483.57
458.72614	15803.57
459.35956	15773.57
459.99298	15719.57
460.6264	15826.57
461.25287	15792.57
461.88629	16045.57
462.51971	15891.57
463.15317	16025.57
463.78659	15883.57
464.42001	16187.57
465.05344	16145.57
465.6799	16141.57
466.31332	16345.57
466.94675	16293.57
467.58017	16315.57
468.21359	16346.57
468.84006	16371.57
469.47351	16392.57
470.10693	16419.57
470.74036	16585.57
471.36682	16453.57
472.00024	16679.57
472.63367	16510.57
473.26709	16491.57
473.89355	16642.57
474.52698	16654.57
475.1604	16763.57
475.78687	16744.57
476.42032	16576.57
477.05374	16922.57
477.68021	16785.57
478.31363	16941.57
478.94705	16865.57
479.57352	16984.57
480.20694	17036.57
480.84036	17070.57
481.46683	17143.57
482.10025	17061.57
482.72672	17348.57
483.36014	17104.57
483.9866	17096.57
484.62006	17261.57
485.24652	17375.57
485.87994	17427.57
486.51337	17406.57
487.13983	17347.57
487.77325	17379.57
488.39972	17613.57
489.03314	17665.57
489.65961	17503.57
490.28607	17670.57
490.91949	17659.57
491.54596	17644.57
492.17938	17945.57
492.80585	17951.57
493.4393	17901.57
494.06577	17751.57
494.69223	17848.57
495.32565	17796.57
495.95212	17861.57
496.57858	17931.57
497.21201	17983.57
497.83847	17976.57
498.47189	18005.57
499.09836	18123.57
499.72482	18052.57
500.35825	18108.57
500.98471	18107.57
501.61118	18017.57
502.2446	18280.57
502.87106	18125.57
503.49753	18157.57
504.12399	18108.57
504.75742	18240.57
505.38391	18120.57
506.01038	18315.57
506.63684	18310.57
507.27026	18147.57
507.89673	18365.57
508.52319	18419.57
509.14966	18299.57
509.78308	18266.57
510.40955	18237.57
511.03601	17990.57
511.66248	18322.57
512.28894	18126.57
512.91541	18256.57
513.54883	18175.57
514.17529	18019.57
514.80176	18261.57
515.42822	18092.57
516.05469	18156.57
516.68115	18022.57
517.30762	18195.57
517.93408	18003.57
518.56055	18060.57
519.18701	17729.57
519.81348	17732.57
520.43994	17723.57
521.06641	17714.57
521.69287	17693.57
522.31934	17707.57
522.9458	17799.57
523.57227	17656.57
524.19873	17660.57
524.8252	17517.57
525.45166	17430.57
526.07813	17419.57
526.70459	17206.57
527.33105	17136.57
527.95752	17130.57
528.58398	17105.57
529.21045	17058.07
529.83691	16853.57
530.46338	16634.07
531.08289	16809.57
531.70935	16739.57
532.33582	16523.57
532.96228	16529.07
533.58875	16441.07
534.21521	16408.07
534.84167	16257.57
535.46118	16305.57
536.08765	16045.57
536.71411	16135.57
537.34058	16051.07
537.96704	15922.07
538.59351	15813.57
539.21301	15515.07
539.83948	15575.57
540.46594	15595.07
541.08545	15468.07
541.71191	15489.07
542.33838	15499.57
542.95789	15301.07
543.58435	15277.57
544.21082	15231.07
544.83728	15120.07
545.45679	15010.57
546.08325	15004.07
546.70972	14866.07
547.32922	14936.57
547.95569	14697.57
548.58215	14649.07
549.20166	14589.57
549.82813	14677.57
550.44763	14460.57
551.0741	14496.07
551.6936	14369.07
552.32007	14345.07
552.94653	14449.07
553.56604	14306.57
554.1925	14202.57
554.81201	14294.07
555.43848	14122.57
556.05798	14091.57
556.68445	14144.57
557.30396	14125.07
557.93042	13973.57
558.54993	13927.07
559.17639	13948.07
559.7959	13940.07
560.42236	13981.57
561.04187	13905.57
561.66833	13920.57
562.28784	13746.07
562.91431	13793.57
563.53381	13834.57
564.15332	13738.07
564.77979	13829.57
565.39929	13665.07
566.0188	13588.57
566.64526	13644.07
567.26477	13486.07
567.89124	13529.57
568.51074	13534.07
569.13025	13380.07
569.75671	13485.07
570.37622	13463.07
570.99573	13384.07
571.61523	13373.07
572.2417	13282.57
572.86121	13283.07
573.48071	13235.57
574.10718	13206.57
574.72668	13078.57
575.34619	13089.57
575.9657	13030.57
576.58521	12998.57
577.21167	12842.07
577.83118	12933.07
578.45068	12835.57
579.07019	12734.57
579.69666	12707.57
580.31616	12617.57
580.93567	12532.57
581.55518	12476.57
582.17468	12359.07
582.79419	12257.07
583.41364	12318.07
584.0401	12225.57
584.65961	12202.07
585.27911	12125.07
585.89862	12083.07
586.51813	11923.57
587.13763	11895.07
587.75714	11781.07
588.37665	11607.07
588.99615	11586.57
589.61566	11490.57
590.23517	11419.57
590.85468	11280.07
591.47418	11159.57
592.09369	11150.57
592.7132	11202.07
593.3327	11027.07
593.95221	10911.57
594.57172	10765.07
595.19122	10802.57
595.81073	10811.07
596.43024	10640.07
597.04974	10523.57
597.66925	10502.07
598.28876	10321.57
598.90826	10220.57
599.52777	10182.57
600.14032	10075.07
600.75983	10071.57
601.37933	10023.57
601.99884	9872.0703
602.61829	9914.5703
603.23779	9704.0703
603.8573	9708.5703
604.46985	9612.5703
605.08936	9510.5703
605.70886	9471.5703
606.32837	9417.0703
606.94788	9281.0703
607.56042	9253.0703
608.17993	9137.5703
608.79944	9099.0703
609.41895	9020.0703
610.03845	8976.0703
610.651	8934.5703
611.27051	8882.0703
611.89001	8851.0703
612.50256	8751.0703
613.12207	8637.0703
613.74158	8645.0703
614.35413	8601.5703
614.97363	8520.0703
615.59314	8482.5703
616.20563	8425.5703
616.82513	8374.5703
617.44464	8350.5703
618.05719	8205.0703
618.6767	8210.5703
619.2962	8183.5698
619.90875	8105.0698
620.52826	8023.5698
621.14081	8118.5698
621.76031	8046.5698
622.37286	8002.5698
622.99237	7915.5698
623.61188	7982.5698
624.22443	7876.0698
624.84393	7760.5698
625.45648	7806.0698
626.07599	7764.0698
626.68854	7720.5698
627.30804	7725.5698
627.92059	7596.5698
628.54004	7722.5698
629.15259	7570.5698
629.77209	7661.5698
630.38464	7505.5698
630.99719	7503.5698
631.6167	7541.5698
632.22925	7522.0698
632.84875	7397.5698
633.4613	7456.5698
634.07385	7395.0698
634.69336	7314.5698
635.30591	7249.5698
635.92542	7319.0698
636.53796	7189.0698
637.15051	7135.5698
637.77002	7123.0698
638.38257	7178.0698
639.00201	7159.5698
639.61456	7075.0698
640.22711	7103.0698
640.83966	7060.0698
641.45917	7139.0698
642.07172	7097.5698
642.68427	7061.5698
643.29681	6892.0698
643.91632	6975.0698
644.52887	6929.5698
645.14142	6853.5698
645.75397	6880.0698
646.37347	6837.0698
646.98602	6874.5698
647.59857	6969.5698
648.21106	6816.5698
648.82361	6778.0698
649.44312	6670.5698
650.05566	6815.5698
650.66821	6674.0698
651.28076	6721.5698
651.89331	6701.5698
652.28314	6652.5698
652.90265	6681.5698
653.52911	6635.5698
654.14856	6694.5698
654.77502	6615.5698
655.39453	6556.5698
656.01404	6460.5698
656.6405	6533.5698
657.26001	6492.5698
657.88647	6517.5698
658.50598	6485.5698
659.12549	6520.5698
659.75195	6433.5698
660.37146	6455.5698
660.99097	6459.5698
661.61743	6539.5698
662.23694	6392.5698
662.85645	6401.5698
663.48291	6396.5698
664.10242	6419.5698
664.72192	6235.5698
665.34143	6306.5698
665.96094	6305.5698
666.5874	6372.5698
667.20691	6335.5698
667.82642	6298.5698
668.44592	6324.5698
669.07239	6216.5698
669.69189	6342.5698
670.3114	6258.5698
670.93091	6149.5698
671.55042	6152.5698
672.17688	6129.5698
672.79639	6228.5698
673.41589	6112.5698
674.0354	6152.5698
674.65491	6092.5698
675.27441	5994.5698
675.89392	6155.5698
676.52039	6050.5698
677.13989	6033.5698
677.7594	5933.5698
678.37891	6056.5698
678.99841	6017.5698
679.61792	5976.5698
680.23743	5898.5698
680.85693	5957.5698
681.47638	6001.5698
682.09589	5872.5698
682.71539	5964.5698
683.3349	5830.5698
683.95441	5825.5698
684.57391	5828.5698
685.19342	5809.5698
685.81293	5879.5698
686.43243	5862.5698
687.05194	5842.5698
687.67145	5840.5698
688.29095	5844.5698
688.91046	5656.5698
689.52997	5759.5698
690.14948	5773.5698
690.76202	5741.5698
691.38849	5782.5698
692.00104	5587.5698
692.62054	5704.5698
693.24005	5702.5698
693.85956	5637.5698
694.47906	5665.5698
695.09857	5609.5698
695.71112	5594.5698
696.33063	5602.5698
696.95013	5619.5698
697.56964	5532.5698
698.18915	5512.5698
698.80865	5502.5698
699.42114	5532.5698
700.04065	5549.5698
700.66016	5450.5698
701.27271	5479.5698
701.89221	5602.5698
702.51172	5451.5698
703.13123	5457.5698
703.75073	5520.5698
704.36328	5402.5698
704.98279	5504.5698
705.60229	5349.5698
706.21484	5390.5698
706.83435	5341.5698
707.45386	5359.5698
708.06641	5365.5698
708.68591	5329.5698
709.30542	5370.5698
709.91797	5254.5698
710.53748	5328.5698
711.15698	5327.5698
711.76953	5239.5698
712.38898	5247.5698
713.00153	5192.5698
713.62103	5168.5698
714.24054	5242.5698
714.85309	5088.5698
715.4726	5104.5698
716.08514	5102.5698
716.70465	5181.5698
717.3172	5103.5698
717.93671	5060.5698
718.54926	5149.5698
719.16876	5121.5698
719.78131	5095.5698
720.40082	5065.5698
721.01337	5028.5698
721.63287	5137.5698
722.24542	5088.5698
722.86493	4910.5698
723.47742	5043.5698
724.08997	4965.5698
724.70947	5003.5698
725.32202	4906.5698
725.94153	4951.5698
726.55408	4955.5698
727.16663	4913.5698
727.78613	4841.5698
728.39868	4922.5698
729.01819	4926.5698
729.63074	4882.5698
730.24329	4809.5698
730.86279	4904.5698
731.47534	4870.5698
732.08789	4730.5698
732.7074	4794.5698
733.31995	4807.5698
733.93243	4806.5698
734.55194	4737.5698
735.16449	4738.5698
735.77704	4642.5698
736.38959	4657.5698
737.00909	4792.5698
737.62164	4830.5698
738.23419	4730.5698
738.84674	4659.5698
739.46625	4702.5698
740.0788	4712.5698
740.69135	4636.5698
741.30389	4716.5698
741.91644	4704.5698
742.53595	4614.5698
743.14844	4682.5698
743.76099	4587.5698
744.37354	4482.5698
744.98608	4592.5698
745.59863	4497.5698
746.21118	4605.5698
746.83069	4572.5698
747.44324	4565.5698
748.05579	4550.5698
748.66833	4482.5698
749.28088	4541.5698
749.89343	4442.5698
750.50598	4521.5698
751.11853	4435.5698
751.73102	4521.5698
752.34357	4536.5698
752.95612	4478.5698
753.56866	4434.5698
754.18121	4406.5698
754.79376	4414.5698
755.40631	4241.5698
756.01886	4355.5698
756.63141	4368.5698
757.24396	4322.5698
757.85651	4380.5698
758.46906	4365.5698
759.0816	4272.5698
759.69409	4346.5698
760.30664	4183.5698
760.91919	4268.5698
761.53174	4267.5698
762.14429	4353.5698
762.75684	4308.5698
763.36243	4196.5698
763.97498	4178.5698
764.58752	4226.5698
765.20007	4189.5698
765.81262	4146.5698
766.42517	4148.5698
767.03766	4173.5698
767.64325	4159.5698
768.2558	4102.5698
768.86835	4172.5698
769.4809	4051.5698
770.09344	4068.5698
770.69904	4037.5698
771.31158	4033.5698
771.92413	4109.5698
772.53668	4004.5698
773.14227	4004.5698
773.75476	4000.5698
774.36731	3998.5698
774.97986	3948.5698
775.58545	3924.5698
776.198	3916.5698
776.81055	3925.5698
777.4231	3876.5698
778.02869	3919.5698
778.64124	3904.5698
779.24683	3873.5698
779.85938	3857.5698
780.47186	3841.5698
781.07745	3893.5698
781.69	3752.5698
782.30255	3776.5698
782.90814	3708.5698
783.52069	3789.5698
784.12628	3680.5698
784.73883	3773.5698
785.35138	3663.5698
785.95697	3656.5698
786.56952	3686.5698
787.17505	3532.5698
787.7876	3574.5698
788.39319	3601.5698
789.00574	3528.5698
789.61133	3532.5698
790.22388	3517.5698
790.82947	3475.5698
791.44202	3436.5698
792.04761	3460.5698
792.66016	3431.5698
793.26569	3436.5698
793.87823	3399.5698
794.48383	3402.5698
795.09637	3404.5698
795.70197	3369.5698
796.30756	3324.5698
796.9201	3322.5698
797.5257	3182.5698
798.13824	3233.5698
798.74384	3218.5698
799.35632	3108.5698
799.96191	3152.5698
800.5675	3097.5698
801.1731	3127.5698
801.78564	3099.5698
802.39124	3083.5698
803.00378	3047.5698
803.60938	2928.5698
804.21497	2956.5698
804.82745	3006.5698
805.43304	2914.5698
806.03864	2872.5698
806.64423	2863.5698
807.25677	2815.5698
807.86237	2828.5698
808.46796	2843.5698
809.07355	2756.5698
809.6861	2750.5698
810.29163	2731.5698
810.89722	2705.5698
811.50281	2644.5698
812.1084	2712.5698
812.72095	2662.5698
813.32654	2607.5698
813.93213	2528.5698
814.53772	2636.5698
815.14331	2483.5698
815.74884	2528.5698
816.36139	2480.5698
816.96698	2466.5698
817.57257	2396.5698
818.17816	2438.5698
818.78375	2412.5698
819.38934	2384.5698
819.99493	2380.5698
820.60046	2388.5698
821.20605	2310.5698
821.81165	2309.5698
822.42419	2295.5698
823.02283	2325.5698
823.63538	2217.5698
824.23401	2243.5698
824.84656	2231.5698
825.44519	2204.5698
826.05768	2241.5698
826.65631	2238.5698
827.26886	2193.5698
827.86749	2257.5698
828.48004	2165.5698
829.07867	2126.5698
829.68427	2182.5698
830.28986	2125.5698
830.89539	2154.5698
831.50098	2136.5698
832.10657	2124.5698
832.71216	2142.5698
833.31775	2120.5698
833.92334	2173.5698
834.52893	2136.5698
835.12756	2161.5698
835.74005	2143.5698
836.33868	2167.5698
836.94427	2174.5698
837.54987	2150.5698
838.15546	2135.5698
838.76105	2064.5698
839.36664	2162.5698
839.96527	2191.5698
840.5708	2223.5698
841.17639	2187.5698
841.78198	2208.5698
842.38062	2199.5698
842.98621	2252.5698
843.5918	2200.5698
844.19739	2246.5698
844.79596	2252.5698
845.40155	2234.5698
846.00714	2264.5698
846.60577	2287.5698
847.21136	2308.5698
847.81696	2264.5698
848.42255	2211.5698
849.02118	2298.5698
849.62671	2324.5698
850.22534	2328.5698
850.83093	2395.5698
851.43652	2393.5698
852.04211	2426.5698
852.64075	2423.5698
853.24634	2420.5698
853.84491	2430.5698
854.4505	2423.5698
855.05609	2512.5698
855.65472	2499.5698
856.26031	2493.5698
856.85895	2621.5698
857.46454	2618.5698
858.06311	2587.5698
858.6687	2629.5698
859.26733	2646.5698
859.87292	2666.5698
860.47852	2732.5698
861.07715	2764.5698
861.68274	2757.5698
862.28131	2759.5698
862.8869	2810.5698
863.48553	2887.5698
864.09113	2880.5698
864.68976	2910.5698
865.28839	2929.5698
865.89398	2856.5698
866.49255	2965.5698
867.09814	3057.5698
867.69678	3036.5698
868.30237	3148.5698
868.901	3099.5698
869.49963	3179.5698
870.10522	3190.5698
870.7038	3201.5698
871.30243	3308.5698
871.90802	3302.5698
872.50665	3363.5698
873.10529	3369.5698
873.71088	3414.5698
874.30945	3524.5698
874.90808	3443.5698
875.51367	3516.5698
876.1123	3574.5698
876.71094	3596.5698
877.30957	3628.5698
877.91516	3713.5698
878.51373	3668.5698
879.11237	3782.5698
879.71796	3818.5698
880.31659	3790.5698
880.91522	3931.5698
881.51385	3991.5698
882.11243	4019.5698
882.71802	4026.5698
883.31665	4133.5698
883.91528	4158.5698
884.51392	4169.5698
885.11255	4260.5698
885.71814	4306.5698
886.31671	4317.5698
886.91534	4452.5698
887.51398	4530.5698
888.11261	4489.5698
888.71124	4569.5698
889.30988	4599.5698
889.90845	4648.5698
890.50708	4772.5698
891.11267	4803.5698
891.7113	4791.5698
892.30994	4860.5698
892.90857	4963.5698
893.50714	4924.5698
894.10577	5041.5698
894.70441	5108.5698
895.30304	5209.5698
895.90167	5136.5698
896.50031	5262.5698
897.09888	5332.5698
897.69751	5375.5698
898.29614	5448.5698
898.89478	5392.5698
899.49341	5554.5698
900.09204	5630.5698
900.69061	5627.5698
901.28925	5641.5698
901.88788	5743.5698
902.48651	5731.5698
903.07819	5812.5698
903.67682	5839.5698
904.27539	5910.5698
904.87402	6047.5698
905.47266	6076.5698
906.07129	6098.5698
906.66992	6071.5698
907.26855	6191.5698
907.86017	6335.5698
908.4588	6362.5698
909.05743	6239.5698
909.65607	6350.5698
910.2547	6448.5698
910.85327	6470.5698
911.44495	6558.5698
912.04358	6600.5698
912.64221	6725.5698
913.24084	6670.5698
913.83948	6720.5698
914.43109	6760.5698
915.02972	6884.5698
915.62836	6876.5698
916.22003	6971.5698
916.81866	7018.5698
917.4173	7082.5698
918.01587	7084.5698
918.60754	7068.5698
919.20618	7180.5698
919.80481	7208.5698
920.39648	7259.5698
920.99506	7261.5698
921.59369	7333.5698
922.18536	7394.5698
922.784	7478.5698
923.37567	7506.5698
923.9743	7546.5698
924.57288	7507.5698
925.16455	7572.5698
925.76318	7643.5698
926.36182	7760.5698
926.95349	7664.5698
927.55206	7773.5698
928.14374	7750.5698
928.74237	7900.5698
929.33405	7849.5698
929.93268	7922.5698
930.52429	7999.5698
931.12292	7960.5698
931.7146	7994.5698
932.31323	7980.5698
932.90491	8101.5698
933.50354	8084.5698
934.09515	8340.5703
934.69379	8233.5703
935.28546	8306.5703
935.88409	8391.5703
936.47577	8315.5703
937.07434	8232.5703
937.66602	8439.5703
938.26465	8323.5703
938.85632	8463.5703
939.448	8390.5703
940.04657	8688.5703
940.63824	8581.5703
941.22992	8589.5703
941.82855	8663.5703
942.42023	8675.5703
943.01184	8669.5703
943.61047	8759.5703
944.20215	8864.5703
944.79382	8780.5703
945.39246	8817.5703
945.98407	8893.5703
946.57574	8824.5703
947.17438	8843.5703
947.76605	8971.5703
948.35773	9064.5703
948.95636	9094.5703
949.54797	9079.5703
950.13965	9056.5703
950.73132	9143.5703
951.323	9076.5703
951.92163	9130.5703
952.51324	9200.5703
953.10492	9128.5703
953.69659	9266.5703
954.28827	9306.5703
954.8869	9226.5703
955.47852	9424.5703
956.07019	9406.5703
956.66187	9342.5703
957.25354	9305.5703
957.85211	9364.5703
958.44379	9506.5703
959.03546	9505.5703
959.62714	9536.5703
960.21881	9450.5703
960.81042	9562.5703
961.4021	9467.5703
961.99377	9499.5703
962.58545	9690.5703
963.17712	9629.5703
963.76874	9682.5703
964.36041	9654.5703
964.95905	9749.5703
965.55072	9799.5703
966.13544	9803.5703
966.72705	9791.5703
967.32568	9745.0703
967.91736	9766.5703
968.50903	9836.5703
969.09369	9792.5703
969.68536	9760.5703
970.284	9944.5703
970.86871	9879.5703
971.46039	9924.5703
972.052	9914.5703
972.64368	9922.5703
973.23535	9995.0703
973.82703	10059.07
974.4187	10004.07
975.01031	10058.57
975.60199	10007.07
976.19366	9852.5703
976.77838	10054.07
977.37	10013.57
977.96167	10009.07
978.55334	10124.07
979.14502	10163.07
979.73669	10079.57
980.32135	10280.07
980.91302	10182.57
981.5047	10132.07
982.09637	10213.57
982.68805	10189.07
983.27271	10198.07
983.86438	10313.57
984.45605	10163.07
985.04773	10171.07
985.63934	10142.57
986.22406	10277.57
986.81573	10291.57
987.40741	10295.57
987.99908	10225.07
988.58374	10221.57
989.17542	10181.07
989.76013	10276.57
990.35181	10298.07
990.94342	10279.07
991.5351	10334.07
992.11981	10437.07
992.71149	10334.07
993.29614	10214.57
993.88782	10334.07
994.47949	10397.07
995.06421	10392.57
995.65588	10343.07
996.2475	10337.57
996.83221	10274.07
997.42389	10287.07
998.00861	10308.07
998.60022	10254.07
999.18494	10230.57
999.77661	10297.07
1000.3613	10328.07
1000.953	10279.57
1001.5377	10255.57
1002.1293	10284.57
1002.721	10283.07
1003.3057	10193.57
1003.8973	10408.57
1004.4821	10261.57
1005.0668	10314.07
1005.6584	10183.57
1006.2431	10236.57
1006.8348	10256.07
1007.4195	10271.57
1008.0112	10234.57
1008.5958	10168.57
1009.1875	10281.57
1009.7722	10219.07
1010.3569	10173.07
1010.9486	10134.07
1011.5333	10103.57
1012.1249	9992.5703
1012.7097	10193.57
1013.2944	10089.07
1013.886	10050.07
1014.4707	10086.07
1015.0554	10019.07
1015.6401	10131.07
1016.2318	10026.57
1016.8165	9953.0703
1017.4012	9856.0703
1017.9929	9890.5703
1018.5775	9888.5703
1019.1622	9939.5703
1019.7539	9911.5703
1020.3386	9875.0703
1020.9233	9960.5703
1021.508	9771.5703
1022.0927	9722.5703
1022.6844	9789.0703
1023.269	9762.5703
1023.8538	9684.5703
1024.4385	9670.5703
1025.0302	9598.0703
1025.6149	9597.0703
1026.1996	9652.5703
1026.7842	9503.0703
1027.3689	9453.5703
1027.9536	9481.5703
1028.5383	9391.5703
1029.123	9404.0703
1029.7147	9374.5703
1030.2994	9290.5703
1030.8842	9275.0703
1031.4688	9414.0703
1032.0535	9255.0703
1032.6382	9192.0703
1033.2229	9226.5703
1033.8076	9174.0703
1034.3923	9079.5703
1034.9771	9085.0703
1035.5687	9065.0703
1036.1533	9070.0703
1036.738	9011.0703
1037.3228	8982.5703
1037.9005	8835.5703
1038.4852	8829.5703
1039.0699	8703.0703
1039.6547	8829.5703
1040.2394	8680.0703
1040.824	8705.5703
1041.4087	8628.0703
1041.9934	8579.5703
1042.5781	8652.0703
1043.1628	8560.0703
1043.7476	8516.0703
1044.3323	8467.5703
1044.917	8396.5703
1045.5016	8279.5703
1046.0863	8241.0703
1046.6641	8232.0703
1047.2488	8227.0703
1047.8335	8131.5698
1048.4182	8073.5698
1049.0029	8042.5698
1049.5875	8055.5698
1050.1722	8012.5698
1050.75	8067.0698
1051.3347	7869.5698
1051.9194	7866.0698
1052.5042	7789.0698
1053.0889	7812.5698
1053.6666	7794.0698
1054.2512	7719.0698
1054.8359	7664.0698
1055.4207	7573.5698
1055.9984	7598.0698
1056.5831	7504.5698
1057.1678	7479.5698
1057.7526	7474.0698
1058.3302	7410.5698
1058.9149	7361.5698
1059.4996	7273.0698
1060.0774	7252.0698
1060.6621	7166.0698
1061.2468	7147.5698
1061.8246	7101.5698
1062.4093	7092.0698
1062.9939	7092.0698
1063.5717	6998.0698
1064.1564	6899.5698
1064.7411	6887.5698
1065.3188	6883.5698
1065.9036	6802.0698
1066.4883	6785.5698
1067.0659	6783.5698
1067.6506	6714.0698
1068.2284	6645.5698
1068.8131	6587.5698
1069.3978	6496.0698
1069.9756	6488.0698
1070.5603	6474.0698
1071.1381	6481.0698
1071.7227	6340.0698
1072.3004	6322.0698
1072.8782	6326.5698
1073.4629	6310.0698
1074.0406	6215.0698
1074.6254	6173.0698
1075.2031	6104.5698
1075.7877	6084.0698
1076.3655	6064.0698
1076.9502	5989.5698
1077.528	5955.5698
1078.1127	5855.0698
1078.6904	5786.0698
1079.2751	5834.5698
1079.8528	5867.5698
1080.4305	5740.0698
1081.0153	5668.5698
1081.593	5660.0698
1082.1777	5620.0698
1082.7555	5628.5698
1083.3333	5569.0698
1083.9178	5546.0698
1084.4956	5489.0698
1085.0734	5377.0698
1085.6581	5421.5698
1086.2358	5378.0698
1086.8136	5311.5698
1087.3914	5259.5698
1087.976	5258.5698
1088.5537	5137.0698
1089.1315	5162.5698
1089.7162	5142.0698
1090.2939	5063.5698
1090.8717	5083.0698
1091.4495	5041.0698
1092.0341	5041.0698
1092.6118	4877.0698
1093.1896	4947.0698
1093.7673	4876.0698
1094.3521	4819.0698
1094.9298	4811.0698
1095.5076	4787.0698
1096.0852	4781.0698
1096.663	4764.5698
1097.2407	4741.5698
1097.8254	4706.0698
1098.4032	4666.0698
1098.981	4612.0698
1099.5587	4542.5698
1100.1364	4476.0698
1100.7141	4494.5698
1101.2919	4497.5698
1101.8696	4444.5698
1102.4543	4508.0698
1103.0321	4345.5698
1103.6097	4386.0698
1104.1875	4347.0698
1104.7653	4328.5698
1105.343	4347.5698
1105.9208	4336.0698
1106.4985	4273.5698
1107.0763	4193.0698
1107.6539	4181.0698
1108.2317	4165.0698
1108.8094	4219.5698
1109.3872	4125.5698
1109.965	4074.5698
1110.5427	4084.0698
1111.1205	4014.5698
1111.6981	3980.0698
1112.2759	4003.5698
1112.8536	3977.5698
1113.4314	3944.0698
1114.0022	3895.5698
1114.58	3820.5698
1115.1576	3819.0698
1115.7354	3851.5698
1116.3131	3819.5698
1116.8909	3803.5698
1117.4686	3815.0698
1118.0464	3754.0698
1118.6241	3723.0698
1119.1948	3683.0698
1119.7726	3645.5698
1120.3503	3644.5698
1120.9281	3635.5698
1121.5059	3614.5698
1122.0836	3552.5698
1122.6543	3577.0698
1123.2321	3541.5698
1123.8098	3509.0698
1124.3876	3515.0698
1124.9584	3497.5698
1125.5361	3540.5698
1126.1139	3453.5698
1126.6915	3418.0698
1127.2623	3423.5698
1127.8401	3497.0698
1128.4178	3328.5698
1128.9956	3398.0698
1129.5664	3364.5698
1130.144	3303.0698
1130.7218	3361.0698
1131.2996	3341.5698
1131.8704	3256.0698
1132.4481	3206.0698
1133.0259	3225.5698
1133.5967	3175.5698
1134.1743	3160.0698
1134.7451	3118.0698
1135.3229	3158.0698
1135.9006	3048.5698
1136.4714	3056.0698
1137.0492	3090.0698
1137.6199	3067.0698
1138.1976	3044.0698
1138.7684	2975.5698
1139.3462	3051.5698
1139.924	2989.0698
1140.4948	2959.0698
1141.0724	2977.0698
1141.6432	2961.5698
1142.2209	2909.0698
1142.7917	2929.0698
1143.3695	2898.0698
1143.9403	2898.5698
1143.9542	2860.5698
1144.5389	2887.5698
1145.1235	2861.5698
1145.7013	2851.5698
1146.286	2850.5698
1146.8707	2764.5698
1147.4485	2783.5698
1148.0332	2835.5698
1148.611	2757.5698
1149.1956	2725.5698
1149.7733	2685.5698
1150.358	2756.5698
1150.9358	2682.5698
1151.5205	2665.5698
1152.1052	2673.5698
1152.683	2657.5698
1153.2676	2649.5698
1153.8453	2624.5698
1154.4301	2541.5698
1155.0078	2555.5698
1155.5925	2538.5698
1156.1703	2616.5698
1156.755	2504.5698
1157.3328	2504.5698
1157.9174	2531.5698
1158.4951	2496.5698
1159.0798	2439.5698
1159.6576	2487.5698
1160.2354	2463.5698
1160.8201	2387.5698
1161.3978	2435.5698
1161.9824	2461.5698
1162.5602	2403.5698
1163.1379	2380.5698
1163.7227	2382.5698
1164.3004	2393.5698
1164.8782	2385.5698
1165.4629	2337.5698
1166.0405	2313.5698
1166.6183	2293.5698
1167.203	2298.5698
1167.7808	2320.5698
1168.3585	2266.5698
1168.9432	2269.5698
1169.521	2217.5698
1170.0986	2243.5698
1170.6764	2224.5698
1171.2611	2211.5698
1171.8389	2206.5698
1172.4166	2189.5698
1173.0013	2180.5698
1173.5791	2149.5698
1174.1567	2135.5698
1174.7345	2119.5698
1175.3192	2150.5698
1175.897	2130.5698
1176.4747	2099.5698
1177.0525	2073.5698
1177.6302	2064.5698
1178.2148	2099.5698
1178.7926	2038.5699
1179.3704	2007.5699
1179.9481	2001.5699
1180.5259	2005.5699
1181.1036	1976.5699
1181.6813	2037.5699
1182.259	2026.5699
1182.8438	1964.5699
1183.4215	2010.5699
1183.9993	1940.5699
1184.577	1950.5699
1185.1548	1922.5699
1185.7324	1920.5699
1186.3102	1925.5699
1186.8879	1901.5699
1187.4657	1878.5699
1188.0435	1806.5699
1188.6212	1863.5699
1189.199	1850.5699
1189.7766	1842.5699
1190.3544	1877.5699
1190.9321	1838.5699
1191.5099	1812.5699
1192.0876	1809.5699
1192.6654	1829.5699
1193.2432	1749.5699
1193.8208	1758.5699
1194.3986	1790.5699
1194.9763	1731.5699
1195.5541	1728.5699
1196.1318	1742.5699
1196.7096	1730.5699
1197.2872	1712.5699
1197.865	1740.5699
1198.4427	1711.5699
1199.0135	1669.5699
1199.5913	1647.5699
1200.1691	1678.5699
1200.7468	1678.5699
1201.3245	1677.5699
1201.9022	1656.5699
1202.473	1627.5699
1203.0508	1640.5699
1203.6285	1600.5699
1204.2063	1643.5699
1204.7839	1633.5699
1205.3617	1608.5699
1205.9325	1580.5699
1206.5103	1586.5699
1207.088	1632.5699
1207.6658	1537.5699
1208.2366	1576.5699
1208.8142	1554.5699
1209.392	1573.5699
1209.9697	1530.5699
1210.5475	1536.5699
1211.1183	1534.5699
1211.696	1536.5699
1212.2737	1511.5699
1212.8445	1528.5699
1213.4222	1499.5699
1214	1460.5699
1214.5708	1505.5699
1215.1486	1461.5699
1215.7262	1473.5699
1216.297	1493.5699
1216.8748	1468.5699
1217.4456	1438.5699
1218.0233	1479.5699
1218.6011	1478.5699
1219.1719	1464.5699
1219.7495	1452.5699
1220.3273	1479.5699
1220.8981	1437.5699
1221.4758	1411.5699
1222.0466	1402.5699
1222.6244	1407.5699
1223.1951	1411.5699
1223.7728	1430.5699
1224.3436	1403.5699
1224.9214	1432.5699
1225.4991	1427.5699
1226.0699	1405.5699
1226.6476	1367.5699
1227.2184	1375.5699
1227.7961	1397.5699
1228.3669	1376.5699
1228.9377	1387.5699
1229.5155	1409.5699
1230.0933	1369.5699
1230.6639	1372.5699
1231.2347	1382.5699
1231.8125	1355.5699
1232.3833	1349.5699
1232.9611	1345.5699
1233.5319	1378.5699
1234.1025	1357.5699
1234.6803	1365.5699
1235.2511	1343.5699
1235.8219	1373.5699
1236.3997	1334.5699
1236.9705	1352.5699
1237.5481	1383.5699
1238.1189	1364.5699
1238.6897	1344.5699
1239.2675	1340.5699
1239.8383	1336.5699
1240.4091	1349.5699
1240.9797	1316.5699
1241.5575	1315.5699
1242.1283	1350.5699
1242.6991	1357.5699
1243.2699	1320.5699
1243.8477	1338.5699
1244.4183	1325.5699
1244.9891	1299.5699
1245.5669	1290.5699
1246.1377	1346.5699
1246.7085	1318.5699
1247.2793	1322.5699
1247.85	1307.5699
1248.4277	1307.5699
1248.9985	1312.5699
1249.5693	1294.5699
1250.1401	1340.5699
1250.7109	1282.5699
1251.2816	1309.5699
1251.8594	1296.5699
1252.4302	1322.5699
1253.001	1306.5699
1253.5718	1327.5699
1254.1426	1321.5699
1254.7133	1332.5699
1255.291	1309.5699
1255.8618	1300.5699
1256.4326	1315.5699
1257.0034	1301.5699
1257.5741	1303.5699
1258.1449	1313.5699
1258.7157	1305.5699
1259.2865	1314.5699
1259.8573	1309.5699
1260.4281	1312.5699
1260.9988	1294.5699
1261.5696	1271.5699
1262.1404	1286.5699
1262.7112	1317.5699
1263.282	1305.5699
1263.8528	1290.5699
1264.4235	1301.5699
1264.9943	1304.5699
1265.5651	1283.5699
1266.1359	1282.5699
1266.7067	1322.5699
1267.2775	1260.5699
1267.8481	1272.5699
1268.4189	1247.5699
1268.9897	1299.5699
1269.5536	1309.5699
1270.1244	1288.5699
1270.6952	1276.5699
1271.2659	1272.5699
1271.8367	1280.5699
1272.4075	1271.5699
1272.9783	1301.5699
1273.5491	1292.5699
1274.1128	1272.5699
1274.6836	1273.5699
1275.2544	1274.5699
1275.8252	1309.5699
1276.396	1284.5699
1276.9668	1287.5699
1277.5305	1315.5699
1278.1013	1282.5699
1278.6721	1303.5699
1279.2429	1303.5699
1279.8068	1309.5699
1280.3776	1267.5699
1280.9482	1312.5699
1281.519	1283.5699
1282.0829	1282.5699
1282.6537	1270.5699
1283.2245	1293.5699
1283.7882	1276.5699
1284.359	1299.5699
1284.9298	1267.5699
1285.5006	1300.5699
1286.0645	1278.5699
1286.6353	1264.5699
1287.2059	1264.5699
1287.7698	1279.5699
1288.3406	1289.5699
1288.9044	1296.5699
1289.4752	1295.5699
1290.0459	1293.5699
1290.6097	1245.5699
1291.1805	1287.5699
1291.7513	1289.5699
1292.3152	1299.5699
1292.886	1236.5699
1293.4497	1284.5699
1294.0205	1281.5699
1294.5844	1289.5699
1295.1552	1272.5699
1295.719	1281.5699
1296.2897	1286.5699
1296.8535	1262.5699
1297.4243	1275.5699
1297.9882	1296.5699
1298.559	1249.5699
1299.1298	1235.5699
1299.6935	1282.5699
1300.2643	1260.5699
1300.8281	1300.5699
1301.3989	1263.5699
1301.9628	1283.5699
1302.5265	1257.5699
1303.0973	1283.5699
1303.6611	1277.5699
1304.2319	1245.5699
1304.7958	1236.5699
1305.3596	1270.5699
1305.9303	1281.5699
1306.4941	1266.5699
1307.0649	1252.5699
1307.6288	1289.5699
1308.1926	1287.5699
1308.7633	1269.5699
1309.3271	1281.5699
1309.891	1281.5699
1310.4618	1282.5699
1311.0256	1269.5699
1311.5894	1294.5699
1312.1602	1273.5699
1312.724	1248.5699
1313.2878	1284.5699
1313.8517	1282.5699
1314.4225	1305.5699
1314.9862	1314.5699
1315.55	1295.5699
1316.1208	1309.5699
1316.6847	1276.5699
1317.2485	1271.5699
1317.8123	1278.5699
1318.3761	1301.5699
1318.9469	1298.5699
1319.5107	1295.5699
1320.0746	1282.5699
1320.6383	1255.5699
1321.2091	1279.5699
1321.7729	1251.5699
1322.3368	1298.5699
1322.9006	1267.5699
1323.4644	1282.5699
1324.0282	1285.5699
1324.599	1270.5699
1325.1628	1265.5699
1325.7267	1299.5699
1326.2905	1271.5699
1326.8542	1277.5699
1327.4181	1279.5699
1327.9819	1284.5699
1328.5458	1254.5699
1329.1096	1275.5699
1329.6803	1297.5699
1330.2441	1285.5699
1330.808	1285.5699
1331.3718	1266.5699
1331.9357	1275.5699
1332.4994	1286.5699
1333.0632	1271.5699
1333.6271	1251.5699
1334.1909	1284.5699
1334.7548	1306.5699
1335.3185	1275.5699
1335.8823	1286.5699
1336.4462	1275.5699
1337.01	1287.5699
1337.5739	1272.5699
1338.1376	1280.5699
1338.7014	1289.5699
1339.2583	1290.5699
1339.8221	1315.5699
1340.386	1296.5699
1340.9497	1265.5699
1341.5135	1253.5699
1342.0774	1293.5699
1342.6412	1264.5699
1343.2051	1272.5699
1343.7689	1287.5699
1344.3257	1279.5699
1344.8895	1295.5699
1345.4534	1285.5699
1346.0172	1299.5699
1346.5811	1287.5699
1347.1448	1263.5699
1347.7017	1280.5699
1348.2655	1286.5699
1348.8293	1274.5699
1349.3932	1293.5699
1349.9569	1281.5699
1350.5138	1310.5699
1351.0776	1274.5699
1351.6415	1230.5699
1352.2053	1275.5699
1352.7621	1260.5699
1353.3259	1256.5699
1353.8898	1269.5699
1354.4536	1291.5699
1355.0105	1260.5699
1355.5742	1284.5699
1356.1381	1277.5699
1356.6949	1305.5699
1357.2588	1300.5699
1357.8226	1283.5699
1358.3794	1287.5699
1358.9432	1300.5699
1359.5071	1289.5699
1360.064	1308.5699
1360.6277	1305.5699
1361.1915	1289.5699
1361.7484	1281.5699
1362.3123	1286.5699
1362.8761	1272.5699
1363.4329	1308.5699
1363.9897	1285.5699
1364.5536	1317.5699
1365.1174	1254.5699
1365.6743	1305.5699
1366.238	1295.5699
1366.7949	1294.5699
1367.3588	1276.5699
1367.9156	1297.5699
1368.4795	1286.5699
1369.0432	1305.5699
1369.6001	1286.5699
1370.157	1294.5699
1370.7208	1279.5699
1371.2847	1301.5699
1371.8414	1287.5699
1372.4053	1278.5699
1372.9622	1304.5699
1373.519	1281.5699
1374.0829	1267.5699
1374.6396	1297.5699
1375.2035	1291.5699
1375.7604	1290.5699
1376.3242	1283.5699
1376.8811	1288.5699
1377.4379	1286.5699
1378.0017	1286.5699
1378.5586	1294.5699
1379.1224	1289.5699
1379.6792	1271.5699
1380.2361	1283.5699
1380.793	1277.5699
1381.3568	1295.5699
1381.9137	1286.5699
1382.4774	1280.5699
1383.0343	1290.5699
1383.5912	1298.5699
1384.155	1277.5699
1384.7119	1301.5699
1385.2687	1298.5699
1385.8256	1265.5699
1386.3894	1303.5699
1386.9463	1308.5699
1387.5032	1304.5699
1388.0599	1289.5699
1388.6238	1300.5699
1389.1807	1328.5699
1389.7375	1294.5699
1390.2943	1293.5699
1390.8582	1268.5699
1391.415	1323.5699
1391.9719	1292.5699
1392.5288	1297.5699
1393.0856	1300.5699
1393.6494	1284.5699
1394.2063	1270.5699
1394.7632	1316.5699
1395.3201	1284.5699
1395.8768	1297.5699
1396.4337	1329.5699
1396.9976	1325.5699
1397.5544	1301.5699
1398.1113	1280.5699
1398.6681	1294.5699
1399.225	1301.5699
1399.7888	1284.5699
