4.6651063	11475.544
5.3345232	11343.544
6.0109868	11132.544
6.6874504	10945.544
7.3709602	10497.544
8.0474234	10382.544
8.7238874	10257.544
9.4003506	10059.544
10.076815	9995.5439
10.760324	9917.5439
11.436788	9868.5439
12.113251	9710.5439
12.789715	9631.5439
13.466178	9750.5439
14.142642	9505.5439
14.819105	9574.5439
15.495568	9619.5439
16.172031	9570.5439
16.848495	9792.5439
17.532005	10054.544
18.208469	9981.5439
18.884932	10159.544
19.561396	10238.544
20.23786	10423.544
20.914324	10636.544
21.58374	10750.544
22.260204	11169.544
22.936666	11460.544
23.613131	11703.544
24.289595	12105.544
24.966057	12553.544
25.642521	12779.544
26.318985	12799.544
26.995447	13278.544
27.671911	13336.544
28.348375	13470.544
29.024837	13867.544
29.701302	14117.544
30.377766	14444.544
31.054228	15035.544
31.723646	15319.544
32.400108	15794.544
33.076572	17067.543
33.753036	16817.543
34.429501	17488.543
35.098915	17953.543
35.775379	18213.543
36.451843	18735.543
37.128307	18763.543
37.797726	18860.543
38.474186	19362.543
39.15065	19750.543
39.827114	20191.543
40.496532	20628.543
41.172997	21303.543
41.849457	21574.543
42.525921	22166.543
43.195339	22379.543
43.871803	22300.543
44.548267	22752.543
45.217682	23137.543
45.894146	23671.543
46.563564	24259.543
47.240028	24462.543
47.916489	24825.543
48.585907	24936.543
49.262371	25004.543
49.931789	25453.543
50.60825	25600.543
51.284714	25916.543
51.954132	25785.543
52.630596	26038.543
53.300011	26244.543
53.976475	26368.543
54.645893	26861.543
55.322357	26913.543
55.991772	27363.543
56.668236	27827.543
57.337654	28398.543
58.014118	28415.543
58.683533	28699.543
59.359997	28805.543
60.029415	28566.543
60.705879	28309.543
61.375294	28603.543
62.051758	28493.543
62.721176	28657.543
63.390591	28917.543
64.067055	28977.543
64.736473	29078.543
65.405891	29270.543
66.082352	29601.543
66.75177	29555.543
67.42823	29470.543
68.097649	29751.543
68.767067	29680.543
69.436485	30149.543
70.112946	30059.543
70.782364	30095.543
71.451782	30333.543
72.128242	30013.543
72.797661	30205.543
73.467079	30541.543
74.143547	30646.543
74.812958	30646.543
75.482376	30496.543
76.151794	30260.543
76.821213	30333.543
77.490631	30307.543
78.167091	30190.543
78.83651	30147.543
79.505928	30586.543
80.175346	30560.543
80.851807	30948.543
81.521225	31104.543
82.190643	31376.543
82.860054	30820.543
83.529472	30360.543
84.198891	30307.543
84.868309	30554.543
85.537727	30435.543
86.207146	30517.543
86.883606	30343.543
87.553024	30497.543
88.222443	30834.543
88.891853	30963.543
89.55423	30766.543
90.22364	30947.543
90.900108	31067.543
91.569527	30673.543
92.238945	30873.543
92.908356	30689.543
93.577774	30835.543
94.247192	30863.543
94.909561	30533.543
95.578979	30527.543
96.248398	30701.543
96.917816	30792.543
97.587234	30586.543
98.256645	30827.543
98.926064	30578.543
99.595482	30189.543
100.2649	30263.543
100.93432	30281.543
101.60373	30163.543
102.26611	30410.543
102.93552	30295.543
103.60493	30695.543
104.27435	31019.543
104.94377	30984.543
105.60614	30998.543
106.27556	30692.543
106.94498	30563.543
107.6144	30469.543
108.28381	30311.543
108.95322	30148.543
109.6156	30262.543
110.28501	30225.543
110.95443	30067.543
111.6168	29951.543
112.28622	29988.543
112.95564	30070.543
113.62505	30189.543
114.28742	30484.543
114.95684	30240.543
115.61921	30136.543
116.28863	29911.543
116.95805	29952.543
117.62746	29977.543
118.28983	29706.543
118.95925	29662.543
119.62162	29755.543
120.29104	29969.543
120.95341	30147.543
121.62283	30011.543
122.29224	30139.543
122.95461	29699.543
123.62403	29468.543
124.2864	29223.543
124.95582	29549.543
125.61819	29628.543
126.28761	29431.543
126.95702	29478.543
127.61939	29667.543
128.28177	29623.543
128.95117	29401.543
129.61356	29536.543
130.28296	29476.543
130.94534	29203.543
131.61475	29195.543
132.27713	29180.543
132.94655	28832.543
133.60892	28869.543
134.27129	29039.543
134.9407	28801.543
135.60307	29081.543
136.27249	29294.543
136.93486	29012.543
137.59723	29075.543
138.2596	29013.543
138.92902	28979.543
139.59138	29036.543
140.2608	28721.543
140.92317	28665.543
141.58554	28884.543
142.24791	28862.543
142.91733	28613.543
143.5797	28873.543
144.24207	28763.543
144.91148	28562.543
145.57385	28609.543
146.23624	28355.543
146.89861	28203.543
147.56802	28350.543
148.23039	28186.543
148.89276	28232.543
149.55513	28101.543
150.2175	28212.543
150.87987	28021.543
151.54929	28349.543
152.21165	28160.543
152.87402	28190.543
153.53639	27925.543
154.19878	28148.543
154.86115	27922.543
155.52351	27892.543
156.19293	27898.543
156.8553	27660.543
157.51767	27661.543
158.18004	27779.543
158.84241	27568.543
159.50478	27723.543
160.16714	27627.543
160.82951	27587.543
161.4919	27639.543
162.15427	27461.543
162.81664	27563.543
163.479	27453.543
164.14137	27393.543
164.80374	27256.543
165.46611	27521.543
166.12848	27356.543
166.79085	27261.543
167.45323	27240.543
168.1156	27331.543
168.77092	27332.543
169.43329	27275.543
170.09566	27143.543
170.75803	27018.543
171.42039	27013.543
172.08278	27134.543
172.74515	26989.543
173.40752	27003.543
174.06989	27099.543
174.7252	26999.543
175.38757	26790.543
176.04994	26952.543
176.71233	26915.543
177.37469	26755.543
178.03001	26737.543
178.69238	26712.543
179.35475	26673.543
180.01712	26528.543
180.67245	26548.543
181.33482	26628.543
181.99719	26615.543
182.65956	26562.543
183.31488	26441.543
183.97725	26507.543
184.63963	26630.543
185.302	26563.543
185.95732	26388.543
186.61969	26273.543
187.27501	26427.543
187.93738	26479.543
188.59976	26399.543
189.25508	26435.543
189.91745	26313.543
190.57277	26283.543
191.23514	26451.543
191.89752	26431.543
192.55284	26422.543
193.21521	26165.543
193.87053	26142.543
194.5329	26051.543
195.19528	26063.543
195.8506	26129.543
196.51297	26259.543
197.16829	25953.543
197.82362	26002.543
198.48599	26229.543
199.14836	26036.543
199.80368	26128.543
200.46605	26189.543
201.12138	26038.543
201.7767	26097.543
202.43907	26119.543
203.09439	25871.543
203.75676	25899.543
204.41209	26033.543
205.07446	25752.543
205.72978	25899.543
206.3851	25708.543
207.04749	26122.543
207.7028	25791.543
208.35812	25537.543
209.02049	25636.543
209.67583	25813.543
210.33115	25823.543
210.99352	25804.543
211.64883	25589.543
212.3112	25812.543
212.96654	25880.543
213.62186	25518.543
214.27718	25627.543
214.93251	25837.543
215.59488	25671.543
216.2502	25603.543
216.90552	25734.543
217.56085	25751.543
218.22322	25579.543
218.87854	25700.543
219.53387	25644.543
220.18919	25383.543
220.84451	25760.543
221.50688	25711.543
222.16222	25664.543
222.81754	25753.543
223.47285	25603.543
224.12819	25452.543
224.78351	25597.543
225.44588	26051.543
226.1012	26593.543
226.75653	26316.543
227.41185	25723.543
228.06717	25701.543
228.7225	25635.543
229.37782	25696.543
230.03314	25506.543
230.68846	25667.543
231.3438	25832.543
231.99911	25569.543
232.65443	25538.543
233.30977	25447.543
233.96509	25852.543
234.62041	25406.543
235.27574	25522.543
235.93106	25567.543
236.58638	25667.543
237.24171	25564.543
237.89703	25447.543
238.55235	25509.543
239.20769	25671.543
239.86301	25671.543
240.51833	25531.543
241.17365	25521.543
241.82898	25417.543
242.47725	25647.543
243.13258	25371.543
243.7879	25583.543
244.44322	25483.543
245.09856	25605.543
245.75388	25668.543
246.40215	25707.543
247.05748	25595.543
247.7128	25561.543
248.36812	25588.543
249.02345	25634.543
249.67172	25523.543
250.32704	25596.543
250.98238	25793.543
251.6377	25565.543
252.28598	25725.543
252.9413	25681.543
253.59662	25846.543
254.25195	25509.543
254.90022	25600.543
255.55554	25684.543
256.21088	25619.543
256.85916	25709.543
257.51447	25585.543
258.1698	25757.543
258.81808	25537.543
259.47339	25635.543
260.12872	25535.543
260.77701	25893.543
261.43231	25625.543
262.0806	25683.543
262.73593	25712.543
263.39124	25721.543
264.03952	25662.543
264.69485	25758.543
265.34314	25528.543
265.99844	25689.543
266.64673	25802.543
267.30206	25947.543
267.95032	25849.543
268.60565	25841.543
269.25394	25879.543
269.90927	25815.543
270.55753	25939.543
271.21286	25781.543
271.86115	25882.543
272.51645	25724.543
273.16473	25851.543
273.82007	26021.543
274.46835	25739.543
275.11661	25761.543
275.77194	25779.543
276.42023	25911.543
277.07553	25860.543
277.72382	25750.543
278.3721	25905.543
279.02744	25588.543
279.67569	25893.543
280.32397	25768.543
280.97931	26000.543
281.62756	25827.543
282.2829	25956.543
282.93118	25729.543
283.57947	25858.543
284.22772	26079.543
284.88306	25862.543
285.53134	25947.543
286.17963	25803.543
286.82788	26010.543
287.47617	25931.543
288.1315	26036.543
288.77979	25820.543
289.42804	25952.543
290.07632	26041.543
290.73166	26193.543
291.37991	25941.543
292.0282	26136.543
292.67648	26323.543
293.32477	26151.543
293.97302	26312.543
294.62836	26086.543
295.27664	25915.543
295.92493	26029.543
296.57318	26286.543
297.22147	26092.543
297.86975	26007.543
298.51804	26122.543
299.16629	26366.543
299.81458	26081.543
300.46991	26216.543
301.11819	26324.543
301.76645	26116.543
302.41473	26291.543
303.06302	26179.543
303.7113	26223.543
304.35956	26198.543
305.00784	26181.543
305.65613	26404.543
306.30441	26183.543
306.95267	26295.543
307.60095	26120.543
308.24219	26300.543
308.89047	26494.543
309.53876	26428.543
310.18701	26424.543
310.8353	26737.543
311.48358	26401.543
312.13187	26399.543
312.78012	26433.543
313.42841	26344.543
314.07669	26371.543
314.71793	26297.543
315.36618	26401.543
316.01447	26391.543
316.66275	26629.543
317.31104	26395.543
317.95929	26257.543
318.60052	26405.543
319.24881	26369.543
319.89709	26520.543
320.54538	26201.543
321.18658	26336.543
321.83487	26636.543
322.48315	26549.543
323.13144	26533.543
323.77969	26583.543
324.42093	26819.543
325.06921	26423.543
325.7175	26771.543
326.35873	26617.543
327.00699	26503.543
327.65527	26400.543
328.29651	26619.543
328.94479	26704.543
329.59308	26653.543
330.23428	26615.543
330.88257	26461.543
331.5238	26698.543
332.17209	26643.543
332.82037	26877.543
333.46158	26797.543
334.10986	26780.543
334.7511	26619.543
335.39938	26871.543
336.04767	26748.543
336.68887	26703.543
337.33716	26702.543
337.97839	26803.543
338.62668	26792.543
339.26791	26848.543
339.91617	26750.543
340.5574	27025.543
341.20569	26851.543
341.84692	26873.543
342.49521	26827.543
343.13644	27011.543
343.77765	26859.543
344.42593	26882.543
345.07422	26731.543
345.71545	26795.543
346.35669	27037.543
347.00494	26711.543
347.64618	27037.543
348.29446	27045.543
348.9357	26952.543
349.57693	26948.543
350.21817	26963.543
350.86642	26963.543
351.50766	27123.543
352.15594	26960.543
352.79718	27137.543
353.43842	26994.543
354.07965	26945.543
354.72791	27028.543
355.36914	26911.543
356.01038	27215.543
356.65161	27227.543
357.2999	27322.543
357.9411	27228.543
358.58234	27039.543
359.22357	27131.543
359.87186	27078.543
360.51309	27303.543
361.15433	27245.543
361.79553	27382.543
362.44382	27204.543
363.08505	27262.543
363.72629	27334.543
364.36752	27115.543
365.00876	27171.543
365.64999	27504.543
366.2912	27404.543
366.93243	27312.543
367.58072	27495.543
368.22195	27507.543
368.86319	27455.543
369.50443	27111.543
370.14563	27408.543
370.78687	27353.543
371.4281	27422.543
372.06934	27405.543
372.71057	27367.543
373.35181	27347.543
373.99304	27499.543
374.63425	27506.543
375.27548	27551.543
375.91672	27398.543
376.55795	27557.543
377.19919	27609.543
377.84042	27599.543
378.48166	27611.543
379.12286	27639.543
379.7641	27356.543
380.40533	27725.543
381.04657	27815.543
381.68781	27721.543
382.32904	27951.543
382.96323	27781.543
383.60446	27774.543
384.24567	27691.543
384.8869	27761.543
385.52814	27941.543
386.16937	27951.543
386.81061	27719.543
387.44479	27911.543
388.08603	28064.543
388.72726	28021.543
389.36847	28161.543
390.0097	28179.543
390.64389	28204.543
391.28513	28027.543
391.92636	27880.543
392.5676	28068.543
393.20883	28212.543
393.84302	28260.543
394.48422	28324.543
395.12546	28439.543
395.75964	28144.543
396.40088	28512.543
397.04211	28583.543
397.6763	28459.543
398.31754	28355.543
398.95877	28526.543
399.59296	28523.543
400.23416	28780.543
400.8754	28782.543
401.50958	28702.543
402.15082	28691.543
402.785	28435.543
403.42624	28808.543
404.06747	29021.543
404.70166	28835.543
405.3429	29066.543
405.97708	29207.543
406.61829	29013.543
407.25952	29409.543
407.89371	28982.543
408.53494	29112.543
409.16913	29320.543
409.81036	29536.543
410.44455	29531.543
411.08578	29513.543
411.71997	29342.543
412.36121	29541.543
412.99539	29675.543
413.62955	29689.543
414.27078	29739.543
414.90497	29807.543
415.5462	29797.543
416.18039	29791.543
416.82162	30079.543
417.45581	29982.543
418.09	30260.543
418.73123	30143.543
419.36542	30275.543
420.00665	30635.543
420.64084	30332.543
421.27499	30368.543
421.90918	30695.543
422.55042	30443.543
423.1846	30771.543
423.82584	30827.543
424.46002	30960.543
425.09421	30990.543
425.72839	31310.543
426.36963	31118.543
427.00381	31228.543
427.638	31249.543
428.27924	31327.543
428.91342	31584.543
429.54761	31489.543
430.18176	31509.543
430.81595	31563.543
431.45718	31811.543
432.09137	32057.543
432.72556	31904.543
433.35974	32102.543
433.99393	32227.543
434.62811	32173.543
435.26935	32315.543
435.90353	32399.543
436.53772	32379.543
437.17191	32343.543
437.80609	32427.543
438.44028	32637.543
439.07446	32683.543
439.70865	32996.543
440.34988	33006.543
440.98404	33175.543
441.61823	33184.543
442.25241	33169.543
442.8866	33465.543
443.52078	33437.543
444.15497	33647.543
444.78915	33723.543
445.42334	33971.543
446.05753	33801.543
446.69171	34002.543
447.3259	34251.543
447.96008	34236.543
448.59427	34271.543
449.22845	34302.543
449.86264	34309.543
450.49683	34760.543
451.12396	34663.543
451.75815	34711.543
452.39233	34723.543
453.02652	34868.543
453.66071	34990.543
454.29489	35532.543
454.92908	35641.543
455.56326	35220.543
456.19745	35373.543
456.82458	35251.543
457.45877	35455.543
458.09296	35485.543
458.72714	35713.543
459.3613	35627.543
459.99548	35801.543
460.62262	35835.543
461.25681	36096.543
461.89099	35846.543
462.51813	36079.543
463.15231	36036.543
463.7865	36121.543
464.42068	36171.543
465.05487	36000.543
465.68201	36446.543
466.31619	36555.543
466.95038	36339.543
467.57751	36664.543
468.2117	36517.543
468.83884	36888.543
469.47302	36797.543
470.10721	36883.543
470.74139	36847.543
471.36853	36948.543
472.00272	37184.543
472.62985	37036.543
473.26404	37199.543
473.89822	36991.543
474.52536	37504.543
475.15955	37267.543
475.78668	37518.543
476.42087	37281.543
477.05505	37583.543
477.68219	37470.543
478.31638	37572.543
478.94351	37791.543
479.5777	37726.543
480.20483	37895.543
480.83902	37876.543
481.46616	37999.543
482.10034	37772.543
482.72748	38293.543
483.36166	37883.543
483.9888	38212.543
484.62299	38055.543
485.25012	38036.543
485.87726	38123.543
486.51144	38272.543
487.13858	38301.543
487.77277	38295.543
488.3999	38379.543
489.03409	38763.543
489.66122	38488.543
490.28839	38350.543
490.92255	38643.543
491.54971	38527.543
492.17685	38468.543
492.80399	38764.543
493.43817	38729.543
494.06531	38676.543
494.69244	38804.543
495.32663	38331.543
495.95377	38701.543
496.5809	38768.543
497.21509	38541.543
497.84222	38707.543
498.46936	38820.543
499.0965	38763.543
499.73068	38773.543
500.35782	38521.543
500.98495	38781.543
501.61209	38955.543
502.23923	38895.543
502.87341	38717.543
503.50055	38558.543
504.12769	38678.543
504.75482	38587.543
505.38196	38491.543
506.00909	38355.543
506.64328	38539.543
507.27042	38725.543
507.89755	38323.543
508.52472	38392.543
509.15186	38392.543
509.77899	38388.543
510.40613	38295.543
511.03326	38179.543
511.6604	38071.543
512.28754	38024.543
512.91467	38189.543
513.54883	37820.543
514.17596	37756.543
514.80316	37568.543
515.4303	37452.543
516.05743	37341.543
516.67749	37203.543
517.30463	37152.543
517.93176	37316.543
518.5589	36767.543
519.18604	36604.543
519.81317	36702.543
520.44031	36475.543
521.06744	36367.543
521.69458	36385.543
522.32172	36180.543
522.94885	36137.543
523.57599	35881.543
524.20319	35492.543
524.83032	35331.543
525.45746	35371.543
526.07751	35213.543
526.70465	34891.543
527.33179	34897.543
527.95892	34693.543
528.58606	34588.543
529.20618	34303.543
529.83331	34161.543
530.46045	33814.543
531.08759	33834.543
531.71472	33692.543
532.33484	33470.543
532.96198	33499.543
533.58911	32912.543
534.21625	33052.543
534.8363	32771.543
535.46344	32618.543
536.09058	32507.543
536.71069	32111.543
537.33783	31950.543
537.96497	32001.543
538.5921	31692.543
539.21222	31624.543
539.83936	31294.543
540.46649	31321.543
541.08655	31124.543
541.71368	30833.543
542.34082	30719.543
542.96094	30595.543
543.58807	30617.543
544.20813	30273.543
544.83527	30089.543
545.4624	29937.543
546.08252	30006.543
546.70966	29615.543
547.32977	29724.543
547.95691	29653.543
548.57697	29333.543
549.2041	29219.543
549.82422	29247.543
550.45135	29034.543
551.07141	28869.543
551.69855	28919.543
552.31866	28885.543
552.9458	28790.543
553.56592	28635.543
554.19305	28422.543
554.81311	28317.543
555.44025	28437.543
556.06036	28283.543
556.68042	28316.543
557.30762	28260.543
557.92767	28056.543
558.55481	27882.543
559.17493	27805.543
559.79498	27850.543
560.42212	27905.543
561.04224	27915.543
561.66937	27749.543
562.28943	27658.543
562.90955	27689.543
563.53668	27593.543
564.1568	27496.543
564.77686	27644.543
565.40399	27566.543
566.02411	27437.543
566.64417	27342.543
567.26428	27184.543
567.89142	27263.543
568.51154	27300.543
569.13159	27205.543
569.75171	27047.543
570.37885	27013.543
570.9989	27163.543
571.61902	26930.543
572.23914	26988.543
572.85919	26949.543
573.48633	26890.543
574.10645	26729.543
574.7265	26647.543
575.34662	26600.543
575.96667	26483.543
576.58679	26341.543
577.20691	26355.543
577.83405	26207.543
578.4541	26215.543
579.07422	26069.543
579.69427	25977.543
580.31439	25899.543
580.93451	25737.543
581.55457	25622.543
582.17468	25588.543
582.79474	25471.543
583.41486	25358.543
584.03491	25178.543
584.65503	25099.543
585.27515	24941.543
585.8952	24854.543
586.51532	24729.543
587.13538	24468.543
587.75549	24235.543
588.37561	24342.543
588.99567	24076.543
589.61578	23999.543
590.23584	23945.543
590.85596	23658.543
591.47601	23665.543
592.09613	23553.543
592.71625	23386.543
593.3363	23204.543
593.95642	23124.543
594.56946	22953.543
595.18951	22788.543
595.80963	22541.543
596.42975	22571.543
597.0498	22340.543
597.66992	22150.543
598.28998	21958.543
598.9101	21888.543
599.52313	21707.543
600.14325	21781.543
600.76331	21647.543
601.38342	21406.543
601.99646	21172.543
602.61658	21147.543
603.23663	20933.543
603.85675	20757.543
604.46979	20518.543
605.08984	20439.543
605.70996	20281.543
606.33008	20317.543
606.94312	20065.543
607.56317	19837.543
608.18329	19835.543
608.80334	19552.543
609.41644	19686.543
610.0365	19405.543
610.64954	19363.543
611.26965	19200.543
611.88971	19020.543
612.50281	18819.543
613.12286	18708.543
613.74298	18764.543
614.35602	18502.543
614.97607	18329.543
615.58917	18275.543
616.20923	18199.543
616.82227	17964.543
617.44238	18020.543
618.06244	17791.543
618.67554	17973.543
619.29559	17474.543
619.90863	17539.543
620.52875	17307.543
621.14178	17462.543
621.7619	17138.543
622.37494	17043.543
622.995	16986.543
623.60803	16779.543
624.22815	16729.543
624.84119	16551.543
625.4613	16487.543
626.07434	16520.543
626.68738	16299.544
627.3075	16140.544
627.92053	16130.544
628.53357	16028.544
629.15363	15839.544
629.76666	15983.544
630.38678	15880.544
630.99982	15658.544
631.61993	15579.544
632.23297	15586.544
632.84601	15323.544
633.45905	15395.544
634.07916	15271.544
634.6922	15186.544
635.30524	14904.544
635.92535	14916.544
636.53839	14812.544
637.15143	14685.544
637.76447	14720.544
638.38458	14679.544
638.99762	14455.544
639.61066	14418.544
640.23071	14462.544
640.84381	14337.544
641.45685	14287.544
642.06989	14287.544
642.68292	14321.544
642.70404	14113.544
643.33118	13958.544
643.95129	14002.544
644.57843	13947.544
645.19849	13872.544
645.8186	13866.544
646.44574	13748.544
647.06586	13693.544
647.69299	13572.544
648.31305	13535.544
648.93317	13378.544
649.5603	13381.544
650.18036	13366.544
650.80048	13240.544
651.42761	13278.544
652.04773	13162.544
652.66779	13136.544
653.29492	13115.544
653.91504	12991.544
654.5351	13052.544
655.16223	12966.544
655.78235	12858.544
656.40247	12910.544
657.02252	12885.544
657.64966	12786.544
658.26978	12660.544
658.88983	12696.544
659.50995	12654.544
660.13708	12563.544
660.7572	12520.544
661.37726	12500.544
661.99738	12464.544
662.62451	12546.544
663.24457	12389.544
663.86469	12343.544
664.48474	12253.544
665.10486	12200.544
665.72498	12357.544
666.35211	12147.544
666.97217	12163.544
667.59229	12016.544
668.21234	12074.544
668.83246	12012.544
669.45258	12074.544
670.07263	12175.544
670.69275	12106.544
671.31281	11862.544
671.93292	12008.544
672.55298	12024.544
673.18011	11884.544
673.80023	11944.544
674.41327	11883.544
675.04041	11885.544
675.66052	11839.544
676.27356	11616.544
676.9007	11642.544
677.52081	11643.544
678.14087	11788.544
678.75391	11733.544
679.38104	11621.544
680.00116	11705.544
680.6142	11594.544
681.23431	11556.544
681.85437	11530.544
682.47449	11514.544
683.09454	11606.544
683.71466	11495.544
684.33472	11505.544
684.95483	11474.544
685.57495	11388.544
686.18799	11515.544
686.80804	11281.544
687.42816	11623.544
688.04828	11262.544
688.66833	11296.544
689.28845	11413.544
689.90851	11276.544
690.52155	11405.544
691.14166	11284.544
691.76178	11282.544
692.38184	11245.544
692.99487	11251.544
693.61499	11284.544
694.23505	11197.544
694.85516	11143.544
695.4682	11034.544
696.08832	11179.544
696.70837	11100.544
697.32849	11027.544
697.94153	10965.544
698.56165	11098.544
699.1817	11130.544
699.79474	11077.544
700.41486	10880.544
701.03491	11068.544
701.64801	10961.544
702.26807	10983.544
702.8811	10855.544
703.50122	11073.544
704.12128	10852.544
704.73438	10811.544
705.35443	10798.544
705.96747	10922.544
706.58759	10696.544
707.20764	10795.544
707.82074	10826.544
708.4408	10660.544
709.05383	10634.544
709.67395	10719.544
710.28699	10701.544
710.9071	10598.544
711.52014	10768.544
712.1402	10603.544
712.76031	10578.544
713.37335	10604.544
713.98639	10608.544
714.60651	10603.544
715.21954	10519.544
715.8396	10469.544
716.4527	10521.544
717.07275	10487.544
717.68579	10560.544
718.30591	10357.544
718.91895	10452.544
719.53198	10353.544
720.1521	10422.544
720.76514	10311.544
721.37817	10389.544
721.99823	10266.544
722.61133	10318.544
723.23138	10260.544
723.84442	10361.544
724.45746	10259.544
725.07758	10270.544
725.69061	10338.544
726.30365	10163.544
726.91669	10269.544
727.5368	10322.544
728.14984	10131.544
728.76288	10280.544
729.383	10038.544
729.99603	10220.544
730.60907	10173.544
731.22211	9991.5439
731.83514	10095.544
732.45526	10130.544
733.0683	9936.5439
733.68134	10074.544
734.29437	10083.544
734.90741	10044.544
735.52753	10010.544
736.14056	10091.544
736.7536	10010.544
737.36664	9955.5439
737.97974	9885.5439
738.59277	9828.5439
739.21283	9951.5439
739.82587	9955.5439
740.43896	9893.5439
741.052	9834.5439
741.66504	9881.5439
742.27808	9890.5439
742.89111	9890.5439
743.50415	9914.5439
744.11719	9927.5439
744.73022	9841.5439
745.34332	9790.5439
745.96338	9696.5439
746.5694	9840.5439
747.18243	9853.5439
747.80255	9738.5439
748.40851	9786.5439
749.02155	9622.5439
749.64166	9773.5439
750.24768	9767.5439
750.86072	9572.5439
751.47375	9620.5439
752.08679	9530.5439
752.69983	9613.5439
753.31287	9639.5439
753.9259	9634.5439
754.539	9554.5439
755.15204	9602.5439
755.76508	9484.5439
756.37811	9507.5439
756.99115	9410.5439
757.60419	9561.5439
758.21021	9414.5439
758.82324	9389.5439
759.43628	9316.5439
760.04932	9406.5439
760.66235	9466.5439
761.26837	9457.5439
761.88141	9404.5439
762.49445	9371.5439
763.10748	9272.5439
763.72058	9392.5439
764.32654	9378.5439
764.93958	9365.5439
765.55267	9295.5439
766.16571	9444.5439
766.77875	9243.5439
767.3847	9166.5439
767.9978	9326.5439
768.61084	9250.5439
769.2168	9187.5439
769.8299	9318.5439
770.44293	9216.5439
771.04889	8970.5439
771.66193	9118.5439
772.27502	9000.5439
772.88806	9009.5439
773.49402	9162.5439
774.10712	9195.5439
774.71307	9069.5439
775.32611	9084.5439
775.93915	8931.5439
776.54517	9067.5439
777.1582	8951.5439
777.76422	8962.5439
778.37726	8930.5439
778.9903	8924.5439
779.59631	8890.5439
780.20935	8872.5439
780.81537	8850.5439
781.42841	8794.5439
782.03442	8833.5439
782.64746	8732.5439
783.2605	8704.5439
783.86646	8699.5439
784.47247	8756.5439
785.08551	8749.5439
785.69153	8714.5439
786.30457	8646.5439
786.91058	8644.5439
787.52362	8642.5439
788.12964	8512.5439
788.74268	8557.5439
789.34863	8526.5439
789.95465	8419.5439
790.56769	8490.5439
791.17371	8343.5439
791.78674	8333.5439
792.39276	8286.5439
793.0058	8304.5439
793.61176	8330.5439
794.21777	8232.5439
794.83081	8257.5439
795.43683	8068.5439
796.04285	8167.5439
796.6488	8140.5439
797.26184	8096.5439
797.86786	8024.5439
798.4809	8054.5439
799.08691	7951.5439
799.69293	8023.5439
800.29889	7879.5439
800.91193	7916.5439
801.51794	7743.5439
802.12396	7610.5439
802.72992	7624.5439
803.33594	7672.5439
803.94897	7672.5439
804.55499	7423.5439
805.16101	7525.5439
805.76697	7396.5439
806.38	7376.5439
806.98602	7494.5439
807.59204	7311.5439
808.19806	7253.5439
808.80402	7224.5439
809.41705	7093.5439
810.02307	7179.5439
810.62909	7087.5439
811.23505	6968.5439
811.84106	6930.5439
812.44708	6849.5439
813.05304	6757.5439
813.65906	6788.5439
814.26508	6731.5439
814.87103	6619.5439
815.48413	6628.5439
816.09009	6671.5439
816.69611	6516.5439
817.30212	6450.5439
817.90808	6326.5439
818.5141	6436.5439
819.12012	6294.5439
819.72607	6268.5439
820.33209	6271.5439
820.93811	6178.5439
821.54407	6011.5439
822.15009	6034.5439
822.7561	5934.5439
823.36206	5958.5439
823.96106	5901.5439
824.5741	5878.5439
825.17303	5707.5439
825.77905	5770.5439
826.38501	5720.5439
826.99103	5559.5439
827.59705	5624.5439
828.203	5538.5439
828.80902	5486.5439
829.41504	5435.5439
830.01398	5424.5439
830.62	5448.5439
831.22595	5309.5439
831.83197	5316.5439
832.43799	5327.5439
833.04395	5336.5439
833.64294	5221.5439
834.2489	5228.5439
834.85492	5173.5439
835.46094	5214.5439
836.06689	5121.5439
836.67291	5089.5439
837.27185	5066.5439
837.87787	5024.5439
838.48389	5016.5439
839.08984	5041.5439
839.68884	4919.5439
840.2948	4938.5439
840.90082	4979.5439
841.49976	4956.5439
842.10577	4878.5439
842.71173	4819.5439
843.31073	4810.5439
843.91669	4799.5439
844.52271	4865.5439
845.12164	4882.5439
845.72766	4889.5439
846.33368	4829.5439
846.93262	4851.5439
847.53864	4888.5439
848.14459	4955.5439
848.74353	4870.5439
849.34955	4941.5439
849.94849	4874.5439
850.5545	4843.5439
851.15344	4941.5439
851.75946	4884.5439
852.3584	4846.5439
852.96442	4868.5439
853.57043	4940.5439
854.16937	4943.5439
854.77533	4949.5439
855.37433	4990.5439
855.98029	5072.5439
856.57928	4947.5439
857.18524	5050.5439
857.78424	5002.5439
858.3902	5014.5439
858.98914	5012.5439
859.59515	5115.5439
860.19409	5072.5439
860.79309	5110.5439
861.39905	5071.5439
861.99799	5155.5439
862.604	5222.5439
863.20294	5272.5439
863.80896	5244.5439
864.4079	5241.5439
865.0069	5384.5439
865.61285	5327.5439
866.21179	5347.5439
866.81079	5285.5439
867.40973	5438.5439
868.01575	5434.5439
868.61469	5506.5439
869.22064	5535.5439
869.81964	5606.5439
870.41858	5618.5439
871.0246	5603.5439
871.62354	5606.5439
872.22247	5717.5439
872.82141	5757.5439
873.42743	5800.5439
874.02637	5858.5439
874.62531	5886.5439
875.2243	5834.5439
875.82324	5956.5439
876.42926	6008.5439
877.0282	6136.5439
877.62714	6092.5439
878.22607	6121.5439
878.82507	6156.5439
879.43103	6227.5439
880.02997	6319.5439
880.62897	6291.5439
881.22791	6445.5439
881.82684	6420.5439
882.43286	6517.5439
883.02478	6458.5439
883.63074	6648.5439
884.22974	6681.5439
884.82867	6781.5439
885.42761	6691.5439
886.02655	6836.5439
886.62549	6908.5439
887.22449	6986.5439
887.82343	7018.5439
888.42236	7053.5439
889.0213	7130.5439
889.6203	7158.5439
890.21924	7148.5439
890.81818	7158.5439
891.41711	7401.5439
892.01605	7423.5439
892.61505	7467.5439
893.21399	7533.5439
893.81293	7566.5439
894.41187	7652.5439
895.01086	7604.5439
895.6098	7809.5439
896.20874	7841.5439
896.80768	7946.5439
897.40668	7979.5439
898.00562	8086.5439
898.60455	8081.5439
899.20349	8168.5439
899.80243	8294.5439
900.39435	8184.5439
900.99329	8360.5439
901.59229	8506.5439
902.19122	8561.5439
902.79016	8660.5439
903.3891	8744.5439
903.98102	8845.5439
904.57996	8790.5439
905.17896	8876.5439
905.77789	8884.5439
906.37683	8950.5439
906.97577	9060.5439
907.56769	9086.5439
908.16663	9187.5439
908.76563	9270.5439
909.36456	9272.5439
909.9635	9380.5439
910.55542	9456.5439
911.15436	9473.5439
911.7533	9457.5439
912.34521	9680.5439
912.94415	9697.5439
913.54315	9833.5439
914.13501	9853.5439
914.73401	9950.5439
915.33295	9932.5439
915.92487	9924.5439
916.5238	10178.544
917.12274	10236.544
917.71466	10190.544
918.3136	10166.544
918.91254	10469.544
919.50446	10490.544
920.10339	10586.544
920.70239	10478.544
921.29425	10594.544
921.88617	10537.544
922.48511	10642.544
923.08411	10740.544
923.67596	10776.544
924.27496	10918.544
924.86682	11147.544
925.46582	11031.544
926.05768	11100.544
926.65668	11087.544
927.24854	11266.544
927.84753	11191.544
928.44647	11340.544
929.03839	11306.544
929.63025	11374.544
930.22925	11328.544
930.82111	11612.544
931.4201	11603.544
932.01196	11665.544
932.61096	11779.544
933.20282	11822.544
933.79474	11814.544
934.39368	11895.544
934.9856	11922.544
935.58453	11948.544
936.17645	11990.544
936.77539	12173.544
937.36731	12154.544
937.95923	12139.544
938.55115	12249.544
939.15009	12147.544
939.742	12394.544
940.33392	12435.544
940.93286	12458.544
941.52478	12599.544
942.11664	12636.544
942.71564	12470.544
943.3075	12618.544
943.89941	12621.544
944.49133	12722.544
945.09027	12836.544
945.68219	12788.544
946.27411	12862.544
946.86597	13074.544
947.46497	12903.544
948.05688	12881.544
948.64874	12974.544
949.24066	13042.544
949.83258	13050.544
950.43152	13166.544
951.02344	13326.544
951.61536	13254.544
952.20721	13367.544
952.79913	13327.544
953.39807	13390.544
953.98999	13429.544
954.58191	13483.544
955.17383	13400.544
955.76575	13602.544
956.3576	13616.544
956.94952	13491.544
957.54144	13669.544
958.13336	13623.544
958.72522	13825.544
959.31714	13718.544
959.90906	13818.544
960.508	13699.544
961.09991	13857.544
961.69183	13963.544
962.27667	13929.544
962.87561	13926.544
963.46753	14111.544
964.05945	13921.544
964.65137	14262.544
965.23621	14140.544
965.83514	14053.544
966.42706	14085.544
967.0119	14263.544
967.60382	14300.544
968.19574	14263.544
968.78766	14319.544
969.37952	14296.544
969.97144	14247.544
970.56335	14467.544
971.15527	14348.544
971.74719	14292.544
972.33905	14563.544
972.92395	14397.544
973.51587	14463.544
974.10773	14537.544
974.69965	14505.544
975.29156	14553.544
975.88348	14651.544
976.46832	14553.544
977.06024	14717.544
977.65216	14585.544
978.24402	14616.544
978.83594	14716.544
979.42078	14588.544
980.0127	14688.544
980.60461	14826.544
981.19653	14696.544
981.78137	14892.544
982.37329	14602.544
982.96521	14658.544
983.55707	14845.544
984.14197	14665.544
984.73389	14790.544
985.32574	14918.544
985.91766	14882.544
986.5025	14795.544
987.09442	14889.544
987.67932	14873.544
988.27118	14863.544
988.8631	14823.544
989.44794	14836.544
990.03986	14941.544
990.63177	14992.544
991.21661	14906.544
991.80853	14976.544
992.39337	14932.544
992.98529	14975.544
993.57721	14894.544
994.16205	14927.544
994.75397	15019.544
995.33881	14858.544
995.93073	14859.544
996.51563	15024.544
997.10748	15028.544
997.69238	15145.544
998.28424	14957.544
998.86914	14968.544
999.46106	15006.544
1000.0459	14913.544
1000.6378	14926.544
1001.2227	15066.544
1001.8146	14946.544
1002.3994	14929.544
1002.9913	14902.544
1003.5762	14924.544
1004.1681	14760.544
1004.7529	14928.544
1005.3378	14822.544
1005.9297	14844.544
1006.5146	14912.544
1007.1065	14898.544
1007.6913	14772.544
1008.2762	14715.544
1008.8681	14768.544
1009.4529	14664.544
1010.0378	14905.544
1010.6297	14837.544
1011.2146	14777.544
1011.7994	14828.544
1012.3914	14765.544
1012.9762	14722.544
1013.5611	14747.544
1014.153	14740.544
1014.7379	14730.544
1015.3227	14639.544
1015.9075	14659.544
1016.4995	14695.544
1017.0843	14559.544
1017.6692	14687.544
1018.254	14720.544
1018.8459	14561.544
1019.4308	14555.544
1020.0157	14386.544
1020.6005	14543.544
1021.1924	14503.544
1021.7773	14484.544
1022.3621	14426.544
1022.947	14395.544
1023.5319	14432.544
1024.1167	14321.544
1024.7015	14280.544
1025.2864	14222.544
1025.8783	14094.544
1026.4633	14097.544
1027.0481	14126.544
1027.6329	14262.544
1028.2178	14151.544
1028.8026	14088.544
1029.3875	14053.544
1029.9724	14118.544
1030.5573	13962.544
1031.1421	13982.544
1031.7269	13940.544
1032.3118	13879.544
1032.8966	13887.544
1033.4885	13865.544
1034.0734	13782.544
1034.6583	13776.544
1035.2432	13757.544
1035.828	13678.544
1036.4128	13708.544
1036.9977	13630.544
1037.5756	13537.544
1038.1604	13575.544
1038.7452	13540.544
1039.3301	13477.544
1039.9149	13450.544
1040.4999	13440.544
1041.0847	13402.544
1041.6696	13419.544
1042.2544	13355.544
1042.8392	13275.544
1043.4241	13279.544
1044.002	13322.544
1044.5868	13234.544
1045.1716	13037.544
1045.7565	13141.544
1046.3413	13085.544
1046.9263	13051.544
1047.504	12945.544
1048.0889	12944.544
1048.6737	12957.544
1049.2587	12900.544
1049.8435	12882.544
1050.4213	12840.544
1051.0061	12705.544
1051.5909	12623.544
1052.1759	12726.544
1052.7607	12718.544
1053.3385	12589.544
1053.9233	12599.544
1054.5083	12608.544
1055.0861	12538.544
1055.6709	12440.544
1056.2557	12408.544
1056.8407	12426.544
1057.4185	12441.544
1058.0033	12276.544
1058.5881	12326.544
1059.166	12267.544
1059.7509	12173.544
1060.3286	12161.544
1060.9135	12142.544
1061.4984	12140.544
1062.0762	12050.544
1062.661	12041.544
1063.2458	12000.544
1063.8237	11874.544
1064.4086	11897.544
1064.9863	11939.544
1065.5713	11812.544
1066.149	11775.544
1066.7339	11757.544
1067.3118	11780.544
1067.8966	11770.544
1068.4814	11639.544
1069.0592	11528.544
1069.6442	11597.544
1070.2219	11542.544
1070.8068	11498.544
1071.3846	11460.544
1071.9695	11377.544
1072.5472	11377.544
1073.1251	11435.544
1073.71	11356.544
1074.2877	11296.544
1074.8726	11228.544
1075.4504	11184.544
1076.0353	11211.544
1076.6132	11177.544
1077.198	11147.544
1077.7758	11128.544
1078.3536	11065.544
1078.9385	10954.544
1079.5162	10955.544
1080.1011	10980.544
1080.679	10891.544
1081.2567	10874.544
1081.8346	10809.544
1082.4194	10878.544
1082.9972	10741.544
1083.5751	10718.544
1084.1599	10662.544
1084.7377	10577.544
1085.3156	10489.544
1085.9004	10495.544
1086.4781	10526.544
1087.056	10508.544
1087.6338	10421.544
1088.2186	10393.544
1088.7965	10507.544
1089.3743	10379.544
1089.9521	10332.544
1090.537	10276.544
1091.1147	10238.544
1091.6926	10180.544
1092.2704	10182.544
1092.8483	10237.544
1093.426	10078.544
1094.0109	10024.544
1094.5887	10116.544
1095.1665	9929.5439
1095.7444	9912.5439
1096.3221	9950.5439
1096.8999	9838.5439
1097.4849	9796.5439
1098.0626	9826.5439
1098.6405	9779.5439
1099.2183	9736.5439
1099.796	9734.5439
1100.3739	9762.5439
1100.9517	9574.5439
1101.5295	9726.5439
1102.1073	9651.5439
1102.6852	9592.5439
1103.2629	9589.5439
1103.8407	9567.5439
1104.4186	9516.5439
1104.9963	9499.5439
1105.5742	9518.5439
1106.152	9340.5439
1106.7368	9379.5439
1107.3076	9361.5439
1107.8855	9309.5439
1108.4633	9194.5439
1109.041	9186.5439
1109.6189	9234.5439
1110.1967	9189.5439
1110.7745	9197.5439
1111.3523	9053.5439
1111.9302	9101.5439
1112.5079	8985.5439
1113.0858	8925.5439
1113.6636	8983.5439
1114.2413	8886.5439
1114.8121	8798.5439
1115.39	8878.5439
1115.9678	8794.5439
1116.5455	8797.5439
1117.1234	8759.5439
1117.7012	8716.5439
1118.2791	8644.5439
1118.8497	8657.5439
1119.4276	8611.5439
1120.0054	8611.5439
1120.5833	8526.5439
1121.1541	8523.5439
1121.7318	8557.5439
1122.3096	8443.5439
1122.8875	8370.5439
1123.4583	8403.5439
1124.036	8359.5439
1124.6138	8340.5439
1125.1917	8241.5439
1125.7625	8234.5439
1126.3402	8185.5439
1126.918	8234.5439
1127.4958	8166.5439
1128.0667	8157.5439
1128.6444	8058.5439
1129.2223	8047.5439
1129.793	7971.5439
1130.3708	7876.5439
1130.9486	7916.5439
1131.5194	7954.5439
1132.0972	7842.5439
1132.675	7879.5439
1133.2457	7811.5439
1133.8236	7868.5439
1134.3944	7683.5439
1134.9722	7721.5439
1135.4724	7710.5439
1136.0574	7616.5439
1136.6351	7592.5439
1137.22	7629.5439
1137.8048	7375.5439
1138.3827	7483.5439
1138.9675	7466.5439
1139.5524	7428.5439
1140.1372	7444.5439
1140.7151	7363.5439
1141.2999	7348.5439
1141.8777	7362.5439
1142.4626	7243.5439
1143.0475	7281.5439
1143.6252	7367.5439
1144.2101	7217.5439
1144.788	7164.5439
1145.3728	7071.5439
1145.9576	7026.5439
1146.5355	7030.5439
1147.1204	7066.5439
1147.6981	6974.5439
1148.283	6983.5439
1148.8608	6952.5439
1149.4457	7035.5439
1150.0234	6849.5439
1150.6084	6841.5439
1151.1932	6870.5439
1151.771	6687.5439
1152.3558	6716.5439
1152.9337	6676.5439
1153.5186	6701.5439
1154.0963	6566.5439
1154.6813	6677.5439
1155.259	6587.5439
1155.8368	6636.5439
1156.4218	6487.5439
1156.9995	6498.5439
1157.5844	6493.5439
1158.1622	6496.5439
1158.74	6372.5439
1159.3248	6428.5439
1159.9027	6311.5439
1160.4875	6292.5439
1161.0653	6228.5439
1161.6432	6160.5439
1162.228	6154.5439
1162.8058	6120.5439
1163.3906	6115.5439
1163.9685	6083.5439
1164.5463	6055.5439
1165.1241	5988.5439
1165.709	6058.5439
1166.2867	5971.5439
1166.8646	5977.5439
1167.4495	5914.5439
1168.0272	5903.5439
1168.6051	5867.5439
1169.1829	5835.5439
1169.7678	5775.5439
1170.3456	5799.5439
1170.9233	5729.5439
1171.5012	5680.5439
1172.0861	5663.5439
1172.6638	5651.5439
1173.2417	5593.5439
1173.8195	5651.5439
1174.3973	5562.5439
1174.9822	5570.5439
1175.5599	5448.5439
1176.1378	5397.5439
1176.7156	5375.5439
1177.2935	5383.5439
1177.8712	5376.5439
1178.4491	5335.5439
1179.0339	5284.5439
1179.6117	5272.5439
1180.1896	5311.5439
1180.7673	5149.5439
1181.3451	5191.5439
1181.923	5215.5439
1182.5007	5132.5439
1183.0786	5087.5439
1183.6564	5037.5439
1184.2412	5010.5439
1184.812	4890.5439
1185.3969	4951.5439
1185.9747	5009.5439
1186.5525	4837.5439
1187.1304	4911.5439
1187.7081	4771.5439
1188.2859	4738.5439
1188.8638	4763.5439
1189.4415	4743.5439
1190.0194	4743.5439
1190.5972	4762.5439
1191.175	4719.5439
1191.7457	4659.5439
1192.3236	4606.5439
1192.9014	4499.5439
1193.4792	4580.5439
1194.057	4557.5439
1194.6349	4495.5439
1195.2126	4481.5439
1195.7904	4498.5439
1196.3683	4388.5439
1196.946	4358.5439
1197.5168	4371.5439
1198.1017	4345.5439
1198.6725	4271.5439
1199.2502	4292.5439
1199.8281	4361.5439
1200.4059	4256.5439
1200.9838	4120.5439
1201.5544	4118.5439
1202.1323	4147.5439
1202.7101	4108.5439
1203.288	4124.5439
1203.8657	4082.5437
1204.4436	4025.5437
1205.0143	3998.5437
1205.5922	3973.5437
1206.1699	3956.5437
1206.7478	3920.5437
1207.3185	3885.5437
1207.8964	3860.5437
1208.4741	3809.5437
1209.0449	3761.5437
1209.6227	3791.5437
1210.2006	3777.5437
1210.7783	3677.5437
1211.3491	3674.5437
1211.9269	3663.5437
1212.5048	3606.5437
1213.0756	3704.5437
1213.6533	3643.5437
1214.2241	3552.5437
1214.8019	3536.5437
1215.3798	3516.5437
1215.9504	3403.5437
1216.5283	3555.5437
1217.1061	3466.5437
1217.6769	3481.5437
1218.2546	3478.5437
1218.8254	3422.5437
1219.4033	3455.5437
1219.9811	3415.5437
1220.5519	3354.5437
1221.1296	3318.5437
1221.7004	3322.5437
1222.2782	3257.5437
1222.849	3278.5437
1223.4268	3263.5437
1223.9976	3286.5437
1224.5754	3215.5437
1225.1461	3218.5437
1225.724	3205.5437
1226.2948	3215.5437
1226.8726	3161.5437
1227.4434	3116.5437
1228.0211	3081.5437
1228.5919	3081.5437
1229.1697	3097.5437
1229.7405	3081.5437
1230.3113	3058.5437
1230.889	3068.5437
1231.4598	3017.5437
1232.0376	3033.5437
1232.6084	3036.5437
1233.1792	3003.5437
1233.757	2991.5437
1234.3278	2974.5437
1234.9055	2991.5437
1235.4763	2967.5437
1236.0471	3014.5437
1236.6178	2939.5437
1237.1957	2967.5437
1237.7665	2946.5437
1238.3442	2928.5437
1238.915	2922.5437
1239.4858	2894.5437
1240.0565	2842.5437
1240.6344	2950.5437
1241.2051	2884.5437
1241.7759	2899.5437
1242.3467	2899.5437
1242.9244	2892.5437
1243.4952	2856.5437
1244.066	2879.5437
1244.6438	2814.5437
1245.2146	2852.5437
1245.7854	2808.5437
1246.3561	2851.5437
1246.9269	2815.5437
1247.4977	2843.5437
1248.0754	2821.5437
1248.6462	2849.5437
1249.217	2841.5437
1249.7877	2791.5437
1250.3585	2885.5437
1250.9293	2805.5437
1251.5071	2751.5437
1252.0779	2836.5437
1252.6487	2790.5437
1253.2194	2813.5437
1253.7902	2790.5437
1254.361	2819.5437
1254.9316	2741.5437
1255.5024	2786.5437
1256.0732	2768.5437
1256.644	2749.5437
1257.2147	2806.5437
1257.7855	2759.5437
1258.3563	2790.5437
1258.927	2746.5437
1259.4978	2733.5437
1260.0757	2760.5437
1260.6464	2760.5437
1261.2172	2751.5437
1261.788	2740.5437
1262.3586	2765.5437
1262.9224	2761.5437
1263.4932	2731.5437
1264.064	2722.5437
1264.6348	2793.5437
1265.2054	2706.5437
1265.7762	2719.5437
1266.347	2767.5437
1266.9177	2757.5437
1267.4885	2709.5437
1268.0593	2748.5437
1268.6301	2707.5437
1269.2008	2701.5437
1269.7716	2692.5437
1270.3353	2743.5437
1270.9061	2755.5437
1271.4768	2764.5437
1272.0476	2727.5437
1272.6184	2719.5437
1273.1892	2667.5437
1273.7599	2707.5437
1274.3236	2725.5437
1274.8944	2701.5437
1275.4652	2680.5437
1276.0359	2726.5437
1276.6067	2729.5437
1277.1704	2699.5437
1277.7412	2673.5437
1278.312	2698.5437
1278.8827	2699.5437
1279.4464	2619.5437
1280.0172	2668.5437
1280.588	2665.5437
1281.1587	2729.5437
1281.7224	2737.5437
1282.2932	2665.5437
1282.864	2676.5437
1283.4348	2732.5437
1283.9985	2687.5437
1284.5692	2628.5437
1285.1329	2780.5437
1285.7037	2733.5437
1286.2745	2671.5437
1286.8383	2725.5437
1287.4089	2689.5437
1287.9797	2685.5437
1288.5435	2647.5437
1289.1143	2674.5437
1289.678	2653.5437
1290.2488	2657.5437
1290.8195	2662.5437
1291.3832	2665.5437
1291.954	2715.5437
1292.5177	2685.5437
1293.0885	2688.5437
1293.6522	2666.5437
1294.2229	2648.5437
1294.7937	2720.5437
1295.3574	2665.5437
1295.9282	2659.5437
1296.4919	2676.5437
1297.0627	2716.5437
1297.6265	2682.5437
1298.1971	2715.5437
1298.7609	2669.5437
1299.3317	2653.5437
1299.8954	2622.5437
1300.4662	2637.5437
1301.0299	2709.5437
1301.5936	2630.5437
1302.1643	2695.5437
1302.728	2687.5437
1303.2988	2640.5437
1303.8625	2656.5437
1304.4333	2671.5437
1304.9971	2687.5437
1305.5608	2671.5437
1306.1315	2703.5437
1306.6952	2662.5437
1307.266	2669.5437
1307.8297	2700.5437
1308.3934	2715.5437
1308.9642	2695.5437
1309.528	2678.5437
1310.0917	2703.5437
1310.6554	2666.5437
1311.2262	2631.5437
1311.7899	2686.5437
1312.3536	2676.5437
1312.9243	2674.5437
1313.488	2646.5437
1314.0518	2692.5437
1314.6155	2737.5437
1315.1863	2719.5437
1315.75	2654.5437
1316.3137	2691.5437
1316.8845	2696.5437
1317.4482	2711.5437
1318.012	2662.5437
1318.5757	2711.5437
1319.1394	2660.5437
1319.7031	2661.5437
1320.2738	2639.5437
1320.8375	2709.5437
1321.4012	2689.5437
1321.965	2705.5437
1322.5287	2653.5437
1323.0995	2684.5437
1323.6632	2659.5437
1324.2269	2688.5437
1324.7906	2714.5437
1325.3544	2671.5437
1325.9181	2640.5437
1326.4818	2726.5437
1327.0455	2707.5437
1327.6093	2740.5437
1328.173	2690.5437
1328.7438	2644.5437
1329.3075	2727.5437
1329.8712	2659.5437
1330.4349	2713.5437
1330.9987	2673.5437
1331.5624	2662.5437
1332.1261	2662.5437
1332.6898	2666.5437
1333.2535	2710.5437
1333.8173	2665.5437
1334.381	2739.5437
1334.9447	2743.5437
1335.5083	2763.5437
1336.072	2655.5437
1336.6357	2626.5437
1337.1995	2672.5437
1337.7632	2741.5437
1338.3269	2737.5437
1338.8837	2672.5437
1339.4474	2664.5437
1340.0111	2727.5437
1340.5748	2654.5437
1341.1385	2720.5437
1341.7023	2749.5437
1342.266	2711.5437
1342.8297	2698.5437
1343.3934	2697.5437
1343.9501	2678.5437
1344.5138	2721.5437
1345.0775	2662.5437
1345.6412	2717.5437
1346.205	2659.5437
1346.7687	2680.5437
1347.3253	2706.5437
1347.889	2687.5437
1348.4528	2720.5437
1349.0165	2708.5437
1349.5802	2747.5437
1350.1368	2728.5437
1350.7006	2689.5437
1351.2643	2774.5437
1351.821	2752.5437
1352.3848	2732.5437
1352.9485	2687.5437
1353.5122	2755.5437
1354.0759	2720.5437
1354.6326	2685.5437
1355.1963	2719.5437
1355.76	2748.5437
1356.3167	2736.5437
1356.8804	2717.5437
1357.4441	2685.5437
1358.0007	2741.5437
1358.5645	2732.5437
1359.1282	2709.5437
1359.6849	2717.5437
1360.2487	2723.5437
1360.8124	2735.5437
1361.369	2685.5437
1361.9327	2703.5437
1362.4894	2718.5437
1363.0531	2753.5437
1363.6168	2682.5437
1364.1735	2735.5437
1364.7372	2713.5437
1365.2939	2728.5437
1365.8577	2678.5437
1366.4143	2693.5437
1366.978	2699.5437
1367.5417	2740.5437
1368.0984	2748.5437
1368.655	2673.5437
1369.2188	2717.5437
1369.7825	2763.5437
1370.3392	2727.5437
1370.8959	2748.5437
1371.4596	2778.5437
1372.0233	2742.5437
1372.58	2724.5437
1373.1366	2719.5437
1373.7003	2706.5437
1374.2571	2682.5437
1374.8208	2743.5437
1375.3774	2715.5437
1375.9412	2749.5437
1376.4978	2675.5437
1377.0544	2702.5437
1377.6182	2751.5437
1378.1749	2723.5437
1378.7316	2790.5437
1379.2953	2716.5437
1379.8519	2737.5437
1380.4156	2815.5437
1380.9723	2735.5437
1381.5291	2762.5437
1382.0928	2749.5437
1382.6494	2759.5437
1383.2061	2626.5437
1383.7628	2737.5437
1384.3264	2714.5437
1384.8832	2728.5437
1385.4398	2721.5437
1386.0035	2713.5437
1386.5602	2739.5437
1387.1169	2710.5437
1387.6807	2742.5437
1388.2373	2807.5437
1388.7939	2769.5437
1389.3506	2742.5437
1389.9073	2743.5437
1390.4711	2738.5437
1391.0277	2773.5437
1391.5844	2700.5437
1392.141	2735.5437
1392.7047	2771.5437
1393.2544	2736.5437
1393.8181	2722.5437
1394.3748	2766.5437
1394.9314	2743.5437
1395.4882	2774.5437
1396.0448	2747.5437
1396.6014	2653.5437
1397.1652	2810.5437
1397.7218	2802.5437
1398.2786	2737.5437
1398.8352	2727.5437
1399.3918	2754.5437
1399.9556	2705.5437
