14.826543	4294.5327
15.501734	4249.5327
16.176924	4241.5327
16.852116	4335.5327
17.527306	4418.5327
18.202496	4377.5327
18.884647	4486.5327
19.559839	4516.5327
20.235029	4589.5327
20.910219	4558.5327
21.585411	4551.5327
22.260601	4644.5327
22.942753	4803.5327
23.617943	4949.5327
24.293135	5057.5327
24.968325	5128.5327
25.643515	5319.5327
26.318707	5454.5327
26.993896	5507.5327
27.669086	5241.5327
28.351238	5504.5327
29.02643	5620.5327
29.70162	5610.5327
30.37681	5827.5327
31.052002	5796.5327
31.727192	5934.5327
32.402382	6609.5327
33.077572	6669.5327
33.752766	6488.5327
34.427956	6567.5327
35.103146	6759.5327
35.778336	6870.5327
36.453526	7095.5327
37.121758	6981.5327
37.796947	6915.5327
38.472137	7139.5327
39.147327	7277.5327
39.822521	7274.5327
40.497711	7409.5327
41.172901	7726.5327
41.848091	8018.5327
42.523281	8110.5327
43.198471	8117.5327
43.873665	8096.5327
44.541893	8182.5327
45.217083	8222.5332
45.892277	8419.5332
46.567467	8756.5332
47.242657	8737.5332
47.910885	8899.5332
48.586079	8833.5332
49.261269	8812.5332
49.936459	9066.5332
50.611649	9222.5332
51.279881	9156.5332
51.95507	9115.5332
52.63026	9278.5332
53.30545	9334.5332
53.973682	9273.5332
54.648872	9422.5332
55.317101	9419.5332
55.99229	9488.5332
56.667484	9585.5332
57.342674	9997.5332
58.010902	10208.533
58.686092	9855.0332
59.361286	10279.533
60.029514	9975.5332
60.704704	10092.533
61.372936	10010.533
62.048126	10032.533
62.716354	10123.533
63.391548	10376.533
64.066734	10501.533
64.73497	10380.533
65.410156	10281.533
66.078384	10612.533
66.753578	10556.533
67.428772	10440.533
68.097	10371.533
68.772186	10423.533
69.440422	10480.533
70.10865	10744.533
70.783844	10799.533
71.452072	10855.533
72.127258	10517.533
72.795494	10628.533
73.47068	10832.533
74.138908	10711.783
74.814102	10815.783
75.48233	10819.783
76.150566	10779.283
76.825752	10835.533
77.49398	10793.533
78.169174	10758.533
78.837402	10651.533
79.50563	10749.533
80.173866	10681.533
80.849052	10961.533
81.517281	10834.533
82.185516	10888.283
82.860703	10810.783
83.528938	10880.533
84.197166	10744.533
84.872353	10730.533
85.540588	10684.533
86.208817	10912.533
86.877045	10865.533
87.552238	10859.533
88.220467	10748.533
88.888695	10880.533
89.556923	10858.033
90.225159	10875.533
90.900345	10894.533
91.568573	10862.533
92.236809	10884.533
92.905037	10858.533
93.573265	10828.533
94.241493	10769.533
94.909729	10884.533
95.584915	10848.533
96.253143	10828.533
96.921379	10691.533
97.589607	10869.533
98.257835	10929.533
98.926064	10881.533
99.594299	10768.533
100.26253	10792.533
100.93076	10778.533
101.59898	10590.533
102.26722	10778.533
102.93545	10840.533
103.60368	10778.533
104.2719	10830.533
104.94014	10739.283
105.60837	10872.533
106.2766	10914.533
106.94482	10669.533
107.61305	10632.533
108.28129	10726.533
108.94952	10707.533
109.61774	10753.533
110.28597	10553.533
110.95421	10610.533
111.62244	10523.533
112.28371	10649.533
112.95193	10585.533
113.62016	10664.533
114.28839	10711.033
114.95663	10685.533
115.62486	10602.533
116.29308	10646.533
116.95435	10598.533
117.62258	10439.533
118.29082	10391.533
118.95905	10556.533
119.62727	10627.533
120.28854	10546.533
120.95677	10519.533
121.625	10696.533
122.29324	10602.533
122.9545	10500.533
123.62273	10245.533
124.29096	10334.533
124.95919	10288.533
125.62046	10409.533
126.28869	10337.533
126.95692	10462.533
127.61819	10312.533
128.28642	10401.533
128.95465	10312.533
129.61592	10400.533
130.28415	10369.533
130.94542	10316.533
131.61365	10145.533
132.28188	10227.533
132.94315	10008.533
133.61137	10200.533
134.27264	10129.533
134.94087	10035.533
135.60214	10219.533
136.27037	10123.533
136.93164	10193.533
137.59987	10138.533
138.26114	10132.533
138.92937	10131.533
139.59064	10225.533
140.25888	10000.533
140.92014	10095.533
141.58838	10103.533
142.24965	9904.5332
142.91788	10097.533
143.57915	10028.533
144.24738	9940.5332
144.90865	9910.5332
145.56992	9747.5332
146.23814	9908.5332
146.89941	9865.5332
147.56764	9858.5332
148.22891	9920.5332
148.89018	9846.5332
149.55841	9735.5332
150.21968	9806.5332
150.88095	9860.5332
151.54918	9875.5332
152.21045	9732.5332
152.87172	9893.5332
153.53995	9861.5332
154.20122	9803.5332
154.86249	9831.5332
155.52376	9761.5332
156.19199	9730.5332
156.85326	9803.5332
157.51453	9662.5332
158.1758	9792.5332
158.84402	9596.5332
159.50529	9674.5332
160.16656	9610.5332
160.82782	9570.5332
161.48909	9608.5332
162.15733	9581.5332
162.81859	9626.5332
163.47986	9450.5332
164.14113	9464.5332
164.8024	9405.5332
165.46367	9482.5332
166.12494	9353.5332
166.78621	9666.5332
167.45444	9414.5332
168.11571	9446.5332
168.77698	9532.5332
169.43825	9421.5332
170.09952	9616.5332
170.76079	9363.5332
171.42206	9387.5332
172.08333	9432.5332
172.7446	9341.5332
173.40587	9325.5332
174.06714	9379.5332
174.72841	9354.5332
175.38966	9202.5332
176.05093	9386.5332
176.7122	9350.5332
177.37347	9297.5332
178.03474	9132.5332
178.68906	9312.5332
179.35033	9291.5332
180.0116	9248.5332
180.67287	9256.5332
181.33414	9349.5332
181.99541	9192.5332
182.65668	9211.5332
183.31795	9193.5332
183.97922	9224.5332
184.64047	9251.5332
185.30174	9183.5332
185.95605	9183.5332
186.61732	9197.5332
187.27859	9280.5332
187.93987	9185.5332
188.60114	9134.5332
189.25545	9154.5332
189.91672	9261.5332
190.57799	9149.5332
191.23926	9131.5332
191.89355	9009.5332
192.55482	9030.5332
193.21609	8995.5332
193.87041	9081.5332
194.53168	9026.5332
195.19295	9172.5332
195.84726	9084.5332
196.50851	9012.5332
197.16978	8964.5332
197.8241	8988.5332
198.48537	9052.5332
199.14664	8995.5332
199.80095	9054.5332
200.46222	8938.5332
201.12349	9009.5332
201.77779	8968.5332
202.43906	9004.5332
203.10033	8926.5332
203.75464	8958.5332
204.41591	8969.5332
205.07022	8883.5332
205.73149	8900.5332
206.3858	8863.5332
207.04706	8851.5332
207.70137	8960.5332
208.36264	8912.5332
209.01695	8832.5332
209.67822	8918.5332
210.33253	8806.5332
210.9938	8820.5332
211.6481	8840.5332
212.30937	8777.5332
212.96368	8866.5332
213.618	8944.5332
214.27927	8832.5332
214.93356	8850.5332
215.59483	8858.5332
216.24915	8815.5332
216.91042	8880.5332
217.56473	8812.5332
218.21904	8812.5332
218.88031	8684.5332
219.53461	8682.5332
220.18892	8662.5332
220.85019	8716.5332
221.5045	8845.5332
222.15881	8729.5332
222.82008	8707.5332
223.47438	8790.5332
224.12869	8682.5332
224.783	8779.5332
225.44427	8775.5332
226.09859	8700.5332
226.75288	8782.5332
227.41415	8752.5332
228.06847	8842.5332
228.72278	8861.5332
229.37708	8768.5332
230.03139	8815.5332
230.69266	8772.5332
231.34697	8737.5332
232.00128	8628.5332
232.65558	8798.5332
233.30989	8819.5332
233.9642	8715.5332
234.61852	8598.5332
235.27979	8722.5332
235.93408	8599.5332
236.58839	8650.5332
237.24271	8647.5332
237.89702	8636.5332
238.55133	8594.5332
239.20563	8625.5332
239.85994	8682.5332
240.51425	8578.5332
241.16856	8565.5332
241.82286	8522.5332
242.47717	8720.5332
243.13148	8633.5332
243.7858	8593.5332
244.44009	8581.5332
245.09441	8743.5332
245.74872	8654.5332
246.40303	8561.5332
247.05733	8504.5332
247.71164	8660.5332
248.36595	8634.5332
249.02026	8728.5332
249.67456	8621.5332
250.32887	8642.5332
250.98318	8593.5332
251.6375	8512.5332
252.29181	8608.5332
252.94611	8615.5332
253.59346	8462.5332
254.24777	8605.5332
254.90207	8552.5332
255.55638	8638.5332
256.21069	8445.5332
256.85803	8555.5332
257.51236	8560.5332
258.16666	8524.5332
258.82095	8451.5332
259.47528	8628.5332
260.12958	8649.5332
260.77692	8554.5332
261.43124	8588.5332
262.08554	8629.5332
262.73288	8551.5332
263.38721	8590.5332
264.0415	8509.5332
264.69583	8476.5332
265.34317	8593.5332
265.99747	8652.5332
266.64484	8494.5332
267.29913	8481.5332
267.95343	8464.5332
268.60776	8514.5332
269.2551	8484.5332
269.90939	8534.5332
270.56372	8466.5332
271.21106	8521.5332
271.86536	8424.5332
272.51273	8521.5332
273.16702	8544.5332
273.81436	8464.5332
274.46869	8514.5332
275.11603	8416.5332
275.77032	8590.5332
276.42465	8360.5332
277.07199	8473.5332
277.72632	8436.5332
278.37366	8557.5332
279.02795	8473.5332
279.67529	8474.5332
280.32962	8411.5332
280.97696	8375.5332
281.63129	8441.5332
282.27863	8453.5332
282.92596	8440.5332
283.58029	8362.5332
284.22763	8386.5332
284.88193	8595.5332
285.52927	8547.5332
286.18359	8448.5332
286.83093	8504.5332
287.47827	8360.5332
288.1326	8528.5332
288.77994	8394.5332
289.42728	8484.5332
290.0816	8413.5332
290.72894	8492.5332
291.37628	8419.5332
292.03061	8376.5332
292.67795	8489.5332
293.32529	8476.5332
293.97266	8481.5332
294.62695	8408.5332
295.27429	8495.5332
295.92166	8494.5332
296.57596	8350.5332
297.2233	8409.5332
297.87067	8338.5332
298.51801	8411.5332
299.1723	8381.5332
299.81967	8566.5332
300.46701	8431.5332
301.11435	8379.5332
301.76169	8423.5332
302.40906	8435.5332
303.06335	8423.5332
303.71069	8484.5332
304.35806	8380.5332
305.0054	8346.5332
305.65274	8292.5332
306.30011	8475.5332
306.94745	8374.5332
307.59479	8362.5332
308.24908	8384.5332
308.89645	8492.5332
309.54379	8430.5332
310.19113	8260.5332
310.8385	8391.5332
311.48584	8399.5332
312.13318	8368.5332
312.78055	8427.5332
313.42789	8490.5332
314.07523	8454.5332
314.72256	8267.5332
315.36993	8320.5332
316.01727	8330.5332
316.66461	8448.5332
317.31198	8440.5332
317.95932	8437.5332
318.5997	8326.5332
319.24704	8350.5332
319.89441	8397.5332
320.54175	8232.5332
321.18909	8380.5332
321.83646	8300.5332
322.4838	8438.5332
323.13113	8450.5332
323.77847	8491.5332
324.42584	8396.5332
325.06622	8374.5332
325.71356	8453.5332
326.3609	8391.5332
327.00827	8365.5332
327.65561	8411.5332
328.29599	8346.5332
328.94336	8386.5332
329.5907	8370.5332
330.23804	8425.5332
330.88538	8439.5332
331.52579	8467.5332
332.17313	8513.5332
332.82047	8369.5332
333.46085	8328.5332
334.10822	8464.5332
334.75555	8311.5332
335.39594	8380.5332
336.04327	8414.5332
336.69064	8391.5332
337.33102	8421.5332
337.97836	8454.5332
338.62573	8418.5332
339.27307	8386.5332
339.91345	8469.5332
340.56079	8265.5332
341.2012	8354.5332
341.84854	8379.5332
342.49588	8452.5332
343.13626	8493.5332
343.78363	8425.5332
344.42401	8242.5332
345.07135	8407.5332
345.71173	8313.5332
346.3591	8500.5332
346.99948	8452.5332
347.64682	8522.5332
348.29416	8498.5332
348.93457	8370.5332
349.58191	8361.5332
350.22229	8487.5332
350.86267	8523.5332
351.51004	8361.5332
352.15042	8456.5332
352.79776	8439.5332
353.43814	8481.5332
354.07852	8364.5332
354.72589	8430.5332
355.36627	8440.5332
356.01361	8363.5332
356.65399	8506.5332
357.30136	8416.5332
357.94174	8464.5332
358.58212	8528.5332
359.22946	8465.5332
359.86987	8526.5332
360.51025	8519.5332
361.15759	8489.5332
361.79797	8409.5332
362.43839	8499.5332
363.07877	8354.5332
363.7261	8449.5332
364.36649	8601.5332
365.00687	8526.5332
365.65424	8503.5332
366.29462	8469.5332
366.935	8458.5332
367.58234	8440.5332
368.22275	8665.5332
368.86313	8563.5332
369.50351	8489.5332
370.14389	8565.5332
370.78427	8512.5332
371.43164	8396.5332
372.07202	8543.5332
372.7124	8443.5332
373.35278	8550.5332
373.99319	8528.5332
374.63358	8548.5332
375.27396	8553.5332
375.9213	8576.5332
376.56168	8569.5332
377.20209	8477.5332
377.84247	8669.5332
378.48285	8526.5332
379.12323	8542.5332
379.76361	8454.5332
380.40402	8609.5332
381.0444	8552.5332
381.68478	8505.5332
382.32516	8446.5332
382.96555	8496.5332
383.60596	8590.5332
384.24634	8602.5332
384.88672	8550.5332
385.5271	8603.5332
386.16751	8590.5332
386.80789	8516.5332
387.44827	8473.5332
388.08865	8562.5332
388.72903	8481.5332
389.36945	8508.5332
390.00983	8596.5332
390.65021	8662.5332
391.28363	8516.5332
391.92401	8730.5332
392.56439	8644.5332
393.2048	8586.5332
393.84518	8625.5332
394.48557	8681.5332
395.11899	8674.5332
395.75937	8617.5332
396.39978	8637.5332
397.04016	8658.5332
397.68054	8536.5332
398.32092	8620.5332
398.9613	8592.5332
399.59473	8523.5332
400.23514	8665.5332
400.87552	8563.5332
401.50894	8563.5332
402.14932	8580.5332
402.7897	8557.5332
403.43011	8730.5332
404.06354	8565.5332
404.70392	8628.5332
405.3443	8748.5332
405.97772	8669.5332
406.6181	8743.5332
407.25851	8704.5332
407.89194	8704.5332
408.53232	8740.5332
409.1727	8819.5332
409.80612	8763.5332
410.4465	8744.5332
411.08691	8766.5332
411.72034	8783.5332
412.36072	8778.5332
412.99414	8796.5332
413.63452	8770.5332
414.26794	8786.5332
414.90836	8758.5332
415.54178	8790.5332
416.18216	8756.5332
416.81558	8827.5332
417.45596	8791.5332
418.08939	8776.5332
418.7298	8710.5332
419.36322	9012.5332
420.0036	8833.5332
420.63702	8899.5332
421.2774	8833.5332
421.91083	8905.5332
422.55124	8825.5332
423.18466	8866.5332
423.82504	8992.5332
424.45847	8960.5332
425.09885	9026.5332
425.73227	8970.5332
426.36569	8853.5332
427.0061	9048.5332
427.63953	8896.5332
428.27295	8925.5332
428.91333	8897.5332
429.54675	9046.5332
430.18018	8939.5332
430.82056	8883.5332
431.45401	8955.5332
432.08743	9018.5332
432.72781	8921.5332
433.36124	9037.5332
433.99466	8964.5332
434.62808	9074.5332
435.26846	9032.5332
435.90192	9120.5332
436.53534	9036.5332
437.16876	9156.5332
437.80914	9016.5332
438.44257	9108.5332
439.07599	9200.5332
439.70941	9234.5332
440.34982	9294.5332
440.98325	9252.5332
441.61667	9183.5332
442.25009	9105.5332
442.88351	9221.5332
443.51694	9282.5332
444.15732	9080.5332
444.79074	9296.5332
445.42419	9251.5332
446.05762	9245.5332
446.69104	9110.5332
447.32446	9360.5332
447.95789	9333.5332
448.59131	9322.5332
449.22473	9394.5332
449.85815	9344.5332
450.49158	9290.5332
451.12503	9344.5332
451.75845	9354.5332
452.39188	9525.5332
453.0253	9469.5332
453.65872	9405.5332
454.29214	9615.5332
454.92557	9440.5332
455.55899	9606.5332
456.19241	9435.5332
456.82587	9460.5332
457.45929	9526.5332
458.09271	9446.5332
458.72614	9592.5332
459.35956	9589.5332
459.99298	9625.5332
460.6264	9514.5332
461.25287	9595.5332
461.88629	9656.5332
462.51971	9596.5332
463.15317	9500.5332
463.78659	9592.5332
464.42001	9755.5332
465.05344	9678.5332
465.6799	9822.5332
466.31332	9734.5332
466.94675	9801.5332
467.58017	9748.5332
468.21359	9765.5332
468.84006	9877.5332
469.47351	9859.5332
470.10693	9797.5332
470.74036	9960.5332
471.36682	9826.5332
472.00024	9965.5332
472.63367	9988.5332
473.26709	9871.5332
473.89355	9979.5332
474.52698	9956.5332
475.1604	10037.533
475.78687	9964.5332
476.42032	10006.533
477.05374	10080.533
477.68021	10092.533
478.31363	10114.533
478.94705	10088.533
479.57352	10144.533
480.20694	10106.533
480.84036	10138.533
481.46683	10261.533
482.10025	10125.533
482.72672	10281.533
483.36014	10314.533
483.9866	10206.533
484.62006	10324.533
485.24652	10401.533
485.87994	10290.533
486.51337	10265.533
487.13983	10403.533
487.77325	10343.533
488.39972	10276.533
489.03314	10310.533
489.65961	10342.533
490.28607	10450.533
490.91949	10480.533
491.54596	10376.533
492.17938	10645.533
492.80585	10413.533
493.4393	10471.533
494.06577	10640.533
494.69223	10587.533
495.32565	10621.533
495.95212	10582.533
496.57858	10560.533
497.21201	10641.533
497.83847	10609.533
498.47189	10752.533
499.09836	10656.533
499.72482	10668.533
500.35825	10798.533
500.98471	10721.533
501.61118	10779.533
502.2446	10959.533
502.87106	10841.533
503.49753	10680.533
504.12399	10907.533
504.75742	10883.533
505.38391	10868.533
506.01038	10857.533
506.63684	10824.533
507.27026	11001.533
507.89673	11025.533
508.52319	10992.533
509.14966	11018.533
509.78308	11030.533
510.40955	11197.533
511.03601	11133.533
511.66248	11080.533
512.28894	11290.533
512.91541	11003.533
513.54883	11139.533
514.17529	11098.533
514.80176	11017.533
515.42822	11045.533
516.05469	11105.533
516.68115	11142.533
517.30762	11109.533
517.93408	11206.533
518.56055	11322.533
519.18701	11334.533
519.81348	11217.533
520.43994	11343.533
521.06641	11432.533
521.69287	11408.533
522.31934	11296.533
522.9458	11430.533
523.57227	11418.533
524.19873	11349.533
524.8252	11551.533
525.45166	11381.533
526.07813	11358.533
526.70459	11664.283
527.33105	11514.783
527.95752	11375.033
528.58398	11498.533
529.21045	11590.783
529.83691	11674.033
530.46338	11550.783
531.08289	11648.533
531.70935	11824.533
532.33582	11538.033
532.96228	11675.783
533.58875	11631.033
534.21521	11634.033
534.84167	11768.783
535.46118	11763.283
536.08765	11709.783
536.71411	11672.033
537.34058	11791.533
537.96704	11729.283
538.59351	11768.783
539.21301	11758.033
539.83948	11925.033
540.46594	11728.533
541.08545	11802.283
541.71191	11704.533
542.33838	11913.533
542.95789	11932.783
543.58435	11992.283
544.21082	11873.533
544.83728	11888.783
545.45679	11927.533
546.08325	12091.783
546.70972	11968.033
547.32922	12031.783
547.95569	11930.783
548.58215	12059.283
549.20166	12086.783
549.82813	12084.783
550.44763	12058.283
551.0741	12214.283
551.6936	12223.533
552.32007	12134.533
552.94653	12231.283
553.56604	12216.783
554.1925	12258.533
554.81201	12179.033
555.43848	12162.033
556.05798	12103.783
556.68445	12240.283
557.30396	12230.533
557.93042	12340.033
558.54993	12231.533
559.17639	12241.783
559.7959	12152.033
560.42236	12306.783
561.04187	12182.033
561.66833	12317.783
562.28784	12233.283
562.91431	12202.283
563.53381	12135.283
564.15332	12231.283
564.77979	12183.533
565.39929	12220.533
566.0188	12245.783
566.64526	12155.033
567.26477	12168.283
567.89124	12168.783
568.51074	12048.533
569.13025	12049.283
569.75671	12073.033
570.37622	12069.533
570.99573	12012.283
571.61523	11974.533
572.2417	12009.283
572.86121	11807.533
573.48071	11772.783
574.10718	11826.283
574.72668	11804.783
575.34619	11788.783
575.9657	11753.283
576.58521	11652.033
577.21167	11662.033
577.83118	11614.033
578.45068	11547.533
579.07019	11484.533
579.69666	11257.533
580.31616	11328.533
580.93567	11269.783
581.55518	11280.533
582.17468	11096.033
582.79419	11088.283
583.41364	11054.283
584.0401	11018.033
584.65961	10943.533
585.27911	10944.533
585.89862	10900.283
586.51813	10752.283
587.13763	10792.533
587.75714	10687.533
588.37665	10563.033
588.99615	10472.783
589.61566	10551.533
590.23517	10342.283
590.85468	10253.533
591.47418	10299.033
592.09369	10231.783
592.7132	10116.533
593.3327	10120.533
593.95221	9994.0332
594.57172	10051.283
595.19122	9887.2832
595.81073	9779.2832
596.43024	9756.7832
597.04974	9666.2832
597.66925	9756.2832
598.28876	9613.5332
598.90826	9508.2832
599.52777	9512.5332
600.14032	9413.5332
600.75983	9365.0332
601.37933	9388.7832
601.99884	9292.5332
602.61829	9348.7832
603.23779	9119.5332
603.8573	9103.5332
604.46985	9089.2832
605.08936	8997.0332
605.70886	8982.2832
606.32837	9227.2832
606.94788	8875.5332
607.56042	8894.2832
608.17993	8759.5332
608.79944	8679.2832
609.41895	8691.5332
610.03845	8617.7832
610.651	8634.2832
611.27051	8616.5332
611.89001	8518.2832
612.50256	8451.2832
613.12207	8371.2832
613.74158	8328.5332
614.35413	8405.2832
614.97363	8330.2832
615.59314	8196.5332
616.20563	8171.5327
616.82513	8126.0327
617.44464	8167.2827
618.05719	8069.2827
618.6767	8011.5327
619.2962	8116.2827
619.90875	7958.0327
620.52826	7990.0327
621.14081	7972.5327
621.76031	7873.5327
622.37286	7882.7827
622.99237	7829.2827
623.61188	7879.2827
624.22443	7769.2827
624.84393	7793.5327
625.45648	7680.7827
626.07599	7731.5327
626.68854	7728.5327
627.30804	7618.5327
627.92059	7705.7827
628.54004	7589.5327
629.15259	7659.0327
629.77209	7599.5327
630.38464	7553.5327
630.99719	7513.2827
631.6167	7457.7827
632.22925	7555.7827
632.84875	7496.5327
633.4613	7460.7827
634.07385	7475.0327
634.69336	7408.5327
635.30591	7420.2827
635.92542	7224.0327
636.53796	7418.7827
637.15051	7305.2827
637.77002	7278.5327
638.38257	7208.0327
639.00201	7243.0327
639.61456	7228.2827
640.22711	7201.2827
640.83966	7121.2827
641.45917	7179.7827
642.07172	7135.2827
642.68427	7052.0327
643.29681	7042.5327
643.91632	7040.0327
644.52887	7060.5327
645.14142	7053.2827
645.75397	7034.5327
646.37347	6919.0327
646.98602	6901.0327
647.59857	6963.5327
648.21106	6902.2827
648.82361	6960.2827
649.44312	6823.7827
650.05566	6891.0327
650.66821	6856.2827
651.28076	6823.2827
651.89331	6857.5327
652.28314	6782.5327
652.90265	6769.5327
653.52911	6832.5327
654.14856	6822.5327
654.77502	6769.5327
655.39453	6747.5327
656.01404	6605.5327
656.6405	6680.5327
657.26001	6677.5327
657.88647	6659.5327
658.50598	6683.5327
659.12549	6715.5327
659.75195	6626.5327
660.37146	6688.5327
660.99097	6593.5327
661.61743	6541.5327
662.23694	6467.5327
662.85645	6533.5327
663.48291	6503.5327
664.10242	6458.5327
664.72192	6536.5327
665.34143	6415.5327
665.96094	6431.5327
666.5874	6402.5327
667.20691	6356.5327
667.82642	6333.5327
668.44592	6431.5327
669.07239	6361.5327
669.69189	6405.5327
670.3114	6307.5327
670.93091	6390.5327
671.55042	6410.5327
672.17688	6335.5327
672.79639	6258.5327
673.41589	6344.5327
674.0354	6175.5327
674.65491	6223.5327
675.27441	6130.5327
675.89392	6150.5327
676.52039	6186.5327
677.13989	6205.5327
677.7594	6085.5327
678.37891	6090.5327
678.99841	6178.5327
679.61792	6128.5327
680.23743	6199.5327
680.85693	6185.5327
681.47638	6271.5327
682.09589	6316.5327
682.71539	6257.5327
683.3349	6023.5327
683.95441	6069.5327
684.57391	6005.5327
685.19342	6094.5327
685.81293	6091.5327
686.43243	5976.5327
687.05194	5986.5327
687.67145	6052.5327
688.29095	5927.5327
688.91046	6012.5327
689.52997	5994.5327
690.14948	6081.5327
690.76202	5926.5327
691.38849	5969.5327
692.00104	5863.5327
692.62054	5887.5327
693.24005	5861.5327
693.85956	5794.5327
694.47906	5941.5327
695.09857	5778.5327
695.71112	5837.5327
696.33063	5879.5327
696.95013	5928.5327
697.56964	5800.5327
698.18915	5768.5327
698.80865	5813.5327
699.42114	5724.5327
700.04065	5783.5327
700.66016	5843.5327
701.27271	5742.5327
701.89221	5722.5327
702.51172	5840.5327
703.13123	5715.5327
703.75073	5707.5327
704.36328	5689.5327
704.98279	5710.5327
705.60229	5649.5327
706.21484	5659.5327
706.83435	5698.5327
707.45386	5476.5327
708.06641	5649.5327
708.68591	5529.5327
709.30542	5632.5327
709.91797	5695.5327
710.53748	5614.5327
711.15698	5685.5327
711.76953	5516.5327
712.38898	5661.5327
713.00153	5559.5327
713.62103	5546.5327
714.24054	5566.5327
714.85309	5478.5327
715.4726	5593.5327
716.08514	5594.5327
716.70465	5466.5327
717.3172	5499.5327
717.93671	5511.5327
718.54926	5529.5327
719.16876	5517.5327
719.78131	5497.5327
720.40082	5458.5327
721.01337	5438.5327
721.63287	5473.5327
722.24542	5480.5327
722.86493	5411.5327
723.47742	5405.5327
724.08997	5391.5327
724.70947	5438.5327
725.32202	5414.5327
725.94153	5361.5327
726.55408	5406.5327
727.16663	5347.5327
727.78613	5283.5327
728.39868	5315.5327
729.01819	5429.5327
729.63074	5281.5327
730.24329	5326.5327
730.86279	5325.5327
731.47534	5271.5327
732.08789	5226.5327
732.7074	5350.5327
733.31995	5273.5327
733.93243	5229.5327
734.55194	5216.5327
735.16449	5237.5327
735.77704	5329.5327
736.38959	5196.5327
737.00909	5144.5327
737.62164	5103.5327
738.23419	5224.5327
738.84674	5125.5327
739.46625	5178.5327
740.0788	5159.5327
740.69135	5233.5327
741.30389	5076.5327
741.91644	5134.5327
742.53595	5085.5327
743.14844	5072.5327
743.76099	5096.5327
744.37354	5061.5327
744.98608	5105.5327
745.59863	5049.5327
746.21118	5019.5327
746.83069	4988.5327
747.44324	4940.5327
748.05579	4952.5327
748.66833	4973.5327
749.28088	4967.5327
749.89343	4925.5327
750.50598	4898.5327
751.11853	4840.5327
751.73102	4944.5327
752.34357	4928.5327
752.95612	4792.5327
753.56866	4947.5327
754.18121	4921.5327
754.79376	4836.5327
755.40631	4804.5327
756.01886	4837.5327
756.63141	4841.5327
757.24396	4771.5327
757.85651	4808.5327
758.46906	4837.5327
759.0816	4745.5327
759.69409	4628.5327
760.30664	4719.5327
760.91919	4688.5327
761.53174	4661.5327
762.14429	4673.5327
762.75684	4568.5327
763.36243	4695.5327
763.97498	4607.5327
764.58752	4633.5327
765.20007	4593.5327
765.81262	4523.5327
766.42517	4496.5327
767.03766	4488.5327
767.64325	4482.5327
768.2558	4488.5327
768.86835	4460.5327
769.4809	4508.5327
770.09344	4408.5327
770.69904	4450.5327
771.31158	4429.5327
771.92413	4325.5327
772.53668	4418.5327
773.14227	4369.5327
773.75476	4368.5327
774.36731	4360.5327
774.97986	4371.5327
775.58545	4308.5327
776.198	4275.5327
776.81055	4381.5327
777.4231	4307.5327
778.02869	4245.5327
778.64124	4250.5327
779.24683	4182.5327
779.85938	4279.5327
780.47186	4213.5327
781.07745	4067.5327
781.69	4218.5327
782.30255	4164.5327
782.90814	4104.5327
783.52069	4163.5327
784.12628	4117.5327
784.73883	4110.5327
785.35138	4075.5327
785.95697	4127.5327
786.56952	4095.5327
787.17505	4101.5327
787.7876	4042.5327
788.39319	4065.5327
789.00574	4051.5327
789.61133	4057.5327
790.22388	4033.5327
790.82947	3998.5327
791.44202	4057.5327
792.04761	4109.5327
792.66016	4068.5327
793.26569	3938.5327
793.87823	4032.5327
794.48383	3963.5327
795.09637	3970.5327
795.70197	3980.5327
796.30756	3971.5327
796.9201	4005.5327
797.5257	3959.5327
798.13824	3916.5327
798.74384	3985.5327
799.35632	3996.5327
799.96191	3919.5327
800.5675	3923.5327
801.1731	3940.5327
801.78564	3903.5327
802.39124	3979.5327
803.00378	3903.5327
803.60938	3901.5327
804.21497	3970.5327
804.82745	3913.5327
805.43304	3895.5327
806.03864	3972.5327
806.64423	3964.5327
807.25677	3907.5327
807.86237	3952.5327
808.46796	3964.5327
809.07355	3956.5327
809.6861	4018.5327
810.29163	3926.5327
810.89722	3940.5327
811.50281	3985.5327
812.1084	4002.5327
812.72095	3971.5327
813.32654	4024.5327
813.93213	3947.5327
814.53772	4043.5327
815.14331	3964.5327
815.74884	4012.5327
816.36139	4052.5327
816.96698	4081.5327
817.57257	4017.5327
818.17816	3984.5327
818.78375	4099.5327
819.38934	4033.5327
819.99493	4123.5327
820.60046	4006.5327
821.20605	4090.5327
821.81165	4048.5327
822.42419	4050.5327
823.02283	4202.5327
823.63538	4162.5327
824.23401	4145.5327
824.84656	4175.5327
825.44519	4232.5327
826.05768	4236.5327
826.65631	4187.5327
827.26886	4241.5327
827.86749	4373.5327
828.48004	4285.5327
829.07867	4310.5327
829.68427	4385.5327
830.28986	4297.5327
830.89539	4409.5327
831.50098	4376.5327
832.10657	4341.5327
832.71216	4402.5327
833.31775	4477.5327
833.92334	4428.5327
834.52893	4481.5327
835.12756	4584.5327
835.74005	4645.5327
836.33868	4504.5327
836.94427	4650.5327
837.54987	4627.5327
838.15546	4716.5327
838.76105	4642.5327
839.36664	4645.5327
839.96527	4736.5327
840.5708	4757.5327
841.17639	4721.5327
841.78198	4873.5327
842.38062	4861.5327
842.98621	4864.5327
843.5918	4877.5327
844.19739	4940.5327
844.79596	5033.5327
845.40155	4983.5327
846.00714	4994.5327
846.60577	5099.5327
847.21136	5093.5327
847.81696	5164.5327
848.42255	5133.5327
849.02118	5249.5327
849.62671	5329.5327
850.22534	5303.5327
850.83093	5375.5327
851.43652	5330.5327
852.04211	5437.5327
852.64075	5456.5327
853.24634	5538.5327
853.84491	5635.5327
854.4505	5639.5327
855.05609	5669.5327
855.65472	5721.5327
856.26031	5677.5327
856.85895	5842.5327
857.46454	5797.5327
858.06311	6009.5327
858.6687	5933.5327
859.26733	6007.5327
859.87292	6121.5327
860.47852	6185.5327
861.07715	6251.5327
861.68274	6209.5327
862.28131	6340.5327
862.8869	6339.5327
863.48553	6306.5327
864.09113	6451.5327
864.68976	6572.5327
865.28839	6647.5327
865.89398	6635.5327
866.49255	6701.5327
867.09814	6712.5327
867.69678	6861.5327
868.30237	6775.5327
868.901	6893.5327
869.49963	6909.5327
870.10522	7009.5327
870.7038	7053.5327
871.30243	7129.5327
871.90802	7185.5327
872.50665	7370.5327
873.10529	7341.5327
873.71088	7299.5327
874.30945	7478.5327
874.90808	7552.5327
875.51367	7522.5327
876.1123	7682.5327
876.71094	7721.5327
877.30957	7748.5327
877.91516	7761.5327
878.51373	7707.5327
879.11237	7999.5327
879.71796	8111.5327
880.31659	8081.5327
880.91522	8182.5327
881.51385	8217.5332
882.11243	8181.5327
882.71802	8320.5332
883.31665	8357.5332
883.91528	8417.5332
884.51392	8585.5332
885.11255	8568.5332
885.71814	8584.5332
886.31671	8729.5332
886.91534	8893.5332
887.51398	8846.5332
888.11261	8885.5332
888.71124	9079.5332
889.30988	9205.5332
889.90845	9167.5332
890.50708	9243.5332
891.11267	9251.5332
891.7113	9370.5332
892.30994	9359.5332
892.90857	9282.5332
893.50714	9507.5332
894.10577	9469.5332
894.70441	9564.5332
895.30304	9738.5332
895.90167	10115.533
896.50031	10088.533
897.09888	9872.5332
897.69751	9983.5332
898.29614	10079.533
898.89478	9983.5332
899.49341	10104.533
900.09204	10119.533
900.69061	10174.533
901.28925	10219.533
901.88788	10315.533
902.48651	10373.533
903.07819	10341.533
903.67682	10253.533
904.27539	10629.533
904.87402	10509.533
905.47266	10469.533
906.07129	10583.533
906.66992	10658.533
907.26855	10708.533
907.86017	10815.533
908.4588	10667.533
909.05743	10786.533
909.65607	10726.533
910.2547	10886.533
910.85327	10832.533
911.44495	10887.533
912.04358	10999.533
912.64221	11031.533
913.24084	11075.533
913.83948	11023.533
914.43109	10968.533
915.02972	11026.533
915.62836	11310.533
916.22003	11212.533
916.81866	11213.533
917.4173	11205.533
918.01587	11243.533
918.60754	11229.533
919.20618	11245.533
919.80481	11373.533
920.39648	11399.533
920.99506	11282.533
921.59369	11307.533
922.18536	11369.533
922.784	11389.533
923.37567	11415.533
923.9743	11403.533
924.57288	11383.533
925.16455	11449.533
925.76318	11539.533
926.36182	11377.533
926.95349	11460.533
927.55206	11574.533
928.14374	11382.533
928.74237	11474.533
929.33405	11467.533
929.93268	11577.533
930.52429	11646.533
931.12292	11459.533
931.7146	11485.533
932.31323	11413.533
932.90491	11504.533
933.50354	11525.533
934.09515	11477.533
934.69379	11590.533
935.28546	11573.533
935.88409	11422.533
936.47577	11437.533
937.07434	11536.533
937.66602	11408.533
938.26465	11353.533
938.85632	11584.533
939.448	11634.533
940.04657	11448.533
940.63824	11456.533
941.22992	11534.533
941.82855	11505.533
942.42023	11430.533
943.01184	11381.533
943.61047	11301.533
944.20215	11439.533
944.79382	11365.533
945.39246	11340.533
945.98407	11376.533
946.57574	11399.533
947.17438	11351.533
947.76605	11303.533
948.35773	11277.533
948.95636	11312.533
949.54797	11481.533
950.13965	11167.533
950.73132	11322.533
951.323	11110.533
951.92163	11301.533
952.51324	11113.533
953.10492	11257.533
953.69659	11264.533
954.28827	11169.533
954.8869	11131.533
955.47852	11233.533
956.07019	11175.533
956.66187	11168.533
957.25354	11085.533
957.85211	11021.533
958.44379	11061.533
959.03546	10921.533
959.62714	11075.533
960.21881	10933.533
960.81042	10835.533
961.4021	11012.533
961.99377	10707.533
962.58545	10893.533
963.17712	10775.533
963.76874	10826.533
964.36041	10688.533
964.95905	10819.533
965.55072	10706.533
966.13544	10742.283
966.72705	10638.283
967.32568	10682.533
967.91736	10609.783
968.50903	10537.033
969.09369	10676.533
969.68536	10676.033
970.284	10582.283
970.86871	10626.033
971.46039	10381.033
972.052	10387.783
972.64368	10478.033
973.23535	10348.783
973.82703	10365.033
974.4187	10388.033
975.01031	10392.283
975.60199	10306.283
976.19366	10188.783
976.77838	10196.283
977.37	10253.033
977.96167	10178.283
978.55334	10118.783
979.14502	10105.533
979.73669	10009.033
980.32135	10143.783
980.91302	9911.5332
981.5047	10010.533
982.09637	9915.2832
982.68805	9897.0332
983.27271	9905.2832
983.86438	9812.7832
984.45605	9769.5332
985.04773	9819.0332
985.63934	9817.7832
986.22406	9825.2832
986.81573	9707.5332
987.40741	9646.2832
987.99908	9678.0332
988.58374	9563.0332
989.17542	9607.0332
989.76013	9490.7832
990.35181	9556.0332
990.94342	9439.0332
991.5351	9461.7832
992.11981	9353.5332
992.71149	9429.0332
993.29614	9451.2832
993.88782	9389.2832
994.47949	9231.7832
995.06421	9271.0332
995.65588	9251.7832
996.2475	9132.5332
996.83221	9121.7832
997.42389	9140.0332
998.00861	9120.0332
998.60022	8997.5332
999.18494	9046.2832
999.77661	8944.2832
1000.3613	8965.5332
1000.953	8927.7832
1001.5377	8868.2832
1002.1293	8858.0332
1002.721	8869.5332
1003.3057	8771.7832
1003.8973	8795.2832
1004.4821	8620.0332
1005.0668	8655.7832
1005.6584	8690.2832
1006.2431	8708.5332
1006.8348	8692.7832
1007.4195	8533.7832
1008.0112	8555.5332
1008.5958	8486.2832
1009.1875	8473.5332
1009.7722	8496.7832
1010.3569	8462.5332
1010.9486	8402.2832
1011.5333	8343.2832
1012.1249	8356.5332
1012.7097	8234.2832
1013.2944	8230.0332
1013.886	8201.7832
1014.4707	8138.5327
1015.0554	8137.2827
1015.6401	8126.7827
1016.2318	8059.7827
1016.8165	8027.2827
1017.4012	7978.7827
1017.9929	7984.7827
1018.5775	8092.7827
1019.1622	7965.5327
1019.7539	7897.0327
1020.3386	7803.7827
1020.9233	7874.0327
1021.508	7777.0327
1022.0927	7768.2827
1022.6844	7763.7827
1023.269	7766.7827
1023.8538	7632.0327
1024.4385	7663.0327
1025.0302	7660.7827
1025.6149	7553.7827
1026.1996	7573.0327
1026.7842	7469.0327
1027.3689	7502.5327
1027.9536	7430.7827
1028.5383	7328.5327
1029.123	7372.5327
1029.7147	7244.0327
1030.2994	7265.2827
1030.8842	7318.5327
1031.4688	7237.2827
1032.0535	7196.5327
1032.6382	7241.2827
1033.2229	7171.2827
1033.8076	7180.7827
1034.3923	7094.5327
1034.9771	7048.2827
1035.5687	7044.0327
1036.1533	6981.2827
1036.738	6943.0327
1037.3228	6898.2827
1037.9005	6903.7827
1038.4852	6879.0327
1039.0699	6762.0327
1039.6547	6784.0327
1040.2394	6721.0327
1040.824	6758.2827
1041.4087	6727.5327
1041.9934	6725.2827
1042.5781	6605.5327
1043.1628	6621.0327
1043.7476	6586.0327
1044.3323	6587.0327
1044.917	6556.2827
1045.5016	6542.2827
1046.0863	6445.2827
1046.6641	6436.7827
1047.2488	6437.5327
1047.8335	6381.7827
1048.4182	6341.5327
1049.0029	6365.7827
1049.5875	6370.5327
1050.1722	6292.7827
1050.75	6276.0327
1051.3347	6163.5327
1051.9194	6150.5327
1052.5042	6184.7827
1053.0889	6097.0327
1053.6666	6198.0327
1054.2512	6029.5327
1054.8359	5998.0327
1055.4207	5993.0327
1055.9984	5998.5327
1056.5831	5930.7827
1057.1678	5977.5327
1057.7526	5937.2827
1058.3302	5991.2827
1058.9149	5832.2827
1059.4996	5865.5327
1060.0774	5792.5327
1060.6621	5834.7827
1061.2468	5700.7827
1061.8246	5767.2827
1062.4093	5716.2827
1062.9939	5600.7827
1063.5717	5643.5327
1064.1564	5687.2827
1064.7411	5571.7827
1065.3188	5607.0327
1065.9036	5555.5327
1066.4883	5500.5327
1067.0659	5527.2827
1067.6506	5526.7827
1068.2284	5475.7827
1068.8131	5488.7827
1069.3978	5402.0327
1069.9756	5411.7827
1070.5603	5326.7827
1071.1381	5279.2827
1071.7227	5360.5327
1072.3004	5341.2827
1072.8782	5286.0327
1073.4629	5284.0327
1074.0406	5252.0327
1074.6254	5207.5327
1075.2031	5184.2827
1075.7877	5123.2827
1076.3655	5100.5327
1076.9502	5131.0327
1077.528	5064.2827
1078.1127	5060.5327
1078.6904	5051.5327
1079.2751	5032.0327
1079.8528	5027.5327
1080.4305	4995.7827
1081.0153	4975.0327
1081.593	4925.2827
1082.1777	4934.5327
1082.7555	4853.5327
1083.3333	4862.5327
1083.9178	4872.0327
1084.4956	4822.0327
1085.0734	4827.5327
1085.6581	4778.2827
1086.2358	4806.7827
1086.8136	4662.2827
1087.3914	4690.2827
1087.976	4666.7827
1088.5537	4719.2827
1089.1315	4656.7827
1089.7162	4604.7827
1090.2939	4564.5327
1090.8717	4614.0327
1091.4495	4598.2827
1092.0341	4590.0327
1092.6118	4529.5327
1093.1896	4597.5327
1093.7673	4555.0327
1094.3521	4512.2827
1094.9298	4495.0327
1095.5076	4493.2827
1096.0852	4433.7827
1096.663	4435.0327
1097.2407	4362.2827
1097.8254	4408.7827
1098.4032	4383.2827
1098.981	4338.7827
1099.5587	4351.5327
1100.1364	4356.0327
1100.7141	4308.2827
1101.2919	4301.0327
1101.8696	4269.2827
1102.4543	4302.7827
1103.0321	4276.7827
1103.6097	4204.2827
1104.1875	4232.0327
1104.7653	4209.7827
1105.343	4190.5327
1105.9208	4198.5327
1106.4985	4164.0327
1107.0763	4188.0327
1107.6539	4142.2827
1108.2317	4141.7827
1108.8094	4101.2827
1109.3872	4152.5327
1109.965	4049.5327
1110.5427	4082.2827
1111.1205	4002.7827
1111.6981	4093.7827
1112.2759	4062.2827
1112.8536	4054.2827
1113.4314	4024.2827
1114.0022	3994.0327
1114.58	4001.2827
1115.1576	3970.7827
1115.7354	4098.2827
1116.3131	4057.2827
1116.8909	3909.5327
1117.4686	3928.7827
1118.0464	3931.0327
1118.6241	3932.5327
1119.1948	3951.2827
1119.7726	3913.2827
1120.3503	3896.2827
1120.9281	3931.7827
1121.5059	3928.0327
1122.0836	3902.0327
1122.6543	3840.2827
1123.2321	3877.5327
1123.8098	3850.0327
1124.3876	3879.5327
1124.9584	3821.2827
1125.5361	3793.5327
1126.1139	3847.2827
1126.6915	3839.7827
1127.2623	3768.0327
1127.8401	3805.5327
1128.4178	3786.7827
1128.9956	3798.0327
1129.5664	3737.7827
1130.144	3765.0327
1130.7218	3733.5327
1131.2996	3741.0327
1131.8704	3721.2827
1132.4481	3770.2827
1133.0259	3778.2827
1133.5967	3739.7827
1134.1743	3743.5327
1134.7451	3714.7827
1135.3229	3733.0327
1135.9006	3689.0327
1136.4714	3723.2827
1137.0492	3751.2827
1137.6199	3653.0327
1138.1976	3651.0327
1138.7684	3640.7827
1139.3462	3659.7827
1139.924	3685.7827
1140.4948	3637.5327
1141.0724	3659.5327
1141.6432	3629.0327
1142.2209	3648.5327
1142.7917	3633.2827
1143.3695	3671.7827
1143.9403	3672.2827
1143.9542	3595.2827
1144.5389	3642.2827
1145.1235	3590.2827
1145.7013	3656.2827
1146.286	3649.2827
1146.8707	3622.2827
1147.4485	3658.2827
1148.0332	3588.2827
1148.611	3584.2827
1149.1956	3566.2827
1149.7733	3583.2827
1150.358	3554.2827
1150.9358	3664.2827
1151.5205	3619.2827
1152.1052	3594.2827
1152.683	3626.2827
1153.2676	3557.2827
1153.8453	3556.2827
1154.4301	3568.2827
1155.0078	3535.2827
1155.5925	3517.2827
1156.1703	3613.2827
1156.755	3567.2827
1157.3328	3547.2827
1157.9174	3543.2827
1158.4951	3575.2827
1159.0798	3589.2827
1159.6576	3641.2827
1160.2354	3544.2827
1160.8201	3501.2827
1161.3978	3555.2827
1161.9824	3512.2827
1162.5602	3549.2827
1163.1379	3507.2827
1163.7227	3512.2827
1164.3004	3576.2827
1164.8782	3473.2827
1165.4629	3489.2827
1166.0405	3584.2827
1166.6183	3538.2827
1167.203	3546.2827
1167.7808	3511.2827
1168.3585	3506.2827
1168.9432	3502.2827
1169.521	3507.2827
1170.0986	3580.2827
1170.6764	3491.2827
1171.2611	3514.2827
1171.8389	3466.2827
1172.4166	3445.2827
1173.0013	3493.2827
1173.5791	3444.2827
1174.1567	3456.2827
1174.7345	3512.2827
1175.3192	3592.2827
1175.897	3446.2827
1176.4747	3461.2827
1177.0525	3448.2827
1177.6302	3448.2827
1178.2148	3528.2827
1178.7926	3466.2827
1179.3704	3465.2827
1179.9481	3431.2827
1180.5259	3451.2827
1181.1036	3505.2827
1181.6813	3438.2827
1182.259	3508.2827
1182.8438	3401.2827
1183.4215	3491.2827
1183.9993	3516.2827
1184.577	3498.2827
1185.1548	3460.2827
1185.7324	3451.2827
1186.3102	3455.2827
1186.8879	3434.2827
1187.4657	3396.2827
1188.0435	3500.2827
1188.6212	3354.2827
1189.199	3409.2827
1189.7766	3500.2827
1190.3544	3466.2827
1190.9321	3486.2827
1191.5099	3400.2827
1192.0876	3413.2827
1192.6654	3453.2827
1193.2432	3451.2827
1193.8208	3495.2827
1194.3986	3455.2827
1194.9763	3427.2827
1195.5541	3436.2827
1196.1318	3433.2827
1196.7096	3434.2827
1197.2872	3395.2827
1197.865	3463.2827
1198.4427	3473.2827
1199.0135	3401.2827
1199.5913	3386.2827
1200.1691	3458.2827
1200.7468	3434.2827
1201.3245	3428.2827
1201.9022	3460.2827
1202.473	3496.2827
1203.0508	3462.2827
1203.6285	3442.2827
1204.2063	3410.2827
1204.7839	3474.2827
1205.3617	3464.2827
1205.9325	3454.2827
1206.5103	3431.2827
1207.088	3445.2827
1207.6658	3409.2827
1208.2366	3441.2827
1208.8142	3430.2827
1209.392	3420.2827
1209.9697	3403.2827
1210.5475	3436.2827
1211.1183	3459.2827
1211.696	3418.2827
1212.2737	3441.2827
1212.8445	3436.2827
1213.4222	3421.2827
1214	3435.2827
1214.5708	3429.2827
1215.1486	3429.2827
1215.7262	3450.2827
1216.297	3424.2827
1216.8748	3447.2827
1217.4456	3378.2827
1218.0233	3479.2827
1218.6011	3489.2827
1219.1719	3407.2827
1219.7495	3441.2827
1220.3273	3408.2827
1220.8981	3432.2827
1221.4758	3397.2827
1222.0466	3414.2827
1222.6244	3434.2827
1223.1951	3411.2827
1223.7728	3402.2827
1224.3436	3397.2827
1224.9214	3454.2827
1225.4991	3448.2827
1226.0699	3486.2827
1226.6476	3443.2827
1227.2184	3444.2827
1227.7961	3447.2827
1228.3669	3454.2827
1228.9377	3492.2827
1229.5155	3446.2827
1230.0933	3475.2827
1230.6639	3416.2827
1231.2347	3411.2827
1231.8125	3412.2827
1232.3833	3482.2827
1232.9611	3410.2827
1233.5319	3418.2827
1234.1025	3394.2827
1234.6803	3437.2827
1235.2511	3450.2827
1235.8219	3478.2827
1236.3997	3400.2827
1236.9705	3383.2827
1237.5481	3460.2827
1238.1189	3457.2827
1238.6897	3401.2827
1239.2675	3421.2827
1239.8383	3487.2827
1240.4091	3482.2827
1240.9797	3460.2827
1241.5575	3464.2827
1242.1283	3434.2827
1242.6991	3470.2827
1243.2699	3453.2827
1243.8477	3396.2827
1244.4183	3431.2827
1244.9891	3464.2827
1245.5669	3455.2827
1246.1377	3367.2827
1246.7085	3395.2827
1247.2793	3433.2827
1247.85	3451.2827
1248.4277	3386.2827
1248.9985	3419.2827
1249.5693	3445.2827
1250.1401	3455.2827
1250.7109	3474.2827
1251.2816	3384.2827
1251.8594	3465.2827
1252.4302	3489.2827
1253.001	3442.2827
1253.5718	3401.2827
1254.1426	3436.2827
1254.7133	3483.2827
1255.291	3465.2827
1255.8618	3414.2827
1256.4326	3512.2827
1257.0034	3411.2827
1257.5741	3465.2827
1258.1449	3464.2827
1258.7157	3450.2827
1259.2865	3458.2827
1259.8573	3474.2827
1260.4281	3489.2827
1260.9988	3475.2827
1261.5696	3459.2827
1262.1404	3479.2827
1262.7112	3475.2827
1263.282	3462.2827
1263.8528	3380.2827
1264.4235	3369.2827
1264.9943	3447.2827
1265.5651	3405.2827
1266.1359	3433.2827
1266.7067	3445.2827
1267.2775	3433.2827
1267.8481	3401.2827
1268.4189	3476.2827
1268.9897	3490.2827
1269.5536	3430.2827
1270.1244	3458.2827
1270.6952	3462.2827
1271.2659	3412.2827
1271.8367	3423.2827
1272.4075	3490.2827
1272.9783	3363.2827
1273.5491	3448.2827
1274.1128	3479.2827
1274.6836	3462.2827
1275.2544	3532.2827
1275.8252	3436.2827
1276.396	3414.2827
1276.9668	3433.2827
1277.5305	3471.2827
1278.1013	3467.2827
1278.6721	3433.2827
1279.2429	3447.2827
1279.8068	3465.2827
1280.3776	3443.2827
1280.9482	3476.2827
1281.519	3450.2827
1282.0829	3419.2827
1282.6537	3556.2827
1283.2245	3471.2827
1283.7882	3447.2827
1284.359	3430.2827
1284.9298	3507.2827
1285.5006	3502.2827
1286.0645	3464.2827
1286.6353	3431.2827
1287.2059	3493.2827
1287.7698	3437.2827
1288.3406	3499.2827
1288.9044	3516.2827
1289.4752	3502.2827
1290.0459	3508.2827
1290.6097	3492.2827
1291.1805	3474.2827
1291.7513	3420.2827
1292.3152	3470.2827
1292.886	3481.2827
1293.4497	3469.2827
1294.0205	3499.2827
1294.5844	3519.2827
1295.1552	3519.2827
1295.719	3385.2827
1296.2897	3482.2827
1296.8535	3481.2827
1297.4243	3550.2827
1297.9882	3477.2827
1298.559	3487.2827
1299.1298	3484.2827
1299.6935	3440.2827
1300.2643	3646.2827
1300.8281	3557.2827
1301.3989	3484.2827
1301.9628	3447.2827
1302.5265	3475.2827
1303.0973	3481.2827
1303.6611	3507.2827
1304.2319	3500.2827
1304.7958	3470.2827
1305.3596	3457.2827
1305.9303	3438.2827
1306.4941	3511.2827
1307.0649	3480.2827
1307.6288	3455.2827
1308.1926	3517.2827
1308.7633	3470.2827
1309.3271	3471.2827
1309.891	3452.2827
1310.4618	3505.2827
1311.0256	3491.2827
1311.5894	3501.2827
1312.1602	3464.2827
1312.724	3492.2827
1313.2878	3570.2827
1313.8517	3437.2827
1314.4225	3469.2827
1314.9862	3456.2827
1315.55	3529.2827
1316.1208	3498.2827
1316.6847	3520.2827
1317.2485	3526.2827
1317.8123	3525.2827
1318.3761	3532.2827
1318.9469	3559.2827
1319.5107	3521.2827
1320.0746	3517.2827
1320.6383	3574.2827
1321.2091	3523.2827
1321.7729	3508.2827
1322.3368	3464.2827
1322.9006	3525.2827
1323.4644	3466.2827
1324.0282	3464.2827
1324.599	3485.2827
1325.1628	3558.2827
1325.7267	3558.2827
1326.2905	3453.2827
1326.8542	3444.2827
1327.4181	3509.2827
1327.9819	3546.2827
1328.5458	3433.2827
1329.1096	3504.2827
1329.6803	3446.2827
1330.2441	3518.2827
1330.808	3487.2827
1331.3718	3514.2827
1331.9357	3502.2827
1332.4994	3563.2827
1333.0632	3462.2827
1333.6271	3514.2827
1334.1909	3558.2827
1334.7548	3541.2827
1335.3185	3551.2827
1335.8823	3520.2827
1336.4462	3491.2827
1337.01	3513.2827
1337.5739	3506.2827
1338.1376	3535.2827
1338.7014	3502.2827
1339.2583	3557.2827
1339.8221	3427.2827
1340.386	3491.2827
1340.9497	3557.2827
1341.5135	3531.2827
1342.0774	3491.2827
1342.6412	3446.2827
1343.2051	3471.2827
1343.7689	3487.2827
1344.3257	3492.2827
1344.8895	3547.2827
1345.4534	3505.2827
1346.0172	3495.2827
1346.5811	3487.2827
1347.1448	3547.2827
1347.7017	3550.2827
1348.2655	3453.2827
1348.8293	3501.2827
1349.3932	3536.2827
1349.9569	3533.2827
1350.5138	3573.2827
1351.0776	3485.2827
1351.6415	3482.2827
1352.2053	3571.2827
1352.7621	3581.2827
1353.3259	3545.2827
1353.8898	3525.2827
1354.4536	3505.2827
1355.0105	3481.2827
1355.5742	3535.2827
1356.1381	3579.2827
1356.6949	3531.2827
1357.2588	3633.2827
1357.8226	3553.2827
1358.3794	3538.2827
1358.9432	3491.2827
1359.5071	3520.2827
1360.064	3567.2827
1360.6277	3551.2827
1361.1915	3552.2827
1361.7484	3555.2827
1362.3123	3545.2827
1362.8761	3546.2827
1363.4329	3576.2827
1363.9897	3548.2827
1364.5536	3530.2827
1365.1174	3547.2827
1365.6743	3500.2827
1366.238	3584.2827
1366.7949	3564.2827
1367.3588	3578.2827
1367.9156	3609.2827
1368.4795	3512.2827
1369.0432	3573.2827
1369.6001	3517.2827
1370.157	3557.2827
1370.7208	3522.2827
1371.2847	3549.2827
1371.8414	3525.2827
1372.4053	3570.2827
1372.9622	3607.2827
1373.519	3515.2827
1374.0829	3521.2827
1374.6396	3588.2827
1375.2035	3573.2827
1375.7604	3494.2827
1376.3242	3563.2827
1376.8811	3575.2827
1377.4379	3614.2827
1378.0017	3584.2827
1378.5586	3528.2827
1379.1224	3596.2827
1379.6792	3502.2827
1380.2361	3530.2827
1380.793	3572.2827
1381.3568	3591.2827
1381.9137	3596.2827
1382.4774	3600.2827
1383.0343	3550.2827
1383.5912	3551.2827
1384.155	3548.2827
1384.7119	3568.2827
1385.2687	3613.2827
1385.8256	3580.2827
1386.3894	3550.2827
1386.9463	3546.2827
1387.5032	3544.2827
1388.0599	3588.2827
1388.6238	3520.2827
1389.1807	3568.2827
1389.7375	3500.2827
1390.2943	3519.2827
1390.8582	3577.2827
1391.415	3625.2827
1391.9719	3512.2827
1392.5288	3570.2827
1393.0856	3572.2827
1393.6494	3649.2827
1394.2063	3537.2827
1394.7632	3562.2827
1395.3201	3493.2827
1395.8768	3507.2827
1396.4337	3583.2827
1396.9976	3544.2827
1397.5544	3538.2827
1398.1113	3608.2827
1398.6681	3599.2827
1399.225	3559.2827
1399.7888	3597.2827
