14.826543	5083.2124
15.494773	5022.2124
16.169964	4919.2124
16.845154	4976.2124
17.520346	4771.2124
18.195536	4714.2124
18.877687	4915.2124
19.552877	4867.2124
20.228067	4855.2124
20.903259	4739.2124
21.578449	4776.2124
22.253641	4784.2124
22.935791	4853.2124
23.610983	5125.2124
24.286173	5232.2124
24.961365	5194.2124
25.636555	5418.2124
26.311745	5492.2124
26.986937	5406.2124
27.662127	5438.2124
28.344278	5430.2124
29.019468	5328.2124
29.69466	5391.2124
30.36985	5510.2124
31.04504	5594.2124
31.720232	5639.2124
32.395424	5784.2124
33.070614	5846.2124
33.745804	6105.2124
34.420994	6246.2124
35.096184	6479.2124
35.771374	6514.2124
36.446568	6688.2124
37.114796	6746.2124
37.789986	6575.2124
38.465176	6662.2124
39.140369	6673.2124
39.815559	6868.2124
40.490749	7037.2124
41.165939	7179.2124
41.841129	7403.2124
42.516323	7606.2124
43.191513	7747.2124
43.866703	7749.2124
44.534931	7440.2124
45.210125	7680.2124
45.885315	7865.2124
46.560505	8089.2124
47.235695	8212.2119
47.903927	8297.2119
48.579117	8432.2119
49.254307	8510.2119
49.929497	8521.2119
50.604687	8502.2119
51.272919	8630.2119
51.948109	8701.2119
52.623299	8654.2119
53.298489	8607.2119
53.966721	8710.2119
54.641911	8832.2119
55.310143	8908.2119
55.985332	9057.2119
56.660522	9057.2119
57.335712	9497.2119
58.003944	9816.2119
58.679134	9906.2119
59.354324	10045.212
60.022552	9903.2119
60.697746	9687.2119
61.365974	9282.2119
62.041164	9493.2119
62.709396	9438.2119
63.384586	9469.2119
64.059776	9592.2119
64.728004	9615.2119
65.403198	9788.2119
66.071426	9916.2119
66.74662	9973.2119
67.421806	9900.2119
68.090042	9988.2119
68.765228	9854.2119
69.433456	10051.212
70.101692	10219.212
70.776878	10161.212
71.445107	10330.212
72.1203	10080.212
72.788528	10114.212
73.463722	10368.212
74.13195	10400.212
74.807144	10302.212
75.475372	10472.212
76.1436	10086.212
76.818794	10149.212
77.487022	10186.212
78.162216	10142.212
78.830444	10199.212
79.498672	10125.212
80.166901	10134.212
80.842094	10451.212
81.510323	10511.212
82.178551	10635.212
82.853745	10565.212
83.521973	10584.212
84.190201	10327.212
84.865395	10272.212
85.533623	10312.212
86.201851	10222.212
86.870087	10308.212
87.545273	10307.212
88.213509	10312.212
88.881737	10597.212
89.549965	10555.212
90.218193	10579.212
90.893387	10606.212
91.561615	10603.212
92.229843	10319.212
92.898079	10441.212
93.566307	10635.212
94.234535	10534.212
94.902763	10577.212
95.577957	10297.212
96.246185	10351.212
96.914413	10273.212
97.582649	10438.212
98.250877	10554.212
98.919106	10408.212
99.587334	10384.212
100.25557	10226.212
100.9238	10210.212
101.59203	10084.212
102.26025	10242.212
102.92848	10203.212
103.59672	10244.212
104.26495	10372.212
104.93317	10588.212
105.6014	10443.212
106.26964	10449.212
106.93787	10477.212
107.60609	10489.212
108.27432	10237.212
108.94256	10125.212
109.61079	10049.212
110.27901	10160.212
110.94724	10096.212
111.61548	10057.212
112.27674	10020.212
112.94498	10142.212
113.6132	10144.212
114.28143	10262.212
114.94966	10256.212
115.6179	10174.212
116.28613	10120.212
116.9474	9844.2119
117.61562	10126.212
118.28385	9860.2119
118.95208	9938.2119
119.62032	9977.2119
120.28159	9894.2119
120.94981	9922.2119
121.61804	10035.212
122.28627	9933.2119
122.94754	10051.212
123.61577	9904.2119
124.284	9783.2119
124.95223	9814.2119
125.6135	9772.2119
126.28173	9704.2119
126.94996	9806.2119
127.61123	9886.2119
128.27946	9790.2119
128.94769	9830.2119
129.60896	9690.2119
130.27719	9775.2119
130.93846	9743.2119
131.60669	9739.2119
132.27492	9547.2119
132.93619	9530.2119
133.60442	9634.2119
134.26569	9540.2119
134.93391	9562.2119
135.59518	9538.2119
136.26341	9582.2119
136.92468	9566.2119
137.59291	9583.2119
138.25418	9631.2119
138.92241	9640.2119
139.58368	9526.2119
140.25191	9479.2119
140.91318	9350.2119
141.58141	9463.2119
142.24268	9405.2119
142.9109	9449.2119
143.57217	9364.2119
144.24042	9404.2119
144.90167	9304.2119
145.56294	9335.2119
146.23119	9371.2119
146.89244	9346.2119
147.56068	9156.2119
148.22195	9208.2119
148.88321	9177.2119
149.55145	9216.2119
150.21272	9242.2119
150.87398	9203.2119
151.54222	9054.2119
152.20349	8982.2119
152.86475	9094.2119
153.53299	9236.2119
154.19426	9044.2119
154.85551	9135.2119
155.51678	8849.2119
156.18503	9030.2119
156.84628	8918.2119
157.50755	8962.2119
158.16882	8972.2119
158.83705	8907.2119
159.49832	8899.2119
160.15959	8872.2119
160.82086	8956.2119
161.48213	8828.2119
162.15036	8746.2119
162.81163	8864.2119
163.4729	8731.2119
164.13417	8750.2119
164.79544	8774.2119
165.45671	8571.2119
166.11798	8750.2119
166.77925	8617.2119
167.44748	8666.2119
168.10875	8711.2119
168.77002	8712.2119
169.43129	8616.2119
170.09256	8692.2119
170.75383	8590.2119
171.4151	8698.2119
172.07637	8522.2119
172.73764	8610.2119
173.3989	8511.2119
174.06017	8476.2119
174.72144	8544.2119
175.38271	8563.2119
176.04398	8537.2119
176.70525	8450.2119
177.36652	8452.2119
178.02779	8443.2119
178.6821	8426.2119
179.34337	8382.2119
180.00464	8411.2119
180.66591	8382.2119
181.32718	8307.2119
181.98845	8403.2119
182.6497	8342.2119
183.31097	8266.2119
183.97224	8378.2119
184.63351	8291.2119
185.29478	8322.2119
185.9491	8342.2119
186.61037	8296.2119
187.27164	8244.2119
187.93291	8287.2119
188.59418	8253.2119
189.24849	8177.2124
189.90974	8276.2119
190.57101	8152.2124
191.23228	8289.2119
191.8866	8232.2119
192.54787	8170.2124
193.20914	8147.2124
193.86345	8187.2124
194.52472	8044.2124
195.18599	8071.2124
195.84029	8154.2124
196.50156	8012.2124
197.16283	8046.2124
197.81714	7983.2124
198.47841	8057.2124
199.13968	8016.2124
199.79399	7984.2124
200.45526	8077.2124
201.11653	8008.2124
201.77083	8000.2124
202.4321	8024.2124
203.09337	8057.2124
203.74768	7974.2124
204.40895	8119.2124
205.06326	7855.2124
205.72453	7884.2124
206.37883	7858.2124
207.0401	7918.2124
207.69441	7911.2124
208.35568	7970.2124
209.00999	7880.2124
209.67126	7869.2124
210.32556	7775.2124
210.98683	7843.2124
211.64114	7802.2124
212.30241	7805.2124
212.95673	7710.2124
213.61104	7720.2124
214.27231	7823.2124
214.92661	7801.2124
215.58788	7730.2124
216.24219	7713.2124
216.90346	7802.2124
217.55777	7728.2124
218.21207	7634.2124
218.87334	7702.2124
219.52765	7714.2124
220.18196	7659.2124
220.84323	7701.2124
221.49754	7632.2124
222.15184	7642.2124
222.81311	7641.2124
223.46742	7601.2124
224.12173	7612.2124
224.77605	7623.2124
225.43732	7531.2124
226.09161	7606.2124
226.74593	7633.2124
227.4072	7624.2124
228.06151	7679.2124
228.71582	7615.2124
229.37012	7586.2124
230.02443	7467.2124
230.6857	7546.2124
231.34001	7559.2124
231.99432	7559.2124
232.64862	7543.2124
233.30293	7505.2124
233.95724	7577.2124
234.61156	7514.2124
235.27283	7366.2124
235.92712	7492.2124
236.58144	7505.2124
237.23575	7447.2124
237.89006	7428.2124
238.54436	7513.2124
239.19867	7400.2124
239.85298	7474.2124
240.50729	7524.2124
241.16159	7334.2124
241.8159	7518.2124
242.47021	7424.2124
243.12453	7416.2124
243.77882	7315.2124
244.43314	7430.2124
245.08745	7457.2124
245.74176	7350.2124
246.39606	7452.2124
247.05037	7278.2124
247.70468	7301.2124
248.35899	7285.2124
249.01331	7441.2124
249.6676	7404.2124
250.32191	7419.2124
250.97623	7390.2124
251.63054	7230.2124
252.28484	7432.2124
252.93915	7339.2124
253.5865	7331.2124
254.2408	7346.2124
254.89511	7186.2124
255.54942	7173.2124
256.20374	7394.2124
256.85107	7304.2124
257.5054	7306.2124
258.1597	7271.2124
258.814	7220.2124
259.46832	7231.2124
260.12262	7252.2124
260.76996	7209.2124
261.42429	7174.2124
262.07858	7247.2124
262.72592	7124.2124
263.38025	7152.2124
264.03455	7199.2124
264.68887	7186.2124
265.33621	7218.2124
265.99051	7100.2124
266.63788	7225.2124
267.29218	7185.2124
267.94647	7211.2124
268.6008	7143.2124
269.24814	7203.2124
269.90244	7107.2124
270.55676	7184.2124
271.2041	7185.2124
271.8584	7246.2124
272.50577	7128.2124
273.16006	7144.2124
273.8074	7108.2124
274.46173	7076.2124
275.10907	7081.2124
275.76337	7134.2124
276.41769	7095.2124
277.06503	7113.2124
277.71933	6958.2124
278.3667	7023.2124
279.021	7056.2124
279.66833	7146.2124
280.32266	7094.2124
280.97	7058.2124
281.6243	7004.2124
282.27167	6936.2124
282.91901	7042.2124
283.5733	6965.2124
284.22067	7009.2124
284.87497	7015.2124
285.52231	6964.2124
286.17664	7038.2124
286.82397	7014.2124
287.47131	7008.2124
288.12564	7023.2124
288.77298	6909.2124
289.42032	7066.2124
290.07465	7016.2124
290.72198	6952.2124
291.36932	6921.2124
292.02365	6898.2124
292.67099	6993.2124
293.31833	6935.2124
293.9657	6964.2124
294.62	6946.2124
295.26733	7019.2124
295.91467	6914.2124
296.569	6914.2124
297.21634	6931.2124
297.86368	6900.2124
298.51105	6898.2124
299.16534	7003.2124
299.81268	6924.2124
300.46005	6974.2124
301.10739	6942.2124
301.75473	6958.2124
302.4021	6885.2124
303.0564	6825.2124
303.70374	6862.2124
304.3511	6942.2124
304.99844	6890.2124
305.64578	6786.2124
306.29312	6789.2124
306.94049	6911.2124
307.58783	6881.2124
308.24213	6830.2124
308.8895	6950.2124
309.53683	6826.2124
310.18417	6886.2124
310.83154	6828.2124
311.47888	6870.2124
312.12622	6863.2124
312.77356	6882.2124
313.42093	6800.2124
314.06827	6919.2124
314.71561	6836.2124
315.36298	6757.2124
316.01031	6815.2124
316.65765	6788.2124
317.30499	6771.2124
317.95236	6916.2124
318.59274	6878.2124
319.24008	6759.2124
319.88745	6822.2124
320.53479	6852.2124
321.18213	6751.2124
321.82947	6796.2124
322.47684	6826.2124
323.12418	6878.2124
323.77151	6734.2124
324.41888	6736.2124
325.05927	6810.2124
325.7066	6786.2124
326.35394	6656.2124
327.00131	6824.2124
327.64865	6814.2124
328.28903	6826.2124
328.93637	6796.2124
329.58374	6762.2124
330.23108	6841.2124
330.87842	6718.2124
331.51883	6739.2124
332.16617	6856.2124
332.81351	6723.2124
333.45389	6668.2124
334.10126	6807.2124
334.7486	6743.2124
335.38898	6818.2124
336.03632	6703.2124
336.68369	6767.2124
337.32407	6732.2124
337.97141	6698.2124
338.61874	6777.2124
339.26611	6671.2124
339.90649	6799.2124
340.55383	6724.2124
341.19421	6683.2124
341.84158	6793.2124
342.48892	6775.2124
343.1293	6684.2124
343.77667	6796.2124
344.41705	6687.2124
345.06439	6743.2124
345.70477	6711.2124
346.35214	6677.2124
346.99252	6722.2124
347.63986	6600.2124
348.2872	6724.2124
348.92761	6778.2124
349.57495	6693.2124
350.21533	6791.2124
350.85571	6732.2124
351.50308	6721.2124
352.14346	6712.2124
352.7908	6625.2124
353.43118	6703.2124
354.07156	6658.2124
354.71893	6669.2124
355.35931	6789.2124
356.00665	6777.2124
356.64703	6715.2124
357.2944	6746.2124
357.93478	6759.2124
358.57516	6707.2124
359.2225	6703.2124
359.86292	6719.2124
360.5033	6710.2124
361.15063	6630.2124
361.79102	6682.2124
362.4314	6817.2124
363.07181	6797.2124
363.71915	6734.2124
364.35953	6786.2124
364.99991	6806.2124
365.64728	6652.2124
366.28766	6727.2124
366.92804	6810.2124
367.57538	6737.2124
368.21579	6627.2124
368.85617	6715.2124
369.49655	6683.2124
370.13693	6709.2124
370.77731	6700.2124
371.42468	6714.2124
372.06506	6625.2124
372.70544	6682.2124
373.34583	6738.2124
373.98621	6686.2124
374.62662	6696.2124
375.267	6705.2124
375.91434	6659.2124
376.55472	6822.2124
377.19513	6668.2124
377.83551	6720.2124
378.47589	6661.2124
379.11627	6743.2124
379.75665	6598.2124
380.39706	6748.2124
381.03745	6783.2124
381.67783	6692.2124
382.31821	6717.2124
382.95859	6633.2124
383.599	6745.2124
384.23938	6613.2124
384.87976	6764.2124
385.52014	6674.2124
386.16052	6750.2124
386.80093	6723.2124
387.44131	6782.2124
388.0817	6723.2124
388.72208	6709.2124
389.36246	6768.2124
390.00287	6806.2124
390.64325	6661.2124
391.27667	6563.2124
391.91705	6739.2124
392.55743	6773.2124
393.19785	6854.2124
393.83823	6728.2124
394.47861	6750.2124
395.11203	6761.2124
395.75241	6684.2124
396.39279	6708.2124
397.0332	6801.2124
397.67358	6724.2124
398.31396	6612.2124
398.95435	6753.2124
399.58777	6696.2124
400.22818	6735.2124
400.86856	6735.2124
401.50198	6692.2124
402.14236	6856.2124
402.78275	6752.2124
403.42316	6684.2124
404.05658	6701.2124
404.69696	6757.2124
405.33734	6711.2124
405.97076	6692.2124
406.61115	6716.2124
407.25156	6791.2124
407.88498	6763.2124
408.52536	6732.2124
409.16574	6774.2124
409.79916	6806.2124
410.43954	6795.2124
411.07996	6703.2124
411.71338	6816.2124
412.35376	6683.2124
412.98718	6712.2124
413.62756	6754.2124
414.26099	6715.2124
414.9014	6868.2124
415.53482	6848.2124
416.1752	6816.2124
416.80862	6750.2124
417.44901	6821.2124
418.08243	6836.2124
418.72281	6723.2124
419.35626	6750.2124
419.99664	6742.2124
420.63007	6748.2124
421.27045	6788.2124
421.90387	6840.2124
422.54425	6884.2124
423.1777	6784.2124
423.81808	6760.2124
424.45151	6828.2124
425.09189	6868.2124
425.72531	6739.2124
426.35873	6855.2124
426.99915	6706.2124
427.63257	6773.2124
428.26599	6750.2124
428.90637	6820.2124
429.53979	6827.2124
430.17322	6827.2124
430.8136	6759.2124
431.44702	6681.2124
432.08047	6866.2124
432.72086	6715.2124
433.35428	6900.2124
433.9877	6788.2124
434.62112	6798.2124
435.26151	6890.2124
435.89493	6774.2124
436.52838	6845.2124
437.1618	6985.2124
437.80219	6949.2124
438.43561	6946.2124
439.06903	6875.2124
439.70245	6761.2124
440.34283	6847.2124
440.97629	6919.2124
441.60971	6827.2124
442.24313	6936.2124
442.87656	6902.2124
443.50998	6872.2124
444.15036	6907.2124
444.78378	6771.2124
445.41721	6993.2124
446.05066	6838.2124
446.68408	6933.2124
447.3175	7018.2124
447.95093	6976.2124
448.58435	6887.2124
449.21777	7005.2124
449.8512	6929.2124
450.48462	6939.2124
451.11804	6946.2124
451.7515	6977.2124
452.38492	7006.2124
453.01834	6951.2124
453.65176	6942.2124
454.28519	7000.2124
454.91861	7023.2124
455.55203	6980.2124
456.18546	6944.2124
456.81888	6983.2124
457.45233	6977.2124
458.08575	6938.2124
458.71918	7023.2124
459.3526	7031.2124
459.98602	7078.2124
460.61945	7044.2124
461.24591	6989.2124
461.87933	6971.2124
462.51276	7060.2124
463.14618	7053.2124
463.77963	7146.2124
464.41306	7090.2124
465.04648	7090.2124
465.67294	7035.2124
466.30637	7129.2124
466.93979	7018.2124
467.57321	7132.2124
468.20663	7167.2124
468.8331	7006.2124
469.46652	7160.2124
470.09998	7112.2124
470.7334	7228.2124
471.35986	7262.2124
471.99329	7143.2124
472.62671	7371.2124
473.26013	7195.2124
473.8866	7301.2124
474.52002	7299.2124
475.15344	7253.2124
475.77991	7301.2124
476.41333	7374.2124
477.04678	7340.2124
477.67325	7284.2124
478.30667	7386.2124
478.94009	7352.2124
479.56656	7396.2124
480.19998	7582.2124
480.8334	7603.2124
481.45987	7452.2124
482.09329	7487.2124
482.71976	7483.2124
483.35318	7449.2124
483.97964	7567.2124
484.61307	7528.2124
485.23953	7569.2124
485.87299	7606.2124
486.50641	7637.2124
487.13287	7680.2124
487.7663	7585.2124
488.39276	7582.2124
489.02618	7644.2124
489.65265	7786.2124
490.27911	7838.2124
490.91254	7868.2124
491.539	7878.2124
492.17242	7908.2124
492.79889	7778.2124
493.43231	7797.2124
494.05878	7879.2124
494.68524	7954.2124
495.3187	8026.2124
495.94516	8064.2124
496.57162	8060.2124
497.20505	8139.2124
497.83151	8021.2124
498.46494	8102.2124
499.0914	8058.2124
499.71786	8245.2119
500.35129	8329.2119
500.97775	8114.2124
501.60422	8344.2119
502.23764	8270.2119
502.86411	8425.2119
503.49057	8356.2119
504.11703	8276.2119
504.75046	8562.2119
505.37692	8428.2119
506.00339	8542.2119
506.62985	8542.2119
507.26331	8628.2119
507.88977	8645.2119
508.51624	8670.2119
509.1427	8686.2119
509.77612	8750.2119
510.40259	8724.2119
511.02905	8779.2119
511.65552	8897.2119
512.28198	8962.2119
512.90845	8894.2119
513.54187	9050.2119
514.16833	9022.2119
514.7948	9006.2119
515.42126	9057.2119
516.04773	9038.2119
516.67419	9111.2119
517.30066	9164.2119
517.92712	9200.2119
518.55359	9276.2119
519.18005	9360.2119
519.80652	9343.2119
520.43298	9304.2119
521.05945	9405.2119
521.68591	9497.2119
522.31238	9574.2119
522.93884	9522.2119
523.56531	9627.2119
524.19177	9574.2119
524.81824	9783.2119
525.4447	9729.2119
526.07117	9781.2119
526.69763	9797.2119
527.3241	9901.4619
527.95056	9961.2119
528.57703	9917.2119
529.20349	10019.212
529.82996	9979.7119
530.45642	10067.212
531.07593	10174.462
531.70239	10169.712
532.32886	10238.462
532.95532	10192.212
533.58179	10255.212
534.20825	10408.712
534.83472	10487.962
535.45422	10538.462
536.08069	10651.962
536.70715	10511.962
537.33362	10595.712
537.96008	10581.712
538.58655	10686.212
539.20605	10562.962
539.83252	10777.462
540.45898	10743.462
541.07849	10759.462
541.70496	10855.212
542.33142	10902.712
542.95093	10816.712
543.57739	10871.462
544.20386	10975.462
544.83032	11015.962
545.44983	10936.212
546.07629	11039.962
546.70276	11021.462
547.32227	11066.962
547.94873	10988.212
548.5752	11169.712
549.1947	11182.212
549.82117	11139.712
550.44067	11147.962
551.06714	11147.212
551.68665	11169.712
552.31311	11079.462
552.93958	11184.962
553.55908	11166.712
554.18555	11208.712
554.80505	11138.462
555.43152	11214.962
556.05103	11094.212
556.67749	11182.212
557.297	11152.462
557.92346	11134.462
558.54297	11143.962
559.16943	11092.712
559.78894	11025.962
560.41541	10982.712
561.03491	11010.212
561.66138	11109.962
562.28088	10946.962
562.90735	10845.462
563.52686	10850.962
564.14636	10866.962
564.77283	10835.712
565.39233	10731.712
566.01184	10807.212
566.63831	10712.212
567.25781	10619.462
567.88428	10674.712
568.50378	10591.462
569.12329	10478.462
569.74976	10544.462
570.36926	10534.712
570.98877	10449.712
571.60828	10420.212
572.23474	10312.712
572.85425	10249.962
573.47375	10197.462
574.10022	10171.462
574.71973	10072.212
575.33923	9879.9619
575.95874	9850.2119
576.57825	9898.7119
577.20471	9854.4619
577.82422	9747.2119
578.44373	9582.7119
579.06323	9629.9619
579.6897	9485.4619
580.3092	9483.7119
580.92871	9390.9619
581.54822	9298.4619
582.16766	9330.2119
582.78717	9180.9619
583.40668	9141.9619
584.03314	9151.7119
584.65265	9073.9619
585.27216	9049.7119
585.89166	8877.2119
586.51117	8818.7119
587.13068	8816.2119
587.75018	8766.7119
588.36969	8565.2119
588.9892	8557.9619
589.6087	8537.2119
590.22821	8381.9619
590.84772	8321.7119
591.46722	8335.7119
592.08673	8141.4624
592.70624	8256.2119
593.32574	8137.7124
593.94525	8071.4624
594.56476	7992.2124
595.18427	7948.2124
595.80377	8010.9624
596.42328	7735.2124
597.04279	7800.2124
597.66229	7695.4624
598.2818	7672.7124
598.90131	7642.2124
599.52081	7576.2124
600.13336	7536.4624
600.75287	7522.9624
601.37231	7393.9624
601.99182	7360.4624
602.61133	7329.4624
603.23083	7218.9624
603.85034	7214.7124
604.46289	7149.9624
605.0824	7136.2124
605.7019	7049.7124
606.32141	7001.7124
606.94092	6951.4624
607.55347	6950.4624
608.17297	6866.9624
608.79248	6813.4624
609.41199	6758.4624
610.03149	6815.4624
610.64404	6675.2124
611.26355	6662.9624
611.88306	6665.2124
612.49561	6636.7124
613.11511	6640.2124
613.73462	6410.4624
614.34717	6482.4624
614.96667	6470.9624
615.58618	6452.4624
616.19867	6333.7124
616.81818	6330.4624
617.43768	6329.2124
618.05023	6277.7124
618.66974	6421.7124
619.28925	6337.2124
619.90179	6264.2124
620.5213	6131.2124
621.13385	6125.2124
621.75336	6030.4624
622.36591	6129.7124
622.98541	6098.9624
623.60492	6036.7124
624.21747	6043.4624
624.83698	5973.2124
625.44952	5993.4624
626.06903	5950.7124
626.68158	5920.7124
627.30109	5847.9624
627.91357	5865.4624
628.53308	5856.2124
629.14563	5869.4624
629.76514	5755.7124
630.37769	5765.2124
630.99023	5667.7124
631.60974	5720.2124
632.22229	5691.7124
632.8418	5719.4624
633.45435	5567.9624
634.06689	5684.7124
634.6864	5613.9624
635.29895	5512.2124
635.91846	5647.2124
636.53101	5437.9624
637.14355	5504.2124
637.76306	5517.4624
638.37555	5427.2124
638.99506	5430.9624
639.6076	5414.2124
640.22015	5459.9624
640.8327	5388.9624
641.45221	5345.7124
642.06476	5302.2124
642.67731	5297.4624
643.28986	5342.4624
643.90936	5240.9624
644.52191	5253.9624
645.13446	5175.9624
645.74701	5197.4624
646.36652	5198.9624
646.97906	5171.9624
647.59155	5098.9624
648.2041	5079.4624
648.81665	5054.7124
649.43616	5087.9624
650.04871	5043.9624
650.66125	5037.7124
651.2738	4983.7124
651.88635	5004.9624
652.27612	5056.9624
652.89563	4915.9624
653.52209	4898.9624
654.1416	4883.9624
654.76807	4904.9624
655.38757	4907.9624
656.00708	4830.9624
656.63354	4797.9624
657.25305	4802.9624
657.87952	4701.9624
658.49902	4794.9624
659.11853	4746.9624
659.745	4792.9624
660.3645	4709.9624
660.98401	4747.9624
661.61047	4753.9624
662.22998	4645.9624
662.84949	4666.9624
663.47595	4615.9624
664.09546	4644.9624
664.71497	4619.9624
665.33447	4534.9624
665.95398	4632.9624
666.58044	4622.9624
667.19995	4375.9624
667.81946	4526.9624
668.43896	4544.9624
669.06543	4454.9624
669.68494	4519.9624
670.30444	4485.9624
670.92395	4508.9624
671.54346	4319.9624
672.16992	4434.9624
672.78943	4435.9624
673.40894	4351.9624
674.02844	4302.9624
674.64795	4256.9624
675.26746	4278.9624
675.88696	4278.9624
676.51343	4275.9624
677.13293	4282.9624
677.75244	4171.9624
678.37195	4235.9624
678.99146	4205.9624
679.61096	4154.9624
680.23047	4187.9624
680.84991	4190.9624
681.46942	4211.9624
682.08893	4165.9624
682.70844	4211.9624
683.32794	4121.9624
683.94745	4105.9624
684.56696	4170.9624
685.18646	4180.9624
685.80597	4033.9624
686.42548	4044.9624
687.04498	4021.9624
687.66449	4023.9624
688.284	3927.9624
688.9035	3965.9624
689.52301	3920.9624
690.14252	3935.9624
690.75507	4015.9624
691.38153	3897.9624
691.99408	3958.9624
692.61359	3868.9624
693.23309	3949.9624
693.8526	3829.9624
694.47211	3913.9624
695.09161	3855.9624
695.70416	3865.9624
696.32367	3795.9624
696.94318	3863.9624
697.56268	3775.9624
698.18213	3787.9624
698.80164	3766.9624
699.41418	3764.9624
700.03369	3738.9624
700.6532	3780.9624
701.26575	3723.9624
701.88525	3709.9624
702.50476	3663.9624
703.12427	3749.9624
703.74377	3650.9624
704.35632	3583.9624
704.97583	3628.9624
705.59534	3596.9624
706.20789	3666.9624
706.82739	3632.9624
707.4469	3592.9624
708.05945	3635.9624
708.67896	3582.9624
709.29846	3518.9624
709.91101	3596.9624
710.53052	3534.9624
711.15002	3552.9624
711.76251	3588.9624
712.38202	3505.9624
712.99457	3512.9624
713.61407	3427.9624
714.23358	3543.9624
714.84613	3463.9624
715.46564	3399.9624
716.07819	3479.9624
716.69769	3449.9624
717.31024	3456.9624
717.92975	3415.9624
718.5423	3322.9624
719.1618	3379.9624
719.77435	3356.9624
720.39386	3406.9624
721.00641	3373.9624
721.62592	3284.9624
722.23846	3310.9624
722.85797	3305.9624
723.47046	3332.9624
724.08301	3333.9624
724.70251	3283.9624
725.31506	3307.9624
725.93457	3249.9624
726.54712	3297.9624
727.15967	3329.9624
727.77917	3265.9624
728.39172	3289.9624
729.01123	3195.9624
729.62378	3259.9624
730.23633	3209.9624
730.85583	3221.9624
731.46838	3230.9624
732.08093	3206.9624
732.70044	3232.9624
733.31293	3150.9624
733.92548	3168.9624
734.54498	3173.9624
735.15753	3203.9624
735.77008	3096.9624
736.38263	3184.9624
737.00214	3194.9624
737.61469	3162.9624
738.22723	3141.9624
738.83978	3199.9624
739.45929	3184.9624
740.07184	3187.9624
740.68439	3155.9624
741.29694	3105.9624
741.90948	3205.9624
742.52893	3093.9624
743.14148	3121.9624
743.75403	3128.9624
744.36658	3089.9624
744.97913	3153.9624
745.59167	3151.9624
746.20422	3155.9624
746.82373	3105.9624
747.43628	3067.9624
748.04883	3118.9624
748.66138	3097.9624
749.27393	3106.9624
749.88647	3099.9624
750.49902	3186.9624
751.11151	3150.9624
751.72406	3147.9624
752.33661	3189.9624
752.94916	3159.9624
753.56171	3108.9624
754.17426	3170.9624
754.7868	3167.9624
755.39935	3169.9624
756.0119	3217.9624
756.62445	3057.9624
757.237	3132.9624
757.84955	3173.9624
758.4621	3207.9624
759.07458	3237.9624
759.68713	3176.9624
760.29968	3173.9624
760.91223	3093.9624
761.52478	3162.9624
762.13733	3165.9624
762.74988	3223.9624
763.35547	3171.9624
763.96802	3209.9624
764.58057	3194.9624
765.19312	3169.9624
765.80566	3233.9624
766.41815	3231.9624
767.0307	3207.9624
767.63629	3265.9624
768.24884	3225.9624
768.86139	3236.9624
769.47394	3266.9624
770.08649	3166.9624
770.69208	3174.9624
771.30463	3209.9624
771.91718	3310.9624
772.52972	3257.9624
773.13531	3294.9624
773.7478	3260.9624
774.36035	3259.9624
774.9729	3223.9624
775.57849	3225.9624
776.19104	3292.9624
776.80359	3337.9624
777.41614	3278.9624
778.02173	3249.9624
778.63428	3260.9624
779.23987	3253.9624
779.85242	3271.9624
780.4649	3259.9624
781.0705	3300.9624
781.68304	3348.9624
782.29559	3226.9624
782.90118	3231.9624
783.51373	3308.9624
784.11932	3356.9624
784.73187	3358.9624
785.34442	3318.9624
785.95001	3410.9624
786.56256	3374.9624
787.16809	3278.9624
787.78064	3270.9624
788.38623	3285.9624
788.99878	3313.9624
789.60437	3281.9624
790.21692	3281.9624
790.82251	3306.9624
791.43506	3369.9624
792.04065	3252.9624
792.6532	3312.9624
793.25873	3315.9624
793.87128	3298.9624
794.47687	3339.9624
795.08942	3261.9624
795.69501	3323.9624
796.3006	3330.9624
796.91315	3331.9624
797.51874	3273.9624
798.13129	3268.9624
798.73682	3344.9624
799.34937	3388.9624
799.95496	3335.9624
800.56055	3287.9624
801.16614	3319.9624
801.77869	3362.9624
802.38428	3342.9624
802.99683	3293.9624
803.60242	3358.9624
804.20801	3382.9624
804.8205	3370.9624
805.42609	3274.9624
806.03168	3299.9624
806.63727	3357.9624
807.24982	3396.9624
807.85541	3391.9624
808.461	3391.9624
809.06659	3375.9624
809.67914	3363.9624
810.28467	3347.9624
810.89026	3413.9624
811.49585	3445.9624
812.10144	3417.9624
812.71399	3362.9624
813.31958	3391.9624
813.92517	3444.9624
814.53076	3466.9624
815.13629	3421.9624
815.74188	3484.9624
816.35443	3550.9624
816.96002	3514.9624
817.56561	3502.9624
818.1712	3549.9624
818.77679	3544.9624
819.38239	3572.9624
819.98798	3460.9624
820.59351	3522.9624
821.1991	3651.9624
821.80469	3646.9624
822.41724	3572.9624
823.01587	3604.9624
823.62842	3621.9624
824.22705	3689.9624
824.8396	3674.9624
825.43817	3641.9624
826.05072	3779.9624
826.64935	3727.9624
827.2619	3716.9624
827.86053	3741.9624
828.47308	3924.9624
829.07172	3812.9624
829.67731	3865.9624
830.2829	3865.9624
830.88843	3905.9624
831.49402	3898.9624
832.09961	3934.9624
832.7052	4007.9624
833.31079	3978.9624
833.91638	4045.9624
834.52197	4083.9624
835.12054	4081.9624
835.73309	3982.9624
836.33173	4156.9624
836.93732	4174.9624
837.54291	4239.9624
838.1485	4300.9624
838.75409	4281.9624
839.35968	4356.9624
839.95825	4316.9624
840.56384	4367.9624
841.16943	4393.9624
841.77502	4374.9624
842.37366	4500.9624
842.97925	4644.9624
843.58484	4626.9624
844.19043	4584.9624
844.789	4723.9624
845.39459	4784.9624
846.00018	4802.9624
846.59882	4845.9624
847.20441	4869.9624
847.81	4890.9624
848.41559	5040.9624
849.01416	5026.9624
849.61975	5051.9624
850.21838	5176.9624
850.82397	5225.9624
851.42957	5246.9624
852.03516	5343.9624
852.63379	5370.9624
853.23938	5405.9624
853.83795	5430.9624
854.44354	5461.9624
855.04913	5597.9624
855.64777	5576.9624
856.25336	5636.9624
856.85199	5772.9624
857.45758	5797.9624
858.05615	5767.9624
858.66174	5927.9624
859.26038	5975.9624
859.86597	5931.9624
860.47156	6112.9624
861.07019	6188.9624
861.67578	6214.9624
862.27435	6375.9624
862.87994	6346.9624
863.47858	6475.9624
864.08417	6460.9624
864.6828	6552.9624
865.28143	6631.9624
865.88702	6617.9624
866.4856	6731.9624
867.09119	6743.9624
867.68982	6856.9624
868.29541	6807.9624
868.89404	6944.9624
869.49268	6787.9624
870.09821	6951.9624
870.69684	6915.9624
871.29547	7100.9624
871.90106	7106.9624
872.49969	7120.9624
873.09833	7245.9624
873.70392	7210.9624
874.30249	7384.9624
874.90112	7464.9624
875.50671	7440.9624
876.10535	7529.9624
876.70398	7575.9624
877.30261	7568.9624
877.9082	7668.9624
878.50677	7650.9624
879.10541	7753.9624
879.711	7819.9624
880.30963	7823.9624
880.90826	7834.9624
881.5069	7966.9624
882.10547	8009.9624
882.71106	7952.9624
883.30969	7994.9624
883.90833	8053.9624
884.50696	8090.9624
885.10559	8204.9619
885.71112	8177.9624
886.30975	8213.9619
886.90839	8302.9619
887.50702	8249.9619
888.10565	8323.9619
888.70428	8290.9619
889.30286	8378.9619
889.90149	8493.9619
890.50012	8372.9619
891.10571	8477.9619
891.70435	8463.9619
892.30298	8506.9619
892.90161	8580.9619
893.50018	8528.9619
894.09882	8667.9619
894.69745	8488.9619
895.29608	8521.9619
895.89471	8605.9619
896.49335	8730.9619
897.09192	8531.9619
897.69055	8729.9619
898.28918	8626.9619
898.88782	8736.9619
899.48645	8710.9619
900.08508	8728.9619
900.68365	8791.9619
901.28229	8781.9619
901.88092	8748.9619
902.47955	8735.9619
903.07123	8781.9619
903.6698	8736.9619
904.26843	8717.9619
904.86707	8704.9619
905.4657	8794.9619
906.06433	8835.9619
906.66296	8654.9619
907.26154	8849.9619
907.85321	8663.9619
908.45184	8750.9619
909.05048	8761.9619
909.64911	8669.9619
910.24774	8629.9619
910.84631	8731.9619
911.43799	8690.9619
912.03662	8685.9619
912.63525	8601.9619
913.23389	8537.9619
913.83252	8519.9619
914.42413	8621.9619
915.02277	8459.9619
915.6214	8409.9619
916.21307	8385.9619
916.81171	8404.9619
917.41028	8279.9619
918.00891	8350.9619
918.60059	8389.9619
919.19922	8187.9624
919.79785	8366.9619
920.38953	8209.9619
920.9881	8157.9624
921.58673	8132.9624
922.17841	8165.9624
922.77704	8117.9624
923.36871	8096.9624
923.96729	7908.9624
924.56592	7974.9624
925.15759	7951.9624
925.75623	7919.9624
926.35486	7864.9624
926.94653	7835.9624
927.5451	7918.9624
928.13678	7807.9624
928.73541	7744.9624
929.32709	7835.9624
929.92572	7709.9624
930.51733	7711.9624
931.11597	7611.9624
931.70764	7572.9624
932.30627	7584.9624
932.89795	7436.9624
933.49658	7528.9624
934.0882	7407.9624
934.68683	7263.9624
935.2785	7308.9624
935.87714	7289.9624
936.46881	7222.9624
937.06738	7124.9624
937.65906	7127.9624
938.25769	7055.9624
938.84937	6946.9624
939.44104	7069.9624
940.03961	6893.9624
940.63129	6811.9624
941.22296	6858.9624
941.82159	6702.9624
942.41327	6763.9624
943.00488	6606.9624
943.60352	6715.9624
944.19519	6712.9624
944.78687	6563.9624
945.3855	6586.9624
945.97711	6520.9624
946.56879	6495.9624
947.16742	6547.9624
947.75909	6324.9624
948.35077	6200.9624
948.94934	6326.9624
949.54102	6295.9624
950.13269	6256.9624
950.72437	6043.9624
951.31604	6167.9624
951.91461	6001.9624
952.50629	6019.9624
953.09796	5963.9624
953.68964	5890.9624
954.28131	5919.9624
954.87988	5876.9624
955.47156	5813.9624
956.06323	5810.9624
956.65491	5783.9624
957.24658	5672.9624
957.84515	5678.9624
958.43683	5629.9624
959.0285	5599.9624
959.62018	5552.9624
960.21185	5540.9624
960.80347	5469.9624
961.39514	5497.9624
961.98682	5402.9624
962.57849	5460.9624
963.17017	5349.9624
963.76178	5261.9624
964.35345	5287.9624
964.95209	5135.9624
965.54376	5219.9624
966.12842	5197.9624
966.72009	5083.9624
967.31873	5100.4624
967.9104	5049.4624
968.50208	5003.4624
969.08673	4992.4624
969.67841	4999.7124
970.27704	4935.9624
970.86176	4877.2124
971.45343	4855.2124
972.04504	4772.9624
972.63672	4779.2124
973.22839	4766.4624
973.82007	4704.7124
974.41174	4787.2124
975.00336	4714.4624
975.59503	4589.4624
976.18671	4712.2124
976.77142	4575.9624
977.36304	4468.4624
977.95471	4486.4624
978.54639	4506.2124
979.13806	4432.4624
979.72974	4432.9624
980.31439	4323.7124
980.90607	4400.7124
981.49774	4306.4624
982.08942	4309.9624
982.68109	4283.9624
983.26575	4182.9624
983.85742	4214.2124
984.4491	4160.7124
985.04077	4169.2124
985.63239	4181.7124
986.2171	4124.9624
986.80878	4147.4624
987.40045	4049.2124
987.99213	4096.2124
988.57678	3946.9624
989.16846	3959.7124
989.75317	4004.9624
990.34485	3953.7124
990.93646	3842.2124
991.52814	3820.2124
992.11285	3853.7124
992.70453	3862.7124
993.28918	3793.4624
993.88086	3820.7124
994.47253	3781.7124
995.05725	3769.2124
995.64893	3777.7124
996.24054	3688.7124
996.82526	3711.4624
997.41693	3662.2124
998.00165	3653.7124
998.59326	3642.9624
999.17798	3517.9624
999.76965	3626.2124
1000.3544	3615.9624
1000.946	3541.9624
1001.5307	3511.2124
1002.1224	3514.2124
1002.7141	3456.7124
1003.2988	3453.7124
1003.8904	3449.9624
1004.4751	3460.4624
1005.0598	3424.7124
1005.6515	3380.9624
1006.2361	3333.9624
1006.8278	3375.7124
1007.4125	3286.7124
1008.0042	3325.4624
1008.5889	3286.9624
1009.1805	3303.4624
1009.7653	3260.9624
1010.35	3256.9624
1010.9416	3178.2124
1011.5263	3175.4624
1012.118	3191.9624
1012.7027	3144.2124
1013.2874	3151.7124
1013.879	3126.9624
1014.4637	3100.4624
1015.0485	3061.7124
1015.6332	3114.7124
1016.2248	3111.2124
1016.8095	3082.2124
1017.3942	3051.4624
1017.9859	3038.4624
1018.5706	2992.2124
1019.1553	3012.2124
1019.7469	2992.2124
1020.3317	2892.7124
1020.9163	2938.7124
1021.501	2922.2124
1022.0858	2895.4624
1022.6774	2897.4624
1023.2621	2869.7124
1023.8468	2829.2124
1024.4315	2788.2124
1025.0232	2859.4624
1025.6079	2833.9624
1026.1926	2779.9624
1026.7772	2785.9624
1027.3619	2782.4624
1027.9467	2734.2124
1028.5314	2704.7124
1029.1161	2688.4624
1029.7078	2670.4624
1030.2925	2684.4624
1030.8772	2704.9624
1031.4618	2622.4624
1032.0465	2598.9624
1032.6312	2588.4624
1033.2159	2630.9624
1033.8007	2582.2124
1034.3854	2542.9624
1034.9701	2537.4624
1035.5618	2533.2124
1036.1464	2497.2124
1036.7311	2482.9624
1037.3158	2461.7124
1037.8936	2426.9624
1038.4783	2416.7124
1039.063	2404.9624
1039.6477	2379.9624
1040.2324	2362.7124
1040.817	2332.9624
1041.4017	2327.7124
1041.9865	2318.4624
1042.5712	2332.2124
1043.1559	2273.7124
1043.7406	2254.2124
1044.3253	2233.2124
1044.91	2221.9624
1045.4946	2207.2124
1046.0793	2186.2124
1046.6571	2188.9624
1047.2418	2155.2124
1047.8265	2088.7124
1048.4113	2153.9624
1048.996	2109.9624
1049.5806	2081.7124
1050.1653	2078.7124
1050.743	2055.2124
1051.3278	2042.7123
1051.9125	2027.4623
1052.4972	2014.2123
1053.0819	2015.9623
1053.6597	1990.9623
1054.2443	1924.9623
1054.829	1911.2123
1055.4137	1913.9623
1055.9915	1894.7123
1056.5762	1924.9623
1057.1609	1861.2123
1057.7456	1878.2123
1058.3232	1839.7123
1058.908	1845.9623
1059.4927	1795.7123
1060.0704	1823.9623
1060.6552	1750.2123
1061.2399	1778.9623
1061.8176	1775.4623
1062.4023	1738.4623
1062.9869	1718.7123
1063.5647	1711.7123
1064.1494	1706.7123
1064.7341	1673.9623
1065.3119	1676.4623
1065.8966	1672.7123
1066.4813	1597.4623
1067.059	1606.9623
1067.6437	1612.2123
1068.2214	1597.4623
1068.8062	1582.2123
1069.3909	1544.2123
1069.9686	1523.9623
1070.5533	1550.2123
1071.131	1524.2123
1071.7157	1504.4623
1072.2935	1502.9623
1072.8712	1464.2123
1073.4559	1439.4623
1074.0337	1477.4623
1074.6184	1455.7123
1075.196	1435.7123
1075.7808	1407.7123
1076.3585	1423.9623
1076.9432	1399.4623
1077.521	1390.4623
1078.1057	1372.9623
1078.6835	1345.2123
1079.2682	1316.9623
1079.8458	1326.9623
1080.4236	1310.9623
1081.0083	1286.4623
1081.5861	1305.2123
1082.1708	1318.9623
1082.7485	1278.9623
1083.3263	1264.7123
1083.9109	1267.4623
1084.4886	1274.7123
1085.0664	1256.2123
1085.6511	1224.4623
1086.2289	1229.9623
1086.8066	1208.4623
1087.3844	1212.9623
1087.969	1234.4623
1088.5468	1202.7123
1089.1245	1165.4623
1089.7092	1204.2123
1090.287	1193.9623
1090.8647	1157.9623
1091.4425	1174.9623
1092.0271	1162.2123
1092.6049	1149.4623
1093.1826	1117.9623
1093.7604	1130.4623
1094.3451	1121.4623
1094.9229	1123.9623
1095.5006	1119.2123
1096.0782	1131.7123
1096.656	1115.4623
1097.2338	1060.7123
1097.8185	1085.7123
1098.3962	1060.7123
1098.974	1090.7123
1099.5516	1088.4623
1100.1294	1070.4623
1100.7072	1058.9623
1101.2849	1061.9623
1101.8627	1067.9623
1102.4474	1038.9623
1103.0251	1064.4623
1103.6028	1037.9623
1104.1805	1039.9623
1104.7583	1042.9623
1105.3361	1052.7123
1105.9138	1029.7123
1106.4916	1048.4623
1107.0693	1009.7123
1107.647	1011.9623
1108.2247	1023.7123
1108.8025	1017.9623
1109.3802	1006.4623
1109.958	1011.4623
1110.5358	989.46228
1111.1135	1031.9623
1111.6912	1010.7123
1112.2689	1008.7123
1112.8467	999.21228
1113.4244	989.96228
1113.9952	988.71228
1114.573	995.46228
1115.1506	988.96228
1115.7284	967.21228
1116.3062	988.21228
1116.8839	965.96228
1117.4617	975.46228
1118.0394	987.21228
1118.6172	987.21228
1119.1879	977.71228
1119.7656	954.96228
1120.3434	946.96228
1120.9211	954.96228
1121.4989	946.96228
1122.0767	982.71228
1122.6473	932.96228
1123.2251	979.21228
1123.8029	958.21228
1124.3806	953.21228
1124.9514	928.46228
1125.5292	937.71228
1126.1069	934.71228
1126.6846	927.71228
1127.2554	922.96228
1127.8331	951.21228
1128.4109	940.46228
1128.9886	915.46228
1129.5594	959.21228
1130.1371	956.21228
1130.7148	925.71228
1131.2926	922.71228
1131.8634	911.71228
1132.4412	910.96228
1133.0189	922.21228
1133.5896	915.96228
1134.1674	906.46228
1134.7382	908.46228
1135.3159	898.21228
1135.8937	894.21228
1136.4645	906.71228
1137.0422	921.71228
1137.6129	912.71228
1138.1907	914.46228
1138.7615	902.96228
1139.3392	892.96228
1139.917	917.46228
1140.4878	903.71228
1141.0654	907.21228
1141.6362	891.96228
1142.214	912.71228
1142.7848	893.71228
1143.3625	904.46228
1143.9333	904.71228
1143.9473	883.71228
1144.532	883.71228
1145.1166	866.71228
1145.6943	888.71228
1146.2791	877.71228
1146.8638	875.71228
1147.4415	887.71228
1148.0262	875.71228
1148.604	915.71228
1149.1886	862.71228
1149.7664	904.71228
1150.3511	886.71228
1150.9288	869.71228
1151.5135	887.71228
1152.0983	840.71228
1152.676	875.71228
1153.2606	877.71228
1153.8384	891.71228
1154.4231	847.71228
1155.0009	825.71228
1155.5856	899.71228
1156.1633	863.71228
1156.748	870.71228
1157.3257	881.71228
1157.9104	888.71228
1158.4882	879.71228
1159.0729	847.71228
1159.6506	890.71228
1160.2284	852.71228
1160.8131	842.71228
1161.3909	861.71228
1161.9755	828.71228
1162.5532	868.71228
1163.131	856.71228
1163.7157	854.71228
1164.2935	874.71228
1164.8712	828.71228
1165.4559	866.71228
1166.0336	855.71228
1166.6113	849.71228
1167.196	857.71228
1167.7738	852.71228
1168.3516	845.71228
1168.9363	832.71228
1169.514	814.71228
1170.0917	829.71228
1170.6694	800.71228
1171.2542	841.71228
1171.8319	840.71228
1172.4097	848.71228
1172.9944	838.71228
1173.5721	819.71228
1174.1498	828.71228
1174.7275	844.71228
1175.3123	840.71228
1175.89	833.71228
1176.4678	832.71228
1177.0455	811.71228
1177.6232	828.71228
1178.2079	826.71228
1178.7856	821.71228
1179.3634	840.71228
1179.9412	805.71228
1180.5189	818.71228
1181.0967	821.71228
1181.6743	811.71228
1182.2521	806.71228
1182.8368	803.71228
1183.4146	807.71228
1183.9923	849.71228
1184.5701	802.71228
1185.1478	816.71228
1185.7255	830.71228
1186.3032	821.71228
1186.881	842.71228
1187.4587	826.71228
1188.0365	787.71228
1188.6143	813.71228
1189.192	814.71228
1189.7697	788.71228
1190.3474	793.71228
1190.9252	822.71228
1191.5029	807.71228
1192.0807	803.71228
1192.6584	829.71228
1193.2361	827.71228
1193.8138	800.71228
1194.3916	826.71228
1194.9694	778.71228
1195.5471	783.71228
1196.1249	819.71228
1196.7026	802.71228
1197.2803	798.71228
1197.858	819.71228
1198.4358	798.71228
1199.0066	827.71228
1199.5844	826.71228
1200.1621	780.71228
1200.7399	808.71228
1201.3175	783.71228
1201.8953	835.71228
1202.4661	797.71228
1203.0438	793.71228
1203.6216	820.71228
1204.1993	794.71228
1204.777	798.71228
1205.3547	806.71228
1205.9255	777.71228
1206.5033	779.71228
1207.0811	784.71228
1207.6588	785.71228
1208.2295	794.71228
1208.8073	802.71228
1209.385	782.71228
1209.9628	813.71228
1210.5405	792.71228
1211.1113	768.71228
1211.6891	795.71228
1212.2667	776.71228
1212.8375	788.71228
1213.4153	768.71228
1213.993	804.71228
1214.5638	781.71228
1215.1416	779.71228
1215.7192	784.71228
1216.29	778.71228
1216.8678	794.71228
1217.4386	789.71228
1218.0164	782.71228
1218.5941	791.71228
1219.1649	791.71228
1219.7426	780.71228
1220.3203	794.71228
1220.8911	783.71228
1221.4689	773.71228
1222.0397	769.71228
1222.6174	762.71228
1223.1881	761.71228
1223.7659	774.71228
1224.3367	763.71228
1224.9144	777.71228
1225.4922	793.71228
1226.063	807.71228
1226.6406	766.71228
1227.2114	784.71228
1227.7892	778.71228
1228.36	777.71228
1228.9308	750.71228
1229.5085	771.71228
1230.0862	771.71228
1230.657	760.71228
1231.2278	780.71228
1231.8055	760.71228
1232.3763	796.71228
1232.9541	766.71228
1233.5248	768.71228
1234.0956	773.71228
1234.6733	760.71228
1235.2441	794.71228
1235.8149	780.71228
1236.3927	766.71228
1236.9635	778.71228
1237.5411	792.71228
1238.1119	744.71228
1238.6827	780.71228
1239.2605	765.71228
1239.8313	786.71228
1240.4021	776.71228
1240.9728	772.71228
1241.5505	787.71228
1242.1213	781.71228
1242.6921	766.71228
1243.2629	752.71228
1243.8407	777.71228
1244.4114	792.71228
1244.9822	755.71228
1245.5599	774.71228
1246.1307	755.71228
1246.7015	761.71228
1247.2723	754.71228
1247.843	779.71228
1248.4208	753.71228
1248.9916	758.71228
1249.5624	763.71228
1250.1332	764.71228
1250.704	752.71228
1251.2747	773.71228
1251.8524	754.71228
1252.4232	759.71228
1252.994	795.71228
1253.5648	760.71228
1254.1355	776.71228
1254.7063	768.71228
1255.2841	760.71228
1255.8549	774.71228
1256.4257	759.71228
1256.9965	758.71228
1257.5671	749.71228
1258.1379	775.71228
1258.7087	760.71228
1259.2795	767.71228
1259.8503	773.71228
1260.4211	774.71228
1260.9918	759.71228
1261.5626	749.71228
1262.1334	779.71228
1262.7042	758.71228
1263.275	765.71228
1263.8458	737.71228
1264.4165	765.71228
1264.9873	743.71228
1265.5581	767.71228
1266.1289	752.71228
1266.6997	745.71228
1267.2705	770.71228
1267.8412	740.71228
1268.412	774.71228
1268.9828	774.71228
1269.5466	771.71228
1270.1174	792.71228
1270.6881	756.71228
1271.2589	758.71228
1271.8297	751.71228
1272.4005	752.71228
1272.9713	753.71228
1273.5421	752.71228
1274.1058	773.71228
1274.6766	798.71228
1275.2474	757.71228
1275.8182	765.71228
1276.389	750.71228
1276.9598	746.71228
1277.5236	733.71228
1278.0944	761.71228
1278.6652	763.71228
1279.236	754.71228
1279.7998	745.71228
1280.3705	751.71228
1280.9413	760.71228
1281.5121	772.71228
1282.0759	757.71228
1282.6467	756.71228
1283.2175	796.71228
1283.7813	742.71228
1284.3521	729.71228
1284.9229	734.71228
1285.4937	791.71228
1286.0575	755.71228
1286.6283	757.71228
1287.199	765.71228
1287.7628	747.71228
1288.3336	766.71228
1288.8975	751.71228
1289.4683	764.71228
1290.0389	758.71228
1290.6028	785.71228
1291.1736	764.71228
1291.7444	757.71228
1292.3082	743.71228
1292.879	744.71228
1293.4427	766.71228
1294.0135	746.71228
1294.5774	742.71228
1295.1482	783.71228
1295.712	777.71228
1296.2827	764.71228
1296.8466	743.71228
1297.4174	771.71228
1297.9812	763.71228
1298.552	770.71228
1299.1228	730.71228
1299.6865	752.71228
1300.2573	756.71228
1300.8212	747.71228
1301.392	778.71228
1301.9558	767.71228
1302.5195	718.71228
1303.0903	757.71228
1303.6542	764.71228
1304.225	763.71228
1304.7888	747.71228
1305.3525	750.71228
1305.9233	743.71228
1306.4872	745.71228
1307.058	759.71228
1307.6218	747.71228
1308.1857	767.71228
1308.7563	750.71228
1309.3202	732.71228
1309.884	753.71228
1310.4548	754.71228
1311.0187	778.71228
1311.5824	751.71228
1312.1532	760.71228
1312.717	750.71228
1313.2809	740.71228
1313.8447	737.71228
1314.4155	750.71228
1314.9792	738.71228
1315.5431	761.71228
1316.1139	750.71228
1316.6777	750.71228
1317.2416	759.71228
1317.8053	758.71228
1318.3691	724.71228
1318.9399	747.71228
1319.5038	770.71228
1320.0676	793.71228
1320.6313	716.71228
1321.2021	751.71228
1321.766	776.71228
1322.3298	743.71228
1322.8937	760.71228
1323.4574	743.71228
1324.0212	761.71228
1324.592	757.71228
1325.1559	767.71228
1325.7197	740.71228
1326.2836	756.71228
1326.8473	767.71228
1327.4111	781.71228
1327.975	741.71228
1328.5388	753.71228
1329.1027	752.71228
1329.6733	778.71228
1330.2372	728.71228
1330.801	775.71228
1331.3649	756.71228
1331.9287	747.71228
1332.4924	747.71228
1333.0563	773.71228
1333.6201	728.71228
1334.184	756.71228
1334.7478	755.71228
1335.3115	763.71228
1335.8754	755.71228
1336.4392	737.71228
1337.0031	740.71228
1337.5669	745.71228
1338.1306	756.71228
1338.6945	747.71228
1339.2513	771.71228
1339.8152	706.71228
1340.379	738.71228
1340.9427	773.71228
1341.5066	761.71228
1342.0704	762.71228
1342.6343	756.71228
1343.1981	767.71228
1343.7618	747.71228
1344.3187	766.71228
1344.8826	770.71228
1345.4464	736.71228
1346.0103	751.71228
1346.574	735.71228
1347.1378	729.71228
1347.6947	736.71228
1348.2585	740.71228
1348.8224	771.71228
1349.3861	762.71228
1349.95	762.71228
1350.5068	743.71228
1351.0707	751.71228
1351.6345	749.71228
1352.1982	760.71228
1352.7551	756.71228
1353.319	759.71228
1353.8828	768.71228
1354.4467	765.71228
1355.0034	740.71228
1355.5673	741.71228
1356.1311	750.71228
1356.688	768.71228
1357.2518	755.71228
1357.8156	734.71228
1358.3724	755.71228
1358.9363	755.71228
1359.5001	764.71228
1360.057	769.71228
1360.6207	768.71228
1361.1846	756.71228
1361.7415	737.71228
1362.3053	752.71228
1362.8691	773.71228
1363.4259	755.71228
1363.9828	744.71228
1364.5466	752.71228
1365.1105	743.71228
1365.6674	747.71228
1366.2311	760.71228
1366.788	758.71228
1367.3518	768.71228
1367.9087	760.71228
1368.4725	739.71228
1369.0363	753.71228
1369.5931	734.71228
1370.15	726.71228
1370.7139	741.71228
1371.2777	760.71228
1371.8345	760.71228
1372.3983	755.71228
1372.9552	749.71228
1373.5121	745.71228
1374.0759	754.71228
1374.6327	752.71228
1375.1965	763.71228
1375.7534	778.71228
1376.3173	774.71228
1376.8741	734.71228
1377.4309	734.71228
1377.9948	750.71228
1378.5516	761.71228
1379.1155	757.71228
1379.6722	752.71228
1380.2291	747.71228
1380.786	746.71228
1381.3499	753.71228
1381.9067	724.71228
1382.4705	733.71228
1383.0273	743.71228
1383.5842	747.71228
1384.1481	769.71228
1384.705	754.71228
1385.2617	754.71228
1385.8186	774.71228
1386.3824	751.71228
1386.9393	732.71228
1387.4962	765.71228
1388.053	765.71228
1388.6168	750.71228
1389.1737	746.71228
1389.7306	745.71228
1390.2874	755.71228
1390.8512	728.71228
1391.4081	761.71228
1391.965	751.71228
1392.5219	756.71228
1393.0786	747.71228
1393.6425	743.71228
1394.1993	734.71228
1394.7562	738.71228
1395.3131	738.71228
1395.8699	773.71228
1396.4268	761.71228
1396.9906	762.71228
1397.5475	767.71228
1398.1042	730.71228
1398.6611	733.71228
1399.218	747.71228
1399.7888	740.71228
