14.826543	6672.083
15.501734	6756.083
16.176924	6858.083
16.852116	7146.083
17.527306	7363.083
18.202496	7562.083
18.884647	7683.083
19.559839	7914.083
20.235029	8050.083
20.910219	8406.083
21.585411	8661.083
22.260601	9131.083
22.942753	9269.083
23.617943	9977.083
24.293135	10235.083
24.968325	10436.083
25.643515	10617.083
26.318707	10785.083
26.993896	10745.083
27.669086	11039.083
28.351238	11395.083
29.02643	11742.083
29.70162	11919.083
30.37681	12283.083
31.052002	12677.083
31.727192	13009.083
32.402382	13313.083
33.077572	13824.083
33.752766	14316.083
34.427956	14435.083
35.103146	14667.083
35.778336	14923.083
36.453526	14990.083
37.121758	15105.083
37.796947	15195.083
38.472137	15525.083
39.147327	15941.083
39.822521	16269.083
40.497711	16453.082
41.172901	16704.082
41.848091	17006.082
42.523281	16939.082
43.198471	16881.082
43.873665	17049.082
44.541893	17343.082
45.217083	17611.082
45.892277	18041.082
46.567467	17993.082
47.242657	17998.082
47.910885	18013.082
48.586079	18177.082
49.261269	18351.082
49.936459	18492.082
50.611649	18325.082
51.279881	18246.082
51.95507	18625.082
52.63026	18502.082
53.30545	18536.082
53.973682	18521.082
54.648872	18706.082
55.317101	19061.082
55.99229	19087.082
56.667484	19150.082
57.342674	19212.582
58.010902	19275.582
58.686092	19275.582
59.361286	19276.082
60.029514	19223.082
60.704704	19008.082
61.372936	19155.082
62.048126	18923.082
62.716354	19019.082
63.391548	19168.082
64.066734	19345.082
64.73497	19431.082
65.410156	19379.082
66.078384	19551.082
66.753578	19246.082
67.428772	19459.082
68.097	19753.082
68.772186	19528.082
69.440422	19754.082
70.10865	19897.082
70.783844	19546.082
71.452072	19669.082
72.127258	19559.082
72.795494	19806.082
73.47068	19791.082
74.138908	19913.082
74.814102	19484.082
75.48233	19557.082
76.150566	19449.082
76.825752	19454.082
77.49398	19335.082
78.169174	19545.082
78.837402	19500.082
79.50563	19562.082
80.173866	19725.082
80.849052	20019.082
81.517281	19669.082
82.185516	19711.082
82.860703	19431.082
83.528938	19283.082
84.197166	19325.082
84.872353	19163.082
85.540588	18995.082
86.208817	19387.082
86.877045	19369.082
87.552238	19449.082
88.220467	19697.082
88.888695	19625.082
89.556923	19691.082
90.225159	19588.082
90.900345	19505.082
91.568573	19365.082
92.236809	19503.082
92.905037	19315.082
93.573265	19262.082
94.241493	19199.082
94.909729	19160.082
95.584915	19321.082
96.253143	19290.082
96.921379	19195.082
97.589607	19293.082
98.257835	19041.082
98.926064	19083.082
99.594299	19023.082
100.26253	18956.082
100.93076	19041.082
101.59898	18993.082
102.26722	19355.082
102.93545	19203.082
103.60368	19361.082
104.2719	19471.082
104.94014	19369.082
105.60837	19193.082
106.2766	19001.082
106.94482	18724.082
107.61305	18641.082
108.28129	18846.082
108.94952	18973.082
109.61774	18961.082
110.28597	19024.082
110.95421	19024.082
111.62244	18858.082
112.28371	18685.082
112.95193	18747.082
113.62016	18869.082
114.28839	18629.082
114.95663	18472.082
115.62486	18635.082
116.29308	18623.082
116.95435	18514.082
117.62258	18428.082
118.29082	18341.082
118.95905	18590.082
119.62727	18517.082
120.28854	18532.082
120.95677	18711.082
121.625	18614.082
122.29324	18352.082
122.9545	18225.082
123.62273	18376.082
124.29096	18176.082
124.95919	18297.082
125.62046	18131.082
126.28869	18204.082
126.95692	18169.082
127.61819	18323.082
128.28642	18361.082
128.95465	18149.082
129.61592	18086.082
130.28415	18077.082
130.94542	18133.082
131.61365	17955.082
132.28188	17846.082
132.94315	17961.082
133.61137	17695.082
134.27264	17875.082
134.94087	17792.082
135.60214	18025.082
136.27037	17822.082
136.93164	17901.082
137.59987	17787.082
138.26114	17821.082
138.92937	17838.082
139.59064	17629.082
140.25888	17547.082
140.92014	17678.082
141.58838	17649.082
142.24965	17596.082
142.91788	17534.082
143.57915	17575.082
144.24738	17513.082
144.90865	17549.082
145.56992	17593.082
146.23814	17294.082
146.89941	17273.082
147.56764	17311.082
148.22891	17295.082
148.89018	17328.082
149.55841	17191.082
150.21968	17368.082
150.88095	17233.082
151.54918	17327.082
152.21045	17251.082
152.87172	17219.082
153.53995	17398.082
154.20122	17044.082
154.86249	17085.082
155.52376	16990.082
156.19199	17225.082
156.85326	17065.082
157.51453	16982.082
158.1758	16978.082
158.84402	17036.082
159.50529	16968.082
160.16656	16905.082
160.82782	17085.082
161.48909	16842.082
162.15733	16868.082
162.81859	16942.082
163.47986	16648.082
164.14113	16859.082
164.8024	16542.082
165.46367	16757.082
166.12494	16599.082
166.78621	16612.082
167.45444	16633.082
168.11571	16682.082
168.77698	16743.082
169.43825	16627.082
170.09952	16462.082
170.76079	16576.082
171.42206	16607.082
172.08333	16804.082
172.7446	16525.082
173.40587	16570.082
174.06714	16738.082
174.72841	16565.082
175.38966	16481.082
176.05093	16529.082
176.7122	16386.082
177.37347	16532.082
178.03474	16263.083
178.68906	16497.082
179.35033	16515.082
180.0116	16387.082
180.67287	16463.082
181.33414	16435.082
181.99541	16500.082
182.65668	16535.082
183.31795	16393.082
183.97922	16377.083
184.64047	16185.083
185.30174	16321.083
185.95605	16370.083
186.61732	16337.083
187.27859	16278.083
187.93987	16255.083
188.60114	16189.083
189.25545	16414.082
189.91672	16273.083
190.57799	16339.083
191.23926	16553.082
191.89355	16251.083
192.55482	16249.083
193.21609	16187.083
193.87041	16249.083
194.53168	16096.083
195.19295	16279.083
195.84726	16286.083
196.50851	16439.082
197.16978	16342.083
197.8241	16177.083
198.48537	16122.083
199.14664	16209.083
199.80095	16224.083
200.46222	16228.083
201.12349	16182.083
201.77779	16251.083
202.43906	16432.082
203.10033	16335.083
203.75464	16075.083
204.41591	16192.083
205.07022	16229.083
205.73149	16332.083
206.3858	16173.083
207.04706	16170.083
207.70137	16262.083
208.36264	16284.083
209.01695	16196.083
209.67822	16275.083
210.33253	16157.083
210.9938	16378.083
211.6481	16210.083
212.30937	16237.083
212.96368	16314.083
213.618	16332.083
214.27927	16356.083
214.93356	16199.083
215.59483	16319.083
216.24915	16477.082
216.91042	16244.083
217.56473	16267.083
218.21904	16183.083
218.88031	16493.082
219.53461	16256.083
220.18892	16226.083
220.85019	16425.082
221.5045	16538.082
222.15881	16371.083
222.82008	16331.083
223.47438	16326.083
224.12869	16306.083
224.783	16304.083
225.44427	16450.082
226.09859	16411.082
226.75288	16479.082
227.41415	16349.083
228.06847	16407.082
228.72278	16428.082
229.37708	16422.082
230.03139	16452.082
230.69266	16469.082
231.34697	16619.082
232.00128	16545.082
232.65558	16415.082
233.30989	16412.082
233.9642	16623.082
234.61852	16691.082
235.27979	16512.082
235.93408	16451.082
236.58839	16654.082
237.24271	16530.082
237.89702	16613.082
238.55133	16450.082
239.20563	16651.082
239.85994	16674.082
240.51425	16715.082
241.16856	16721.082
241.82286	16647.082
242.47717	16664.082
243.13148	16596.082
243.7858	16687.082
244.44009	16682.082
245.09441	17033.082
245.74872	16989.082
246.40303	16740.082
247.05733	16821.082
247.71164	16873.082
248.36595	16777.082
249.02026	16862.082
249.67456	16957.082
250.32887	16839.082
250.98318	16950.082
251.6375	17081.082
252.29181	16969.082
252.94611	16973.082
253.59346	17026.082
254.24777	16965.082
254.90207	17030.082
255.55638	17125.082
256.21069	17185.082
256.85803	17092.082
257.51236	17177.082
258.16666	17350.082
258.82095	17018.082
259.47528	17203.082
260.12958	17045.082
260.77692	17165.082
261.43124	17249.082
262.08554	17102.082
262.73288	17415.082
263.38721	17621.082
264.0415	17329.082
264.69583	17429.082
265.34317	17209.082
265.99747	17398.082
266.64484	17472.082
267.29913	17590.082
267.95343	17516.082
268.60776	17617.082
269.2551	17507.082
269.90939	17533.082
270.56372	17611.082
271.21106	17582.082
271.86536	17587.082
272.51273	17704.082
273.16702	17529.082
273.81436	17581.082
274.46869	17753.082
275.11603	17637.082
275.77032	17812.082
276.42465	17794.082
277.07199	17895.082
277.72632	17767.082
278.37366	17762.082
279.02795	17875.082
279.67529	18215.082
280.32962	17931.082
280.97696	18121.082
281.63129	17956.082
282.27863	17950.082
282.92596	18132.082
283.58029	18011.082
284.22763	18098.082
284.88193	18060.082
285.52927	18051.082
286.18359	18014.082
286.83093	18145.082
287.47827	18364.082
288.1326	18314.082
288.77994	18284.082
289.42728	18268.082
290.0816	18421.082
290.72894	18305.082
291.37628	18277.082
292.03061	18294.082
292.67795	18403.082
293.32529	18420.082
293.97266	18599.082
294.62695	18537.082
295.27429	18573.082
295.92166	18556.082
296.57596	18507.082
297.2233	18619.082
297.87067	18470.082
298.51801	18657.082
299.1723	18633.082
299.81967	18610.082
300.46701	18666.082
301.11435	18839.082
301.76169	18776.082
302.40906	18828.082
303.06335	18723.082
303.71069	18729.082
304.35806	19065.082
305.0054	18709.082
305.65274	18881.082
306.30011	18903.082
306.94745	19049.082
307.59479	19020.082
308.24908	18883.082
308.89645	19163.082
309.54379	19169.082
310.19113	19367.082
310.8385	19198.082
311.48584	19221.082
312.13318	19180.082
312.78055	19235.082
313.42789	19180.082
314.07523	19401.082
314.72256	19268.082
315.36993	19309.082
316.01727	19283.082
316.66461	19182.082
317.31198	19429.082
317.95932	19387.082
318.5997	19343.082
319.24704	19483.082
319.89441	19451.082
320.54175	19381.082
321.18909	19351.082
321.83646	19516.082
322.4838	19741.082
323.13113	19654.082
323.77847	19601.082
324.42584	19798.082
325.06622	19746.082
325.71356	19572.082
326.3609	19739.082
327.00827	19864.082
327.65561	19682.082
328.29599	19836.082
328.94336	19509.082
329.5907	20041.082
330.23804	19841.082
330.88538	19891.082
331.52579	19839.082
332.17313	19922.082
332.82047	19955.082
333.46085	20199.082
334.10822	20071.082
334.75555	20009.082
335.39594	19994.082
336.04327	20287.082
336.69064	20203.082
337.33102	20209.082
337.97836	20201.082
338.62573	20350.082
339.27307	20262.082
339.91345	20313.082
340.56079	20306.082
341.2012	20697.082
341.84854	20643.082
342.49588	20418.082
343.13626	20449.082
343.78363	20512.082
344.42401	20541.082
345.07135	20667.082
345.71173	20519.082
346.3591	20641.082
346.99948	20617.082
347.64682	20630.082
348.29416	20585.082
348.93457	20781.082
349.58191	20761.082
350.22229	20941.082
350.86267	20905.082
351.51004	20736.082
352.15042	20894.082
352.79776	20910.082
353.43814	20881.082
354.07852	21008.082
354.72589	20813.082
355.36627	21209.082
356.01361	20958.082
356.65399	20985.082
357.30136	21353.082
357.94174	21102.082
358.58212	21297.082
359.22946	21289.082
359.86987	21329.082
360.51025	21418.082
361.15759	21230.082
361.79797	21216.082
362.43839	21481.082
363.07877	21483.082
363.7261	21542.082
364.36649	21490.082
365.00687	21536.082
365.65424	21567.082
366.29462	21576.082
366.935	21509.082
367.58234	21659.082
368.22275	21632.082
368.86313	21742.082
369.50351	21574.082
370.14389	21435.082
370.78427	21613.082
371.43164	21859.082
372.07202	21749.082
372.7124	21859.082
373.35278	21798.082
373.99319	21853.082
374.63358	22017.082
375.27396	22107.082
375.9213	22017.082
376.56168	22144.082
377.20209	22361.082
377.84247	21967.082
378.48285	22197.082
379.12323	22170.082
379.76361	22125.082
380.40402	22375.082
381.0444	22353.082
381.68478	22374.082
382.32516	22231.082
382.96555	22371.082
383.60596	22207.082
384.24634	22562.082
384.88672	22406.082
385.5271	22354.082
386.16751	22380.082
386.80789	22393.082
387.44827	22763.082
388.08865	22566.082
388.72903	22404.082
389.36945	22557.082
390.00983	22780.082
390.65021	22869.082
391.28363	22591.082
391.92401	22707.082
392.56439	22830.082
393.2048	22977.082
393.84518	22849.082
394.48557	22948.082
395.11899	23014.082
395.75937	22973.082
396.39978	23030.082
397.04016	23198.082
397.68054	23057.082
398.32092	23075.082
398.9613	23378.082
399.59473	23215.082
400.23514	23309.082
400.87552	23341.082
401.50894	23489.082
402.14932	23305.082
402.7897	23246.082
403.43011	23518.082
404.06354	23574.082
404.70392	23673.082
405.3443	23704.082
405.97772	23725.082
406.6181	23850.082
407.25851	23754.082
407.89194	23815.082
408.53232	23948.082
409.1727	23822.082
409.80612	23872.082
410.4465	24205.082
411.08691	24125.082
411.72034	24058.082
412.36072	24307.082
412.99414	24486.082
413.63452	24457.082
414.26794	24486.082
414.90836	24578.082
415.54178	24335.082
416.18216	24633.082
416.81558	24601.082
417.45596	24714.082
418.08939	24727.082
418.7298	24872.082
419.36322	25025.082
420.0036	24837.082
420.63702	25019.082
421.2774	24945.082
421.91083	25202.082
422.55124	25196.082
423.18466	25011.082
423.82504	25329.082
424.45847	25190.082
425.09885	25337.082
425.73227	25466.082
426.36569	25585.082
427.0061	25609.082
427.63953	25615.082
428.27295	25786.082
428.91333	25737.082
429.54675	25882.082
430.18018	25913.082
430.82056	26091.082
431.45401	26189.582
432.08743	26189.582
432.72781	26127.082
433.36124	26315.582
433.99466	26196.582
434.62808	26413.082
435.26846	26505.082
435.90192	26349.082
436.53534	26491.082
437.16876	26461.082
437.80914	26429.082
438.44257	26607.082
439.07599	26994.082
439.70941	26925.582
440.34982	26857.082
440.98325	26771.082
441.61667	26897.082
442.25009	26925.082
442.88351	26937.082
443.51694	26937.082
444.15732	27199.082
444.79074	27302.082
445.42419	27369.082
446.05762	27251.082
446.69104	27235.082
447.32446	27542.082
447.95789	27606.082
448.59131	27490.082
449.22473	27506.082
449.85815	27488.082
450.49158	27599.082
451.12503	27614.082
451.75845	27577.082
452.39188	27964.082
453.0253	27827.082
453.65872	27781.082
454.29214	27971.082
454.92557	27770.082
455.55899	27808.082
456.19241	27976.082
456.82587	28043.082
457.45929	28113.082
458.09271	27823.082
458.72614	28207.082
459.35956	27814.082
459.99298	28009.082
460.6264	28000.082
461.25287	27946.082
461.88629	28058.082
462.51971	27899.082
463.15317	28163.082
463.78659	28129.082
464.42001	28201.082
465.05344	28185.082
465.6799	28013.082
466.31332	27993.082
466.94675	27865.082
467.58017	27887.082
468.21359	27978.082
468.84006	27997.082
469.47351	27989.082
470.10693	28005.082
470.74036	28196.082
471.36682	28005.082
472.00024	27961.082
472.63367	28069.082
473.26709	27980.082
473.89355	28133.082
474.52698	27776.082
475.1604	28020.082
475.78687	28238.082
476.42032	28119.082
477.05374	28000.082
477.68021	27881.082
478.31363	28064.082
478.94705	27977.082
479.57352	27881.082
480.20694	27885.082
480.84036	27905.082
481.46683	28064.082
482.10025	27877.082
482.72672	27907.082
483.36014	27895.082
483.9866	27847.082
484.62006	27659.082
485.24652	28041.082
485.87994	27894.082
486.51337	27696.082
487.13983	27485.082
487.77325	27406.082
488.39972	27890.082
489.03314	27696.082
489.65961	27525.082
490.28607	27559.082
490.91949	27321.082
491.54596	27393.082
492.17938	27257.082
492.80585	27187.082
493.4393	26790.082
494.06577	26941.082
494.69223	27086.082
495.32565	26620.082
495.95212	26697.082
496.57858	26553.082
497.21201	26269.082
497.83847	26177.082
498.47189	26160.082
499.09836	25843.082
499.72482	26043.082
500.35825	25615.082
500.98471	25280.082
501.61118	25388.082
502.2446	25355.082
502.87106	24935.082
503.49753	25014.082
504.12399	24777.082
504.75742	24617.082
505.38391	24502.082
506.01038	24233.082
506.63684	23993.082
507.27026	23778.082
507.89673	23601.082
508.52319	23535.082
509.14966	23207.082
509.78308	23099.082
510.40955	22918.082
511.03601	22695.082
511.66248	22521.082
512.28894	22488.082
512.91541	22041.082
513.54883	22009.082
514.17529	21572.082
514.80176	21641.082
515.42822	21337.082
516.05469	20958.082
516.68115	20665.082
517.30762	20623.082
517.93408	20409.082
518.56055	20251.082
519.18701	20325.082
519.81348	20049.082
520.43994	19750.082
521.06641	19633.082
521.69287	19543.082
522.31934	19249.082
522.9458	18967.082
523.57227	19051.082
524.19873	18709.082
524.8252	18563.082
525.45166	18299.082
526.07813	18189.082
526.70459	18200.082
527.33105	17961.582
527.95752	17828.582
528.58398	17582.082
529.21045	17299.082
529.83691	17404.082
530.46338	16912.582
531.08289	16971.582
531.70935	16843.582
532.33582	16611.582
532.96228	16545.082
533.58875	16376.583
534.21521	16371.583
534.84167	16302.083
535.46118	16027.083
536.08765	15896.583
536.71411	15647.583
537.34058	15683.583
537.96704	15483.583
538.59351	15379.583
539.21301	15376.583
539.83948	15376.583
540.46594	15107.583
541.08545	15096.083
541.71191	14870.083
542.33838	14927.583
542.95789	14719.583
543.58435	14801.083
544.21082	14550.083
544.83728	14462.583
545.45679	14348.583
546.08325	14292.083
546.70972	14102.083
547.32922	14118.083
547.95569	13969.583
548.58215	14036.083
549.20166	13850.083
549.82813	13851.583
550.44763	13654.083
551.0741	13611.083
551.6936	13504.583
552.32007	13509.083
552.94653	13393.583
553.56604	13475.583
554.1925	13191.083
554.81201	13267.083
555.43848	13181.083
556.05798	13188.083
556.68445	13149.583
557.30396	13040.583
557.93042	13149.583
558.54993	12964.583
559.17639	13162.083
559.7959	13005.083
560.42236	12788.583
561.04187	12944.583
561.66833	12839.583
562.28784	12976.583
562.91431	12789.583
563.53381	12735.583
564.15332	12767.583
564.77979	12843.583
565.39929	12624.583
566.0188	12697.583
566.64526	12744.583
567.26477	12557.583
567.89124	12639.083
568.51074	12530.083
569.13025	12621.583
569.75671	12511.083
570.37622	12499.583
570.99573	12442.583
571.61523	12465.083
572.2417	12426.583
572.86121	12471.583
573.48071	12307.083
574.10718	12331.083
574.72668	12238.583
575.34619	12249.583
575.9657	12158.083
576.58521	12142.583
577.21167	12094.083
577.83118	12041.083
578.45068	12037.083
579.07019	12008.583
579.69666	11972.583
580.31616	11946.083
580.93567	11871.083
581.55518	11765.083
582.17468	11823.083
582.79419	11763.583
583.41364	11734.583
584.0401	11738.583
584.65961	11643.583
585.27911	11646.083
585.89862	11666.083
586.51813	11570.083
587.13763	11571.083
587.75714	11468.583
588.37665	11454.083
588.99615	11435.583
589.61566	11803.083
590.23517	11615.583
590.85468	11290.583
591.47418	11195.083
592.09369	11215.583
592.7132	11047.083
593.3327	11130.583
593.95221	11023.583
594.57172	10952.083
595.19122	10835.583
595.81073	10791.083
596.43024	10742.083
597.04974	10730.583
597.66925	10673.583
598.28876	10506.583
598.90826	10580.583
599.52777	10470.583
600.14032	10422.583
600.75983	10358.083
601.37933	10303.083
601.99884	10187.083
602.61829	10162.083
603.23779	10091.583
603.8573	10038.583
604.46985	9952.583
605.08936	9924.083
605.70886	9791.583
606.32837	9636.083
606.94788	9593.083
607.56042	9574.583
608.17993	9498.583
608.79944	9402.083
609.41895	9256.083
610.03845	9295.083
610.651	9156.083
611.27051	9102.083
611.89001	8962.083
612.50256	9009.083
613.12207	8916.083
613.74158	8717.083
614.35413	8684.583
614.97363	8671.583
615.59314	8594.083
616.20563	8625.583
616.82513	8527.083
617.44464	8431.583
618.05719	8332.583
618.6767	8266.083
619.2962	8238.083
619.90875	8247.083
620.52826	8187.083
621.14081	8056.583
621.76031	7987.583
622.37286	7984.083
622.99237	7949.083
623.61188	7789.583
624.22443	7925.583
624.84393	7721.583
625.45648	7685.583
626.07599	7629.583
626.68854	7605.083
627.30804	7638.083
627.92059	7558.583
628.54004	7530.583
629.15259	7545.583
629.77209	7380.583
630.38464	7473.083
630.99719	7389.583
631.6167	7336.083
632.22925	7280.583
632.84875	7182.083
633.4613	7135.583
634.07385	7122.083
634.69336	7318.583
635.30591	7254.083
635.92542	7167.083
636.53796	7108.083
637.15051	7224.083
637.77002	7140.083
638.38257	6858.583
639.00201	6806.583
639.61456	6773.583
640.22711	6760.083
640.83966	6746.083
641.45917	6682.083
642.07172	6751.583
642.68427	6610.083
643.29681	6611.083
643.91632	6622.083
644.52887	6581.083
645.14142	6582.083
645.75397	6652.583
646.37347	6554.083
646.98602	6452.083
647.59857	6487.083
648.21106	6443.583
648.82361	6452.083
649.44312	6337.583
650.05566	6329.583
650.66821	6387.583
651.28076	6237.083
651.89331	6312.583
652.28314	6264.583
652.90265	6321.583
653.52911	6277.583
654.14856	6330.583
654.77502	6264.583
655.39453	6156.583
656.01404	6250.583
656.6405	6150.583
657.26001	6099.583
657.88647	6172.583
658.50598	6057.583
659.12549	6068.583
659.75195	6019.583
660.37146	6066.583
660.99097	6020.583
661.61743	6078.583
662.23694	5991.583
662.85645	5992.583
663.48291	5914.583
664.10242	5970.583
664.72192	5971.583
665.34143	6007.583
665.96094	5828.583
666.5874	5781.583
667.20691	5910.583
667.82642	5824.583
668.44592	5834.583
669.07239	5855.583
669.69189	5836.583
670.3114	5816.583
670.93091	5854.583
671.55042	5735.583
672.17688	5744.583
672.79639	5774.583
673.41589	5789.583
674.0354	5756.583
674.65491	5712.583
675.27441	5731.583
675.89392	5695.583
676.52039	5697.583
677.13989	5692.583
677.7594	5664.583
678.37891	5728.583
678.99841	5649.583
679.61792	5736.583
680.23743	5617.583
680.85693	5613.583
681.47638	5688.583
682.09589	5653.583
682.71539	5576.583
683.3349	5553.583
683.95441	5628.583
684.57391	5675.583
685.19342	5573.583
685.81293	5586.583
686.43243	5564.583
687.05194	5546.583
687.67145	5491.583
688.29095	5582.583
688.91046	5572.583
689.52997	5526.583
690.14948	5521.583
690.76202	5526.583
691.38849	5446.583
692.00104	5484.583
692.62054	5483.583
693.24005	5406.583
693.85956	5444.583
694.47906	5444.583
695.09857	5423.583
695.71112	5427.583
696.33063	5406.583
696.95013	5480.583
697.56964	5463.583
698.18915	5328.583
698.80865	5425.583
699.42114	5451.583
700.04065	5380.583
700.66016	5398.583
701.27271	5454.583
701.89221	5490.583
702.51172	5404.583
703.13123	5346.583
703.75073	5398.583
704.36328	5372.583
704.98279	5374.583
705.60229	5322.583
706.21484	5361.583
706.83435	5372.583
707.45386	5388.583
708.06641	5206.583
708.68591	5342.583
709.30542	5297.583
709.91797	5384.583
710.53748	5279.583
711.15698	5289.583
711.76953	5343.583
712.38898	5325.583
713.00153	5235.583
713.62103	5351.583
714.24054	5271.583
714.85309	5232.583
715.4726	5287.583
716.08514	5238.583
716.70465	5244.583
717.3172	5198.583
717.93671	5274.583
718.54926	5225.583
719.16876	5293.583
719.78131	5262.583
720.40082	5149.583
721.01337	5227.583
721.63287	5256.583
722.24542	5295.583
722.86493	5277.583
723.47742	5168.583
724.08997	5217.583
724.70947	5201.583
725.32202	5301.583
725.94153	5185.583
726.55408	5198.583
727.16663	5294.583
727.78613	5174.583
728.39868	5134.583
729.01819	5215.583
729.63074	5227.583
730.24329	5227.583
730.86279	5186.583
731.47534	5274.583
732.08789	5148.583
732.7074	5262.583
733.31995	5172.583
733.93243	5284.583
734.55194	5235.583
735.16449	5272.583
735.77704	5143.583
736.38959	5219.583
737.00909	5173.583
737.62164	5261.583
738.23419	5272.583
738.84674	5197.583
739.46625	5230.583
740.0788	5196.583
740.69135	5173.583
741.30389	5210.583
741.91644	5255.583
742.53595	5252.583
743.14844	5216.583
743.76099	5180.583
744.37354	5291.583
744.98608	5254.583
745.59863	5233.583
746.21118	5210.583
746.83069	5285.583
747.44324	5169.583
748.05579	5256.583
748.66833	5183.583
749.28088	5220.583
749.89343	5300.583
750.50598	5284.583
751.11853	5283.583
751.73102	5229.583
752.34357	5287.583
752.95612	5246.583
753.56866	5308.583
754.18121	5326.583
754.79376	5375.583
755.40631	5345.583
756.01886	5272.583
756.63141	5388.583
757.24396	5341.583
757.85651	5350.583
758.46906	5313.583
759.0816	5293.583
759.69409	5421.583
760.30664	5377.583
760.91919	5396.583
761.53174	5354.583
762.14429	5416.583
762.75684	5380.583
763.36243	5436.583
763.97498	5464.583
764.58752	5584.583
765.20007	5447.583
765.81262	5544.583
766.42517	5354.583
767.03766	5471.583
767.64325	5540.583
768.2558	5562.583
768.86835	5608.583
769.4809	5521.583
770.09344	5515.583
770.69904	5603.583
771.31158	5723.583
771.92413	5550.583
772.53668	5595.583
773.14227	5737.583
773.75476	5732.583
774.36731	5660.583
774.97986	5620.583
775.58545	5785.583
776.198	5745.583
776.81055	5683.583
777.4231	5730.583
778.02869	5725.583
778.64124	5763.583
779.24683	5833.583
779.85938	5694.583
780.47186	5769.583
781.07745	5668.583
781.69	5764.583
782.30255	5828.583
782.90814	5768.583
783.52069	5811.583
784.12628	5788.583
784.73883	5874.583
785.35138	5765.583
785.95697	5832.583
786.56952	5888.583
787.17505	5814.583
787.7876	5875.583
788.39319	5828.583
789.00574	5897.583
789.61133	5788.583
790.22388	5895.583
790.82947	5726.583
791.44202	5917.583
792.04761	5787.583
792.66016	5934.583
793.26569	5833.583
793.87823	5868.583
794.48383	5820.583
795.09637	5888.583
795.70197	5828.583
796.30756	5898.583
796.9201	5852.583
797.5257	5863.583
798.13824	5791.583
798.74384	5772.583
799.35632	5851.583
799.96191	5759.583
800.5675	5758.583
801.1731	5788.583
801.78564	5732.583
802.39124	5721.583
803.00378	5702.583
803.60938	5716.583
804.21497	5770.583
804.82745	5756.583
805.43304	5877.583
806.03864	5766.583
806.64423	5598.583
807.25677	5703.583
807.86237	5582.583
808.46796	5568.583
809.07355	5665.583
809.6861	5682.583
810.29163	5581.583
810.89722	5498.583
811.50281	5546.583
812.1084	5542.583
812.72095	5554.583
813.32654	5463.583
813.93213	5411.583
814.53772	5453.583
815.14331	5377.583
815.74884	5377.583
816.36139	5327.583
816.96698	5425.583
817.57257	5301.583
818.17816	5279.583
818.78375	5210.583
819.38934	5241.583
819.99493	5270.583
820.60046	5192.583
821.20605	5132.583
821.81165	5118.583
822.42419	5128.583
823.02283	5113.583
823.63538	5001.583
824.23401	5009.583
824.84656	4917.583
825.44519	4939.583
826.05768	4911.583
826.65631	4875.583
827.26886	4915.583
827.86749	4832.583
828.48004	4758.583
829.07867	4771.583
829.68427	4685.583
830.28986	4694.583
830.89539	4679.583
831.50098	4616.583
832.10657	4552.583
832.71216	4517.583
833.31775	4492.583
833.92334	4499.583
834.52893	4382.583
835.12756	4307.583
835.74005	4310.583
836.33868	4281.583
836.94427	4286.583
837.54987	4234.583
838.15546	4222.583
838.76105	4135.583
839.36664	4148.583
839.96527	3976.583
840.5708	3993.583
841.17639	4016.583
841.78198	4010.583
842.38062	3904.583
842.98621	3827.583
843.5918	3852.583
844.19739	3804.583
844.79596	3779.583
845.40155	3710.583
846.00714	3718.583
846.60577	3698.583
847.21136	3677.583
847.81696	3628.583
848.42255	3615.583
849.02118	3583.583
849.62671	3527.583
850.22534	3569.583
850.83093	3512.583
851.43652	3470.583
852.04211	3474.583
852.64075	3380.583
853.24634	3357.583
853.84491	3344.583
854.4505	3305.583
855.05609	3413.583
855.65472	3294.583
856.26031	3312.583
856.85895	3286.583
857.46454	3335.583
858.06311	3286.583
858.6687	3265.583
859.26733	3357.583
859.87292	3288.583
860.47852	3252.583
861.07715	3254.583
861.68274	3268.583
862.28131	3219.583
862.8869	3217.583
863.48553	3231.583
864.09113	3236.583
864.68976	3200.583
865.28839	3229.583
865.89398	3262.583
866.49255	3203.583
867.09814	3288.583
867.69678	3258.583
868.30237	3238.583
868.901	3155.583
869.49963	3274.583
870.10522	3292.583
870.7038	3181.583
871.30243	3270.583
871.90802	3256.583
872.50665	3326.583
873.10529	3312.583
873.71088	3244.583
874.30945	3318.583
874.90808	3319.583
875.51367	3263.583
876.1123	3296.583
876.71094	3319.583
877.30957	3297.583
877.91516	3297.583
878.51373	3335.583
879.11237	3381.583
879.71796	3361.583
880.31659	3316.583
880.91522	3356.583
881.51385	3376.583
882.11243	3333.583
882.71802	3407.583
883.31665	3378.583
883.91528	3385.583
884.51392	3433.583
885.11255	3448.583
885.71814	3512.583
886.31671	3487.583
886.91534	3485.583
887.51398	3497.583
888.11261	3467.583
888.71124	3553.583
889.30988	3493.583
889.90845	3502.583
890.50708	3562.583
891.11267	3559.583
891.7113	3636.583
892.30994	3614.583
892.90857	3568.583
893.50714	3562.583
894.10577	3644.583
894.70441	3639.583
895.30304	3638.583
895.90167	3707.583
896.50031	3714.583
897.09888	3713.583
897.69751	3699.583
898.29614	3765.583
898.89478	3715.583
899.49341	3738.583
900.09204	3779.583
900.69061	3807.583
901.28925	3857.583
901.88788	3846.583
902.48651	3865.583
903.07819	3847.583
903.67682	3907.583
904.27539	3902.583
904.87402	3937.583
905.47266	3878.583
906.07129	4029.583
906.66992	3979.583
907.26855	3961.583
907.86017	4064.583
908.4588	4023.583
909.05743	4037.583
909.65607	4112.583
910.2547	4046.583
910.85327	4179.583
911.44495	4120.583
912.04358	4170.583
912.64221	4177.583
913.24084	4227.583
913.83948	4209.583
914.43109	4243.583
915.02972	4231.583
915.62836	4231.583
916.22003	4254.583
916.81866	4328.583
917.4173	4255.583
918.01587	4345.583
918.60754	4260.583
919.20618	4342.583
919.80481	4465.583
920.39648	4514.583
920.99506	4529.583
921.59369	4536.583
922.18536	4431.583
922.784	4466.583
923.37567	4508.583
923.9743	4472.583
924.57288	4508.583
925.16455	4617.583
925.76318	4638.583
926.36182	4553.583
926.95349	4565.583
927.55206	4642.583
928.14374	4646.583
928.74237	4655.583
929.33405	4716.583
929.93268	4710.583
930.52429	4636.583
931.12292	4666.583
931.7146	4652.583
932.31323	4803.583
932.90491	4776.583
933.50354	4747.583
934.09515	4726.583
934.69379	4813.583
935.28546	4896.583
935.88409	4804.583
936.47577	4776.583
937.07434	4885.583
937.66602	4883.583
938.26465	4909.583
938.85632	4965.583
939.448	4895.583
940.04657	4917.583
940.63824	4975.583
941.22992	4889.583
941.82855	4897.583
942.42023	5036.583
943.01184	5055.583
943.61047	5030.583
944.20215	5070.583
944.79382	5030.583
945.39246	5120.583
945.98407	5082.583
946.57574	5158.583
947.17438	5044.583
947.76605	5106.583
948.35773	5150.583
948.95636	5064.583
949.54797	5131.583
950.13965	5190.583
950.73132	5105.583
951.323	5153.583
951.92163	5241.583
952.51324	5190.583
953.10492	5245.583
953.69659	5258.583
954.28827	5259.583
954.8869	5277.583
955.47852	5316.583
956.07019	5257.583
956.66187	5309.583
957.25354	5280.583
957.85211	5326.583
958.44379	5394.583
959.03546	5296.583
959.62714	5347.583
960.21881	5320.583
960.81042	5420.583
961.4021	5338.583
961.99377	5403.583
962.58545	5443.583
963.17712	5382.583
963.76874	5412.583
964.36041	5448.583
964.95905	5536.583
965.55072	5486.583
966.13544	5511.083
966.72705	5495.083
967.32568	5535.083
967.91736	5468.583
968.50903	5516.083
969.09369	5477.083
969.68536	5581.583
970.284	5565.083
970.86871	5495.583
971.46039	5645.583
972.052	5610.583
972.64368	5620.083
973.23535	5554.583
973.82703	5655.083
974.4187	5672.083
975.01031	5677.583
975.60199	5689.083
976.19366	5595.083
976.77838	5638.083
977.37	5656.083
977.96167	5713.083
978.55334	5690.583
979.14502	5753.583
979.73669	5771.083
980.32135	5766.083
980.91302	5716.083
981.5047	5771.583
982.09637	5770.083
982.68805	5780.083
983.27271	5754.083
983.86438	5718.083
984.45605	5819.583
985.04773	5867.083
985.63934	5796.083
986.22406	5830.583
986.81573	5886.083
987.40741	5781.083
987.99908	5855.083
988.58374	5822.583
989.17542	5875.583
989.76013	5877.583
990.35181	5895.083
990.94342	5861.083
991.5351	5935.583
992.11981	6029.583
992.71149	5871.083
993.29614	5912.083
993.88782	5959.583
994.47949	5948.083
995.06421	5944.583
995.65588	5930.083
996.2475	5980.083
996.83221	5891.583
997.42389	5969.583
998.00861	5947.083
998.60022	5964.083
999.18494	6037.083
999.77661	6031.583
1000.3613	5989.083
1000.953	6015.583
1001.5377	5991.583
1002.1293	5983.083
1002.721	6006.583
1003.3057	6037.583
1003.8973	5992.083
1004.4821	6009.583
1005.0668	6021.083
1005.6584	5948.583
1006.2431	6060.583
1006.8348	6100.583
1007.4195	6065.583
1008.0112	6064.083
1008.5958	5984.083
1009.1875	6091.583
1009.7722	6076.583
1010.3569	6145.083
1010.9486	6110.083
1011.5333	6107.583
1012.1249	6109.083
1012.7097	6028.583
1013.2944	6118.583
1013.886	6100.083
1014.4707	6110.083
1015.0554	6140.083
1015.6401	6061.583
1016.2318	6139.083
1016.8165	6082.083
1017.4012	6127.583
1017.9929	6160.583
1018.5775	6165.083
1019.1622	6098.083
1019.7539	6060.083
1020.3386	6145.583
1020.9233	6138.083
1021.508	6176.083
1022.0927	6179.583
1022.6844	6197.583
1023.269	6181.083
1023.8538	6174.583
1024.4385	6206.583
1025.0302	6074.083
1025.6149	6120.583
1026.1996	6165.083
1026.7842	6169.583
1027.3689	6135.583
1027.9536	6204.583
1028.5383	6170.083
1029.123	6185.583
1029.7147	6246.083
1030.2994	6143.083
1030.8842	6091.083
1031.4688	6142.583
1032.0535	6134.583
1032.6382	6182.083
1033.2229	6194.083
1033.8076	6157.083
1034.3923	6156.083
1034.9771	6113.583
1035.5687	6155.083
1036.1533	6187.083
1036.738	6169.083
1037.3228	6157.583
1037.9005	6141.583
1038.4852	6177.583
1039.0699	6192.583
1039.6547	6170.583
1040.2394	6169.583
1040.824	6105.083
1041.4087	6123.583
1041.9934	6213.083
1042.5781	6143.083
1043.1628	6119.083
1043.7476	6143.083
1044.3323	6137.083
1044.917	6112.083
1045.5016	6148.583
1046.0863	6147.083
1046.6641	6158.083
1047.2488	6127.083
1047.8335	6135.083
1048.4182	6160.583
1049.0029	6166.083
1049.5875	6157.083
1050.1722	6193.083
1050.75	6194.583
1051.3347	6155.583
1051.9194	6067.083
1052.5042	6057.083
1053.0889	6186.083
1053.6666	6161.583
1054.2512	6134.083
1054.8359	6221.083
1055.4207	6136.583
1055.9984	6104.083
1056.5831	6135.083
1057.1678	6129.083
1057.7526	6144.083
1058.3302	6132.083
1058.9149	6189.083
1059.4996	6115.083
1060.0774	6100.083
1060.6621	6100.583
1061.2468	6119.083
1061.8246	6163.083
1062.4093	6131.583
1062.9939	6036.583
1063.5717	6145.083
1064.1564	6076.083
1064.7411	6133.083
1065.3188	6138.583
1065.9036	6108.583
1066.4883	6110.583
1067.0659	6122.583
1067.6506	6095.583
1068.2284	6121.583
1068.8131	6055.083
1069.3978	6143.083
1069.9756	6106.583
1070.5603	6105.583
1071.1381	5981.083
1071.7227	6104.583
1072.3004	5991.083
1072.8782	6108.083
1073.4629	6041.583
1074.0406	6095.583
1074.6254	6119.083
1075.2031	6062.583
1075.7877	6036.583
1076.3655	6013.583
1076.9502	6043.083
1077.528	6014.083
1078.1127	6077.083
1078.6904	6000.583
1079.2751	5975.083
1079.8528	6026.083
1080.4305	6018.083
1081.0153	6001.083
1081.593	6058.583
1082.1777	6078.583
1082.7555	6038.083
1083.3333	6034.083
1083.9178	6104.083
1084.4956	5945.083
1085.0734	6002.083
1085.6581	5934.583
1086.2358	6055.083
1086.8136	5961.583
1087.3914	6009.583
1087.976	5959.583
1088.5537	5998.583
1089.1315	5961.083
1089.7162	5951.083
1090.2939	5972.083
1090.8717	5987.583
1091.4495	6007.083
1092.0341	5945.583
1092.6118	5970.083
1093.1896	5983.583
1093.7673	5904.083
1094.3521	5903.083
1094.9298	5935.083
1095.5076	5924.583
1096.0852	5926.083
1096.663	5940.583
1097.2407	5959.083
1097.8254	5986.583
1098.4032	5955.583
1098.981	5890.583
1099.5587	5882.583
1100.1364	5940.583
1100.7141	5869.583
1101.2919	5874.583
1101.8696	5883.583
1102.4543	5888.083
1103.0321	5897.583
1103.6097	5935.083
1104.1875	5875.083
1104.7653	5856.083
1105.343	5903.583
1105.9208	5836.583
1106.4985	5834.583
1107.0763	5773.083
1107.6539	5800.083
1108.2317	5871.583
1108.8094	5815.583
1109.3872	5811.583
1109.965	5848.083
1110.5427	5844.083
1111.1205	5872.083
1111.6981	5836.083
1112.2759	5821.083
1112.8536	5833.583
1113.4314	5810.583
1114.0022	5788.083
1114.58	5834.083
1115.1576	5755.083
1115.7354	5708.583
1116.3131	5810.083
1116.8909	5717.083
1117.4686	5773.583
1118.0464	5753.583
1118.6241	5718.083
1119.1948	5758.583
1119.7726	5704.083
1120.3503	5739.083
1120.9281	5684.583
1121.5059	5724.583
1122.0836	5713.083
1122.6543	5749.083
1123.2321	5692.083
1123.8098	5726.583
1124.3876	5647.083
1124.9584	5680.083
1125.5361	5656.083
1126.1139	5662.583
1126.6915	5638.583
1127.2623	5597.583
1127.8401	5636.083
1128.4178	5644.083
1128.9956	5538.583
1129.5664	5552.583
1130.144	5633.583
1130.7218	5574.083
1131.2996	5577.583
1131.8704	5556.083
1132.4481	5543.583
1133.0259	5565.583
1133.5967	5534.083
1134.1743	5493.083
1134.7451	5394.083
1135.3229	5472.583
1135.9006	5472.083
1136.4714	5442.083
1137.0492	5482.083
1137.6199	5417.583
1138.1976	5321.083
1138.7684	5411.583
1139.3462	5424.083
1139.924	5377.083
1140.4948	5461.083
1141.0724	5387.083
1141.6432	5357.583
1142.2209	5424.083
1142.7917	5401.083
1143.3695	5400.083
1143.9403	5400.583
1143.9542	5369.583
1144.5389	5374.583
1145.1235	5396.583
1145.7013	5342.583
1146.286	5306.583
1146.8707	5296.583
1147.4485	5289.583
1148.0332	5300.583
1148.611	5200.583
1149.1956	5114.583
1149.7733	5160.583
1150.358	5171.583
1150.9358	5169.583
1151.5205	5095.583
1152.1052	5137.583
1152.683	5172.583
1153.2676	5064.583
1153.8453	5097.583
1154.4301	5075.583
1155.0078	5105.583
1155.5925	5040.583
1156.1703	5057.583
1156.755	5060.583
1157.3328	5121.583
1157.9174	4982.583
1158.4951	5007.583
1159.0798	4931.583
1159.6576	4986.583
1160.2354	4928.583
1160.8201	4971.583
1161.3978	4957.583
1161.9824	4932.583
1162.5602	4950.583
1163.1379	4912.583
1163.7227	4935.583
1164.3004	4877.583
1164.8782	4921.583
1165.4629	4803.583
1166.0405	4813.583
1166.6183	4843.583
1167.203	4808.583
1167.7808	4806.583
1168.3585	4839.583
1168.9432	4789.583
1169.521	4765.583
1170.0986	4751.583
1170.6764	4724.583
1171.2611	4685.583
1171.8389	4736.583
1172.4166	4691.583
1173.0013	4724.583
1173.5791	4686.583
1174.1567	4646.583
1174.7345	4686.583
1175.3192	4682.583
1175.897	4570.583
1176.4747	4580.583
1177.0525	4650.583
1177.6302	4655.583
1178.2148	4594.583
1178.7926	4615.583
1179.3704	4533.583
1179.9481	4578.583
1180.5259	4595.583
1181.1036	4503.583
1181.6813	4469.583
1182.259	4441.583
1182.8438	4547.583
1183.4215	4449.583
1183.9993	4495.583
1184.577	4474.583
1185.1548	4414.583
1185.7324	4469.583
1186.3102	4389.583
1186.8879	4375.583
1187.4657	4383.583
1188.0435	4360.583
1188.6212	4353.583
1189.199	4387.583
1189.7766	4305.583
1190.3544	4353.583
1190.9321	4321.583
1191.5099	4298.583
1192.0876	4273.583
1192.6654	4314.583
1193.2432	4249.583
1193.8208	4195.583
1194.3986	4247.583
1194.9763	4146.583
1195.5541	4177.583
1196.1318	4189.583
1196.7096	4135.583
1197.2872	4160.583
1197.865	4113.583
1198.4427	4129.583
1199.0135	4110.583
1199.5913	4091.583
1200.1691	4058.583
1200.7468	4108.583
1201.3245	4129.583
1201.9022	4033.583
1202.473	4028.583
1203.0508	3995.583
1203.6285	3984.583
1204.2063	3996.583
1204.7839	4005.583
1205.3617	3964.583
1205.9325	3897.583
1206.5103	3990.583
1207.088	3896.583
1207.6658	3947.583
1208.2366	3903.583
1208.8142	3880.583
1209.392	3905.583
1209.9697	3886.583
1210.5475	3856.583
1211.1183	3852.583
1211.696	3788.583
1212.2737	3705.583
1212.8445	3735.583
1213.4222	3748.583
1214	3706.583
1214.5708	3668.583
1215.1486	3729.583
1215.7262	3662.583
1216.297	3647.583
1216.8748	3676.583
1217.4456	3637.583
1218.0233	3627.583
1218.6011	3694.583
1219.1719	3610.583
1219.7495	3588.583
1220.3273	3547.583
1220.8981	3596.583
1221.4758	3534.583
1222.0466	3525.583
1222.6244	3520.583
1223.1951	3509.583
1223.7728	3462.583
1224.3436	3444.583
1224.9214	3457.583
1225.4991	3446.583
1226.0699	3459.583
1226.6476	3404.583
1227.2184	3394.583
1227.7961	3339.583
1228.3669	3354.583
1228.9377	3370.583
1229.5155	3334.583
1230.0933	3302.583
1230.6639	3307.583
1231.2347	3303.583
1231.8125	3266.583
1232.3833	3232.583
1232.9611	3245.583
1233.5319	3243.583
1234.1025	3296.583
1234.6803	3223.583
1235.2511	3201.583
1235.8219	3173.583
1236.3997	3169.583
1236.9705	3137.583
1237.5481	3111.583
1238.1189	3131.583
1238.6897	3082.583
1239.2675	3079.583
1239.8383	3094.583
1240.4091	3055.583
1240.9797	3087.583
1241.5575	3048.583
1242.1283	3030.583
1242.6991	3041.583
1243.2699	2996.583
1243.8477	2990.583
1244.4183	2980.583
1244.9891	2961.583
1245.5669	2987.583
1246.1377	2988.583
1246.7085	2906.583
1247.2793	2925.583
1247.85	2913.583
1248.4277	2902.583
1248.9985	2890.583
1249.5693	2899.583
1250.1401	2907.583
1250.7109	2853.583
1251.2816	2878.583
1251.8594	2848.583
1252.4302	2822.583
1253.001	2857.583
1253.5718	2795.583
1254.1426	2817.583
1254.7133	2810.583
1255.291	2833.583
1255.8618	2758.583
1256.4326	2821.583
1257.0034	2829.583
1257.5741	2745.583
1258.1449	2810.583
1258.7157	2794.583
1259.2865	2751.583
1259.8573	2754.583
1260.4281	2803.583
1260.9988	2778.583
1261.5696	2720.583
1262.1404	2763.583
1262.7112	2770.583
1263.282	2734.583
1263.8528	2725.583
1264.4235	2724.583
1264.9943	2712.583
1265.5651	2715.583
1266.1359	2714.583
1266.7067	2669.583
1267.2775	2701.583
1267.8481	2692.583
1268.4189	2739.583
1268.9897	2668.583
1269.5536	2664.583
1270.1244	2681.583
1270.6952	2663.583
1271.2659	2689.583
1271.8367	2649.583
1272.4075	2710.583
1272.9783	2673.583
1273.5491	2678.583
1274.1128	2657.583
1274.6836	2681.583
1275.2544	2677.583
1275.8252	2702.583
1276.396	2667.583
1276.9668	2678.583
1277.5305	2645.583
1278.1013	2689.583
1278.6721	2671.583
1279.2429	2674.583
1279.8068	2700.583
1280.3776	2646.583
1280.9482	2717.583
1281.519	2621.583
1282.0829	2687.583
1282.6537	2631.583
1283.2245	2653.583
1283.7882	2680.583
1284.359	2678.583
1284.9298	2693.583
1285.5006	2642.583
1286.0645	2652.583
1286.6353	2606.583
1287.2059	2652.583
1287.7698	2661.583
1288.3406	2616.583
1288.9044	2624.583
1289.4752	2644.583
1290.0459	2675.583
1290.6097	2675.583
1291.1805	2585.583
1291.7513	2674.583
1292.3152	2642.583
1292.886	2635.583
1293.4497	2649.583
1294.0205	2651.583
1294.5844	2658.583
1295.1552	2670.583
1295.719	2636.583
1296.2897	2685.583
1296.8535	2664.583
1297.4243	2625.583
1297.9882	2665.583
1298.559	2627.583
1299.1298	2663.583
1299.6935	2632.583
1300.2643	2657.583
1300.8281	2643.583
1301.3989	2665.583
1301.9628	2633.583
1302.5265	2640.583
1303.0973	2639.583
1303.6611	2635.583
1304.2319	2659.583
1304.7958	2640.583
1305.3596	2636.583
1305.9303	2628.583
1306.4941	2612.583
1307.0649	2619.583
1307.6288	2652.583
1308.1926	2630.583
1308.7633	2611.583
1309.3271	2613.583
1309.891	2591.583
1310.4618	2625.583
1311.0256	2629.583
1311.5894	2634.583
1312.1602	2608.583
1312.724	2590.583
1313.2878	2654.583
1313.8517	2638.583
1314.4225	2636.583
1314.9862	2655.583
1315.55	2657.583
1316.1208	2628.583
1316.6847	2589.583
1317.2485	2597.583
1317.8123	2617.583
1318.3761	2686.583
1318.9469	2630.583
1319.5107	2614.583
1320.0746	2626.583
1320.6383	2639.583
1321.2091	2603.583
1321.7729	2663.583
1322.3368	2632.583
1322.9006	2589.583
1323.4644	2626.583
1324.0282	2630.583
1324.599	2669.583
1325.1628	2611.583
1325.7267	2640.583
1326.2905	2653.583
1326.8542	2606.583
1327.4181	2653.583
1327.9819	2666.583
1328.5458	2635.583
1329.1096	2581.583
1329.6803	2625.583
1330.2441	2626.583
1330.808	2617.583
1331.3718	2602.583
1331.9357	2645.583
1332.4994	2603.583
1333.0632	2584.583
1333.6271	2606.583
1334.1909	2627.583
1334.7548	2647.583
1335.3185	2665.583
1335.8823	2663.583
1336.4462	2638.583
1337.01	2629.583
1337.5739	2626.583
1338.1376	2620.583
1338.7014	2652.583
1339.2583	2656.583
1339.8221	2599.583
1340.386	2602.583
1340.9497	2641.583
1341.5135	2618.583
1342.0774	2625.583
1342.6412	2657.583
1343.2051	2636.583
1343.7689	2668.583
1344.3257	2623.583
1344.8895	2633.583
1345.4534	2645.583
1346.0172	2584.583
1346.5811	2612.583
1347.1448	2605.583
1347.7017	2633.583
1348.2655	2618.583
1348.8293	2644.583
1349.3932	2643.583
1349.9569	2629.583
1350.5138	2643.583
1351.0776	2673.583
1351.6415	2603.583
1352.2053	2656.583
1352.7621	2624.583
1353.3259	2636.583
1353.8898	2627.583
1354.4536	2668.583
1355.0105	2642.583
1355.5742	2641.583
1356.1381	2656.583
1356.6949	2639.583
1357.2588	2604.583
1357.8226	2667.583
1358.3794	2627.583
1358.9432	2599.583
1359.5071	2674.583
1360.064	2633.583
1360.6277	2663.583
1361.1915	2666.583
1361.7484	2645.583
1362.3123	2629.583
1362.8761	2651.583
1363.4329	2656.583
1363.9897	2652.583
1364.5536	2634.583
1365.1174	2668.583
1365.6743	2627.583
1366.238	2652.583
1366.7949	2611.583
1367.3588	2642.583
1367.9156	2664.583
1368.4795	2649.583
1369.0432	2637.583
1369.6001	2607.583
1370.157	2674.583
1370.7208	2637.583
1371.2847	2627.583
1371.8414	2671.583
1372.4053	2666.583
1372.9622	2621.583
1373.519	2605.583
1374.0829	2660.583
1374.6396	2688.583
1375.2035	2635.583
1375.7604	2690.583
1376.3242	2625.583
1376.8811	2656.583
1377.4379	2638.583
1378.0017	2643.583
1378.5586	2651.583
1379.1224	2681.583
1379.6792	2653.583
1380.2361	2678.583
1380.793	2620.583
1381.3568	2658.583
1381.9137	2621.583
1382.4774	2648.583
1383.0343	2688.583
1383.5912	2670.583
1384.155	2659.583
1384.7119	2634.583
1385.2687	2606.583
1385.8256	2657.583
1386.3894	2627.583
1386.9463	2671.583
1387.5032	2644.583
1388.0599	2664.583
1388.6238	2633.583
1389.1807	2703.583
1389.7375	2635.583
1390.2943	2682.583
1390.8582	2632.583
1391.415	2665.583
1391.9719	2645.583
1392.5288	2627.583
1393.0856	2641.583
1393.6494	2634.583
1394.2063	2627.583
1394.7632	2678.583
1395.3201	2676.583
1395.8768	2681.583
1396.4337	2670.583
1396.9976	2642.583
1397.5544	2658.583
1398.1113	2665.583
1398.6681	2655.583
1399.225	2599.583
1399.7888	2632.583
