14.826543	15464.189
15.501734	15053.189
16.176924	14693.189
16.852116	13936.189
17.527306	13400.189
18.202496	13357.189
18.884647	13577.189
19.559839	13502.189
20.235029	12900.189
20.910219	12873.189
21.585411	12531.189
22.260601	12608.189
22.942753	12748.189
23.617943	12756.189
24.293135	12566.189
24.968325	12460.189
25.643515	12810.189
26.318707	12711.189
26.993896	12974.189
27.669086	12544.189
28.351238	12639.189
29.02643	12602.189
29.70162	12941.189
30.37681	12830.189
31.052002	12901.189
31.727192	13091.189
32.402382	13113.189
33.077572	13230.189
33.752766	13770.189
34.427956	13629.189
35.103146	13810.189
35.778336	13996.189
36.453526	14026.189
37.121758	13938.189
37.796947	14157.189
38.472137	14043.189
39.147327	14218.189
39.822521	14610.189
40.497711	14954.189
41.172901	14958.189
41.848091	15504.189
42.523281	15359.189
43.198471	15514.189
43.873665	15545.189
44.541893	15404.189
45.217083	15577.189
45.892277	15994.189
46.567467	16346.189
47.242657	16270.189
47.910885	16496.189
48.586079	16488.189
49.261269	16662.189
49.936459	16470.189
50.611649	16886.189
51.279881	17079.189
51.95507	17124.189
52.63026	16792.189
53.30545	17007.189
53.973682	17326.189
54.648872	17472.189
55.317101	17479.189
55.99229	17530.189
56.667484	17963.189
57.342674	18056.189
58.010902	18439.189
58.686092	18565.189
59.361286	18832.189
60.029514	18547.189
60.704704	18139.189
61.372936	18066.189
62.048126	18060.189
62.716354	18346.189
63.391548	18410.189
64.066734	18403.189
64.73497	18575.189
65.410156	18754.189
66.078384	18856.189
66.753578	18947.189
67.428772	19001.189
68.097	18981.189
68.772186	19053.189
69.440422	19202.189
70.10865	19255.189
70.783844	19230.189
71.452072	19456.189
72.127258	19305.189
72.795494	19197.189
73.47068	19535.189
74.138908	19571.189
74.814102	19682.189
75.48233	19783.189
76.150566	19557.189
76.825752	19381.189
77.49398	19408.189
78.169174	19428.189
78.837402	19371.189
79.50563	19548.189
80.173866	19531.189
80.849052	19604.189
81.517281	19939.189
82.185516	20032.189
82.860703	20124.189
83.528938	19855.189
84.197166	19746.189
84.872353	19510.189
85.540588	19512.189
86.208817	19438.189
86.877045	19431.189
87.552238	19476.189
88.220467	19892.189
88.888695	19851.189
89.556923	19807.189
90.225159	20012.189
90.900345	19887.189
91.568573	19984.189
92.236809	19630.189
92.905037	19754.189
93.573265	19746.189
94.241493	19890.189
94.909729	19714.189
95.584915	19752.189
96.253143	19518.189
96.921379	19750.189
97.589607	19660.189
98.257835	19718.189
98.926064	19651.189
99.594299	19700.189
100.26253	19468.189
100.93076	19583.189
101.59898	19363.189
102.26722	19576.189
102.93545	19618.189
103.60368	19515.189
104.2719	19853.189
104.94014	19751.189
105.60837	19856.189
106.2766	19774.189
106.94482	19768.189
107.61305	19421.189
108.28129	19442.189
108.94952	19258.189
109.61774	19219.189
110.28597	19295.189
110.95421	19224.189
111.62244	19255.189
112.28371	19340.189
112.95193	19227.189
113.62016	19163.189
114.28839	19138.189
114.95663	19405.189
115.62486	19257.189
116.29308	19098.189
116.95435	19183.189
117.62258	18995.189
118.29082	18853.189
118.95905	18889.189
119.62727	18927.189
120.28854	18872.189
120.95677	18974.189
121.625	18996.189
122.29324	19066.189
122.9545	18909.189
123.62273	18676.189
124.29096	18624.189
124.95919	18640.189
125.62046	18665.189
126.28869	18610.189
126.95692	18624.189
127.61819	18560.189
128.28642	18627.189
128.95465	18548.189
129.61592	18525.189
130.28415	18542.189
130.94542	18430.189
131.61365	18191.189
132.28188	18226.189
132.94315	18086.189
133.61137	18152.189
134.27264	18246.189
134.94087	18019.189
135.60214	17986.189
136.27037	18172.189
136.93164	18241.189
137.59987	18048.189
138.26114	18134.189
138.92937	18184.189
139.59064	18014.189
140.25888	17893.189
140.92014	17861.189
141.58838	17998.189
142.24965	17778.189
142.91788	17996.189
143.57915	17776.189
144.24738	17863.189
144.90865	17778.189
145.56992	17813.189
146.23814	17672.189
146.89941	17621.189
147.56764	17446.189
148.22891	17591.189
148.89018	17660.189
149.55841	17500.189
150.21968	17294.189
150.88095	17473.189
151.54918	17346.189
152.21045	17402.189
152.87172	17456.189
153.53995	17260.189
154.20122	17308.189
154.86249	17304.189
155.52376	17155.189
156.19199	17044.189
156.85326	17159.189
157.51453	16909.189
158.1758	16923.189
158.84402	16836.189
159.50529	16882.189
160.16656	17001.189
160.82782	16966.189
161.48909	16906.189
162.15733	16622.189
162.81859	16656.189
163.47986	16591.189
164.14113	16806.189
164.8024	16646.189
165.46367	16560.189
166.12494	16683.189
166.78621	16481.189
167.45444	16548.189
168.11571	16458.189
168.77698	16552.189
169.43825	16403.189
170.09952	16597.189
170.76079	16323.189
171.42206	16490.189
172.08333	16401.189
172.7446	16358.189
173.40587	15957.189
174.06714	16237.189
174.72841	16354.189
175.38966	16209.189
176.05093	16179.189
176.7122	16144.189
177.37347	16090.189
178.03474	16099.189
178.68906	16104.189
179.35033	16014.189
180.0116	15936.189
180.67287	15893.189
181.33414	16015.189
181.99541	15991.189
182.65668	15927.189
183.31795	15834.189
183.97922	15914.189
184.64047	15846.189
185.30174	15824.189
185.95605	15788.189
186.61732	15693.189
187.27859	15718.189
187.93987	15561.189
188.60114	15684.189
189.25545	15447.189
189.91672	15673.189
190.57799	15619.189
191.23926	15426.189
191.89355	15659.189
192.55482	15421.189
193.21609	15481.189
193.87041	15324.189
194.53168	15396.189
195.19295	15318.189
195.84726	15484.189
196.50851	15250.189
197.16978	15389.189
197.8241	15264.189
198.48537	15268.189
199.14664	15039.189
199.80095	15312.189
200.46222	15258.189
201.12349	15203.189
201.77779	15198.189
202.43906	15138.189
203.10033	15155.189
203.75464	14849.189
204.41591	15046.189
205.07022	14866.189
205.73149	15047.189
206.3858	14831.189
207.04706	14775.189
207.70137	15060.189
208.36264	15036.189
209.01695	14863.189
209.67822	14936.189
210.33253	14858.189
210.9938	14854.189
211.6481	14808.189
212.30937	14734.189
212.96368	14647.189
213.618	14729.189
214.27927	14715.189
214.93356	14682.189
215.59483	14750.189
216.24915	14436.189
216.91042	14653.189
217.56473	14590.189
218.21904	14692.189
218.88031	14498.189
219.53461	14526.189
220.18892	14485.189
220.85019	14613.189
221.5045	14485.189
222.15881	14563.189
222.82008	14436.189
223.47438	14446.189
224.12869	14318.189
224.783	14494.189
225.44427	14454.189
226.09859	14442.189
226.75288	14469.189
227.41415	14354.189
228.06847	14394.189
228.72278	14248.189
229.37708	14349.189
230.03139	14232.189
230.69266	14189.189
231.34697	14217.189
232.00128	14204.189
232.65558	14319.189
233.30989	14039.189
233.9642	14141.189
234.61852	14183.189
235.27979	14130.189
235.93408	14138.189
236.58839	14078.189
237.24271	13972.189
237.89702	14050.189
238.55133	14069.189
239.20563	14115.189
239.85994	13954.189
240.51425	14051.189
241.16856	13915.189
241.82286	14098.189
242.47717	13888.189
243.13148	13874.189
243.7858	13954.189
244.44009	13891.189
245.09441	13970.189
245.74872	13907.189
246.40303	14007.189
247.05733	13907.189
247.71164	13687.189
248.36595	13915.189
249.02026	13869.189
249.67456	13844.189
250.32887	13877.189
250.98318	13818.189
251.6375	13758.189
252.29181	13709.189
252.94611	13764.189
253.59346	13633.189
254.24777	13686.189
254.90207	13850.189
255.55638	13768.189
256.21069	13666.189
256.85803	13767.189
257.51236	13515.189
258.16666	13682.189
258.82095	13694.189
259.47528	13677.189
260.12958	13611.189
260.77692	13554.189
261.43124	13624.189
262.08554	13728.189
262.73288	13661.189
263.38721	13636.189
264.0415	13693.189
264.69583	13432.189
265.34317	13526.189
265.99747	13656.189
266.64484	13462.189
267.29913	13596.189
267.95343	13572.189
268.60776	13522.189
269.2551	13467.189
269.90939	13362.189
270.56372	13450.189
271.21106	13420.189
271.86536	13407.189
272.51273	13525.189
273.16702	13496.189
273.81436	13506.189
274.46869	13388.189
275.11603	13292.189
275.77032	13325.189
276.42465	13390.189
277.07199	13469.189
277.72632	13326.189
278.37366	13335.189
279.02795	13461.189
279.67529	13366.189
280.32962	13400.189
280.97696	13362.189
281.63129	13344.189
282.27863	13261.189
282.92596	13356.189
283.58029	13234.189
284.22763	13481.189
284.88193	13325.189
285.52927	13278.189
286.18359	13266.189
286.83093	13323.189
287.47827	13308.189
288.1326	13202.189
288.77994	13325.189
289.42728	13205.189
290.0816	13117.189
290.72894	13139.189
291.37628	13274.189
292.03061	13231.189
292.67795	13222.189
293.32529	13147.189
293.97266	13144.189
294.62695	13234.189
295.27429	12967.189
295.92166	13113.189
296.57596	13113.189
297.2233	13019.189
297.87067	13123.189
298.51801	13104.189
299.1723	13088.189
299.81967	13002.189
300.46701	12891.189
301.11435	13046.189
301.76169	12996.189
302.40906	12980.189
303.06335	12942.189
303.71069	13056.189
304.35806	12904.189
305.0054	12914.189
305.65274	13050.189
306.30011	12945.189
306.94745	13024.189
307.59479	12991.189
308.24908	12819.189
308.89645	13100.189
309.54379	12892.189
310.19113	12793.189
310.8385	12885.189
311.48584	12806.189
312.13318	12873.189
312.78055	12860.189
313.42789	12742.189
314.07523	12848.189
314.72256	12875.189
315.36993	12814.189
316.01727	12787.189
316.66461	12915.189
317.31198	12896.189
317.95932	12728.189
318.5997	12761.189
319.24704	12845.189
319.89441	12858.189
320.54175	12905.189
321.18909	12797.189
321.83646	12858.189
322.4838	12810.189
323.13113	12774.189
323.77847	12808.189
324.42584	12840.189
325.06622	12937.189
325.71356	12663.189
326.3609	12735.189
327.00827	12798.189
327.65561	12738.189
328.29599	12786.189
328.94336	12723.189
329.5907	12692.189
330.23804	12811.189
330.88538	12589.189
331.52579	12736.189
332.17313	12749.189
332.82047	12749.189
333.46085	12707.189
334.10822	12650.189
334.75555	12704.189
335.39594	12706.189
336.04327	12724.189
336.69064	12611.189
337.33102	12722.189
337.97836	12639.189
338.62573	12722.189
339.27307	12574.189
339.91345	12709.189
340.56079	12710.189
341.2012	12648.189
341.84854	12598.189
342.49588	12712.189
343.13626	12645.189
343.78363	12782.189
344.42401	12510.189
345.07135	12602.189
345.71173	12673.189
346.3591	12750.189
346.99948	12609.189
347.64682	12602.189
348.29416	12628.189
348.93457	12676.189
349.58191	12609.189
350.22229	12541.189
350.86267	12722.189
351.51004	12594.189
352.15042	12631.189
352.79776	12511.189
353.43814	12540.189
354.07852	12650.189
354.72589	12536.189
355.36627	12557.189
356.01361	12598.189
356.65399	12654.189
357.30136	12538.189
357.94174	12501.189
358.58212	12608.189
359.22946	12588.189
359.86987	12616.189
360.51025	12694.189
361.15759	12382.189
361.79797	12580.189
362.43839	12531.189
363.07877	12513.189
363.7261	12587.189
364.36649	12611.189
365.00687	12614.189
365.65424	12630.189
366.29462	12541.189
366.935	12671.189
367.58234	12596.189
368.22275	12616.189
368.86313	12520.189
369.50351	12483.189
370.14389	12548.189
370.78427	12533.189
371.43164	12503.189
372.07202	12589.189
372.7124	12581.189
373.35278	12466.189
373.99319	12411.189
374.63358	12523.189
375.27396	12684.189
375.9213	12628.189
376.56168	12576.189
377.20209	12595.189
377.84247	12570.189
378.48285	12530.189
379.12323	12548.189
379.76361	12472.189
380.40402	12486.189
381.0444	12560.189
381.68478	12583.189
382.32516	12534.189
382.96555	12508.189
383.60596	12476.189
384.24634	12505.189
384.88672	12496.189
385.5271	12559.189
386.16751	12489.189
386.80789	12501.189
387.44827	12368.189
388.08865	12551.189
388.72903	12462.189
389.36945	12494.189
390.00983	12579.189
390.65021	12394.189
391.28363	12426.189
391.92401	12604.189
392.56439	12557.189
393.2048	12520.189
393.84518	12520.189
394.48557	12581.189
395.11899	12571.189
395.75937	12384.189
396.39978	12607.189
397.04016	12570.189
397.68054	12588.189
398.32092	12527.189
398.9613	12434.189
399.59473	12611.189
400.23514	12601.189
400.87552	12552.189
401.50894	12525.189
402.14932	12537.189
402.7897	12546.189
403.43011	12599.189
404.06354	12617.189
404.70392	12621.189
405.3443	12406.189
405.97772	12659.189
406.6181	12616.189
407.25851	12522.189
407.89194	12536.189
408.53232	12453.189
409.1727	12464.189
409.80612	12515.189
410.4465	12453.189
411.08691	12617.189
411.72034	12536.189
412.36072	12541.189
412.99414	12500.189
413.63452	12442.189
414.26794	12449.189
414.90836	12574.189
415.54178	12581.189
416.18216	12408.189
416.81558	12559.189
417.45596	12625.189
418.08939	12614.189
418.7298	12495.189
419.36322	12520.189
420.0036	12506.189
420.63702	12490.189
421.2774	12614.189
421.91083	12410.189
422.55124	12420.189
423.18466	12531.189
423.82504	12486.189
424.45847	12505.189
425.09885	12420.189
425.73227	12455.189
426.36569	12706.189
427.0061	12581.189
427.63953	12566.189
428.27295	12530.189
428.91333	12552.189
429.54675	12576.189
430.18018	12515.189
430.82056	12572.189
431.45401	12590.189
432.08743	12517.189
432.72781	12610.189
433.36124	12513.189
433.99466	12546.189
434.62808	12594.189
435.26846	12650.189
435.90192	12490.189
436.53534	12463.189
437.16876	12607.189
437.80914	12502.189
438.44257	12501.189
439.07599	12595.189
439.70941	12692.189
440.34982	12515.189
440.98325	12584.189
441.61667	12552.189
442.25009	12585.189
442.88351	12536.189
443.51694	12638.189
444.15732	12526.189
444.79074	12493.189
445.42419	12496.189
446.05762	12425.189
446.69104	12610.189
447.32446	12635.189
447.95789	12647.189
448.59131	12731.189
449.22473	12685.189
449.85815	12649.189
450.49158	12541.189
451.12503	12554.189
451.75845	12576.189
452.39188	12654.189
453.0253	12562.189
453.65872	12610.189
454.29214	12623.189
454.92557	12589.189
455.55899	12584.189
456.19241	12538.189
456.82587	12615.189
457.45929	12558.189
458.09271	12589.189
458.72614	12658.189
459.35956	12621.189
459.99298	12595.189
460.6264	12617.189
461.25287	12700.189
461.88629	12762.189
462.51971	12760.189
463.15317	12668.189
463.78659	12723.189
464.42001	12761.189
465.05344	12669.189
465.6799	12782.189
466.31332	12697.189
466.94675	12558.189
467.58017	12755.189
468.21359	12714.189
468.84006	12716.189
469.47351	12695.189
470.10693	12876.189
470.74036	12722.189
471.36682	12880.189
472.00024	12885.189
472.63367	12850.189
473.26709	12796.189
473.89355	12860.189
474.52698	12911.189
475.1604	12941.189
475.78687	12987.189
476.42032	13005.189
477.05374	12994.189
477.68021	13008.189
478.31363	13168.189
478.94705	13077.189
479.57352	12985.189
480.20694	13234.189
480.84036	13232.189
481.46683	13208.189
482.10025	13249.189
482.72672	13388.189
483.36014	13242.189
483.9866	13374.189
484.62006	13474.189
485.24652	13506.189
485.87994	13511.189
486.51337	13600.189
487.13983	13539.189
487.77325	13470.189
488.39972	13714.189
489.03314	13620.189
489.65961	13706.189
490.28607	13818.189
490.91949	13888.189
491.54596	13877.189
492.17938	13996.189
492.80585	14026.189
493.4393	14123.189
494.06577	14246.189
494.69223	14262.189
495.32565	14375.189
495.95212	14304.189
496.57858	14500.189
497.21201	14497.189
497.83847	14742.189
498.47189	14650.189
499.09836	14781.189
499.72482	14854.189
500.35825	14985.189
500.98471	14948.189
501.61118	15130.189
502.2446	15135.189
502.87106	15355.189
503.49753	15402.189
504.12399	15523.189
504.75742	15511.189
505.38391	15558.189
506.01038	15667.189
506.63684	15925.189
507.27026	15816.189
507.89673	15851.189
508.52319	15915.189
509.14966	16245.189
509.78308	16062.189
510.40955	16218.189
511.03601	16458.189
511.66248	16446.189
512.28894	16579.189
512.91541	16758.189
513.54883	16634.189
514.17529	16764.189
514.80176	17049.189
515.42822	17022.189
516.05469	17066.189
516.68115	17237.189
517.30762	17341.189
517.93408	17368.189
518.56055	17474.189
519.18701	17578.189
519.81348	17776.189
520.43994	17756.189
521.06641	18034.189
521.69287	18005.189
522.31934	18116.189
522.9458	18174.189
523.57227	18530.189
524.19873	18429.189
524.8252	18558.189
525.45166	18676.189
526.07813	18696.189
526.70459	18815.189
527.33105	18880.189
527.95752	18765.689
528.58398	19181.689
529.21045	19363.689
529.83691	19393.689
530.46338	19459.689
531.08289	19559.689
531.70935	19657.689
532.33582	19686.689
532.96228	19768.189
533.58875	19848.189
534.21521	19882.189
534.84167	20002.189
535.46118	20135.689
536.08765	20291.189
536.71411	20362.189
537.34058	20351.189
537.96704	20417.189
538.59351	20583.189
539.21301	20659.689
539.83948	20656.689
540.46594	20591.689
541.08545	20746.189
541.71191	20877.189
542.33838	20913.689
542.95789	20740.689
543.58435	21032.189
544.21082	21040.189
544.83728	20986.189
545.45679	20883.189
546.08325	21056.689
546.70972	21161.189
547.32922	21157.689
547.95569	20968.189
548.58215	21026.189
549.20166	21172.689
549.82813	21178.189
550.44763	21028.189
551.0741	21077.689
551.6936	21044.689
552.32007	21088.189
552.94653	21027.689
553.56604	21016.689
554.1925	21038.689
554.81201	20896.189
555.43848	20916.189
556.05798	20906.689
556.68445	20793.689
557.30396	20825.189
557.93042	20731.189
558.54993	20622.689
559.17639	20431.689
559.7959	20468.189
560.42236	20418.689
561.04187	20432.189
561.66833	20325.689
562.28784	20144.689
562.91431	20089.689
563.53381	19910.189
564.15332	20012.689
564.77979	19939.689
565.39929	19723.189
566.0188	19707.689
566.64526	19535.189
567.26477	19378.189
567.89124	19253.189
568.51074	19164.689
569.13025	19084.689
569.75671	18883.189
570.37622	18825.689
570.99573	18843.689
571.61523	18552.189
572.2417	18473.189
572.86121	18388.689
573.48071	18115.189
574.10718	18022.189
574.72668	17897.189
575.34619	17711.189
575.9657	17695.189
576.58521	17613.189
577.21167	17467.189
577.83118	17253.189
578.45068	17038.689
579.07019	17027.689
579.69666	16867.189
580.31616	16778.689
580.93567	16599.689
581.55518	16567.689
582.17468	16284.189
582.79419	16190.689
583.41364	16164.689
584.0401	16102.689
584.65961	15878.189
585.27911	15829.689
585.89862	15702.189
586.51813	15528.189
587.13763	15374.189
587.75714	15332.689
588.37665	15210.689
588.99615	15048.689
589.61566	14885.689
590.23517	14722.189
590.85468	14582.689
591.47418	14477.689
592.09369	14414.189
592.7132	14315.189
593.3327	14228.189
593.95221	14169.189
594.57172	13925.689
595.19122	13928.689
595.81073	13780.689
596.43024	13706.189
597.04974	13518.189
597.66925	13455.189
598.28876	13271.189
598.90826	13302.189
599.52777	13168.189
600.14032	13013.689
600.75983	12872.689
601.37933	12841.689
601.99884	12812.189
602.61829	12736.189
603.23779	12575.689
603.8573	12621.189
604.46985	12319.189
605.08936	12385.189
605.70886	12265.189
606.32837	12179.189
606.94788	12127.189
607.56042	12051.189
608.17993	11958.189
608.79944	11865.689
609.41895	11849.689
610.03845	11887.689
610.651	11683.189
611.27051	11562.189
611.89001	11591.189
612.50256	11479.689
613.12207	11363.689
613.74158	11395.689
614.35413	11260.189
614.97363	11228.189
615.59314	11146.189
616.20563	11118.189
616.82513	11062.189
617.44464	11046.189
618.05719	10927.189
618.6767	10947.189
619.2962	10908.689
619.90875	10845.689
620.52826	10757.189
621.14081	10843.689
621.76031	10671.189
622.37286	10586.189
622.99237	10657.189
623.61188	10476.189
624.22443	10412.689
624.84393	10325.689
625.45648	10338.189
626.07599	10245.689
626.68854	10247.689
627.30804	10254.689
627.92059	10239.689
628.54004	10334.189
629.15259	10205.689
629.77209	10234.689
630.38464	10027.689
630.99719	9912.1895
631.6167	10027.689
632.22925	10161.189
632.84875	9924.6895
633.4613	9917.1895
634.07385	9830.1895
634.69336	9763.6895
635.30591	9699.1895
635.92542	9962.1895
636.53796	9948.1895
637.15051	10032.689
637.77002	9929.1895
638.38257	9554.1895
639.00201	9622.1895
639.61456	9473.1895
640.22711	9524.1895
640.83966	9629.1895
641.45917	9431.6895
642.07172	9411.1895
642.68427	9446.6895
643.29681	9275.1895
643.91632	9236.6895
644.52887	9301.1895
645.14142	9269.1895
645.75397	9147.1895
646.37347	9182.1895
646.98602	9078.1895
647.59857	9097.1895
648.21106	9103.1895
648.82361	8936.1895
649.44312	8929.1895
650.05566	8945.6895
650.66821	8904.6895
651.28076	9041.6895
651.89331	8815.6895
652.28314	8740.6895
652.90265	8958.6895
653.52911	8771.6895
654.14856	8853.6895
654.77502	8843.6895
655.39453	8823.6895
656.01404	8753.6895
656.6405	8626.6895
657.26001	8795.6895
657.88647	8678.6895
658.50598	8548.6895
659.12549	8601.6895
659.75195	8436.6895
660.37146	8472.6895
660.99097	8491.6895
661.61743	8436.6895
662.23694	8371.6895
662.85645	8480.6895
663.48291	8375.6895
664.10242	8376.6895
664.72192	8253.6895
665.34143	8335.6895
665.96094	8213.6895
666.5874	8265.6895
667.20691	8241.6895
667.82642	8128.6895
668.44592	8153.6895
669.07239	8213.6895
669.69189	8036.6895
670.3114	8131.6895
670.93091	8120.6895
671.55042	7948.6895
672.17688	7997.6895
672.79639	7924.6895
673.41589	8005.6895
674.0354	7813.6895
674.65491	7847.6895
675.27441	7754.6895
675.89392	7895.6895
676.52039	7776.6895
677.13989	7765.6895
677.7594	7729.6895
678.37891	7686.6895
678.99841	7798.6895
679.61792	7636.6895
680.23743	7675.6895
680.85693	7799.6895
681.47638	7636.6895
682.09589	7649.6895
682.71539	7591.6895
683.3349	7645.6895
683.95441	7445.6895
684.57391	7370.6895
685.19342	7470.6895
685.81293	7574.6895
686.43243	7434.6895
687.05194	7481.6895
687.67145	7469.6895
688.29095	7299.6895
688.91046	7347.6895
689.52997	7319.6895
690.14948	7248.6895
690.76202	7215.6895
691.38849	7235.6895
692.00104	7264.6895
692.62054	7311.6895
693.24005	7255.6895
693.85956	7289.6895
694.47906	7134.6895
695.09857	7152.6895
695.71112	7220.6895
696.33063	7140.6895
696.95013	7112.6895
697.56964	7154.6895
698.18915	7045.6895
698.80865	7131.6895
699.42114	6973.6895
700.04065	7092.6895
700.66016	7192.6895
701.27271	6894.6895
701.89221	6964.6895
702.51172	6863.6895
703.13123	6928.6895
703.75073	6901.6895
704.36328	6896.6895
704.98279	6836.6895
705.60229	6791.6895
706.21484	6816.6895
706.83435	6778.6895
707.45386	6755.6895
708.06641	6765.6895
708.68591	6761.6895
709.30542	6888.6895
709.91797	6789.6895
710.53748	6837.6895
711.15698	6758.6895
711.76953	6633.6895
712.38898	6773.6895
713.00153	6713.6895
713.62103	6678.6895
714.24054	6678.6895
714.85309	6822.6895
715.4726	6615.6895
716.08514	6611.6895
716.70465	6628.6895
717.3172	6667.6895
717.93671	6687.6895
718.54926	6701.6895
719.16876	6696.6895
719.78131	6635.6895
720.40082	6642.6895
721.01337	6628.6895
721.63287	6662.6895
722.24542	6734.6895
722.86493	6603.6895
723.47742	6689.6895
724.08997	6647.6895
724.70947	6742.6895
725.32202	6645.6895
725.94153	6742.6895
726.55408	6621.6895
727.16663	6706.6895
727.78613	6710.6895
728.39868	6715.6895
729.01819	6832.6895
729.63074	6830.6895
730.24329	6760.6895
730.86279	6765.6895
731.47534	6757.6895
732.08789	6835.6895
732.7074	6821.6895
733.31995	6789.6895
733.93243	6825.6895
734.55194	6911.6895
735.16449	6883.6895
735.77704	6847.6895
736.38959	6871.6895
737.00909	6949.6895
737.62164	6991.6895
738.23419	6977.6895
738.84674	6985.6895
739.46625	6983.6895
740.0788	7075.6895
740.69135	7057.6895
741.30389	6931.6895
741.91644	7200.6895
742.53595	7099.6895
743.14844	7165.6895
743.76099	7162.6895
744.37354	7244.6895
744.98608	7064.6895
745.59863	7228.6895
746.21118	7226.6895
746.83069	7277.6895
747.44324	7289.6895
748.05579	7228.6895
748.66833	7433.6895
749.28088	7397.6895
749.89343	7454.6895
750.50598	7423.6895
751.11853	7449.6895
751.73102	7503.6895
752.34357	7486.6895
752.95612	7528.6895
753.56866	7614.6895
754.18121	7557.6895
754.79376	7619.6895
755.40631	7770.6895
756.01886	7659.6895
756.63141	7750.6895
757.24396	7871.6895
757.85651	7632.6895
758.46906	7660.6895
759.0816	7795.6895
759.69409	7797.6895
760.30664	7859.6895
760.91919	7944.6895
761.53174	7839.6895
762.14429	7877.6895
762.75684	7830.6895
763.36243	7811.6895
763.97498	7968.6895
764.58752	7971.6895
765.20007	7913.6895
765.81262	7930.6895
766.42517	8010.6895
767.03766	8010.6895
767.64325	7987.6895
768.2558	7877.6895
768.86835	8028.6895
769.4809	8159.6895
770.09344	8068.6895
770.69904	8084.6895
771.31158	8168.6895
771.92413	8064.6895
772.53668	8149.6895
773.14227	8160.6895
773.75476	8069.6895
774.36731	8131.6895
774.97986	8245.6895
775.58545	8105.6895
776.198	8123.6895
776.81055	8070.6895
777.4231	8108.6895
778.02869	8152.6895
778.64124	8109.6895
779.24683	8189.6895
779.85938	8277.6895
780.47186	8067.6895
781.07745	8108.6895
781.69	8157.6895
782.30255	8076.6895
782.90814	8067.6895
783.52069	8190.6895
784.12628	8219.6895
784.73883	8111.6895
785.35138	8195.6895
785.95697	8216.6895
786.56952	8081.6895
787.17505	8021.6895
787.7876	8118.6895
788.39319	8019.6895
789.00574	8115.6895
789.61133	8185.6895
790.22388	8067.6895
790.82947	8190.6895
791.44202	8121.6895
792.04761	8125.6895
792.66016	8127.6895
793.26569	8082.6895
793.87823	7955.6895
794.48383	8026.6895
795.09637	8078.6895
795.70197	8203.6895
796.30756	8038.6895
796.9201	8037.6895
797.5257	8102.6895
798.13824	8125.6895
798.74384	8090.6895
799.35632	8131.6895
799.96191	8173.6895
800.5675	7912.6895
801.1731	8061.6895
801.78564	8124.6895
802.39124	8091.6895
803.00378	8031.6895
803.60938	8053.6895
804.21497	8063.6895
804.82745	8129.6895
805.43304	8105.6895
806.03864	8147.6895
806.64423	8029.6895
807.25677	8143.6895
807.86237	8166.6895
808.46796	8207.6895
809.07355	8056.6895
809.6861	8185.6895
810.29163	8145.6895
810.89722	8230.6895
811.50281	8259.6895
812.1084	8267.6895
812.72095	8224.6895
813.32654	8266.6895
813.93213	8289.6895
814.53772	8321.6895
815.14331	8306.6895
815.74884	8435.6895
816.36139	8421.6895
816.96698	8582.6895
817.57257	8484.6895
818.17816	8555.6895
818.78375	8660.6895
819.38934	8565.6895
819.99493	8619.6895
820.60046	8759.6895
821.20605	8713.6895
821.81165	8785.6895
822.42419	8763.6895
823.02283	8950.6895
823.63538	8902.6895
824.23401	8873.6895
824.84656	9068.6895
825.44519	9084.6895
826.05768	9177.6895
826.65631	9242.6895
827.26886	9172.6895
827.86749	9396.6895
828.48004	9301.6895
829.07867	9267.6895
829.68427	9406.6895
830.28986	9445.6895
830.89539	9729.6895
831.50098	9583.6895
832.10657	9672.6895
832.71216	9801.6895
833.31775	9959.6895
833.92334	10011.689
834.52893	10066.689
835.12756	10117.689
835.74005	10008.689
836.33868	10366.689
836.94427	10365.689
837.54987	10360.689
838.15546	10443.689
838.76105	10479.689
839.36664	10572.689
839.96527	10609.689
840.5708	10449.689
841.17639	10756.689
841.78198	10982.689
842.38062	10896.689
842.98621	11031.689
843.5918	11041.689
844.19739	11291.689
844.79596	11217.689
845.40155	11392.689
846.00714	11429.689
846.60577	11465.689
847.21136	11540.689
847.81696	11659.689
848.42255	11705.689
849.02118	11828.689
849.62671	12042.689
850.22534	12027.689
850.83093	12055.689
851.43652	12237.689
852.04211	12235.689
852.64075	12531.689
853.24634	12458.689
853.84491	12473.689
854.4505	12783.689
855.05609	12916.689
855.65472	12952.689
856.26031	12931.689
856.85895	13012.689
857.46454	13219.689
858.06311	13295.689
858.6687	13394.689
859.26733	13529.689
859.87292	13520.689
860.47852	13517.689
861.07715	13736.689
861.68274	13740.689
862.28131	13949.689
862.8869	14020.689
863.48553	13991.689
864.09113	14057.689
864.68976	14235.689
865.28839	14282.689
865.89398	14582.689
866.49255	14566.689
867.09814	14514.689
867.69678	14743.689
868.30237	14633.689
868.901	14584.689
869.49963	14810.689
870.10522	14844.689
870.7038	14935.689
871.30243	14996.689
871.90802	14875.689
872.50665	15018.689
873.10529	15035.689
873.71088	15141.689
874.30945	15195.689
874.90808	15340.689
875.51367	15077.689
876.1123	15317.689
876.71094	15089.689
877.30957	15348.689
877.91516	15419.689
878.51373	15472.689
879.11237	15436.689
879.71796	15302.689
880.31659	15383.689
880.91522	15398.689
881.51385	15427.689
882.11243	15334.689
882.71802	15326.689
883.31665	15358.689
883.91528	15389.689
884.51392	15429.689
885.11255	15487.689
885.71814	15278.689
886.31671	15284.689
886.91534	15452.689
887.51398	15467.689
888.11261	15113.689
888.71124	15304.689
889.30988	15259.689
889.90845	15199.689
890.50708	15209.689
891.11267	15230.689
891.7113	15161.689
892.30994	15242.689
892.90857	15165.689
893.50714	15063.689
894.10577	15102.689
894.70441	15159.689
895.30304	15120.689
895.90167	14935.689
896.50031	14867.689
897.09888	14747.689
897.69751	14687.689
898.29614	14778.689
898.89478	14592.689
899.49341	14596.689
900.09204	14675.689
900.69061	14604.689
901.28925	14522.689
901.88788	14617.689
902.48651	14293.689
903.07819	14364.689
903.67682	14426.689
904.27539	14203.689
904.87402	14172.689
905.47266	14315.689
906.07129	14114.689
906.66992	14045.689
907.26855	14001.689
907.86017	13929.689
908.4588	14044.689
909.05743	13790.689
909.65607	13751.689
910.2547	13620.689
910.85327	13568.689
911.44495	13544.689
912.04358	13530.689
912.64221	13426.689
913.24084	13403.689
913.83948	13318.689
914.43109	13299.689
915.02972	13163.689
915.62836	13022.689
916.22003	13109.689
916.81866	12772.689
917.4173	12663.689
918.01587	12659.689
918.60754	12759.689
919.20618	12671.689
919.80481	12510.689
920.39648	12432.689
920.99506	12224.689
921.59369	12155.689
922.18536	12147.689
922.784	11935.689
923.37567	11988.689
923.9743	11843.689
924.57288	11610.689
925.16455	11700.689
925.76318	11620.689
926.36182	11551.689
926.95349	11624.689
927.55206	11336.689
928.14374	11195.689
928.74237	11076.689
929.33405	11119.689
929.93268	10917.689
930.52429	11114.689
931.12292	10850.689
931.7146	10684.689
932.31323	10640.689
932.90491	10653.689
933.50354	10614.689
934.09515	10446.689
934.69379	10405.689
935.28546	10403.689
935.88409	10190.689
936.47577	10071.689
937.07434	9951.6895
937.66602	10138.689
938.26465	9877.6895
938.85632	9854.6895
939.448	9709.6895
940.04657	9687.6895
940.63824	9629.6895
941.22992	9507.6895
941.82855	9497.6895
942.42023	9332.6895
943.01184	9170.6895
943.61047	9365.6895
944.20215	9248.6895
944.79382	9159.6895
945.39246	9046.6895
945.98407	8963.6895
946.57574	8947.6895
947.17438	8817.6895
947.76605	8757.6895
948.35773	8698.6895
948.95636	8627.6895
949.54797	8473.6895
950.13965	8422.6895
950.73132	8347.6895
951.323	8479.6895
951.92163	8298.6895
952.51324	8229.6895
953.10492	8061.6895
953.69659	8098.6895
954.28827	8019.6895
954.8869	7956.6895
955.47852	7934.6895
956.07019	7759.6895
956.66187	7695.6895
957.25354	7728.6895
957.85211	7611.6895
958.44379	7510.6895
959.03546	7555.6895
959.62714	7533.6895
960.21881	7403.6895
960.81042	7366.6895
961.4021	7185.6895
961.99377	7233.6895
962.58545	7198.6895
963.17712	7174.6895
963.76874	7037.6895
964.36041	7029.6895
964.95905	6949.6895
965.55072	7025.6895
966.13544	6878.1895
966.72705	6778.1895
967.32568	6879.6895
967.91736	6697.6895
968.50903	6800.6895
969.09369	6632.6895
969.68536	6702.6895
970.284	6539.6895
970.86871	6492.6895
971.46039	6546.6895
972.052	6507.1895
972.64368	6482.1895
973.23535	6381.6895
973.82703	6337.1895
974.4187	6292.6895
975.01031	6288.1895
975.60199	6131.6895
976.19366	6138.6895
976.77838	6119.1895
977.37	6162.1895
977.96167	6170.6895
978.55334	6030.1895
979.14502	5944.1895
979.73669	5918.1895
980.32135	5880.6895
980.91302	5821.6895
981.5047	5769.1895
982.09637	5760.1895
982.68805	5823.1895
983.27271	5671.6895
983.86438	5806.6895
984.45605	5676.6895
985.04773	5655.1895
985.63934	5532.6895
986.22406	5515.6895
986.81573	5635.6895
987.40741	5499.6895
987.99908	5392.6895
988.58374	5459.1895
989.17542	5432.6895
989.76013	5410.6895
990.35181	5328.6895
990.94342	5333.6895
991.5351	5329.6895
992.11981	5251.6895
992.71149	5279.1895
993.29614	5220.1895
993.88782	5187.1895
994.47949	5162.1895
995.06421	5151.6895
995.65588	5038.1895
996.2475	5010.6895
996.83221	5134.1895
997.42389	4993.6895
998.00861	4941.6895
998.60022	4931.1895
999.18494	4917.6895
999.77661	4927.1895
1000.3613	4904.6895
1000.953	4906.1895
1001.5377	4842.6895
1002.1293	4806.6895
1002.721	4684.1895
1003.3057	4814.1895
1003.8973	4725.6895
1004.4821	4647.6895
1005.0668	4675.1895
1005.6584	4620.1895
1006.2431	4541.6895
1006.8348	4558.6895
1007.4195	4528.6895
1008.0112	4544.1895
1008.5958	4492.1895
1009.1875	4515.6895
1009.7722	4399.6895
1010.3569	4426.6895
1010.9486	4384.1895
1011.5333	4409.1895
1012.1249	4368.1895
1012.7097	4391.6895
1013.2944	4293.1895
1013.886	4284.1895
1014.4707	4248.1895
1015.0554	4240.1895
1015.6401	4213.1895
1016.2318	4200.6895
1016.8165	4156.1895
1017.4012	4185.6895
1017.9929	4135.6895
1018.5775	4065.1892
1019.1622	4097.6895
1019.7539	4081.6892
1020.3386	4033.6892
1020.9233	3992.6892
1021.508	3953.1892
1022.0927	3899.6892
1022.6844	3940.1892
1023.269	3915.6892
1023.8538	3836.1892
1024.4385	3847.6892
1025.0302	3796.6892
1025.6149	3795.6892
1026.1996	3729.1892
1026.7842	3719.1892
1027.3689	3714.1892
1027.9536	3697.6892
1028.5383	3631.1892
1029.123	3584.1892
1029.7147	3631.6892
1030.2994	3519.1892
1030.8842	3560.6892
1031.4688	3480.6892
1032.0535	3481.1892
1032.6382	3464.1892
1033.2229	3454.1892
1033.8076	3417.1892
1034.3923	3396.6892
1034.9771	3374.1892
1035.5687	3321.1892
1036.1533	3273.6892
1036.738	3266.6892
1037.3228	3250.6892
1037.9005	3220.6892
1038.4852	3209.6892
1039.0699	3186.6892
1039.6547	3163.1892
1040.2394	3067.6892
1040.824	3091.6892
1041.4087	3083.6892
1041.9934	3000.1892
1042.5781	3046.6892
1043.1628	2968.6892
1043.7476	3018.6892
1044.3323	2961.1892
1044.917	2907.1892
1045.5016	2906.6892
1046.0863	2879.6892
1046.6641	2827.1892
1047.2488	2837.1892
1047.8335	2799.1892
1048.4182	2783.1892
1049.0029	2734.6892
1049.5875	2704.1892
1050.1722	2727.6892
1050.75	2642.6892
1051.3347	2632.6892
1051.9194	2577.1892
1052.5042	2578.1892
1053.0889	2578.6892
1053.6666	2587.1892
1054.2512	2584.6892
1054.8359	2504.1892
1055.4207	2457.1892
1055.9984	2503.6892
1056.5831	2483.1892
1057.1678	2451.1892
1057.7526	2392.6892
1058.3302	2403.6892
1058.9149	2393.6892
1059.4996	2359.6892
1060.0774	2326.1892
1060.6621	2265.1892
1061.2468	2322.6892
1061.8246	2284.1892
1062.4093	2276.1892
1062.9939	2257.6892
1063.5717	2197.1892
1064.1564	2193.6892
1064.7411	2183.6892
1065.3188	2207.6892
1065.9036	2183.6892
1066.4883	2156.6892
1067.0659	2129.6892
1067.6506	2157.6892
1068.2284	2076.6892
1068.8131	2068.6892
1069.3978	2034.1892
1069.9756	2068.6892
1070.5603	2024.6892
1071.1381	2009.1892
1071.7227	2049.6892
1072.3004	1988.6892
1072.8782	1984.1892
1073.4629	1956.1892
1074.0406	1930.1892
1074.6254	1947.1892
1075.2031	1894.1892
1075.7877	1909.1892
1076.3655	1906.1892
1076.9502	1891.1892
1077.528	1881.6892
1078.1127	1853.6892
1078.6904	1871.6892
1079.2751	1825.6892
1079.8528	1848.1892
1080.4305	1786.1892
1081.0153	1849.1892
1081.593	1783.6892
1082.1777	1812.6892
1082.7555	1804.6892
1083.3333	1778.1892
1083.9178	1754.6892
1084.4956	1757.1892
1085.0734	1775.1892
1085.6581	1761.6892
1086.2358	1729.6892
1086.8136	1723.6892
1087.3914	1712.1892
1087.976	1704.6892
1088.5537	1714.1892
1089.1315	1692.1892
1089.7162	1699.6892
1090.2939	1721.6892
1090.8717	1674.1892
1091.4495	1662.6892
1092.0341	1661.6892
1092.6118	1647.6892
1093.1896	1651.1892
1093.7673	1633.6892
1094.3521	1639.1892
1094.9298	1614.1892
1095.5076	1648.6892
1096.0852	1612.1892
1096.663	1613.6892
1097.2407	1593.6892
1097.8254	1584.6892
1098.4032	1560.1892
1098.981	1584.1892
1099.5587	1598.1892
1100.1364	1595.6892
1100.7141	1570.1892
1101.2919	1571.6892
1101.8696	1578.1892
1102.4543	1574.1892
1103.0321	1544.1892
1103.6097	1508.1892
1104.1875	1539.1892
1104.7653	1549.1892
1105.343	1548.6892
1105.9208	1527.6892
1106.4985	1535.6892
1107.0763	1514.6892
1107.6539	1510.6892
1108.2317	1515.6892
1108.8094	1520.1892
1109.3872	1501.6892
1109.965	1508.1892
1110.5427	1508.1892
1111.1205	1501.1892
1111.6981	1504.1892
1112.2759	1510.1892
1112.8536	1487.6892
1113.4314	1488.6892
1114.0022	1468.6892
1114.58	1486.6892
1115.1576	1488.6892
1115.7354	1491.6892
1116.3131	1463.1892
1116.8909	1495.6892
1117.4686	1469.6892
1118.0464	1423.6892
1118.6241	1446.6892
1119.1948	1455.6892
1119.7726	1448.1892
1120.3503	1468.6892
1120.9281	1436.6892
1121.5059	1469.1892
1122.0836	1439.1892
1122.6543	1439.6892
1123.2321	1443.6892
1123.8098	1440.1892
1124.3876	1425.6892
1124.9584	1434.1892
1125.5361	1421.1892
1126.1139	1403.6892
1126.6915	1410.6892
1127.2623	1420.6892
1127.8401	1411.1892
1128.4178	1419.1892
1128.9956	1435.1892
1129.5664	1415.6892
1130.144	1407.6892
1130.7218	1417.1892
1131.2996	1424.1892
1131.8704	1427.1892
1132.4481	1406.1892
1133.0259	1426.1892
1133.5967	1375.1892
1134.1743	1388.1892
1134.7451	1408.6892
1135.3229	1370.6892
1135.9006	1420.6892
1136.4714	1421.6892
1137.0492	1390.1892
1137.6199	1387.1892
1138.1976	1392.6892
1138.7684	1401.1892
1139.3462	1384.6892
1139.924	1373.1892
1140.4948	1343.1892
1141.0724	1378.6892
1141.6432	1343.6892
1142.2209	1397.1892
1142.7917	1322.6892
1143.3695	1355.1892
1143.9403	1355.1892
1143.9542	1360.1892
1144.5389	1367.1892
1145.1235	1373.1892
1145.7013	1356.1892
1146.286	1363.1892
1146.8707	1351.1892
1147.4485	1368.1892
1148.0332	1330.1892
1148.611	1365.1892
1149.1956	1327.1892
1149.7733	1346.1892
1150.358	1368.1892
1150.9358	1349.1892
1151.5205	1353.1892
1152.1052	1374.1892
1152.683	1350.1892
1153.2676	1372.1892
1153.8453	1346.1892
1154.4301	1337.1892
1155.0078	1345.1892
1155.5925	1332.1892
1156.1703	1319.1892
1156.755	1327.1892
1157.3328	1315.1892
1157.9174	1305.1892
1158.4951	1323.1892
1159.0798	1352.1892
1159.6576	1318.1892
1160.2354	1345.1892
1160.8201	1315.1892
1161.3978	1328.1892
1161.9824	1317.1892
1162.5602	1330.1892
1163.1379	1339.1892
1163.7227	1326.1892
1164.3004	1300.1892
1164.8782	1320.1892
1165.4629	1312.1892
1166.0405	1345.1892
1166.6183	1332.1892
1167.203	1324.1892
1167.7808	1288.1892
1168.3585	1313.1892
1168.9432	1320.1892
1169.521	1320.1892
1170.0986	1301.1892
1170.6764	1286.1892
1171.2611	1292.1892
1171.8389	1305.1892
1172.4166	1238.1892
1173.0013	1285.1892
1173.5791	1300.1892
1174.1567	1272.1892
1174.7345	1248.1892
1175.3192	1282.1892
1175.897	1301.1892
1176.4747	1253.1892
1177.0525	1265.1892
1177.6302	1338.1892
1178.2148	1274.1892
1178.7926	1256.1892
1179.3704	1261.1892
1179.9481	1304.1892
1180.5259	1285.1892
1181.1036	1278.1892
1181.6813	1259.1892
1182.259	1274.1892
1182.8438	1247.1892
1183.4215	1258.1892
1183.9993	1273.1892
1184.577	1307.1892
1185.1548	1269.1892
1185.7324	1264.1892
1186.3102	1270.1892
1186.8879	1296.1892
1187.4657	1259.1892
1188.0435	1262.1892
1188.6212	1280.1892
1189.199	1235.1892
1189.7766	1232.1892
1190.3544	1233.1892
1190.9321	1294.1892
1191.5099	1280.1892
1192.0876	1236.1892
1192.6654	1253.1892
1193.2432	1320.1892
1193.8208	1236.1892
1194.3986	1262.1892
1194.9763	1276.1892
1195.5541	1256.1892
1196.1318	1261.1892
1196.7096	1249.1892
1197.2872	1237.1892
1197.865	1241.1892
1198.4427	1229.1892
1199.0135	1251.1892
1199.5913	1262.1892
1200.1691	1222.1892
1200.7468	1260.1892
1201.3245	1240.1892
1201.9022	1236.1892
1202.473	1224.1892
1203.0508	1256.1892
1203.6285	1224.1892
1204.2063	1228.1892
1204.7839	1287.1892
1205.3617	1226.1892
1205.9325	1226.1892
1206.5103	1257.1892
1207.088	1245.1892
1207.6658	1235.1892
1208.2366	1217.1892
1208.8142	1212.1892
1209.392	1245.1892
1209.9697	1239.1892
1210.5475	1252.1892
1211.1183	1182.1892
1211.696	1242.1892
1212.2737	1234.1892
1212.8445	1226.1892
1213.4222	1242.1892
1214	1224.1892
1214.5708	1217.1892
1215.1486	1199.1892
1215.7262	1235.1892
1216.297	1195.1892
1216.8748	1212.1892
1217.4456	1210.1892
1218.0233	1218.1892
1218.6011	1201.1892
1219.1719	1242.1892
1219.7495	1189.1892
1220.3273	1216.1892
1220.8981	1241.1892
1221.4758	1196.1892
1222.0466	1232.1892
1222.6244	1204.1892
1223.1951	1250.1892
1223.7728	1236.1892
1224.3436	1196.1892
1224.9214	1213.1892
1225.4991	1222.1892
1226.0699	1187.1892
1226.6476	1212.1892
1227.2184	1204.1892
1227.7961	1235.1892
1228.3669	1218.1892
1228.9377	1209.1892
1229.5155	1195.1892
1230.0933	1198.1892
1230.6639	1189.1892
1231.2347	1222.1892
1231.8125	1227.1892
1232.3833	1244.1892
1232.9611	1235.1892
1233.5319	1233.1892
1234.1025	1212.1892
1234.6803	1207.1892
1235.2511	1179.1892
1235.8219	1204.1892
1236.3997	1221.1892
1236.9705	1203.1892
1237.5481	1195.1892
1238.1189	1224.1892
1238.6897	1177.1892
1239.2675	1216.1892
1239.8383	1231.1892
1240.4091	1203.1892
1240.9797	1212.1892
1241.5575	1221.1892
1242.1283	1220.1892
1242.6991	1187.1892
1243.2699	1197.1892
1243.8477	1197.1892
1244.4183	1203.1892
1244.9891	1214.1892
1245.5669	1208.1892
1246.1377	1237.1892
1246.7085	1205.1892
1247.2793	1201.1892
1247.85	1180.1892
1248.4277	1216.1892
1248.9985	1183.1892
1249.5693	1233.1892
1250.1401	1202.1892
1250.7109	1197.1892
1251.2816	1229.1892
1251.8594	1213.1892
1252.4302	1178.1892
1253.001	1211.1892
1253.5718	1201.1892
1254.1426	1209.1892
1254.7133	1220.1892
1255.291	1196.1892
1255.8618	1212.1892
1256.4326	1219.1892
1257.0034	1182.1892
1257.5741	1192.1892
1258.1449	1202.1892
1258.7157	1212.1892
1259.2865	1210.1892
1259.8573	1198.1892
1260.4281	1172.1892
1260.9988	1192.1892
1261.5696	1225.1892
1262.1404	1179.1892
1262.7112	1211.1892
1263.282	1194.1892
1263.8528	1214.1892
1264.4235	1232.1892
1264.9943	1175.1892
1265.5651	1181.1892
1266.1359	1185.1892
1266.7067	1192.1892
1267.2775	1198.1892
1267.8481	1190.1892
1268.4189	1211.1892
1268.9897	1202.1892
1269.5536	1190.1892
1270.1244	1198.1892
1270.6952	1207.1892
1271.2659	1193.1892
1271.8367	1222.1892
1272.4075	1253.1892
1272.9783	1146.1892
1273.5491	1178.1892
1274.1128	1236.1892
1274.6836	1198.1892
1275.2544	1182.1892
1275.8252	1213.1892
1276.396	1186.1892
1276.9668	1228.1892
1277.5305	1164.1892
1278.1013	1175.1892
1278.6721	1192.1892
1279.2429	1195.1892
1279.8068	1182.1892
1280.3776	1195.1892
1280.9482	1224.1892
1281.519	1192.1892
1282.0829	1193.1892
1282.6537	1191.1892
1283.2245	1195.1892
1283.7882	1201.1892
1284.359	1186.1892
1284.9298	1222.1892
1285.5006	1196.1892
1286.0645	1141.1892
1286.6353	1173.1892
1287.2059	1175.1892
1287.7698	1197.1892
1288.3406	1207.1892
1288.9044	1199.1892
1289.4752	1178.1892
1290.0459	1196.1892
1290.6097	1169.1892
1291.1805	1215.1892
1291.7513	1187.1892
1292.3152	1208.1892
1292.886	1176.1892
1293.4497	1216.1892
1294.0205	1175.1892
1294.5844	1200.1892
1295.1552	1214.1892
1295.719	1204.1892
1296.2897	1223.1892
1296.8535	1207.1892
1297.4243	1205.1892
1297.9882	1197.1892
1298.559	1166.1892
1299.1298	1220.1892
1299.6935	1223.1892
1300.2643	1149.1892
1300.8281	1188.1892
1301.3989	1210.1892
1301.9628	1192.1892
1302.5265	1194.1892
1303.0973	1192.1892
1303.6611	1184.1892
1304.2319	1219.1892
1304.7958	1185.1892
1305.3596	1181.1892
1305.9303	1217.1892
1306.4941	1236.1892
1307.0649	1203.1892
1307.6288	1166.1892
1308.1926	1200.1892
1308.7633	1197.1892
1309.3271	1185.1892
1309.891	1137.1892
1310.4618	1201.1892
1311.0256	1183.1892
1311.5894	1127.1892
1312.1602	1199.1892
1312.724	1193.1892
1313.2878	1234.1892
1313.8517	1185.1892
1314.4225	1192.1892
1314.9862	1207.1892
1315.55	1230.1892
1316.1208	1162.1892
1316.6847	1187.1892
1317.2485	1203.1892
1317.8123	1220.1892
1318.3761	1194.1892
1318.9469	1203.1892
1319.5107	1176.1892
1320.0746	1190.1892
1320.6383	1193.1892
1321.2091	1210.1892
1321.7729	1201.1892
1322.3368	1158.1892
1322.9006	1178.1892
1323.4644	1193.1892
1324.0282	1198.1892
1324.599	1236.1892
1325.1628	1187.1892
1325.7267	1189.1892
1326.2905	1173.1892
1326.8542	1160.1892
1327.4181	1166.1892
1327.9819	1192.1892
1328.5458	1182.1892
1329.1096	1157.1892
1329.6803	1203.1892
1330.2441	1196.1892
1330.808	1205.1892
1331.3718	1195.1892
1331.9357	1169.1892
1332.4994	1188.1892
1333.0632	1192.1892
1333.6271	1186.1892
1334.1909	1214.1892
1334.7548	1218.1892
1335.3185	1162.1892
1335.8823	1210.1892
1336.4462	1178.1892
1337.01	1176.1892
1337.5739	1183.1892
1338.1376	1176.1892
1338.7014	1184.1892
1339.2583	1172.1892
1339.8221	1213.1892
1340.386	1215.1892
1340.9497	1156.1892
1341.5135	1209.1892
1342.0774	1180.1892
1342.6412	1171.1892
1343.2051	1196.1892
1343.7689	1162.1892
1344.3257	1196.1892
1344.8895	1189.1892
1345.4534	1207.1892
1346.0172	1203.1892
1346.5811	1175.1892
1347.1448	1196.1892
1347.7017	1190.1892
1348.2655	1179.1892
1348.8293	1164.1892
1349.3932	1157.1892
1349.9569	1159.1892
1350.5138	1193.1892
1351.0776	1186.1892
1351.6415	1167.1892
1352.2053	1180.1892
1352.7621	1184.1892
1353.3259	1156.1892
1353.8898	1163.1892
1354.4536	1194.1892
1355.0105	1184.1892
1355.5742	1160.1892
1356.1381	1185.1892
1356.6949	1170.1892
1357.2588	1182.1892
1357.8226	1176.1892
1358.3794	1181.1892
1358.9432	1193.1892
1359.5071	1146.1892
1360.064	1209.1892
1360.6277	1197.1892
1361.1915	1178.1892
1361.7484	1180.1892
1362.3123	1148.1892
1362.8761	1197.1892
1363.4329	1181.1892
1363.9897	1184.1892
1364.5536	1172.1892
1365.1174	1204.1892
1365.6743	1185.1892
1366.238	1179.1892
1366.7949	1224.1892
1367.3588	1175.1892
1367.9156	1164.1892
1368.4795	1158.1892
1369.0432	1186.1892
1369.6001	1202.1892
1370.157	1176.1892
1370.7208	1184.1892
1371.2847	1167.1892
1371.8414	1181.1892
1372.4053	1186.1892
1372.9622	1184.1892
1373.519	1196.1892
1374.0829	1178.1892
1374.6396	1217.1892
1375.2035	1116.1892
1375.7604	1157.1892
1376.3242	1152.1892
1376.8811	1187.1892
1377.4379	1181.1892
1378.0017	1184.1892
1378.5586	1201.1892
1379.1224	1172.1892
1379.6792	1178.1892
1380.2361	1173.1892
1380.793	1171.1892
1381.3568	1173.1892
1381.9137	1196.1892
1382.4774	1146.1892
1383.0343	1164.1892
1383.5912	1185.1892
1384.155	1170.1892
1384.7119	1164.1892
1385.2687	1184.1892
1385.8256	1172.1892
1386.3894	1181.1892
1386.9463	1137.1892
1387.5032	1169.1892
1388.0599	1191.1892
1388.6238	1174.1892
1389.1807	1159.1892
1389.7375	1166.1892
1390.2943	1167.1892
1390.8582	1178.1892
1391.415	1150.1892
1391.9719	1157.1892
1392.5288	1205.1892
1393.0856	1173.1892
1393.6494	1197.1892
1394.2063	1161.1892
1394.7632	1168.1892
1395.3201	1162.1892
1395.8768	1185.1892
1396.4337	1168.1892
1396.9976	1181.1892
1397.5544	1173.1892
1398.1113	1152.1892
1398.6681	1180.1892
1399.225	1117.1892
1399.7888	1170.1892
