17.0039	1426.61
17.6805	1398.61
18.3571	1388.61
19.0336	1314.61
19.7123	1370.61
20.3887	1359.61
21.0651	1401.61
21.7414	1381.61
22.4176	1415.61
23.0939	1448.61
23.77	1419.61
24.4462	1542.61
25.1222	1604.61
25.7983	1610.61
26.4742	1607.61
27.1502	1652.61
27.8261	1625.61
28.5019	1657.61
29.1777	1615.61
29.8534	1620.61
30.5291	1699.61
31.2048	1702.61
31.8804	1771.61
32.5559	1827.61
33.2314	1871.61
33.9069	1916.61
34.5823	1959.61
35.2577	2051.61
35.933	2071.61
36.6083	2115.61
37.2835	2166.61
37.9587	2069.61
38.6338	2175.61
39.3066	2155.61
39.9817	2263.61
40.6566	2291.61
41.3316	2392.61
42.0065	2415.61
42.6813	2493.61
43.3539	2547.61
44.0286	2539.61
44.7033	2510.61
45.378	2658.61
46.0526	2682.61
46.7249	2755.61
47.3994	2813.61
48.0739	2775.61
48.7483	2895.61
49.4204	2894.61
50.0947	2914.61
50.769	3104.61
51.4433	3098.61
52.1152	3027.61
52.7893	2968.61
53.4634	3067.61
54.1352	3085.61
54.8092	3156.61
55.4831	3162.61
56.1548	3272.61
56.8286	3289.61
57.5024	3375.61
58.1739	3514.61
58.8477	3511.61
59.5213	3567.61
60.1927	3504.61
60.8663	3346.61
61.5375	3455.61
62.211	3489.61
62.8845	3474.61
63.5556	3468.61
64.2289	3573.61
64.8999	3631.61
65.5732	3598.61
66.2441	3668.61
66.9173	3651.61
67.5881	3711.61
68.2612	3703.61
68.9319	3710.61
69.6049	3781.61
70.2755	3819.61
70.9484	3915.61
71.619	3926.61
72.2918	3790.61
72.9622	3866.61
73.6349	3908.61
74.3053	3902.61
74.9756	4016.61
75.6482	3997.61
76.3184	3891.61
76.9909	3900.61
77.661	3872.61
78.3311	3940.61
79.0034	4026.61
79.6734	3967.61
80.3433	4011.61
81.0155	3979.61
81.6854	4058.61
82.3552	4063.61
83.0272	4112.61
83.6969	4054.61
84.3666	4021.61
85.0385	4032.61
85.7081	3965.61
86.3776	3963.61
87.0471	4055.61
87.7188	4055.61
88.3882	4105.61
89.0575	4111.61
89.7268	4049.61
90.3961	4112.61
91.0676	4191.61
91.7367	4105.61
92.4059	4017.61
93.0749	4105.61
93.7439	4090.61
94.4152	4053.61
95.0841	4052.61
95.753	4095.61
96.4218	4083.61
97.0906	4103.61
97.7594	4156.61
98.4281	4092.61
99.0967	4108.61
99.7676	4128.61
100.436	4099.61
101.105	4055.61
101.773	4157.61
102.442	4099.61
103.11	4120.61
103.778	4055.61
104.447	4176.61
105.115	4145.61
105.783	4176.61
106.451	4195.61
107.119	4071.61
107.787	3981.61
108.455	4062.61
109.123	4045.61
109.791	4090.61
110.459	4042.61
111.127	4059.61
111.795	4108.61
112.462	4045.61
113.13	4091.61
113.795	4067.61
114.463	4120.61
115.13	4073.61
115.798	4022.61
116.465	4066.61
117.133	4026.61
117.8	4036.61
118.467	3973.61
119.132	3966.61
119.8	4018.61
120.467	3973.61
121.134	3960.61
121.801	4070.61
122.466	3977.61
123.133	3926.61
123.8	3957.61
124.467	3913.61
125.133	3962.61
125.798	3964.61
126.465	4001.61
127.131	3966.61
127.796	3931.61
128.462	3869.61
129.129	3985.61
129.796	3948.61
130.46	4025.61
131.126	3934.61
131.793	3924.61
132.457	3988.61
133.123	3895.61
133.789	3887.61
134.453	3846.61
135.119	3860.61
135.783	3847.61
136.449	3955.61
137.115	3898.61
137.779	3900.61
138.445	3955.61
139.108	3855.61
139.774	3892.61
140.438	3797.61
141.104	3843.61
141.769	3787.61
142.433	3838.61
143.098	3775.61
143.762	3794.61
144.427	3715.61
145.09	3724.61
145.756	3746.61
146.419	3736.61
147.084	3834.61
147.747	3684.61
148.41	3751.61
149.075	3666.61
149.738	3710.61
150.403	3716.61
151.066	3627.61
151.731	3736.61
152.394	3672.61
153.056	3715.61
153.721	3591.61
154.384	3686.61
155.046	3620.61
155.711	3637.61
156.374	3561.61
157.036	3609.61
157.701	3680.61
158.363	3591.61
159.025	3617.61
159.69	3610.61
160.352	3587.61
161.014	3578.61
161.676	3544.61
162.34	3565.61
163.002	3543.61
163.664	3518.61
164.326	3593.61
164.99	3585.61
165.652	3509.61
166.314	3507.61
166.975	3500.61
167.637	3511.61
168.301	3506.61
168.962	3565.61
169.624	3545.61
170.285	3527.61
170.947	3476.61
171.608	3410.61
172.272	3479.61
172.933	3447.61
173.594	3489.61
174.255	3405.61
174.917	3448.61
175.578	3419.61
176.239	3394.61
176.9	3408.61
177.561	3434.61
178.222	3382.61
178.882	3408.61
179.543	3347.61
180.204	3405.61
180.865	3387.61
181.526	3446.61
182.186	3422.61
182.847	3351.61
183.507	3355.61
184.168	3381.61
184.828	3363.61
185.489	3344.61
186.149	3382.61
186.809	3336.61
187.47	3316.61
188.13	3377.61
188.79	3268.61
189.45	3324.61
190.11	3258.61
190.768	3272.61
191.428	3252.61
192.088	3324.61
192.748	3263.61
193.408	3315.61
194.068	3227.61
194.728	3242.61
195.385	3235.61
196.045	3310.61
196.705	3232.61
197.364	3221.61
198.021	3304.61
198.681	3256.61
199.34	3293.61
200	3206.61
200.657	3227.61
201.316	3165.61
201.976	3222.61
202.635	3122.61
203.292	3140.61
203.951	3206.61
204.61	3162.61
205.267	3175.61
205.926	3175.61
206.585	3175.61
207.242	3158.61
207.9	3125.61
208.559	3133.61
209.216	3152.61
209.875	3135.61
210.533	3160.61
211.19	3079.61
211.848	3093.61
212.505	3098.61
213.163	3070.61
213.819	3172.61
214.478	3116.61
215.134	3108.61
215.792	3130.61
216.451	3087.61
217.107	3045.61
217.765	3040.61
218.421	3072.61
219.079	3063.61
219.735	2991.61
220.391	3087.61
221.049	2952.61
221.704	3047.61
222.362	2944.61
223.018	3045.61
223.675	3022.61
224.331	2994.61
224.989	2918.61
225.644	3025.61
226.3	3014.61
226.957	3015.61
227.612	3067.61
228.268	2993.61
228.925	2987.61
229.58	2935.61
230.235	2933.61
230.893	3018.61
231.548	2990.61
232.203	2913.61
232.86	2935.61
233.515	3027.61
234.17	2986.61
234.827	3029.61
235.481	2874.61
236.136	2955.61
236.791	2907.61
237.448	2915.61
238.102	2990.61
238.757	2974.61
239.411	2931.61
240.066	2922.61
240.722	2924.61
241.377	2900.61
242.031	2883.61
242.685	2934.61
243.339	2934.61
243.993	2915.61
244.648	2923.61
245.304	2947.61
245.958	2899.61
246.612	2907.61
247.266	2938.61
247.92	2907.61
248.574	2891.61
249.227	2869.61
249.881	2824.61
250.535	2838.61
251.189	2898.61
251.842	2787.61
252.496	2847.61
253.149	2857.61
253.803	2821.61
254.456	2823.61
255.11	2794.61
255.763	2809.61
256.416	2877.61
257.07	2886.61
257.723	2896.61
258.376	2821.61
259.029	2815.61
259.682	2868.61
260.335	2857.61
260.988	2849.61
261.641	2783.61
262.294	2743.61
262.947	2853.61
263.598	2808.61
264.251	2746.61
264.903	2780.61
265.556	2817.61
266.209	2775.61
266.861	2844.61
267.512	2825.61
268.164	2788.61
268.817	2792.61
269.469	2709.61
270.121	2762.61
270.772	2783.61
271.424	2864.61
272.076	2832.61
272.728	2735.61
273.378	2785.61
274.03	2811.61
274.682	2775.61
275.332	2783.61
275.984	2755.61
276.636	2764.61
277.288	2752.61
277.938	2762.61
278.59	2798.61
279.239	2763.61
279.891	2737.61
280.542	2655.61
281.192	2695.61
281.843	2743.61
282.495	2713.61
283.144	2683.61
283.796	2681.61
284.445	2819.61
285.096	2794.61
285.745	2755.61
286.397	2714.61
287.048	2751.61
287.697	2694.61
288.348	2681.61
288.997	2729.61
289.648	2631.61
290.297	2642.61
290.948	2729.61
291.596	2755.61
292.247	2711.61
292.896	2677.61
293.544	2676.61
294.195	2661.61
294.844	2726.61
295.494	2668.61
296.143	2629.61
296.793	2692.61
297.441	2682.61
298.09	2707.61
298.74	2743.61
299.388	2668.61
300.036	2741.61
300.687	2663.61
301.335	2671.61
301.983	2686.61
302.633	2628.61
303.281	2689.61
303.929	2670.61
304.579	2685.61
305.227	2633.61
305.874	2676.61
306.522	2652.61
307.172	2597.61
307.819	2596.61
308.467	2620.61
309.114	2621.61
309.764	2591.61
310.412	2642.61
311.059	2634.61
311.706	2535.61
312.354	2662.61
313.003	2674.61
313.65	2655.61
314.297	2668.61
314.944	2637.61
315.592	2568.61
316.239	2645.61
316.886	2670.61
317.535	2609.61
318.182	2677.61
318.828	2632.61
319.475	2575.61
320.122	2559.61
320.769	2687.61
321.415	2650.61
322.062	2632.61
322.709	2600.61
323.355	2655.61
324.002	2700.61
324.648	2627.61
325.294	2577.61
325.941	2658.61
326.587	2630.61
327.233	2582.61
327.88	2609.61
328.526	2634.61
329.172	2583.61
329.818	2548.61
330.464	2621.61
331.11	2645.61
331.754	2628.61
332.4	2627.61
333.046	2506.61
333.692	2555.61
334.337	2634.61
334.983	2563.61
335.629	2565.61
336.275	2558.61
336.918	2601.61
337.564	2621.61
338.209	2613.61
338.855	2596.61
339.5	2643.61
340.143	2559.61
340.789	2589.61
341.434	2623.61
342.079	2650.61
342.722	2627.61
343.367	2501.61
344.012	2567.61
344.658	2577.61
345.3	2523.61
345.945	2627.61
346.59	2617.61
347.233	2581.61
347.878	2589.61
348.523	2576.61
349.165	2581.61
349.81	2627.61
350.455	2655.61
351.097	2586.61
351.742	2605.61
352.384	2621.61
353.029	2579.61
353.673	2586.61
354.315	2577.61
354.96	2538.61
355.602	2531.61
356.246	2535.61
356.888	2664.61
357.533	2594.61
358.175	2650.61
358.819	2570.61
359.461	2569.61
360.105	2630.61
360.746	2546.61
361.39	2553.61
362.032	2577.61
362.676	2670.61
363.318	2483.61
363.961	2550.61
364.603	2600.61
365.247	2546.61
365.888	2607.61
366.529	2489.61
367.173	2554.61
367.814	2573.61
368.456	2646.61
369.099	2587.61
369.74	2573.61
370.381	2612.61
371.025	2601.61
371.666	2515.61
372.307	2608.61
372.95	2577.61
373.591	2609.61
374.232	2614.61
374.875	2604.61
375.516	2564.61
376.156	2580.61
376.797	2613.61
377.44	2576.61
378.081	2513.61
378.721	2627.61
379.362	2568.61
380.002	2589.61
380.645	2632.61
381.285	2620.61
381.926	2596.61
382.566	2577.61
383.206	2579.61
383.847	2557.61
384.489	2565.61
385.129	2560.61
385.769	2655.61
386.409	2613.61
387.049	2597.61
387.689	2637.61
388.329	2576.61
388.969	2621.61
389.609	2542.61
390.249	2574.61
390.889	2585.61
391.528	2607.61
392.168	2587.61
392.81	2601.61
393.449	2573.61
394.089	2568.61
394.726	2633.61
395.366	2590.61
396.005	2586.61
396.645	2617.61
397.284	2581.61
397.923	2607.61
398.562	2590.61
399.202	2584.61
399.841	2587.61
400.48	2650.61
401.119	2634.61
401.758	2661.61
402.397	2648.61
403.034	2585.61
403.673	2651.61
404.311	2687.61
404.95	2681.61
405.589	2606.61
406.228	2608.61
406.864	2612.61
407.503	2605.61
408.142	2645.61
408.78	2555.61
409.419	2694.61
410.055	2607.61
410.693	2636.61
411.332	2673.61
411.968	2702.61
412.606	2653.61
413.244	2680.61
413.883	2655.61
414.519	2720.61
415.157	2722.61
415.795	2655.61
416.431	2723.61
417.069	2611.61
417.707	2606.61
418.342	2648.61
418.98	2666.61
419.616	2724.61
420.254	2765.61
420.891	2745.61
421.527	2682.61
422.165	2667.61
422.8	2731.61
423.438	2670.61
424.075	2676.61
424.71	2666.61
425.348	2724.61
425.983	2710.61
426.62	2703.61
427.256	2675.61
427.893	2751.61
428.528	2723.61
429.165	2752.61
429.8	2708.61
430.435	2707.61
431.072	2667.61
431.707	2781.61
432.344	2730.61
432.979	2719.61
433.615	2711.61
434.25	2727.61
434.885	2837.61
435.521	2710.61
436.156	2738.61
436.79	2738.61
437.427	2771.61
438.061	2827.61
438.696	2807.61
439.332	2810.61
439.967	2788.61
440.601	2756.61
441.237	2738.61
441.871	2743.61
442.505	2793.61
443.142	2834.61
443.776	2712.61
444.41	2743.61
445.044	2804.61
445.678	2780.61
446.314	2881.61
446.947	2827.61
447.581	2840.61
448.215	2789.61
448.849	2780.61
449.484	2850.61
450.118	2893.61
450.752	2795.61
451.385	2862.61
452.018	2831.61
452.652	2901.61
453.285	2823.61
453.921	2778.61
454.554	2795.85
455.187	2883.68
455.821	2863.93
456.454	2796.5
457.087	2822.85
457.72	2863.57
458.353	2905.54
458.986	2879.9
459.619	2862.83
460.252	2862.1
460.885	2869.62
461.518	2873.17
462.15	2857.88
462.783	2906.69
463.416	2875.91
464.048	2924.28
464.681	2899.53
465.314	2846.14
465.946	2898.94
466.579	2878.85
467.209	2873.76
467.841	2929.83
468.474	2935.24
469.106	2920.08
469.738	2908.98
470.371	2934.79
471.003	2960.59
471.633	2941.98
472.265	2928.93
472.897	2939.36
473.529	2915.59
474.161	2955.23
474.791	2975.37
475.423	2991.16
476.054	3054.73
476.686	3025.26
477.318	3003.2
477.948	2994.72
478.579	3025.59
479.211	3027.71
479.84	3052.94
480.472	3011.46
481.103	3006.28
481.733	3092.15
482.364	2997.21
482.996	3089.74
483.625	3095.95
484.256	3076.1
484.887	3047.6
485.516	3107.96
486.148	3092.48
486.779	3094.18
487.408	3125.34
488.039	3126.2
488.668	3166.91
489.298	3139.6
489.927	3227.33
490.558	3161.06
491.187	3286.89
491.818	3297.93
492.446	3215.57
493.077	3321.86
493.705	3301.28
494.336	3275.7
494.964	3293.58
495.595	3365.73
496.223	3354.77
496.854	3400.54
497.482	3313.53
498.112	3401.66
498.741	3385.03
499.371	3446.79
499.999	3452.35
500.627	3440.29
501.257	3547.28
501.885	3503.88
502.513	3492.89
503.143	3528.42
503.771	3560.25
504.399	3557.53
505.029	3586.08
505.656	3617
506.284	3671.73
506.914	3564.96
507.541	3660.2
508.169	3714.07
508.796	3695.06
509.426	3731.05
510.054	3750.86
510.681	3747.73
511.308	3759.65
511.938	3766.39
512.565	3808.78
513.192	3819.91
513.819	3829.06
514.446	3870.34
515.076	3828.12
515.703	3862.74
516.33	3918.05
516.957	3911.62
517.584	3910.4
518.21	4003.96
518.837	3954.23
519.464	3945.17
520.093	3998.57
520.72	4075.13
521.346	4039.96
521.973	4114.09
522.6	4057.87
523.226	4083.28
523.853	4113.9
524.479	4122.62
525.105	4147.77
525.732	4175.03
526.358	4201.29
526.984	4251.92
527.611	4277.63
528.237	4232.77
528.863	4264.86
529.489	4384.12
530.115	4328.97
530.741	4345.82
531.365	4359.82
531.991	4407.27
532.617	4419.43
533.243	4433.13
533.869	4426.81
534.495	4441.4
535.12	4432.08
535.746	4431.65
536.369	4477.91
536.995	4445.07
537.621	4543.58
538.246	4576.29
538.872	4544.69
539.495	4515.29
540.12	4503.74
540.746	4604.31
541.371	4577.42
541.994	4590.09
542.62	4577.65
543.245	4571.52
543.87	4599.03
544.493	4619.02
545.118	4630.67
545.743	4592.12
546.366	4600.55
546.991	4636.48
547.616	4624.93
548.238	4582.82
548.863	4592.08
549.488	4548.89
550.111	4587.59
550.735	4540.55
551.36	4601.24
551.982	4572.55
552.607	4551.46
553.229	4595.54
553.854	4503.7
554.476	4576.02
555.101	4557.87
555.723	4471.34
556.347	4519
556.969	4518.8
557.594	4489
558.216	4458.77
558.84	4410.3
559.462	4433.14
560.086	4436.43
560.708	4366.3
561.332	4394.2
561.954	4378.85
562.578	4387
563.199	4325.5
563.821	4287.87
564.445	4302.78
565.066	4246.96
565.69	4285.74
566.312	4176.19
566.933	4201.79
567.557	4168.96
568.178	4151.07
568.799	4160.19
569.423	4156.29
570.044	4080.27
570.665	4075.53
571.289	4063.91
571.91	4063.42
572.531	4044.17
573.152	3957.9
573.775	3941.58
574.396	3912.59
575.017	3952.02
575.638	3948.53
576.261	3877.98
576.882	3891.87
577.503	3806.35
578.123	3778.71
578.744	3770.64
579.365	3714.49
579.987	3715.91
580.608	3717.55
581.229	3688.12
581.849	3613.5
582.47	3662.37
583.09	3587.04
583.71	3604.35
584.331	3531.97
584.951	3499.51
585.571	3469.73
586.194	3474.5
586.814	3460.96
587.434	3444.27
588.054	3401.01
588.674	3389.87
589.294	3345.91
589.914	3333.32
590.534	3339.13
591.154	3339.91
591.774	3315.77
592.391	3251.41
593.011	3321.36
593.631	3283.7
594.25	3256.62
594.87	3219.72
595.49	3192.67
596.109	3160.84
596.729	3117.92
597.348	3088.26
597.967	3085.81
598.585	3051.65
599.204	3039.36
599.823	3014.41
600.443	3019.83
601.062	2989.36
601.681	2953.98
602.298	2961.5
602.917	2993.68
603.536	2917.24
604.155	2892.71
604.772	2885.47
605.391	2862.15
606.01	2890.03
606.629	2872.77
607.245	2816.42
607.864	2767.77
608.483	2805.74
609.099	2820.2
609.718	2790.39
610.337	2779.17
610.953	2744.7
611.572	2732.93
612.19	2711.84
612.806	2683.53
613.425	2697.17
614.043	2721.63
614.659	2660.42
615.278	2626.18
615.894	2660.45
616.512	2600.26
617.128	2621.29
617.746	2644.45
618.364	2576.04
618.98	2561.59
619.598	2539.67
620.214	2578.13
620.832	2579.08
621.448	2513.01
622.065	2538.13
622.681	2469.62
623.297	2519.87
623.914	2467.78
624.53	2475.29
625.148	2454.49
625.763	2435.51
626.381	2452.42
626.996	2428.13
627.611	2458.98
628.229	2445.58
628.844	2412.14
629.459	2396.55
630.076	2390.58
630.692	2384.96
631.307	2376.79
631.924	2360.67
632.539	2318.84
633.154	2318.73
633.771	2302.86
634.386	2323.18
635.001	2302.54
635.615	2327.26
636.232	2294.32
636.847	2243.9
637.462	2276.31
638.076	2258.84
638.693	2253.88
639.308	2262.15
639.922	2263
640.537	2225.46
641.151	2221.16
641.768	2207.13
642.382	2179.03
642.996	2145.77
643.611	2161.56
644.225	2175.7
644.839	2165.53
645.453	2161.82
646.067	2139.6
646.681	2114.56
647.295	2067.82
647.912	2061.12
648.526	2096.37
649.139	2069.35
649.753	2077.92
650.367	2084.03
650.981	2039.87
651.595	2047.72
652.208	2078.9
652.822	2028
653.436	2070.08
654.049	2019.71
654.663	2049.76
655.274	1992.47
655.888	1997.45
656.501	1965.98
657.115	1980.05
657.728	1947.39
658.333	2003.39
658.954	1978.39
659.574	1970.39
660.196	1916.39
660.816	1992.39
661.435	1932.39
662.057	1899.39
662.676	1941.39
663.298	1923.39
663.917	1882.39
664.537	1887.39
665.158	1889.39
665.777	1862.39
666.399	1826.39
667.018	1894.39
667.637	1869.39
668.258	1874.39
668.877	1824.39
669.496	1854.39
670.118	1806.39
670.737	1793.39
671.355	1799.39
671.974	1799.39
672.595	1815.39
673.214	1742.39
673.833	1770.39
674.452	1807.39
675.072	1749.39
675.691	1795.39
676.31	1765.39
676.928	1762.39
677.549	1722.39
678.167	1724.39
678.786	1734.39
679.404	1712.39
680.022	1711.39
680.641	1724.39
681.261	1667.39
681.879	1683.39
682.497	1716.39
683.116	1694.39
683.734	1685.39
684.352	1678.39
684.97	1671.39
685.588	1708.39
686.206	1664.39
686.824	1688.39
687.441	1625.39
688.059	1670.39
688.677	1641.39
689.297	1659.39
689.915	1614.39
690.532	1595.39
691.15	1637.39
691.765	1621.39
692.383	1626.39
693	1577.39
693.618	1624.39
694.235	1619.39
694.852	1593.39
695.47	1586.39
696.087	1587.39
696.704	1583.39
697.321	1599.39
697.939	1587.39
698.556	1505.39
699.173	1561.39
699.788	1569.39
700.405	1573.39
701.022	1603.39
701.639	1589.39
702.255	1530.39
702.872	1574.39
703.487	1579.39
704.104	1545.39
704.72	1551.39
705.337	1553.39
705.954	1523.39
706.568	1532.39
707.185	1517.39
707.801	1562.39
708.416	1531.39
709.032	1569.39
709.648	1555.39
710.265	1551.39
710.879	1537.39
711.495	1559.39
712.111	1503.39
712.725	1535.39
713.341	1533.39
713.958	1502.39
714.572	1478.39
715.188	1512.39
715.804	1497.39
716.417	1508.39
717.033	1555.39
717.647	1499.39
718.263	1534.39
718.876	1541.39
719.492	1489.39
720.108	1507.39
720.721	1560.39
721.337	1570.39
721.95	1574.39
722.566	1504.39
723.179	1529.39
723.795	1509.39
724.408	1510.39
725.023	1556.39
725.637	1542.39
726.252	1563.39
726.865	1570.39
727.48	1510.39
728.093	1501.39
728.706	1545.39
729.321	1550.39
729.934	1560.39
730.549	1573.39
731.162	1548.39
731.775	1559.39
732.39	1565.39
733.003	1553.39
733.615	1558.39
734.23	1518.39
734.843	1553.39
735.455	1572.39
736.07	1602.39
736.682	1580.39
737.295	1553.39
737.909	1597.39
738.522	1596.39
739.134	1556.39
739.746	1598.39
740.361	1596.39
740.973	1598.39
741.585	1602.39
742.197	1588.39
742.809	1636.39
743.423	1600.39
744.035	1632.39
744.647	1640.39
745.259	1619.39
745.871	1652.39
746.485	1636.39
747.097	1593.39
747.708	1618.39
748.32	1644.39
748.932	1604.39
749.544	1630.39
750.155	1631.39
750.767	1620.39
751.378	1659.39
751.99	1643.39
752.601	1672.39
753.215	1637.39
753.826	1624.39
754.437	1690.39
755.049	1683.39
755.66	1738.39
756.271	1656.39
756.882	1665.39
757.493	1706.39
758.104	1661.39
758.715	1692.39
759.324	1709.39
759.935	1632.39
760.546	1702.39
761.157	1698.39
761.768	1677.39
762.379	1708.39
762.989	1706.39
763.6	1716.39
764.211	1698.39
764.821	1708.39
765.43	1711.39
766.04	1723.39
766.651	1719.39
767.261	1715.39
767.872	1710.39
768.482	1709.39
769.09	1683.39
769.701	1678.39
770.311	1705.39
770.921	1706.39
771.531	1721.39
772.139	1725.39
772.75	1722.39
773.36	1680.39
773.967	1680.39
774.577	1709.39
775.187	1709.39
775.797	1709.39
776.405	1738.39
777.015	1686.39
777.625	1689.39
778.232	1686.39
778.842	1745.39
779.452	1638.39
780.059	1677.39
780.669	1664.39
781.276	1711.39
781.886	1691.39
782.495	1688.39
783.103	1698.39
783.712	1683.39
784.319	1688.39
784.929	1666.39
785.536	1688.39
786.145	1666.39
786.752	1667.39
787.361	1662.39
787.968	1654.39
788.577	1660.39
789.184	1620.39
789.793	1650.39
790.4	1623.39
791.009	1644.39
791.616	1646.39
792.224	1628.39
792.831	1658.39
793.44	1618.39
794.047	1613.39
794.653	1639.39
795.262	1620.39
795.868	1563.39
796.477	1629.39
797.083	1601.39
797.69	1592.39
798.298	1559.39
798.904	1593.39
799.511	1609.39
800.119	1571.39
800.725	1581.39
801.331	1536.39
801.937	1571.39
802.545	1563.39
803.151	1531.39
803.757	1524.39
804.365	1525.39
804.971	1488.39
805.577	1507.39
806.183	1542.39
806.789	1516.39
807.397	1527.39
808.002	1489.39
808.608	1469.39
809.214	1458.39
809.819	1524.39
810.425	1462.39
811.032	1453.39
811.638	1468.39
812.243	1472.39
812.849	1441.39
813.454	1464.39
814.059	1441.39
814.664	1394.39
815.27	1424.39
815.875	1396.39
816.48	1385.39
817.087	1425.39
817.692	1424.39
818.297	1384.39
818.902	1355.39
819.507	1405.39
820.112	1342.39
820.717	1329.39
821.322	1360.39
821.927	1348.39
822.529	1354.39
823.134	1331.39
823.739	1352.39
824.343	1297.39
824.948	1309.39
825.552	1257.39
826.157	1303.39
826.761	1288.39
827.366	1315.39
827.97	1233.39
828.575	1291.39
829.177	1268.39
829.781	1284.39
830.385	1282.39
830.989	1300.39
831.594	1221.39
832.198	1269.39
832.8	1254.39
833.404	1293.39
834.008	1236.39
834.612	1200.39
835.214	1210.39
835.817	1239.39
836.421	1202.39
837.025	1232.39
837.627	1190.39
838.23	1199.39
838.834	1216.39
839.436	1211.39
840.039	1147.39
840.643	1209.39
841.244	1206.39
841.848	1171.39
842.451	1187.39
843.053	1152.39
843.656	1186.39
844.259	1179.39
844.86	1143.39
845.464	1158.39
846.065	1152.39
846.668	1149.39
847.271	1137.39
847.872	1145.39
848.475	1116.39
849.076	1123.39
849.679	1110.39
850.28	1129.39
850.883	1132.39
851.484	1127.39
852.086	1115.39
852.687	1105.39
853.29	1085.39
853.89	1077.39
854.493	1074.39
855.094	1102.39
855.694	1073.39
856.297	1078.39
856.897	1096.39
857.5	1128.39
858.1	1127.39
858.7	1082.39
859.303	1061.39
859.903	1031.39
860.505	1070.39
861.105	1026.39
861.705	1011.39
862.307	1051.39
862.908	1051.39
863.508	1038.39
864.107	1050.39
864.709	1060.39
865.309	1042.39
865.909	1033.39
866.511	1006.39
867.111	1013.39
867.711	1001.39
868.31	1003.39
868.91	1026.39
869.512	1016.39
870.111	988.386
870.711	1032.39
871.31	964.386
871.909	961.386
872.511	1017.39
873.11	1020.39
873.71	982.386
874.309	973.386
874.908	988.386
875.507	983.386
876.107	983.386
876.706	986.386
877.307	965.386
877.906	985.386
878.505	957.386
879.104	942.386
879.703	977.386
880.302	979.386
880.901	945.386
881.5	957.386
882.098	937.386
882.697	968.386
883.296	950.386
883.894	936.386
884.493	965.386
885.092	920.386
885.69	922.386
886.289	942.386
886.885	898.386
887.483	936.386
888.082	889.386
888.68	905.386
889.279	932.386
889.877	901.386
890.475	906.386
891.073	909.386
891.671	911.386
892.267	889.386
892.866	875.386
893.464	886.386
894.062	880.386
894.66	906.386
895.255	860.386
895.853	896.386
896.451	889.386
897.049	854.386
897.645	875.386
898.242	834.769
898.84	893.584
899.438	863.831
900.033	871.989
900.631	879.121
901.228	876.029
901.824	848.2
902.421	833.702
903.019	834.474
903.614	841.451
904.211	862.969
904.809	833.592
905.404	837.998
906.001	839.906
906.598	822.097
907.193	794.071
907.791	842.272
908.386	832.265
908.983	810.262
909.578	805.76
910.174	825.126
910.769	785.271
911.366	809.839
911.963	777.938
912.558	801.568
913.155	768.073
913.749	785.274
914.344	781.617
914.94	770.468
915.535	770.479
916.132	792.061
916.726	763.511
917.323	759.382
917.917	770.271
918.513	761.521
919.108	781.875
919.702	761.129
920.298	763.382
920.892	731.414
921.487	733.899
922.083	755.847
922.677	734.601
923.271	758.503
923.867	730.95
924.461	721.325
925.055	735.527
925.651	710.138
926.245	686.38
926.839	703.022
927.432	712.707
928.028	731.547
928.622	698.281
929.215	670.885
929.809	702.556
930.405	690.538
930.998	677.86
931.592	686.498
932.185	692.656
932.779	695.76
933.372	687.113
933.968	685.582
934.561	654.799
935.154	670.141
935.747	665.959
936.341	675.398
936.934	673.083
937.527	656.867
938.12	650.254
938.713	636.734
939.308	637.772
939.901	638.794
940.494	635.647
941.087	644.764
941.68	624.407
942.273	622.77
942.865	623.892
943.458	615.803
944.051	611.121
944.643	641.014
945.236	601.753
945.829	598.063
946.419	595.446
947.012	603.753
947.604	595.526
948.196	587.213
948.789	561.425
949.381	582.948
949.974	574.402
950.566	584.093
951.158	552.763
951.75	573.402
952.34	564.068
952.933	543.649
953.525	562.758
954.117	556.494
954.709	544.842
955.299	527.508
955.891	551.479
956.482	536.7
957.074	540.851
957.666	529.736
958.256	506.099
958.848	528.976
959.439	526.592
960.029	507.788
960.621	517.143
961.212	520.75
961.804	492.176
962.393	506.324
962.985	496.532
963.576	507.66
964.165	486.541
964.757	484.591
965.346	490.983
965.937	485.135
966.529	471.927
967.118	478.036
967.709	469.392
968.298	485.646
968.889	472.303
969.48	465.748
970.069	453.979
970.66	463.943
971.249	465.223
971.84	461.642
972.429	453.309
973.02	461.213
973.608	454.15
974.199	451.553
974.788	444.757
975.379	436.394
975.967	442.829
976.556	445.816
977.146	432.664
977.735	424.984
978.325	431.915
978.914	424.984
979.502	410.891
980.092	422.637
980.681	429.911
981.271	433.97
981.859	413.627
982.447	413.683
983.037	418.379
983.626	404.943
984.214	400.062
984.804	412.323
985.392	411.309
985.98	407.996
986.568	399.55
987.158	387.943
987.745	377.86
988.333	394.88
988.921	386.774
989.511	390.219
990.098	405.114
990.686	380.754
991.274	394.694
991.861	378.767
992.449	394.536
993.038	370.694
993.626	368.463
994.213	373.694
994.8	391.07
995.388	391.624
995.975	373.188
996.562	374.984
997.15	379.469
997.739	375.604
998.326	374.809
998.913	381.977
999.5	375.089
1000.09	377.689
1000.67	369.808
1001.26	348.079
1001.85	365.633
1002.44	364.27
1003.02	356.613
1003.61	353.54
1004.2	368.187
1004.78	359.89
1005.37	358.56
1005.96	358.371
1006.54	351.004
1007.13	352.209
1007.71	350.191
1008.3	352.486
1008.89	356.98
1009.47	354.785
1010.06	354.277
1010.65	344.615
1011.23	355.621
1011.82	348.836
1012.4	358.363
1012.99	338.086
1013.57	346.451
1014.16	353.944
1014.74	359.224
1015.33	336.549
1015.92	357.397
1016.5	350.729
1017.09	340.348
1017.67	323.032
1018.26	341.669
1018.84	337.691
1019.43	348.436
1020.01	337.04
1020.6	338.859
1021.18	324.448
1021.77	340.426
1022.35	338.682
1022.94	329.215
1023.52	342.851
1024.11	335.841
1024.69	328.475
1025.28	326.326
1025.86	332.537
1026.45	330.074
1027.03	335.103
1027.62	338.803
1028.2	338.943
1028.78	335.449
1029.37	334.939
1029.95	336.485
1030.54	330.672
1031.12	314.059
1031.71	315.475
1032.29	319.642
1032.87	324.133
1033.46	340.179
1034.04	324.726
1034.62	323.255
1035.21	313.247
1035.79	326.592
1036.37	312.093
1036.96	327.715
1037.54	320.804
1038.13	327.7
1038.71	306.52
1039.29	333.061
1039.88	339.634
1040.46	332.058
1041.04	311.65
1041.62	308.348
1042.21	330.732
1042.79	336.778
1043.37	316.394
1043.96	317.103
1044.54	326.456
1045.12	305.717
1045.7	320.184
1046.29	321.822
1046.87	315.697
1047.45	313.357
1048.03	314.663
1048.62	313.916
1049.2	321.551
1049.78	317.81
1050.36	318.597
1050.95	314.316
1051.53	300.663
1052.11	320.214
1052.69	320.94
1053.27	308.009
1053.85	308.128
1054.43	334.256
1055.02	330.355
1055.6	299.553
1056.18	311.711
1056.76	302.896
1057.34	322.437
1057.93	308.097
1058.51	299.889
1059.09	320.559
1059.67	318.156
1060.25	312.737
1060.83	306.017
1061.41	311.156
1061.99	314.469
1062.57	306.086
1063.16	312.225
1063.73	330.291
1064.31	316.482
1064.9	301.363
1065.48	313.475
1066.06	309.98
1066.64	312.353
1067.22	321.184
1067.8	301.201
1068.38	318.006
1068.96	329.029
1069.54	309.824
1070.12	303.946
1070.7	320.154
1071.28	316.329
1071.86	316.698
1072.44	310.583
1073.02	311.995
1073.6	313.609
1074.18	291.52
1074.76	291.556
1075.34	296.569
1075.92	303.905
1076.5	300.572
1077.08	317.351
1077.46	293.351
1078.04	303.351
1078.63	319.351
1079.22	313.351
1079.81	311.351
1080.39	322.351
1080.98	297.351
1081.57	298.351
1082.15	302.351
1082.74	289.351
1083.33	317.351
1083.92	290.351
1084.5	301.351
1085.09	304.351
1085.68	317.351
1086.26	315.351
1086.85	302.351
1087.43	309.351
1088.02	291.351
1088.61	284.351
1089.2	303.351
1089.78	304.351
1090.37	305.351
1090.95	293.351
1091.54	291.351
1092.13	299.351
1092.71	311.351
1093.3	287.351
1093.88	295.351
1094.47	296.351
1095.06	313.351
1095.64	297.351
1096.23	301.351
1096.81	296.351
1097.4	301.351
1097.98	285.351
1098.57	303.351
1099.16	310.351
1099.74	296.351
1100.32	280.351
1100.91	302.351
1101.5	303.351
1102.08	303.351
1102.67	294.351
1103.25	304.351
1103.84	294.351
1104.42	293.351
1105.01	281.351
1105.59	279.351
1106.17	309.351
1106.76	298.351
1107.35	265.351
1107.93	287.351
1108.51	297.351
1109.1	293.351
1109.68	288.351
1110.27	291.351
1110.85	292.351
1111.44	304.351
1112.02	290.351
1112.6	290.351
1113.19	294.351
1113.77	304.351
1114.36	278.351
1114.94	281.351
1115.52	283.351
1116.11	317.351
1116.69	292.351
1117.28	281.351
1117.86	295.351
1118.44	300.351
1119.03	278.351
1119.61	290.351
1120.19	287.351
1120.78	295.351
1121.36	281.351
1121.94	267.351
1122.52	286.351
1123.11	282.351
1123.69	293.351
1124.27	267.351
1124.86	278.351
1125.44	286.351
1126.02	280.351
1126.61	275.351
1127.19	293.351
1127.77	304.351
1128.35	268.351
1128.94	277.351
1129.52	266.351
1130.1	289.351
1130.68	285.351
1131.27	267.351
1131.85	283.351
1132.43	276.351
1133.01	301.351
1133.6	287.351
1134.18	285.351
1134.76	290.351
1135.34	289.351
1135.92	270.351
1136.5	289.351
1137.09	282.351
1137.67	269.351
1138.25	263.351
1138.83	273.351
1139.41	281.351
1139.99	276.351
1140.58	275.351
1141.16	290.351
1141.74	304.351
1142.32	277.351
1142.9	273.351
1143.48	267.351
1144.06	291.351
1144.64	274.351
1145.22	282.351
1145.81	271.351
1146.39	297.351
1146.97	289.351
1147.55	264.351
1148.13	271.351
1148.71	281.351
1149.29	273.351
1149.87	266.351
1150.45	282.351
1151.03	286.351
1151.61	285.351
1152.19	273.351
1152.77	272.351
1153.35	273.351
1153.93	269.351
1154.51	260.351
1155.09	274.351
1155.67	263.351
1156.25	286.351
1156.83	267.351
1157.41	273.351
1157.99	296.351
1158.57	270.351
1159.15	271.351
1159.73	267.351
1160.31	283.351
1160.89	264.351
1161.47	266.351
1162.05	273.351
1162.63	273.351
1163.21	280.351
1163.79	262.351
1164.36	280.351
1164.95	280.351
1165.52	272.351
1166.1	248.351
1166.68	290.351
1167.26	289.351
1167.84	265.351
1168.42	256.351
1169	258.351
1169.57	251.351
1170.15	278.351
1170.73	247.351
1171.31	271.351
1171.89	267.351
1172.47	265.351
1173.05	267.351
1173.62	261.351
1174.2	275.351
1174.78	273.351
1175.36	260.351
1175.94	251.351
1176.51	275.351
1177.09	277.351
1177.67	278.351
1178.25	257.351
1178.83	263.351
1179.4	262.351
1179.98	258.351
1180.56	269.351
1181.14	273.351
1181.71	258.351
1182.29	252.351
1182.87	258.351
1183.44	265.351
1184.02	270.351
1184.6	250.351
1185.18	257.351
1185.75	283.351
1186.33	275.351
1186.91	263.351
1187.48	253.351
1188.06	261.351
1188.64	264.351
1189.21	256.351
1189.79	262.351
1190.37	255.351
1190.94	266.351
1191.52	263.351
1192.1	246.351
1192.67	273.351
1193.25	267.351
1193.83	252.351
1194.4	250.351
1194.98	274.351
1195.55	260.351
1196.13	264.351
1196.71	268.351
1197.28	238.351
1197.86	279.351
1198.43	244.351
1199.01	257.351
1199.59	263.351
1200.16	255.351
