17.0039	1094.18
17.6805	1101.18
18.3571	1107.18
19.0336	1088.18
19.7123	1103.18
20.3887	1087.18
21.0651	1078.18
21.7414	1104.18
22.4176	1106.18
23.0939	1143.18
23.77	1181.18
24.4462	1168.18
25.1222	1231.18
25.7983	1247.18
26.4742	1230.18
27.1502	1232.18
27.8261	1303.18
28.5019	1237.18
29.1777	1263.18
29.8534	1282.18
30.5291	1314.18
31.2048	1332.18
31.8804	1315.18
32.5559	1443.18
33.2314	1454.18
33.9069	1451.18
34.5823	1504.18
35.2577	1602.18
35.933	1592.18
36.6083	1645.18
37.2835	1651.18
37.9587	1654.18
38.6338	1634.18
39.3066	1688.18
39.9817	1734.18
40.6566	1770.18
41.3316	1876.18
42.0065	1914.18
42.6813	1953.18
43.3539	2016.18
44.0286	1932.18
44.7033	1980.18
45.378	2052.18
46.0526	2075.18
46.7249	2133.18
47.3994	2159.18
48.0739	2160.18
48.7483	2257.18
49.4204	2247.18
50.0947	2265.18
50.769	2231.18
51.4433	2337.18
52.1152	2260.18
52.7893	2337.18
53.4634	2370.18
54.1352	2361.18
54.8092	2414.18
55.4831	2380.18
56.1548	2471.18
56.8286	2554.18
57.5024	2597.18
58.1739	2643.18
58.8477	2634.18
59.5213	2740.18
60.1927	2681.18
60.8663	2692.18
61.5375	2653.18
62.211	2741.18
62.8845	2671.18
63.5556	2713.18
64.2289	2841.18
64.8999	2801.18
65.5732	2819.18
66.2441	2868.18
66.9173	2895.18
67.5881	2803.18
68.2612	2879.18
68.9319	2837.18
69.6049	2932.18
70.2755	2976.18
70.9484	2959.18
71.619	3039.18
72.2918	2993.18
72.9622	2970.18
73.6349	3070.18
74.3053	3088.18
74.9756	3139.18
75.6482	3204.18
76.3184	3113.18
76.9909	3126.18
77.661	2975.18
78.3311	3059.18
79.0034	3019.18
79.6734	3044.18
80.3433	3095.18
81.0155	3095.18
81.6854	3117.18
82.3552	3207.18
83.0272	3205.18
83.6969	3079.18
84.3666	3094.18
85.0385	2957.18
85.7081	3066.18
86.3776	3095.18
87.0471	3070.18
87.7188	3122.18
88.3882	3130.18
89.0575	3196.18
89.7268	3124.18
90.3961	3213.18
91.0676	3150.18
91.7367	3211.18
92.4059	3180.18
93.0749	3105.18
93.7439	3124.18
94.4152	3162.18
95.0841	3118.18
95.753	3101.18
96.4218	3140.18
97.0906	3102.18
97.7594	3128.18
98.4281	3123.18
99.0967	3143.18
99.7676	3188.18
100.436	3073.18
101.105	3025.18
101.773	3083.18
102.442	3167.18
103.11	3116.18
103.778	3139.18
104.447	3148.18
105.115	3197.18
105.783	3234.18
106.451	3159.18
107.119	3151.18
107.787	3146.18
108.455	3127.18
109.123	3156.18
109.791	3103.18
110.459	3133.18
111.127	3074.18
111.795	3083.18
112.462	3047.18
113.13	3128.18
113.795	3120.18
114.463	3177.18
115.13	3101.18
115.798	3145.18
116.465	3059.18
117.133	3000.18
117.8	3053.18
118.467	3115.18
119.132	3056.18
119.8	3036.18
120.467	3001.18
121.134	3073.18
121.801	3069.18
122.466	3081.18
123.133	3139.18
123.8	3039.18
124.467	3033.18
125.133	3007.18
125.798	3012.18
126.465	2996.18
127.131	3105.18
127.796	3022.18
128.462	2963.18
129.129	3012.18
129.796	3055.18
130.46	3008.18
131.126	2979.18
131.793	2982.18
132.457	2970.18
133.123	2959.18
133.789	2926.18
134.453	2939.18
135.119	2938.18
135.783	2995.18
136.449	2948.18
137.115	2934.18
137.779	2982.18
138.445	2920.18
139.108	2938.18
139.774	2915.18
140.438	2960.18
141.104	2911.18
141.769	2896.18
142.433	2959.18
143.098	2873.18
143.762	2879.18
144.427	2804.18
145.09	2897.18
145.756	2859.18
146.419	2882.18
147.084	2714.18
147.747	2876.18
148.41	2826.18
149.075	2866.18
149.738	2745.18
150.403	2768.18
151.066	2786.18
151.731	2832.18
152.394	2814.18
153.056	2802.18
153.721	2864.18
154.384	2773.18
155.046	2798.18
155.711	2748.18
156.374	2787.18
157.036	2845.18
157.701	2794.18
158.363	2682.18
159.025	2767.18
159.69	2751.18
160.352	2698.18
161.014	2659.18
161.676	2721.18
162.34	2762.18
163.002	2685.18
163.664	2724.18
164.326	2715.18
164.99	2671.18
165.652	2711.18
166.314	2670.18
166.975	2667.18
167.637	2648.18
168.301	2675.18
168.962	2691.18
169.624	2642.18
170.285	2681.18
170.947	2660.18
171.608	2640.18
172.272	2706.18
172.933	2589.18
173.594	2627.18
174.255	2582.18
174.917	2650.18
175.578	2619.18
176.239	2604.18
176.9	2605.18
177.561	2601.18
178.222	2597.18
178.882	2612.18
179.543	2602.18
180.204	2600.18
180.865	2537.18
181.526	2571.18
182.186	2513.18
182.847	2536.18
183.507	2537.18
184.168	2490.18
184.828	2561.18
185.489	2515.18
186.149	2549.18
186.809	2486.18
187.47	2511.18
188.13	2485.18
188.79	2494.18
189.45	2510.18
190.11	2503.18
190.768	2538.18
191.428	2435.18
192.088	2545.18
192.748	2496.18
193.408	2456.18
194.068	2500.18
194.728	2465.18
195.385	2487.18
196.045	2422.18
196.705	2470.18
197.364	2471.18
198.021	2475.18
198.681	2469.18
199.34	2471.18
200	2401.18
200.657	2420.18
201.316	2439.18
201.976	2419.18
202.635	2390.18
203.292	2432.18
203.951	2445.18
204.61	2382.18
205.267	2367.18
205.926	2365.18
206.585	2365.18
207.242	2433.18
207.9	2364.18
208.559	2384.18
209.216	2269.18
209.875	2385.18
210.533	2388.18
211.19	2349.18
211.848	2359.18
212.505	2325.18
213.163	2399.18
213.819	2323.18
214.478	2330.18
215.134	2313.18
215.792	2337.18
216.451	2326.18
217.107	2278.18
217.765	2316.18
218.421	2358.18
219.079	2371.18
219.735	2221.18
220.391	2323.18
221.049	2266.18
221.704	2279.18
222.362	2294.18
223.018	2286.18
223.675	2334.18
224.331	2237.18
224.989	2327.18
225.644	2319.18
226.3	2320.18
226.957	2261.18
227.612	2297.18
228.268	2280.18
228.925	2244.18
229.58	2250.18
230.235	2249.18
230.893	2259.18
231.548	2311.18
232.203	2264.18
232.86	2203.18
233.515	2211.18
234.17	2214.18
234.827	2210.18
235.481	2214.18
236.136	2289.18
236.791	2232.18
237.448	2264.18
238.102	2228.18
238.757	2291.18
239.411	2232.18
240.066	2161.18
240.722	2281.18
241.377	2221.18
242.031	2208.18
242.685	2226.18
243.339	2247.18
243.993	2199.18
244.648	2198.18
245.304	2209.18
245.958	2220.18
246.612	2158.18
247.266	2172.18
247.92	2174.18
248.574	2254.18
249.227	2121.18
249.881	2155.18
250.535	2161.18
251.189	2237.18
251.842	2207.18
252.496	2142.18
253.149	2172.18
253.803	2237.18
254.456	2155.18
255.11	2151.18
255.763	2176.18
256.416	2183.18
257.07	2115.18
257.723	2184.18
258.376	2165.18
259.029	2170.18
259.682	2118.18
260.335	2159.18
260.988	2137.18
261.641	2105.18
262.294	2129.18
262.947	2141.18
263.598	2170.18
264.251	2137.18
264.903	2115.18
265.556	2130.18
266.209	2111.18
266.861	2070.18
267.512	2090.18
268.164	2109.18
268.817	2077.18
269.469	2164.18
270.121	2095.18
270.772	2068.18
271.424	2098.18
272.076	2103.18
272.728	2114.18
273.378	2120.18
274.03	2140.18
274.682	2108.18
275.332	2085.18
275.984	2063.18
276.636	2094.18
277.288	2067.18
277.938	2068.18
278.59	2023.18
279.239	2084.18
279.891	2084.18
280.542	2094.18
281.192	2052.18
281.843	2052.18
282.495	2109.18
283.144	2067.18
283.796	2049.18
284.445	2027.18
285.096	2066.18
285.745	2047.18
286.397	2065.18
287.048	2070.18
287.697	2084.18
288.348	2018.18
288.997	2038.18
289.648	2035.18
290.297	2030.18
290.948	2057.18
291.596	2034.18
292.247	1988.18
292.896	2108.18
293.544	2023.18
294.195	2034.18
294.844	2039.18
295.494	2029.18
296.143	2024.18
296.793	1977.18
297.441	2055.18
298.09	1972.18
298.74	2006.18
299.388	2082.18
300.036	2036.18
300.687	2028.18
301.335	2034.18
301.983	2010.18
302.633	1988.18
303.281	2033.18
303.929	2041.18
304.579	1979.18
305.227	1966.18
305.874	2022.18
306.522	1996.18
307.172	2005.18
307.819	1986.18
308.467	2018.18
309.114	2001.18
309.764	2055.18
310.412	1997.18
311.059	1998.18
311.706	1959.18
312.354	2000.18
313.003	1992.18
313.65	1955.18
314.297	2017.18
314.944	2005.18
315.592	1985.18
316.239	2022.18
316.886	1988.18
317.535	2036.18
318.182	2013.18
318.828	1983.18
319.475	1953.18
320.122	1986.18
320.769	1960.18
321.415	1986.18
322.062	2020.18
322.709	2002.18
323.355	2028.18
324.002	1977.18
324.648	1968.18
325.294	1991.18
325.941	1974.18
326.587	1901.18
327.233	2004.18
327.88	1987.18
328.526	1985.18
329.172	1907.18
329.818	1894.18
330.464	1993.18
331.11	1946.18
331.754	1950.18
332.4	1982.18
333.046	1981.18
333.692	1929.18
334.337	1970.18
334.983	1990.18
335.629	1990.18
336.275	1969.18
336.918	2012.18
337.564	1988.18
338.209	2018.18
338.855	1984.18
339.5	1978.18
340.143	1966.18
340.789	1980.18
341.434	1935.18
342.079	1985.18
342.722	1967.18
343.367	2001.18
344.012	1944.18
344.658	1999.18
345.3	2020.18
345.945	1953.18
346.59	1974.18
347.233	1945.18
347.878	1921.18
348.523	1972.18
349.165	1940.18
349.81	1977.18
350.455	1980.18
351.097	1963.18
351.742	1970.18
352.384	1908.18
353.029	2004.18
353.673	1920.18
354.315	1943.18
354.96	1977.18
355.602	2004.18
356.246	1974.18
356.888	1957.18
357.533	1984.18
358.175	1999.18
358.819	1971.18
359.461	1961.18
360.105	1950.18
360.746	1968.18
361.39	2027.18
362.032	1974.18
362.676	1943.18
363.318	1978.18
363.961	1939.18
364.603	1908.18
365.247	1988.18
365.888	2000.18
366.529	1976.18
367.173	1933.18
367.814	2002.18
368.456	1967.18
369.099	1975.18
369.74	1984.18
370.381	1962.18
371.025	1913.18
371.666	2026.18
372.307	1926.18
372.95	1961.18
373.591	1885.18
374.232	1980.18
374.875	1995.18
375.516	1968.18
376.156	1966.18
376.797	1965.18
377.44	1996.18
378.081	1941.18
378.721	1946.18
379.362	1962.18
380.002	2017.18
380.645	1927.18
381.285	1948.18
381.926	1919.18
382.566	1977.18
383.206	1886.18
383.847	1965.18
384.489	1976.18
385.129	1934.18
385.769	1985.18
386.409	1981.18
387.049	2012.18
387.689	2009.18
388.329	2009.18
388.969	1992.18
389.609	1985.18
390.249	2015.18
390.889	1958.18
391.528	1963.18
392.168	1914.18
392.81	1903.18
393.449	1940.18
394.089	1974.18
394.726	2027.18
395.366	2020.18
396.005	1971.18
396.645	1949.18
397.284	1970.18
397.923	2001.18
398.562	1985.18
399.202	1914.18
399.841	2013.18
400.48	2004.18
401.119	2003.18
401.758	1929.18
402.397	1969.18
403.034	1968.18
403.673	1946.18
404.311	2017.18
404.95	1968.18
405.589	2031.18
406.228	2018.18
406.864	1984.18
407.503	2003.18
408.142	1988.18
408.78	1996.18
409.419	2015.18
410.055	2028.18
410.693	2030.18
411.332	1976.18
411.968	2040.18
412.606	2058.18
413.244	2072.18
413.883	2013.18
414.519	2003.18
415.157	1983.18
415.795	2023.18
416.431	2042.18
417.069	2052.18
417.707	2023.18
418.342	2038.18
418.98	2040.18
419.616	1991.18
420.254	2038.18
420.891	2044.18
421.527	2068.18
422.165	2040.18
422.8	2085.18
423.438	2079.18
424.075	2108.18
424.71	2064.18
425.348	2044.18
425.983	2035.18
426.62	2075.18
427.256	2072.18
427.893	2088.18
428.528	2080.18
429.165	2048.18
429.8	2065.18
430.435	2112.18
431.072	2102.18
431.707	2095.18
432.344	2097.18
432.979	2077.18
433.615	2085.18
434.25	2148.18
434.885	2084.18
435.521	2091.18
436.156	2087.18
436.79	2132.18
437.427	2030.18
438.061	2124.18
438.696	2133.18
439.332	2133.18
439.967	2106.18
440.601	2090.18
441.237	2097.18
441.871	2163.18
442.505	2112.18
443.142	2137.18
443.776	2158.18
444.41	2166.18
445.044	2156.18
445.678	2119.18
446.314	2077.18
446.947	2162.18
447.581	2044.18
448.215	2104.18
448.849	2162.18
449.484	2128.18
450.118	2189.18
450.752	2147.18
451.385	2186.18
452.018	2164.18
452.652	2127.18
453.285	2156.18
453.921	2172.18
454.554	2151.43
455.187	2134.78
455.821	2199.32
456.454	2141.82
457.087	2143.42
457.72	2166.61
458.353	2218.56
458.986	2159.46
459.619	2195.92
460.252	2176.13
460.885	2197.74
461.518	2214.1
462.15	2194.28
462.783	2161.97
463.416	2171
464.048	2180
464.681	2165.23
465.314	2216.61
465.946	2196.79
466.579	2236.15
467.209	2249.03
467.841	2146.76
468.474	2189.51
469.106	2208.15
469.738	2208.15
470.371	2211.55
471.003	2237.18
471.633	2223.2
472.265	2233.15
472.897	2211.44
473.529	2216.33
474.161	2240.29
474.791	2276.98
475.423	2245.02
476.054	2310.15
476.686	2271.58
477.318	2227.19
477.948	2241.7
478.579	2291.65
479.211	2298.1
479.84	2313.08
480.472	2321.03
481.103	2313.55
481.733	2333.37
482.364	2322.45
482.996	2302.92
483.625	2371.84
484.256	2327.5
484.887	2374.94
485.516	2356.82
486.148	2402.89
486.779	2391.8
487.408	2315.35
488.039	2418.01
488.668	2387.89
489.298	2415.33
489.927	2441.63
490.558	2423.29
491.187	2432.32
491.818	2467.25
492.446	2499.3
493.077	2527.68
493.705	2520.46
494.336	2473.63
494.964	2534.72
495.595	2501.66
496.223	2543.81
496.854	2537.43
497.482	2548.89
498.112	2573.76
498.741	2589.3
499.371	2583.11
499.999	2605.44
500.627	2657.55
501.257	2617.54
501.885	2637.87
502.513	2702.69
503.143	2739.65
503.771	2769.64
504.399	2688.72
505.029	2747.46
505.656	2734.86
506.284	2753.65
506.914	2776.03
507.541	2773.74
508.169	2829.37
508.796	2826.82
509.426	2824.07
510.054	2874.37
510.681	2857.71
511.308	2876.36
511.938	2864.07
512.565	2907.35
513.192	2943.15
513.819	2930.46
514.446	2951.27
515.076	2926.84
515.703	2998.4
516.33	3035.48
516.957	2964.54
517.584	2991.94
518.21	2989.28
518.837	3102.69
519.464	3095.08
520.093	3057.96
520.72	3068.84
521.346	3091.77
521.973	3150.94
522.6	3123.73
523.226	3169.53
523.853	3147.59
524.479	3155.34
525.105	3224.19
525.732	3228.75
526.358	3229.46
526.984	3212.89
527.611	3253.5
528.237	3278.64
528.863	3236.61
529.489	3317.53
530.115	3305.2
530.741	3339.63
531.365	3358.26
531.991	3378.86
532.617	3304.27
533.243	3371.93
533.869	3391.16
534.495	3347.84
535.12	3480.51
535.746	3414.84
536.369	3456.8
536.995	3445.9
537.621	3454.1
538.246	3449.07
538.872	3504.22
539.495	3450.48
540.12	3436.71
540.746	3484.72
541.371	3483.75
541.994	3450.6
542.62	3544.15
543.245	3570.9
543.87	3533.83
544.493	3507.44
545.118	3524.5
545.743	3495.96
546.366	3516.31
546.991	3549.73
547.616	3560.14
548.238	3504.15
548.863	3502.78
549.488	3518.59
550.111	3500.42
550.735	3492.79
551.36	3498.48
551.982	3510.02
552.607	3524.01
553.229	3477.33
553.854	3500.07
554.476	3473.46
555.101	3417.61
555.723	3434.42
556.347	3441.01
556.969	3474.01
557.594	3382.23
558.216	3345.51
558.84	3421.51
559.462	3499.36
560.086	3343.67
560.708	3348.92
561.332	3346.02
561.954	3373.8
562.578	3341.09
563.199	3300.54
563.821	3288.28
564.445	3258.31
565.066	3252.32
565.69	3237.32
566.312	3271.11
566.933	3206.53
567.557	3212.67
568.178	3160.51
568.799	3218.14
569.423	3129.29
570.044	3123.24
570.665	3107.98
571.289	3070.55
571.91	3077.1
572.531	3079.1
573.152	2996.55
573.775	3005.41
574.396	3019.99
575.017	3021.35
575.638	2954.27
576.261	2950.28
576.882	2940.77
577.503	2895.22
578.123	2891.12
578.744	2898.32
579.365	2852.09
579.987	2840.1
580.608	2807.01
581.229	2827.98
581.849	2723.87
582.47	2772.53
583.09	2744.41
583.71	2749.95
584.331	2710.39
584.951	2704.04
585.571	2679.22
586.194	2667.14
586.814	2626.1
587.434	2580.15
588.054	2598.94
588.674	2519.27
589.294	2542.23
589.914	2550.77
590.534	2510.94
591.154	2514.46
591.774	2510.65
592.391	2493.64
593.011	2493.33
593.631	2452.66
594.25	2383.36
594.87	2433.72
595.49	2369.02
596.109	2387.16
596.729	2398.75
597.348	2365.35
597.967	2336.19
598.585	2319.32
599.204	2280.89
599.823	2290.48
600.443	2280.29
601.062	2259.7
601.681	2253.11
602.298	2231.9
602.917	2186.79
603.536	2217.79
604.155	2155.57
604.772	2196.04
605.391	2149.34
606.01	2191.47
606.629	2142.7
607.245	2041.68
607.864	2131.99
608.483	2068.34
609.099	2068.96
609.718	2067.08
610.337	2094.28
610.953	2068.4
611.572	2086.39
612.19	2075.67
612.806	2046.9
613.425	2088.07
614.043	2031.21
614.659	2025.21
615.278	1984.78
615.894	1977.11
616.512	2012.19
617.128	1955.72
617.746	2007.11
618.364	1975.67
618.98	1938.6
619.598	1908.84
620.214	1873.7
620.832	1930.89
621.448	1902.8
622.065	1927.47
622.681	1897.23
623.297	1939.7
623.914	1884.81
624.53	1876.9
625.148	1877.83
625.763	1899.26
626.381	1859.75
626.996	1888.9
627.611	1848.89
628.229	1854.81
628.844	1826.01
629.459	1794.78
630.076	1800.76
630.692	1787.09
631.307	1783.21
631.924	1762.03
632.539	1805.95
633.154	1747.87
633.771	1737.31
634.386	1775.02
635.001	1741.15
635.615	1721.31
636.232	1704.87
636.847	1733.16
637.462	1707.37
638.076	1681.89
638.693	1704.76
639.308	1718.56
639.922	1677.71
640.537	1675.15
641.151	1663.01
641.768	1639.65
642.382	1669.47
642.996	1607.55
643.611	1649.83
644.225	1604.63
644.839	1619.39
645.453	1635.71
646.067	1621.94
646.681	1601.75
647.295	1608.35
647.912	1559.97
648.526	1573.93
649.139	1536.25
649.753	1535.12
650.367	1519.13
650.981	1497.19
651.595	1551.03
652.208	1518.19
652.822	1530.09
653.436	1541.7
654.049	1506.13
654.663	1502.66
655.274	1531.57
655.888	1500.53
656.501	1486.73
657.115	1487.76
657.728	1487.82
658.333	1491.82
658.954	1464.82
659.574	1471.82
660.196	1460.82
660.816	1463.82
661.435	1430.82
662.057	1474.82
662.676	1417.82
663.298	1425.82
663.917	1385.82
664.537	1463.82
665.158	1437.82
665.777	1377.82
666.399	1434.82
667.018	1371.82
667.637	1425.82
668.258	1414.82
668.877	1339.82
669.496	1395.82
670.118	1377.82
670.737	1395.82
671.355	1357.82
671.974	1334.82
672.595	1378.82
673.214	1305.82
673.833	1243.82
674.452	1369.82
675.072	1327.82
675.691	1307.82
676.31	1311.82
676.928	1314.82
677.549	1293.82
678.167	1322.82
678.786	1290.82
679.404	1299.82
680.022	1331.82
680.641	1265.82
681.261	1311.82
681.879	1253.82
682.497	1286.82
683.116	1253.82
683.734	1260.82
684.352	1239.82
684.97	1247.82
685.588	1217.82
686.206	1240.82
686.824	1247.82
687.441	1253.82
688.059	1248.82
688.677	1248.82
689.297	1228.82
689.915	1252.82
690.532	1224.82
691.15	1220.82
691.765	1214.82
692.383	1224.82
693	1185.82
693.618	1210.82
694.235	1199.82
694.852	1209.82
695.47	1218.82
696.087	1180.82
696.704	1191.82
697.321	1191.82
697.939	1166.82
698.556	1134.82
699.173	1147.82
699.788	1183.82
700.405	1181.82
701.022	1181.82
701.639	1186.82
702.255	1160.82
702.872	1132.82
703.487	1160.82
704.104	1184.82
704.72	1164.82
705.337	1173.82
705.954	1142.82
706.568	1131.82
707.185	1167.82
707.801	1133.82
708.416	1131.82
709.032	1095.82
709.648	1156.82
710.265	1157.82
710.879	1132.82
711.495	1134.82
712.111	1142.82
712.725	1122.82
713.341	1120.82
713.958	1116.82
714.572	1150.82
715.188	1137.82
715.804	1143.82
716.417	1174.82
717.033	1141.82
717.647	1183.82
718.263	1167.82
718.876	1125.82
719.492	1135.82
720.108	1128.82
720.721	1151.82
721.337	1120.82
721.95	1163.82
722.566	1167.82
723.179	1158.82
723.795	1103.82
724.408	1118.82
725.023	1138.82
725.637	1166.82
726.252	1124.82
726.865	1140.82
727.48	1090.82
728.093	1129.82
728.706	1123.82
729.321	1131.82
729.934	1132.82
730.549	1118.82
731.162	1158.82
731.775	1183.82
732.39	1175.82
733.003	1195.82
733.615	1149.82
734.23	1154.82
734.843	1176.82
735.455	1154.82
736.07	1128.82
736.682	1206.82
737.295	1116.82
737.909	1162.82
738.522	1163.82
739.134	1186.82
739.746	1181.82
740.361	1212.82
740.973	1224.82
741.585	1160.82
742.197	1236.82
742.809	1233.82
743.423	1191.82
744.035	1204.82
744.647	1185.82
745.259	1225.82
745.871	1210.82
746.485	1236.82
747.097	1219.82
747.708	1225.82
748.32	1229.82
748.932	1187.82
749.544	1247.82
750.155	1192.82
750.767	1242.82
751.378	1223.82
751.99	1261.82
752.601	1259.82
753.215	1216.82
753.826	1238.82
754.437	1234.82
755.049	1252.82
755.66	1227.82
756.271	1251.82
756.882	1242.82
757.493	1219.82
758.104	1228.82
758.715	1258.82
759.324	1260.82
759.935	1270.82
760.546	1235.82
761.157	1282.82
761.768	1292.82
762.379	1277.82
762.989	1273.82
763.6	1289.82
764.211	1230.82
764.821	1272.82
765.43	1265.82
766.04	1274.82
766.651	1291.82
767.261	1304.82
767.872	1268.82
768.482	1288.82
769.09	1296.82
769.701	1290.82
770.311	1279.82
770.921	1267.82
771.531	1249.82
772.139	1288.82
772.75	1267.82
773.36	1245.82
773.967	1294.82
774.577	1301.82
775.187	1282.82
775.797	1239.82
776.405	1243.82
777.015	1271.82
777.625	1262.82
778.232	1324.82
778.842	1295.82
779.452	1243.82
780.059	1230.82
780.669	1237.82
781.276	1271.82
781.886	1269.82
782.495	1251.82
783.103	1252.82
783.712	1263.82
784.319	1277.82
784.929	1256.82
785.536	1230.82
786.145	1287.82
786.752	1204.82
787.361	1232.82
787.968	1255.82
788.577	1249.82
789.184	1226.82
789.793	1240.82
790.4	1207.82
791.009	1203.82
791.616	1210.82
792.224	1212.82
792.831	1224.82
793.44	1203.82
794.047	1225.82
794.653	1223.82
795.262	1201.82
795.868	1151.82
796.477	1205.82
797.083	1182.82
797.69	1194.82
798.298	1191.82
798.904	1218.82
799.511	1165.82
800.119	1208.82
800.725	1174.82
801.331	1171.82
801.937	1158.82
802.545	1087.82
803.151	1124.82
803.757	1108.82
804.365	1113.82
804.971	1143.82
805.577	1137.82
806.183	1147.82
806.789	1096.82
807.397	1143.82
808.002	1153.82
808.608	1141.82
809.214	1095.82
809.819	1096.82
810.425	1113.82
811.032	1095.82
811.638	1101.82
812.243	1071.82
812.849	1077.82
813.454	1096.82
814.059	1070.82
814.664	1059.82
815.27	1063.82
815.875	1055.82
816.48	1022.82
817.087	1040.82
817.692	1038.82
818.297	1030.82
818.902	1032.82
819.507	1024.82
820.112	1046.82
820.717	1018.82
821.322	1016.82
821.927	1031.82
822.529	1005.82
823.134	1040.82
823.739	1003.82
824.343	989.822
824.948	987.822
825.552	968.822
826.157	986.822
826.761	962.822
827.366	948.822
827.97	950.822
828.575	961.822
829.177	958.822
829.781	942.822
830.385	940.822
830.989	936.822
831.594	957.822
832.198	914.822
832.8	921.822
833.404	950.822
834.008	923.822
834.612	915.822
835.214	955.822
835.817	919.822
836.421	902.822
837.025	939.822
837.627	854.822
838.23	913.822
838.834	892.822
839.436	873.822
840.039	863.822
840.643	884.822
841.244	907.822
841.848	870.822
842.451	882.822
843.053	879.822
843.656	849.822
844.259	905.822
844.86	865.822
845.464	835.822
846.065	851.822
846.668	900.822
847.271	853.822
847.872	858.822
848.475	827.822
849.076	846.822
849.679	856.822
850.28	839.822
850.883	849.822
851.484	832.822
852.086	826.822
852.687	837.822
853.29	816.822
853.89	803.822
854.493	846.822
855.094	813.822
855.694	765.822
856.297	817.822
856.897	810.822
857.5	809.822
858.1	765.822
858.7	788.822
859.303	793.822
859.903	777.822
860.505	808.822
861.105	766.822
861.705	814.822
862.307	774.822
862.908	767.822
863.508	777.822
864.107	761.822
864.709	742.822
865.309	786.822
865.909	765.822
866.511	777.822
867.111	778.822
867.711	772.822
868.31	769.822
868.91	741.822
869.512	745.822
870.111	742.822
870.711	751.822
871.31	734.822
871.909	723.822
872.511	720.822
873.11	726.822
873.71	732.822
874.309	744.822
874.908	701.822
875.507	711.822
876.107	731.822
876.706	725.822
877.307	722.822
877.906	730.822
878.505	744.822
879.104	714.822
879.703	690.822
880.302	704.822
880.901	724.822
881.5	725.822
882.098	707.822
882.697	699.822
883.296	713.822
883.894	693.822
884.493	696.822
885.092	708.822
885.69	687.822
886.289	694.822
886.885	679.822
887.483	687.822
888.082	694.822
888.68	665.822
889.279	663.822
889.877	680.822
890.475	668.822
891.073	704.822
891.671	696.822
892.267	636.822
892.866	638.822
893.464	693.822
894.062	647.822
894.66	687.822
895.255	644.822
895.853	658.822
896.451	627.822
897.049	638.822
897.645	666.822
898.242	647.779
898.84	591.139
899.438	618.981
900.033	623.021
900.631	642.477
901.228	636.665
901.824	599.147
902.421	626.454
903.019	616.973
903.614	625.428
904.211	617.478
904.809	632.716
905.404	639.181
906.001	626.749
906.598	598.172
907.193	608.558
907.791	597.443
908.386	604.767
908.983	586.833
909.578	625.252
910.174	584.055
910.769	589.698
911.366	613.639
911.963	574.194
912.558	597.838
913.155	589.313
913.749	576.076
914.344	567.904
914.94	562.69
915.535	573.932
916.132	562.245
916.726	565.582
917.323	558.829
917.917	573.277
918.513	541.538
919.108	551.541
919.702	575.975
920.298	558.974
920.892	553.162
921.487	545.963
922.083	546.96
922.677	544.462
923.271	541.148
923.867	525.832
924.461	514.329
925.055	544.979
925.651	544.842
926.245	532.541
926.839	517.153
927.432	542.704
928.028	532
928.622	501.102
929.215	510.141
929.809	500.246
930.405	503.093
930.998	507.483
931.592	519.122
932.185	509.112
932.779	502.573
933.372	499.853
933.968	501.251
934.561	485.994
935.154	474.93
935.747	471.902
936.341	483.643
936.934	497.135
937.527	474.203
938.12	475.278
938.713	483.35
939.308	462.342
939.901	474.486
940.494	473.174
941.087	466.77
941.68	475.863
942.273	469.183
942.865	446.081
943.458	475.77
944.051	468.397
944.643	453.585
945.236	445.364
945.829	436.511
946.419	443.923
947.012	442.103
947.604	420.258
948.196	430.936
948.789	435.841
949.381	422.27
949.974	416.574
950.566	414.134
951.158	415.297
951.75	412.661
952.34	419.783
952.933	427.095
953.525	415.683
954.117	414.586
954.709	391.832
955.299	394.659
955.891	393.695
956.482	393.844
957.074	390.829
957.666	371.829
958.256	381.864
958.848	398.815
959.439	370.335
960.029	383.464
960.621	384.667
961.212	369.984
961.804	367.004
962.393	370.856
962.985	351.608
963.576	379.942
964.165	364.084
964.757	358.804
965.346	348.372
965.937	357.065
966.529	350.993
967.118	339.356
967.709	355.264
968.298	358.954
968.889	355.67
969.48	345.175
970.069	343.449
970.66	338.42
971.249	332.631
971.84	339.892
972.429	331.737
973.02	335.781
973.608	332.335
974.199	329.781
974.788	326.742
975.379	315.425
975.967	325.174
976.556	324
977.146	315.729
977.735	316.871
978.325	309.08
978.914	315.017
979.502	318.974
980.092	298.377
980.681	309.816
981.271	297.391
981.859	298.101
982.447	297.886
983.037	306.606
983.626	307.2
984.214	296.283
984.804	303.445
985.392	291.013
985.98	299.412
986.568	286.297
987.158	302.311
987.745	293.872
988.333	293.902
988.921	277.321
989.511	284.43
990.098	273.414
990.686	274.312
991.274	285.83
991.861	286.078
992.449	279.154
993.038	277.441
993.626	267.765
994.213	282.581
994.8	280.617
995.388	272.409
995.975	278.403
996.562	272.806
997.15	272.473
997.739	265.542
998.326	277.975
998.913	261.493
999.5	264.652
1000.09	263.401
1000.67	267.438
1001.26	259.068
1001.85	267.395
1002.44	268.699
1003.02	263.455
1003.61	268.386
1004.2	267.498
1004.78	261.109
1005.37	267.941
1005.96	252.865
1006.54	261.051
1007.13	265.778
1007.71	255.947
1008.3	261.312
1008.89	252.094
1009.47	259.814
1010.06	260.439
1010.65	253.61
1011.23	247.151
1011.82	258.392
1012.4	254.417
1012.99	256.31
1013.57	235.31
1014.16	254.413
1014.74	252.865
1015.33	250.91
1015.92	251.97
1016.5	254.668
1017.09	244.926
1017.67	254.861
1018.26	236.208
1018.84	243.509
1019.43	247.167
1020.01	247.328
1020.6	245.141
1021.18	246.825
1021.77	245.17
1022.35	243.411
1022.94	233.585
1023.52	248.339
1024.11	242.168
1024.69	242.164
1025.28	234.622
1025.86	239.805
1026.45	247.726
1027.03	247.692
1027.62	237.101
1028.2	230.044
1028.78	230.044
1029.37	258.485
1029.95	255.949
1030.54	251.297
1031.12	228.649
1031.71	244.453
1032.29	218.164
1032.87	233.367
1033.46	250.085
1034.04	241.689
1034.62	226.18
1035.21	236.165
1035.79	232.967
1036.37	246.708
1036.96	233.36
1037.54	236.646
1038.13	235.288
1038.71	240.955
1039.29	225.409
1039.88	240.39
1040.46	233.875
1041.04	237.251
1041.62	237.072
1042.21	238.519
1042.79	236.331
1043.37	228.964
1043.96	234.639
1044.54	234.594
1045.12	248.855
1045.7	251.699
1046.29	218.382
1046.87	236.988
1047.45	240.378
1048.03	240.348
1048.62	235.198
1049.2	240.154
1049.78	226.569
1050.36	229.004
1050.95	241.542
1051.53	217.783
1052.11	244.892
1052.69	241.325
1053.27	237.556
1053.85	232.124
1054.43	241.395
1055.02	240.128
1055.6	224.445
1056.18	234.643
1056.76	228.036
1057.34	235.545
1057.93	234.01
1058.51	232.515
1059.09	222.189
1059.67	237.09
1060.25	237.457
1060.83	251.279
1061.41	235.21
1061.99	240.368
1062.57	234.883
1063.16	225.913
1063.73	219.415
1064.31	227.247
1064.9	231.716
1065.48	241.62
1066.06	226.073
1066.64	241.647
1067.22	224.278
1067.8	227.149
1068.38	238.192
1068.96	238.285
1069.54	224.886
1070.12	227.599
1070.7	238.015
1071.28	226.49
1071.86	227.352
1072.44	223.514
1073.02	218.055
1073.6	235.778
1074.18	219.551
1074.76	209.304
1075.34	234.383
1075.92	238.713
1076.5	214.304
1077.08	234.889
1077.46	218.889
1078.04	235.889
1078.63	230.889
1079.22	246.889
1079.81	240.889
1080.39	227.889
1080.98	230.889
1081.57	208.889
1082.15	221.889
1082.74	229.889
1083.33	225.889
1083.92	217.889
1084.5	210.889
1085.09	227.889
1085.68	224.889
1086.26	215.889
1086.85	225.889
1087.43	231.889
1088.02	235.889
1088.61	215.889
1089.2	214.889
1089.78	220.889
1090.37	232.889
1090.95	226.889
1091.54	217.889
1092.13	216.889
1092.71	221.889
1093.3	216.889
1093.88	221.889
1094.47	234.889
1095.06	231.889
1095.64	215.889
1096.23	217.889
1096.81	223.889
1097.4	219.889
1097.98	217.889
1098.57	216.889
1099.16	224.889
1099.74	225.889
1100.32	208.889
1100.91	220.889
1101.5	226.889
1102.08	237.889
1102.67	206.889
1103.25	216.889
1103.84	214.889
1104.42	227.889
1105.01	225.889
1105.59	227.889
1106.17	209.889
1106.76	229.889
1107.35	212.889
1107.93	207.889
1108.51	232.889
1109.1	209.889
1109.68	217.889
1110.27	221.889
1110.85	224.889
1111.44	213.889
1112.02	221.889
1112.6	206.889
1113.19	214.889
1113.77	224.889
1114.36	200.889
1114.94	216.889
1115.52	225.889
1116.11	226.889
1116.69	214.889
1117.28	206.889
1117.86	226.889
1118.44	224.889
1119.03	204.889
1119.61	205.889
1120.19	210.889
1120.78	226.889
1121.36	218.889
1121.94	209.889
1122.52	216.889
1123.11	219.889
1123.69	207.889
1124.27	202.889
1124.86	222.889
1125.44	203.889
1126.02	218.889
1126.61	204.889
1127.19	203.889
1127.77	207.889
1128.35	210.889
1128.94	204.889
1129.52	214.889
1130.1	201.889
1130.68	215.889
1131.27	207.889
1131.85	198.889
1132.43	214.889
1133.01	214.889
1133.6	219.889
1134.18	226.889
1134.76	210.889
1135.34	195.889
1135.92	197.889
1136.5	199.889
1137.09	214.889
1137.67	194.889
1138.25	215.889
1138.83	221.889
1139.41	211.889
1139.99	209.889
1140.58	198.889
1141.16	206.889
1141.74	215.889
1142.32	208.889
1142.9	203.889
1143.48	209.889
1144.06	215.889
1144.64	204.889
1145.22	212.889
1145.81	198.889
1146.39	211.889
1146.97	206.889
1147.55	200.889
1148.13	212.889
1148.71	212.889
1149.29	204.889
1149.87	210.889
1150.45	221.889
1151.03	202.889
1151.61	210.889
1152.19	199.889
1152.77	198.889
1153.35	205.889
1153.93	206.889
1154.51	210.889
1155.09	197.889
1155.67	213.889
1156.25	200.889
1156.83	192.889
1157.41	210.889
1157.99	199.889
1158.57	217.889
1159.15	194.889
1159.73	202.889
1160.31	196.889
1160.89	201.889
1161.47	195.889
1162.05	196.889
1162.63	198.889
1163.21	207.889
1163.79	196.889
1164.36	200.889
1164.95	213.889
1165.52	214.889
1166.1	196.889
1166.68	209.889
1167.26	198.889
1167.84	202.889
1168.42	210.889
1169	212.889
1169.57	213.889
1170.15	206.889
1170.73	197.889
1171.31	201.889
1171.89	195.889
1172.47	203.889
1173.05	200.889
1173.62	190.889
1174.2	200.889
1174.78	200.889
1175.36	194.889
1175.94	188.889
1176.51	198.889
1177.09	211.889
1177.67	192.889
1178.25	179.889
1178.83	202.889
1179.4	195.889
1179.98	197.889
1180.56	187.889
1181.14	210.889
1181.71	195.889
1182.29	190.889
1182.87	197.889
1183.44	195.889
1184.02	199.889
1184.6	202.889
1185.18	204.889
1185.75	196.889
1186.33	201.889
1186.91	191.889
1187.48	182.889
1188.06	198.889
1188.64	210.889
1189.21	196.889
1189.79	191.889
1190.37	198.889
1190.94	206.889
1191.52	177.889
1192.1	206.889
1192.67	200.889
1193.25	210.889
1193.83	194.889
1194.4	198.889
1194.98	206.889
1195.55	216.889
1196.13	201.889
1196.71	187.889
1197.28	181.889
1197.86	211.889
1198.43	183.889
1199.01	179.889
1199.59	189.889
1200.16	179.889
