17.0039	1174.77
17.6805	1153.77
18.3571	1090.77
19.0336	1088.77
19.7123	1097.77
20.3887	1112.77
21.0651	1142.77
21.7414	1134.77
22.4176	1112.77
23.0939	1120.77
23.77	1121.77
24.4462	1141.77
25.1222	1205.77
25.7983	1205.77
26.4742	1288.77
27.1502	1302.77
27.8261	1286.77
28.5019	1289.77
29.1777	1298.77
29.8534	1246.77
30.5291	1238.77
31.2048	1275.77
31.8804	1328.77
32.5559	1313.77
33.2314	1378.77
33.9069	1422.77
34.5823	1454.77
35.2577	1513.77
35.933	1566.77
36.6083	1596.77
37.2835	1611.77
37.9587	1623.77
38.6338	1643.77
39.3066	1643.77
39.9817	1682.77
40.6566	1678.77
41.3316	1700.77
42.0065	1783.77
42.6813	1828.77
43.3539	1879.77
44.0286	1942.77
44.7033	1955.77
45.378	1956.77
46.0526	1903.77
46.7249	1967.77
47.3994	2047.77
48.0739	2196.76
48.7483	2171.76
49.4204	2129.76
50.0947	2239.76
50.769	2216.76
51.4433	2263.76
52.1152	2285.76
52.7893	2297.76
53.4634	2297.76
54.1352	2339.76
54.8092	2402.76
55.4831	2435.76
56.1548	2442.76
56.8286	2488.76
57.5024	2565.76
58.1739	2618.76
58.8477	2744.76
59.5213	2785.76
60.1927	2879.76
60.8663	2868.76
61.5375	2803.76
62.211	2746.76
62.8845	2766.76
63.5556	2766.76
64.2289	2802.76
64.8999	2824.76
65.5732	2886.76
66.2441	2956.76
66.9173	3009.76
67.5881	2981.76
68.2612	3064.76
68.9319	3013.76
69.6049	2996.76
70.2755	3050.76
70.9484	3140.76
71.619	3116.76
72.2918	3178.76
72.9622	3240.76
73.6349	3140.76
74.3053	3233.76
74.9756	3359.76
75.6482	3326.76
76.3184	3377.76
76.9909	3398.76
77.661	3378.76
78.3311	3373.76
79.0034	3272.76
79.6734	3279.76
80.3433	3339.76
81.0155	3367.76
81.6854	3354.76
82.3552	3346.76
83.0272	3454.76
83.6969	3481.76
84.3666	3505.76
85.0385	3349.76
85.7081	3400.76
86.3776	3424.76
87.0471	3352.76
87.7188	3407.76
88.3882	3439.76
89.0575	3417.76
89.7268	3471.76
90.3961	3580.76
91.0676	3558.76
91.7367	3541.76
92.4059	3583.76
93.0749	3476.76
93.7439	3582.76
94.4152	3524.76
95.0841	3537.76
95.753	3452.76
96.4218	3456.76
97.0906	3464.76
97.7594	3568.76
98.4281	3507.76
99.0967	3484.76
99.7676	3492.76
100.436	3520.76
101.105	3443.76
101.773	3568.76
102.442	3487.76
103.11	3530.76
103.778	3499.76
104.447	3557.76
105.115	3594.76
105.783	3584.76
106.451	3639.76
107.119	3581.76
107.787	3650.76
108.455	3616.76
109.123	3542.76
109.791	3502.76
110.459	3488.76
111.127	3525.76
111.795	3484.76
112.462	3533.76
113.13	3536.76
113.795	3505.76
114.463	3619.76
115.13	3624.76
115.798	3587.76
116.465	3580.76
117.133	3684.76
117.8	3534.76
118.467	3491.76
119.132	3499.76
119.8	3450.76
120.467	3493.76
121.134	3467.76
121.801	3487.76
122.466	3461.76
123.133	3516.76
123.8	3451.76
124.467	3557.76
125.133	3423.76
125.798	3502.76
126.465	3413.76
127.131	3381.76
127.796	3454.76
128.462	3416.76
129.129	3454.76
129.796	3346.76
130.46	3465.76
131.126	3385.76
131.793	3428.76
132.457	3430.76
133.123	3457.76
133.789	3426.76
134.453	3351.76
135.119	3437.76
135.783	3332.76
136.449	3371.76
137.115	3427.76
137.779	3393.76
138.445	3359.76
139.108	3408.76
139.774	3342.76
140.438	3391.76
141.104	3339.76
141.769	3316.76
142.433	3272.76
143.098	3348.76
143.762	3339.76
144.427	3290.76
145.09	3282.76
145.756	3338.76
146.419	3307.76
147.084	3257.76
147.747	3259.76
148.41	3284.76
149.075	3270.76
149.738	3257.76
150.403	3239.76
151.066	3216.76
151.731	3282.76
152.394	3306.76
153.056	3221.76
153.721	3315.76
154.384	3257.76
155.046	3271.76
155.711	3248.76
156.374	3268.76
157.036	3191.76
157.701	3158.76
158.363	3263.76
159.025	3211.76
159.69	3204.76
160.352	3153.76
161.014	3238.76
161.676	3176.76
162.34	3086.76
163.002	3176.76
163.664	3173.76
164.326	3183.76
164.99	3100.76
165.652	3136.76
166.314	3162.76
166.975	3161.76
167.637	3104.76
168.301	3077.76
168.962	3146.76
169.624	3058.76
170.285	3006.76
170.947	3070.76
171.608	3051.76
172.272	3045.76
172.933	3102.76
173.594	3002.76
174.255	3059.76
174.917	3068.76
175.578	3024.76
176.239	3006.76
176.9	3045.76
177.561	3000.76
178.222	3036.76
178.882	3006.76
179.543	2956.76
180.204	2999.76
180.865	3029.76
181.526	3008.76
182.186	3002.76
182.847	3017.76
183.507	2964.76
184.168	2940.76
184.828	2981.76
185.489	2990.76
186.149	2952.76
186.809	2981.76
187.47	2964.76
188.13	2972.76
188.79	2927.76
189.45	2913.76
190.11	2922.76
190.768	2863.76
191.428	2900.76
192.088	2960.76
192.748	2904.76
193.408	2887.76
194.068	2946.76
194.728	2883.76
195.385	2865.76
196.045	2870.76
196.705	2878.76
197.364	2920.76
198.021	2871.76
198.681	2882.76
199.34	2872.76
200	2903.76
200.657	2924.76
201.316	2877.76
201.976	2878.76
202.635	2808.76
203.292	2887.76
203.951	2880.76
204.61	2778.76
205.267	2856.76
205.926	2743.76
206.585	2874.76
207.242	2841.76
207.9	2822.76
208.559	2814.76
209.216	2791.76
209.875	2731.76
210.533	2752.76
211.19	2819.76
211.848	2800.76
212.505	2846.76
213.163	2806.76
213.819	2777.76
214.478	2730.76
215.134	2788.76
215.792	2730.76
216.451	2728.76
217.107	2785.76
217.765	2785.76
218.421	2725.76
219.079	2731.76
219.735	2741.76
220.391	2740.76
221.049	2726.76
221.704	2696.76
222.362	2713.76
223.018	2762.76
223.675	2780.76
224.331	2694.76
224.989	2755.76
225.644	2741.76
226.3	2686.76
226.957	2659.76
227.612	2775.76
228.268	2696.76
228.925	2663.76
229.58	2660.76
230.235	2675.76
230.893	2625.76
231.548	2681.76
232.203	2689.76
232.86	2667.76
233.515	2687.76
234.17	2672.76
234.827	2702.76
235.481	2629.76
236.136	2632.76
236.791	2592.76
237.448	2639.76
238.102	2608.76
238.757	2655.76
239.411	2667.76
240.066	2661.76
240.722	2622.76
241.377	2597.76
242.031	2573.76
242.685	2606.76
243.339	2617.76
243.993	2630.76
244.648	2685.76
245.304	2569.76
245.958	2582.76
246.612	2535.76
247.266	2560.76
247.92	2612.76
248.574	2585.76
249.227	2540.76
249.881	2561.76
250.535	2616.76
251.189	2527.76
251.842	2532.76
252.496	2535.76
253.149	2594.76
253.803	2546.76
254.456	2553.76
255.11	2572.76
255.763	2491.76
256.416	2551.76
257.07	2496.76
257.723	2570.76
258.376	2547.76
259.029	2580.76
259.682	2541.76
260.335	2519.76
260.988	2477.76
261.641	2528.76
262.294	2516.76
262.947	2455.76
263.598	2520.76
264.251	2508.76
264.903	2458.76
265.556	2399.76
266.209	2472.76
266.861	2470.76
267.512	2499.76
268.164	2511.76
268.817	2455.76
269.469	2411.76
270.121	2403.76
270.772	2470.76
271.424	2444.76
272.076	2407.76
272.728	2477.76
273.378	2401.76
274.03	2429.76
274.682	2467.76
275.332	2378.76
275.984	2423.76
276.636	2363.76
277.288	2499.76
277.938	2440.76
278.59	2423.76
279.239	2453.76
279.891	2427.76
280.542	2482.76
281.192	2427.76
281.843	2424.76
282.495	2424.76
283.144	2381.76
283.796	2390.76
284.445	2399.76
285.096	2359.76
285.745	2392.76
286.397	2384.76
287.048	2427.76
287.697	2426.76
288.348	2402.76
288.997	2382.76
289.648	2401.76
290.297	2334.76
290.948	2380.76
291.596	2393.76
292.247	2411.76
292.896	2422.76
293.544	2409.76
294.195	2384.76
294.844	2363.76
295.494	2324.76
296.143	2400.76
296.793	2345.76
297.441	2395.76
298.09	2412.76
298.74	2362.76
299.388	2359.76
300.036	2325.76
300.687	2371.76
301.335	2393.76
301.983	2405.76
302.633	2367.76
303.281	2367.76
303.929	2370.76
304.579	2346.76
305.227	2337.76
305.874	2370.76
306.522	2372.76
307.172	2354.76
307.819	2343.76
308.467	2322.76
309.114	2271.76
309.764	2316.76
310.412	2311.76
311.059	2250.76
311.706	2317.76
312.354	2342.76
313.003	2307.76
313.65	2293.76
314.297	2394.76
314.944	2353.76
315.592	2304.76
316.239	2314.76
316.886	2307.76
317.535	2251.76
318.182	2210.76
318.828	2273.76
319.475	2299.76
320.122	2324.76
320.769	2306.76
321.415	2296.76
322.062	2285.76
322.709	2187.76
323.355	2301.76
324.002	2282.76
324.648	2319.76
325.294	2258.76
325.941	2258.76
326.587	2286.76
327.233	2275.76
327.88	2257.76
328.526	2297.76
329.172	2286.76
329.818	2295.76
330.464	2284.76
331.11	2256.76
331.754	2269.76
332.4	2304.76
333.046	2283.76
333.692	2255.76
334.337	2264.76
334.983	2244.76
335.629	2299.76
336.275	2278.76
336.918	2269.76
337.564	2262.76
338.209	2271.76
338.855	2208.76
339.5	2268.76
340.143	2289.76
340.789	2216.76
341.434	2298.76
342.079	2240.76
342.722	2269.76
343.367	2210.76
344.012	2219.76
344.658	2216.76
345.3	2259.76
345.945	2260.76
346.59	2219.76
347.233	2214.76
347.878	2289.76
348.523	2257.76
349.165	2255.76
349.81	2262.76
350.455	2242.76
351.097	2277.76
351.742	2229.76
352.384	2262.76
353.029	2281.76
353.673	2287.76
354.315	2262.76
354.96	2240.76
355.602	2276.76
356.246	2260.76
356.888	2307.76
357.533	2227.76
358.175	2238.76
358.819	2266.76
359.461	2219.76
360.105	2234.76
360.746	2271.76
361.39	2260.76
362.032	2279.76
362.676	2208.76
363.318	2277.76
363.961	2206.76
364.603	2179.76
365.247	2324.76
365.888	2233.76
366.529	2210.76
367.173	2200.76
367.814	2276.76
368.456	2242.76
369.099	2240.76
369.74	2261.76
370.381	2243.76
371.025	2251.76
371.666	2241.76
372.307	2216.76
372.95	2277.76
373.591	2203.76
374.232	2272.76
374.875	2227.76
375.516	2214.76
376.156	2277.76
376.797	2197.76
377.44	2276.76
378.081	2241.76
378.721	2260.76
379.362	2213.76
380.002	2203.76
380.645	2214.76
381.285	2247.76
381.926	2203.76
382.566	2219.76
383.206	2218.76
383.847	2208.76
384.489	2171.76
385.129	2174.76
385.769	2222.76
386.409	2211.76
387.049	2235.76
387.689	2256.76
388.329	2252.76
388.969	2219.76
389.609	2231.76
390.249	2224.76
390.889	2255.76
391.528	2277.76
392.168	2241.76
392.81	2275.76
393.449	2211.76
394.089	2249.76
394.726	2227.76
395.366	2310.76
396.005	2198.76
396.645	2250.76
397.284	2249.76
397.923	2210.76
398.562	2299.76
399.202	2208.76
399.841	2239.76
400.48	2281.76
401.119	2214.76
401.758	2248.76
402.397	2292.76
403.034	2285.76
403.673	2192.76
404.311	2283.76
404.95	2217.76
405.589	2230.76
406.228	2247.76
406.864	2213.76
407.503	2277.76
408.142	2254.76
408.78	2221.76
409.419	2266.76
410.055	2283.76
410.693	2264.76
411.332	2300.76
411.968	2281.76
412.606	2219.76
413.244	2313.76
413.883	2303.76
414.519	2294.76
415.157	2249.76
415.795	2236.76
416.431	2234.76
417.069	2250.76
417.707	2292.76
418.342	2253.76
418.98	2266.76
419.616	2153.76
420.254	2299.76
420.891	2325.76
421.527	2230.76
422.165	2304.76
422.8	2317.76
423.438	2271.76
424.075	2266.76
424.71	2296.76
425.348	2326.76
425.983	2284.76
426.62	2269.76
427.256	2230.76
427.893	2258.76
428.528	2241.76
429.165	2287.76
429.8	2260.76
430.435	2255.76
431.072	2291.76
431.707	2254.76
432.344	2305.76
432.979	2267.76
433.615	2336.76
434.25	2264.76
434.885	2299.76
435.521	2249.76
436.156	2262.76
436.79	2291.76
437.427	2247.76
438.061	2307.76
438.696	2311.76
439.332	2341.76
439.967	2321.76
440.601	2251.76
441.237	2292.76
441.871	2299.76
442.505	2280.76
443.142	2306.76
443.776	2344.76
444.41	2216.76
445.044	2361.76
445.678	2294.76
446.314	2326.76
446.947	2318.76
447.581	2270.76
448.215	2307.76
448.849	2262.76
449.484	2312.76
450.118	2270.76
450.752	2263.76
451.385	2326.76
452.018	2250.76
452.652	2285.76
453.285	2341.76
453.921	2299.76
454.554	2324.95
455.187	2284.41
455.821	2358.99
456.454	2299.87
457.087	2277.76
457.72	2303.64
458.353	2340.29
458.986	2320.18
459.619	2359.7
460.252	2308.16
460.885	2278.64
461.518	2305.69
462.15	2300.02
462.783	2297.34
463.416	2296.42
464.048	2294.26
464.681	2273.8
465.314	2256.65
465.946	2326.92
466.579	2314.64
467.209	2300.76
467.841	2297.33
468.474	2324.9
469.106	2279.37
469.738	2266.1
470.371	2286.99
471.003	2256.28
471.633	2325.08
472.265	2295.31
472.897	2303.24
473.529	2325.52
474.161	2317.79
474.791	2323.03
475.423	2284.22
476.054	2324.27
476.686	2310.69
477.318	2263.71
477.948	2266.64
478.579	2311.38
479.211	2298.95
479.84	2312.81
480.472	2308.54
481.103	2305.28
481.733	2270.83
482.364	2257.49
482.996	2292.81
483.625	2249.68
484.256	2260.69
484.887	2258.02
485.516	2263.28
486.148	2264.47
486.779	2301.09
487.408	2335.05
488.039	2292.17
488.668	2314.84
489.298	2307.93
489.927	2232.56
490.558	2294.52
491.187	2285.56
491.818	2279.83
492.446	2303.04
493.077	2253.33
493.705	2270.37
494.336	2291.09
494.964	2289.28
495.595	2242.11
496.223	2280.01
496.854	2292.88
497.482	2305.08
498.112	2270.03
498.741	2288.54
499.371	2285.96
499.999	2261.07
500.627	2274.74
501.257	2306.43
501.885	2289.94
502.513	2289.12
503.143	2248.7
503.771	2252.14
504.399	2265.2
505.029	2240.34
505.656	2287.35
506.284	2325.72
506.914	2263.53
507.541	2337.57
508.169	2277.74
508.796	2278.61
509.426	2319.99
510.054	2328.05
510.681	2263.47
511.308	2294
511.938	2310.15
512.565	2283.14
513.192	2304.94
513.819	2307.29
514.446	2299.09
515.076	2298.6
515.703	2331.23
516.33	2281.23
516.957	2302.55
517.584	2296.17
518.21	2318.46
518.837	2314.92
519.464	2344.82
520.093	2347.4
520.72	2333.76
521.346	2303.37
521.973	2302.81
522.6	2346.26
523.226	2339.92
523.853	2338.27
524.479	2368.48
525.105	2350.77
525.732	2383.22
526.358	2336.13
526.984	2325.74
527.611	2417.83
528.237	2406.97
528.863	2370.42
529.489	2387.89
530.115	2407.34
530.741	2399.42
531.365	2378.6
531.991	2398.15
532.617	2387.33
533.243	2433.25
533.869	2390.78
534.495	2429.47
535.12	2441.5
535.746	2432.36
536.369	2448.72
536.995	2400.43
537.621	2443.53
538.246	2459.24
538.872	2479.71
539.495	2475.3
540.12	2450.74
540.746	2486.08
541.371	2482.71
541.994	2459.82
542.62	2470.11
543.245	2495.58
543.87	2525.21
544.493	2490.5
545.118	2484.79
545.743	2499.91
546.366	2531.08
546.991	2529.43
547.616	2578.57
548.238	2546.66
548.863	2528.9
549.488	2566.49
550.111	2548.38
550.735	2559
551.36	2518.97
551.982	2550.82
552.607	2535.11
553.229	2541.09
553.854	2579.29
554.476	2562.89
555.101	2568.47
555.723	2585.64
556.347	2578.05
556.969	2570.36
557.594	2584.75
558.216	2573.82
558.84	2569.99
559.462	2568.38
560.086	2589.27
560.708	2572.01
561.332	2550.05
561.954	2543.75
562.578	2585.5
563.199	2550.99
563.821	2579.34
564.445	2561.36
565.066	2572.64
565.69	2587.69
566.312	2553.56
566.933	2580.37
567.557	2552.63
568.178	2596.36
568.799	2566.21
569.423	2605.96
570.044	2591.86
570.665	2571.49
571.289	2584.6
571.91	2552.74
572.531	2579.18
573.152	2540.65
573.775	2596.05
574.396	2550.26
575.017	2506.23
575.638	2570.19
576.261	2603.3
576.882	2567.59
577.503	2516.64
578.123	2558.1
578.744	2559.57
579.365	2558.73
579.987	2540.13
580.608	2532.67
581.229	2537.26
581.849	2526.85
582.47	2529.89
583.09	2554.61
583.71	2582.47
584.331	2511.95
584.951	2503.49
585.571	2516.13
586.194	2525.91
586.814	2532.95
587.434	2501.43
588.054	2536.63
588.674	2512.67
589.294	2459.78
589.914	2445.53
590.534	2508.41
591.154	2503.7
591.774	2476.63
592.391	2479.4
593.011	2469.17
593.631	2475.55
594.25	2464.14
594.87	2455.83
595.49	2479.55
596.109	2459.98
596.729	2497.53
597.348	2442.86
597.967	2435.34
598.585	2463.07
599.204	2464.23
599.823	2415.04
600.443	2435.17
601.062	2427.11
601.681	2429.27
602.298	2461.61
602.917	2465.6
603.536	2433.66
604.155	2457.53
604.772	2417.97
605.391	2423.03
606.01	2432.76
606.629	2434.11
607.245	2424.39
607.864	2378.17
608.483	2415.95
609.099	2425.04
609.718	2432.76
610.337	2394.94
610.953	2382.92
611.572	2441.38
612.19	2376.36
612.806	2398.74
613.425	2389.47
614.043	2385.17
614.659	2394.81
615.278	2366.95
615.894	2340.61
616.512	2417.99
617.128	2366.53
617.746	2385.15
618.364	2347.93
618.98	2388.37
619.598	2361.57
620.214	2348.58
620.832	2353.39
621.448	2301.21
622.065	2399.06
622.681	2325.25
623.297	2346.97
623.914	2331.37
624.53	2290.45
625.148	2338.04
625.763	2325.52
626.381	2306.06
626.996	2346.23
627.611	2336.53
628.229	2311.47
628.844	2304.79
629.459	2320.62
630.076	2333.76
630.692	2348.19
631.307	2324.27
631.924	2273.56
632.539	2327.69
633.154	2303.21
633.771	2221.72
634.386	2285.9
635.001	2277.27
635.615	2290.09
636.232	2263.36
636.847	2227.35
637.462	2283.97
638.076	2270.39
638.693	2228.52
639.308	2275.47
639.922	2256.03
640.537	2248.03
641.151	2255.55
641.768	2231.16
642.382	2278.9
642.996	2172.14
643.611	2219.35
644.225	2193.04
644.839	2228.11
645.453	2229.35
646.067	2233.34
646.681	2186.84
647.295	2197.58
647.912	2149.47
648.526	2182.8
649.139	2130.37
649.753	2196.66
650.367	2157.77
650.981	2105.19
651.595	2139.64
652.208	2095.49
652.822	2129.01
653.436	2121.52
654.049	2098.37
654.663	2126.91
655.274	2128.56
655.888	2058.34
656.501	2097.63
657.115	2058.61
657.728	2077.24
658.333	2035.23
658.954	2065.24
659.574	2060.24
660.196	2044.23
660.816	2024.23
661.435	2024.23
662.057	2029.23
662.676	2018.23
663.298	2030.23
663.917	2009.23
664.537	1968.23
665.158	2014.23
665.777	1969.23
666.399	1968.23
667.018	1943.23
667.637	1966.23
668.258	1983.23
668.877	1995.23
669.496	1924.23
670.118	1872.23
670.737	1922.23
671.355	1914.23
671.974	1876.23
672.595	1847.23
673.214	1900.23
673.833	1870.23
674.452	1855.23
675.072	1867.23
675.691	1868.23
676.31	1809.23
676.928	1843.23
677.549	1825.23
678.167	1862.23
678.786	1806.23
679.404	1808.23
680.022	1773.23
680.641	1777.23
681.261	1768.23
681.879	1761.23
682.497	1749.23
683.116	1772.23
683.734	1781.23
684.352	1705.23
684.97	1768.23
685.588	1764.23
686.206	1723.23
686.824	1695.23
687.441	1705.23
688.059	1688.23
688.677	1707.23
689.297	1676.23
689.915	1645.23
690.532	1678.23
691.15	1691.23
691.765	1670.23
692.383	1648.23
693	1618.23
693.618	1645.23
694.235	1602.23
694.852	1647.23
695.47	1585.23
696.087	1543.23
696.704	1596.23
697.321	1594.23
697.939	1587.23
698.556	1592.23
699.173	1552.23
699.788	1538.23
700.405	1540.23
701.022	1501.23
701.639	1522.23
702.255	1525.23
702.872	1502.23
703.487	1505.23
704.104	1463.23
704.72	1521.23
705.337	1456.23
705.954	1438.23
706.568	1465.23
707.185	1439.23
707.801	1433.23
708.416	1483.23
709.032	1463.23
709.648	1431.23
710.265	1450.23
710.879	1394.23
711.495	1425.23
712.111	1387.23
712.725	1355.23
713.341	1369.23
713.958	1381.23
714.572	1342.23
715.188	1316.23
715.804	1361.23
716.417	1356.23
717.033	1321.23
717.647	1318.23
718.263	1244.23
718.876	1303.23
719.492	1249.23
720.108	1303.23
720.721	1249.23
721.337	1295.23
721.95	1275.23
722.566	1241.23
723.179	1251.23
723.795	1232.23
724.408	1266.23
725.023	1229.23
725.637	1226.23
726.252	1239.23
726.865	1218.23
727.48	1256.23
728.093	1203.23
728.706	1190.23
729.321	1165.23
729.934	1228.23
730.549	1176.23
731.162	1172.23
731.775	1179.23
732.39	1179.23
733.003	1140.23
733.615	1161.23
734.23	1171.23
734.843	1153.23
735.455	1141.23
736.07	1114.23
736.682	1137.23
737.295	1130.23
737.909	1143.23
738.522	1110.23
739.134	1128.23
739.746	1139.23
740.361	1081.23
740.973	1087.23
741.585	1111.23
742.197	1089.23
742.809	1066.23
743.423	1084.23
744.035	1054.23
744.647	1068.23
745.259	1048.23
745.871	1059.23
746.485	1071.23
747.097	1055.23
747.708	1030.23
748.32	1083.23
748.932	1019.24
749.544	1018.24
750.155	1029.23
750.767	1018.24
751.378	1000.24
751.99	992.235
752.601	1000.24
753.215	995.235
753.826	1001.24
754.437	987.235
755.049	971.235
755.66	1000.24
756.271	979.235
756.882	980.235
757.493	943.235
758.104	973.235
758.715	987.235
759.324	932.235
759.935	945.235
760.546	958.235
761.157	961.235
761.768	964.235
762.379	925.235
762.989	948.235
763.6	942.235
764.211	947.235
764.821	937.235
765.43	938.235
766.04	935.235
766.651	927.235
767.261	925.235
767.872	928.235
768.482	935.235
769.09	925.235
769.701	932.235
770.311	900.235
770.921	887.235
771.531	921.235
772.139	912.235
772.75	904.235
773.36	920.235
773.967	894.235
774.577	922.235
775.187	905.235
775.797	895.235
776.405	864.235
777.015	886.235
777.625	891.235
778.232	883.235
778.842	908.235
779.452	879.235
780.059	869.235
780.669	889.235
781.276	876.235
781.886	879.235
782.495	909.235
783.103	861.235
783.712	874.235
784.319	868.235
784.929	888.235
785.536	866.235
786.145	861.235
786.752	854.235
787.361	848.235
787.968	860.235
788.577	874.235
789.184	835.235
789.793	891.235
790.4	884.235
791.009	874.235
791.616	848.235
792.224	883.235
792.831	888.235
793.44	841.235
794.047	821.235
794.653	895.235
795.262	864.235
795.868	838.235
796.477	853.235
797.083	869.235
797.69	837.235
798.298	876.235
798.904	841.235
799.511	861.235
800.119	868.235
800.725	837.235
801.331	835.235
801.937	865.235
802.545	824.235
803.151	836.235
803.757	835.235
804.365	869.235
804.971	864.235
805.577	833.235
806.183	846.235
806.789	824.235
807.397	823.235
808.002	834.235
808.608	840.235
809.214	810.235
809.819	840.235
810.425	818.235
811.032	842.235
811.638	832.235
812.243	835.235
812.849	860.235
813.454	830.235
814.059	841.235
814.664	847.235
815.27	841.235
815.875	804.235
816.48	831.235
817.087	844.235
817.692	809.235
818.297	832.235
818.902	813.235
819.507	822.235
820.112	810.235
820.717	829.235
821.322	836.235
821.927	826.235
822.529	845.235
823.134	815.235
823.739	832.235
824.343	837.235
824.948	797.235
825.552	822.235
826.157	804.235
826.761	798.235
827.366	767.235
827.97	820.235
828.575	821.235
829.177	822.235
829.781	798.235
830.385	791.235
830.989	799.235
831.594	793.235
832.198	817.235
832.8	811.235
833.404	787.235
834.008	827.235
834.612	818.235
835.214	768.235
835.817	763.235
836.421	816.235
837.025	810.235
837.627	826.235
838.23	821.235
838.834	826.235
839.436	802.235
840.039	818.235
840.643	794.235
841.244	790.235
841.848	771.235
842.451	785.235
843.053	795.235
843.656	808.235
844.259	810.235
844.86	823.235
845.464	795.235
846.065	794.235
846.668	791.235
847.271	809.235
847.872	815.235
848.475	801.235
849.076	794.235
849.679	769.235
850.28	795.235
850.883	824.235
851.484	828.235
852.086	751.235
852.687	772.235
853.29	817.235
853.89	777.235
854.493	785.235
855.094	816.235
855.694	805.235
856.297	800.235
856.897	799.235
857.5	818.235
858.1	810.235
858.7	797.235
859.303	799.235
859.903	819.235
860.505	803.235
861.105	810.235
861.705	812.235
862.307	810.235
862.908	806.235
863.508	818.235
864.107	804.235
864.709	785.235
865.309	802.235
865.909	826.235
866.511	797.235
867.111	791.235
867.711	829.235
868.31	793.235
868.91	825.235
869.512	800.235
870.111	832.235
870.711	832.235
871.31	795.235
871.909	813.235
872.511	831.235
873.11	812.235
873.71	853.235
874.309	821.235
874.908	800.235
875.507	815.235
876.107	812.235
876.706	843.235
877.307	825.235
877.906	831.235
878.505	811.235
879.104	791.235
879.703	813.235
880.302	847.235
880.901	823.235
881.5	841.235
882.098	856.235
882.697	857.235
883.296	809.235
883.894	848.235
884.493	880.235
885.092	860.235
885.69	853.235
886.289	862.235
886.885	864.235
887.483	875.235
888.082	873.235
888.68	849.235
889.279	878.235
889.877	836.235
890.475	900.235
891.073	882.235
891.671	853.235
892.267	854.235
892.866	860.235
893.464	863.235
894.062	857.235
894.66	876.235
895.255	875.235
895.853	899.235
896.451	882.235
897.049	857.235
897.645	903.235
898.242	894.375
898.84	858.707
899.438	893.685
900.033	914.162
900.631	884.556
901.228	897.373
901.824	877.332
902.421	938.878
903.019	898.685
903.614	896.34
904.211	891.196
904.809	908.69
905.404	925.629
906.001	922.089
906.598	927.457
907.193	929.419
907.791	938.038
908.386	924.283
908.983	932.457
909.578	908.105
910.174	918.001
910.769	926.214
911.366	973.209
911.963	912.026
912.558	959.08
913.155	929.653
913.749	953.615
914.344	919.807
914.94	918.938
915.535	914.009
916.132	938.316
916.726	948.364
917.323	960.823
917.917	961.956
918.513	995.646
919.108	942.626
919.702	956.257
920.298	951.646
920.892	980.313
921.487	952.205
922.083	946.908
922.677	977.944
923.271	969.071
923.867	979.735
924.461	966.837
925.055	938.556
925.651	962.462
926.245	964.386
926.839	988.353
927.432	958.497
928.028	950.815
928.622	978.436
929.215	956.571
929.809	967.558
930.405	994.825
930.998	986.085
931.592	980.782
932.185	962.676
932.779	967.293
933.372	982.544
933.968	956.719
934.561	976.016
935.154	979.54
935.747	996.138
936.341	992.001
936.934	969.662
937.527	992.755
938.12	974.694
938.713	992.144
939.308	955.108
939.901	965.881
940.494	967.956
941.087	964.093
941.68	974.748
942.273	970.616
942.865	973.614
943.458	960.317
944.051	938.66
944.643	927.323
945.236	951.198
945.829	955.709
946.419	941.364
947.012	938.658
947.604	959.603
948.196	965.839
948.789	974.49
949.381	921.521
949.974	941.352
950.566	948.331
951.158	923.676
951.75	958.314
952.34	965.341
952.933	931.55
953.525	914.532
954.117	911.524
954.709	914.659
955.299	916.344
955.891	903.31
956.482	917.066
957.074	918.452
957.666	901.088
958.256	881.766
958.848	894.558
959.439	896.86
960.029	908.331
960.621	867.411
961.212	891.755
961.804	889.511
962.393	874.733
962.985	878.824
963.576	866.231
964.165	824.52
964.757	862.195
965.346	861.431
965.937	842.406
966.529	844.031
967.118	855.35
967.709	847.599
968.298	825.538
968.889	821.282
969.48	831.415
970.069	838.239
970.66	795.353
971.249	807.985
971.84	793.253
972.429	805.196
973.02	802.781
973.608	807.981
974.199	794.593
974.788	794.885
975.379	789.728
975.967	793.522
976.556	777.702
977.146	797.961
977.735	764.523
978.325	740.439
978.914	746.9
979.502	742.043
980.092	744.167
980.681	736.429
981.271	734.533
981.859	733.528
982.447	729.054
983.037	734.257
983.626	712.483
984.214	707.465
984.804	723.394
985.392	686.537
985.98	699.193
986.568	714.749
987.158	706.82
987.745	670.511
988.333	690.443
988.921	693.003
989.511	663.281
990.098	684.808
990.686	672.651
991.274	657.157
991.861	676.928
992.449	669.794
993.038	638.007
993.626	646.553
994.213	648.68
994.8	623.734
995.388	637.495
995.975	642.319
996.562	644.376
997.15	631.949
997.739	605.858
998.326	600.962
998.913	602.013
999.5	596.625
1000.09	620.564
1000.67	623.503
1001.26	588.135
1001.85	582.721
1002.44	580.161
1003.02	582.536
1003.61	579.841
1004.2	566.248
1004.78	572.362
1005.37	579.951
1005.96	569.51
1006.54	559.912
1007.13	554.668
1007.71	563.478
1008.3	555.958
1008.89	542.219
1009.47	552.825
1010.06	546.534
1010.65	556.649
1011.23	525.819
1011.82	532.682
1012.4	536.905
1012.99	529.265
1013.57	510.928
1014.16	516.705
1014.74	518.789
1015.33	503.253
1015.92	519.068
1016.5	504.24
1017.09	509.612
1017.67	511.21
1018.26	506.586
1018.84	484.886
1019.43	488.262
1020.01	493.135
1020.6	485.792
1021.18	471.813
1021.77	478.868
1022.35	479.95
1022.94	476.958
1023.52	459.442
1024.11	467.143
1024.69	483.915
1025.28	461.575
1025.86	446.331
1026.45	465.151
1027.03	427.941
1027.62	453.525
1028.2	427.677
1028.78	442.308
1029.37	432.773
1029.95	440.824
1030.54	419.872
1031.12	429.477
1031.71	420.754
1032.29	416.966
1032.87	415.845
1033.46	406.498
1034.04	415.149
1034.62	421
1035.21	396.614
1035.79	406.302
1036.37	415.963
1036.96	395.485
1037.54	387.064
1038.13	399.902
1038.71	395.151
1039.29	401.593
1039.88	388.064
1040.46	362.549
1041.04	377.752
1041.62	370.814
1042.21	377.676
1042.79	376.469
1043.37	363.405
1043.96	370.372
1044.54	358.786
1045.12	364.565
1045.7	333.342
1046.29	360.004
1046.87	337.903
1047.45	360.469
1048.03	355.008
1048.62	349.441
1049.2	337.597
1049.78	330.579
1050.36	331.438
1050.95	324.991
1051.53	366.243
1052.11	331.182
1052.69	310.53
1053.27	321.251
1053.85	336.896
1054.43	333.584
1055.02	320.536
1055.6	332.366
1056.18	334.678
1056.76	323.317
1057.34	321.906
1057.93	311.148
1058.51	295.256
1059.09	313.155
1059.67	302.668
1060.25	301.105
1060.83	298.981
1061.41	305.653
1061.99	289.308
1062.57	291.914
1063.16	268.578
1063.73	304.983
1064.31	283.568
1064.9	269.662
1065.48	289.334
1066.06	270.817
1066.64	269.826
1067.22	269.418
1067.8	281.588
1068.38	277.731
1068.96	259.911
1069.54	249.797
1070.12	259.083
1070.7	267.388
1071.28	264.667
1071.86	262.84
1072.44	271.96
1073.02	244.549
1073.6	252.964
1074.18	244.793
1074.76	262.359
1075.34	238.731
1075.92	234.181
1076.5	242.83
1077.08	240.716
1077.46	241.716
1078.04	237.716
1078.63	246.716
1079.22	242.716
1079.81	225.716
1080.39	219.716
1080.98	224.716
1081.57	221.716
1082.15	236.716
1082.74	236.716
1083.33	233.716
1083.92	241.716
1084.5	220.716
1085.09	204.716
1085.68	220.716
1086.26	242.716
1086.85	226.716
1087.43	196.716
1088.02	222.716
1088.61	230.716
1089.2	213.716
1089.78	197.716
1090.37	193.716
1090.95	221.716
1091.54	220.716
1092.13	198.716
1092.71	203.716
1093.3	203.716
1093.88	196.716
1094.47	193.716
1095.06	203.716
1095.64	203.716
1096.23	194.716
1096.81	195.716
1097.4	207.716
1097.98	198.716
1098.57	190.716
1099.16	180.716
1099.74	188.716
1100.32	183.716
1100.91	186.716
1101.5	197.716
1102.08	186.716
1102.67	181.716
1103.25	200.716
1103.84	168.716
1104.42	182.716
1105.01	202.716
1105.59	170.716
1106.17	177.716
1106.76	171.716
1107.35	175.716
1107.93	167.716
1108.51	158.716
1109.1	166.716
1109.68	179.716
1110.27	174.716
1110.85	160.716
1111.44	184.716
1112.02	175.716
1112.6	173.716
1113.19	176.716
1113.77	163.716
1114.36	168.716
1114.94	157.716
1115.52	168.716
1116.11	168.716
1116.69	173.716
1117.28	155.716
1117.86	151.716
1118.44	148.716
1119.03	164.716
1119.61	165.716
1120.19	141.716
1120.78	162.716
1121.36	162.716
1121.94	144.716
1122.52	148.716
1123.11	157.716
1123.69	156.716
1124.27	157.716
1124.86	154.716
1125.44	152.716
1126.02	144.716
1126.61	165.716
1127.19	157.716
1127.77	139.716
1128.35	153.716
1128.94	148.716
1129.52	136.716
1130.1	137.716
1130.68	141.716
1131.27	151.716
1131.85	149.716
1132.43	144.716
1133.01	155.716
1133.6	155.716
1134.18	130.716
1134.76	141.716
1135.34	136.716
1135.92	138.716
1136.5	133.716
1137.09	144.716
1137.67	122.716
1138.25	145.716
1138.83	138.716
1139.41	136.716
1139.99	136.716
1140.58	129.716
1141.16	137.716
1141.74	123.716
1142.32	131.716
1142.9	145.716
1143.48	126.716
1144.06	119.716
1144.64	144.716
1145.22	145.716
1145.81	125.716
1146.39	125.716
1146.97	131.716
1147.55	133.716
1148.13	136.716
1148.71	124.716
1149.29	131.716
1149.87	141.716
1150.45	134.716
1151.03	132.716
1151.61	139.716
1152.19	146.716
1152.77	132.716
1153.35	124.716
1153.93	131.716
1154.51	135.716
1155.09	125.716
1155.67	114.716
1156.25	141.716
1156.83	129.716
1157.41	114.716
1157.99	123.716
1158.57	107.716
1159.15	130.716
1159.73	104.716
1160.31	119.716
1160.89	122.716
1161.47	113.716
1162.05	119.716
1162.63	110.716
1163.21	115.716
1163.79	122.716
1164.36	132.716
1164.95	109.716
1165.52	117.716
1166.1	132.716
1166.68	127.716
1167.26	114.716
1167.84	119.716
1168.42	119.716
1169	123.716
1169.57	117.716
1170.15	110.716
1170.73	116.716
1171.31	123.716
1171.89	112.716
1172.47	118.716
1173.05	124.716
1173.62	113.716
1174.2	106.716
1174.78	120.716
1175.36	132.716
1175.94	124.716
1176.51	106.716
1177.09	113.716
1177.67	126.716
1178.25	119.716
1178.83	112.716
1179.4	100.716
1179.98	112.716
1180.56	114.716
1181.14	117.716
1181.71	115.716
1182.29	124.716
1182.87	125.716
1183.44	110.716
1184.02	112.716
1184.6	115.716
1185.18	122.716
1185.75	111.716
1186.33	109.716
1186.91	100.716
1187.48	118.716
1188.06	104.716
1188.64	114.716
1189.21	107.716
1189.79	122.716
1190.37	102.716
1190.94	107.716
1191.52	111.716
1192.1	112.716
1192.67	97.7156
1193.25	105.716
1193.83	123.716
1194.4	113.716
1194.98	95.7156
1195.55	95.7156
1196.13	107.716
1196.71	105.716
1197.28	108.716
1197.86	109.716
1198.43	105.716
1199.01	102.716
1199.59	98.7156
1200.16	101.716
