17.0039	984.081
17.6805	970.081
18.3571	966.081
19.0336	926.081
19.7123	948.081
20.3887	991.081
21.0651	987.081
21.7414	1019.08
22.4176	968.081
23.0939	981.081
23.77	991.081
24.4462	1048.08
25.1222	1064.08
25.7983	1093.08
26.4742	1119.08
27.1502	1182.08
27.8261	1137.08
28.5019	1117.08
29.1777	1204.08
29.8534	1142.08
30.5291	1133.08
31.2048	1135.08
31.8804	1153.08
32.5559	1154.08
33.2314	1205.08
33.9069	1277.08
34.5823	1281.08
35.2577	1351.08
35.933	1400.08
36.6083	1423.08
37.2835	1462.08
37.9587	1508.08
38.6338	1525.08
39.3066	1468.08
39.9817	1510.08
40.6566	1458.08
41.3316	1520.08
42.0065	1550.08
42.6813	1715.08
43.3539	1700.08
44.0286	1766.08
44.7033	1809.08
45.378	1856.08
46.0526	1766.08
46.7249	1796.08
47.3994	1832.08
48.0739	1912.08
48.7483	1946.08
49.4204	2069.08
50.0947	2079.08
50.769	2105.08
51.4433	2120.08
52.1152	2128.08
52.7893	2172.08
53.4634	2130.08
54.1352	2101.08
54.8092	2183.08
55.4831	2196.08
56.1548	2211.08
56.8286	2244.08
57.5024	2279.08
58.1739	2359.08
58.8477	2449.08
59.5213	2591.08
60.1927	2647.08
60.8663	2673.08
61.5375	2651.08
62.211	2487.08
62.8845	2436.08
63.5556	2524.08
64.2289	2532.08
64.8999	2545.08
65.5732	2571.08
66.2441	2578.08
66.9173	2681.08
67.5881	2684.08
68.2612	2698.08
68.9319	2696.08
69.6049	2640.08
70.2755	2732.08
70.9484	2783.08
71.619	2782.08
72.2918	2847.08
72.9622	2896.08
73.6349	2821.08
74.3053	2869.08
74.9756	2868.08
75.6482	2939.08
76.3184	2943.08
76.9909	2984.08
77.661	2925.08
78.3311	2891.08
79.0034	2919.08
79.6734	2911.08
80.3433	2858.08
81.0155	2886.08
81.6854	2941.08
82.3552	3004.08
83.0272	3057.08
83.6969	3072.08
84.3666	3027.08
85.0385	2930.08
85.7081	2961.08
86.3776	2990.08
87.0471	2868.08
87.7188	2968.08
88.3882	2955.08
89.0575	3037.08
89.7268	3015.08
90.3961	3077.08
91.0676	3057.08
91.7367	3096.08
92.4059	3104.08
93.0749	3113.08
93.7439	3164.08
94.4152	3039.08
95.0841	3052.08
95.753	3091.08
96.4218	2949.08
97.0906	2949.08
97.7594	3002.08
98.4281	3129.08
99.0967	3039.08
99.7676	3063.08
100.436	3010.08
101.105	3037.08
101.773	3017.08
102.442	2989.08
103.11	3094.08
103.778	2985.08
104.447	3032.08
105.115	3063.08
105.783	3036.08
106.451	3114.08
107.119	3135.08
107.787	3170.08
108.455	3077.08
109.123	3042.08
109.791	3058.08
110.459	2996.08
111.127	3006.08
111.795	3008.08
112.462	3050.08
113.13	3015.08
113.795	2945.08
114.463	3050.08
115.13	3040.08
115.798	3006.08
116.465	3067.08
117.133	3072.08
117.8	3099.08
118.467	3050.08
119.132	2950.08
119.8	2960.08
120.467	3013.08
121.134	2952.08
121.801	3041.08
122.466	3070.08
123.133	3028.08
123.8	3079.08
124.467	2980.08
125.133	2988.08
125.798	2932.08
126.465	3030.08
127.131	2982.08
127.796	2924.08
128.462	2961.08
129.129	2958.08
129.796	2957.08
130.46	2950.08
131.126	2946.08
131.793	2999.08
132.457	2972.08
133.123	2907.08
133.789	2911.08
134.453	2916.08
135.119	2855.08
135.783	2852.08
136.449	2810.08
137.115	2937.08
137.779	2782.08
138.445	2945.08
139.108	2905.08
139.774	2932.08
140.438	2919.08
141.104	2937.08
141.769	2892.08
142.433	2903.08
143.098	2859.08
143.762	2833.08
144.427	2839.08
145.09	2800.08
145.756	2856.08
146.419	2814.08
147.084	2845.08
147.747	2867.08
148.41	2840.08
149.075	2841.08
149.738	2783.08
150.403	2839.08
151.066	2807.08
151.731	2840.08
152.394	2913.08
153.056	2774.08
153.721	2870.08
154.384	2807.08
155.046	2787.08
155.711	2842.08
156.374	2781.08
157.036	2762.08
157.701	2750.08
158.363	2730.08
159.025	2757.08
159.69	2726.08
160.352	2749.08
161.014	2761.08
161.676	2802.08
162.34	2739.08
163.002	2793.08
163.664	2758.08
164.326	2734.08
164.99	2746.08
165.652	2741.08
166.314	2738.08
166.975	2742.08
167.637	2705.08
168.301	2688.08
168.962	2675.08
169.624	2750.08
170.285	2720.08
170.947	2675.08
171.608	2688.08
172.272	2703.08
172.933	2729.08
173.594	2671.08
174.255	2671.08
174.917	2661.08
175.578	2688.08
176.239	2702.08
176.9	2636.08
177.561	2645.08
178.222	2621.08
178.882	2652.08
179.543	2633.08
180.204	2668.08
180.865	2654.08
181.526	2703.08
182.186	2637.08
182.847	2674.08
183.507	2700.08
184.168	2609.08
184.828	2650.08
185.489	2688.08
186.149	2577.08
186.809	2592.08
187.47	2611.08
188.13	2603.08
188.79	2669.08
189.45	2588.08
190.11	2603.08
190.768	2620.08
191.428	2602.08
192.088	2610.08
192.748	2582.08
193.408	2585.08
194.068	2533.08
194.728	2620.08
195.385	2532.08
196.045	2593.08
196.705	2573.08
197.364	2560.08
198.021	2514.08
198.681	2577.08
199.34	2580.08
200	2514.08
200.657	2513.08
201.316	2498.08
201.976	2543.08
202.635	2518.08
203.292	2488.08
203.951	2444.08
204.61	2501.08
205.267	2543.08
205.926	2474.08
206.585	2531.08
207.242	2541.08
207.9	2523.08
208.559	2526.08
209.216	2531.08
209.875	2517.08
210.533	2510.08
211.19	2447.08
211.848	2500.08
212.505	2510.08
213.163	2524.08
213.819	2474.08
214.478	2487.08
215.134	2500.08
215.792	2488.08
216.451	2434.08
217.107	2494.08
217.765	2460.08
218.421	2480.08
219.079	2480.08
219.735	2424.08
220.391	2483.08
221.049	2451.08
221.704	2474.08
222.362	2430.08
223.018	2486.08
223.675	2504.08
224.331	2459.08
224.989	2431.08
225.644	2463.08
226.3	2547.08
226.957	2425.08
227.612	2429.08
228.268	2418.08
228.925	2450.08
229.58	2406.08
230.235	2402.08
230.893	2442.08
231.548	2442.08
232.203	2372.08
232.86	2447.08
233.515	2420.08
234.17	2432.08
234.827	2361.08
235.481	2425.08
236.136	2454.08
236.791	2392.08
237.448	2388.08
238.102	2402.08
238.757	2395.08
239.411	2370.08
240.066	2368.08
240.722	2426.08
241.377	2375.08
242.031	2420.08
242.685	2378.08
243.339	2475.08
243.993	2424.08
244.648	2324.08
245.304	2356.08
245.958	2395.08
246.612	2391.08
247.266	2417.08
247.92	2421.08
248.574	2372.08
249.227	2396.08
249.881	2351.08
250.535	2389.08
251.189	2410.08
251.842	2334.08
252.496	2348.08
253.149	2371.08
253.803	2316.08
254.456	2288.08
255.11	2291.08
255.763	2320.08
256.416	2310.08
257.07	2377.08
257.723	2333.08
258.376	2315.08
259.029	2327.08
259.682	2337.08
260.335	2292.08
260.988	2345.08
261.641	2317.08
262.294	2276.08
262.947	2367.08
263.598	2328.08
264.251	2321.08
264.903	2351.08
265.556	2290.08
266.209	2270.08
266.861	2295.08
267.512	2270.08
268.164	2294.08
268.817	2314.08
269.469	2283.08
270.121	2332.08
270.772	2326.08
271.424	2277.08
272.076	2326.08
272.728	2254.08
273.378	2271.08
274.03	2276.08
274.682	2309.08
275.332	2278.08
275.984	2277.08
276.636	2234.08
277.288	2304.08
277.938	2255.08
278.59	2216.08
279.239	2291.08
279.891	2240.08
280.542	2298.08
281.192	2304.08
281.843	2295.08
282.495	2250.08
283.144	2215.08
283.796	2298.08
284.445	2252.08
285.096	2307.08
285.745	2231.08
286.397	2298.08
287.048	2207.08
287.697	2225.08
288.348	2302.08
288.997	2214.08
289.648	2204.08
290.297	2247.08
290.948	2212.08
291.596	2224.08
292.247	2232.08
292.896	2191.08
293.544	2191.08
294.195	2254.08
294.844	2203.08
295.494	2240.08
296.143	2214.08
296.793	2238.08
297.441	2163.08
298.09	2176.08
298.74	2273.08
299.388	2253.08
300.036	2284.08
300.687	2234.08
301.335	2254.08
301.983	2278.08
302.633	2222.08
303.281	2240.08
303.929	2196.08
304.579	2183.08
305.227	2254.08
305.874	2177.08
306.522	2176.08
307.172	2207.08
307.819	2226.08
308.467	2198.08
309.114	2221.08
309.764	2207.08
310.412	2148.08
311.059	2214.08
311.706	2216.08
312.354	2171.08
313.003	2224.08
313.65	2169.08
314.297	2170.08
314.944	2196.08
315.592	2132.08
316.239	2155.08
316.886	2164.08
317.535	2176.08
318.182	2114.08
318.828	2142.08
319.475	2143.08
320.122	2177.08
320.769	2167.08
321.415	2196.08
322.062	2169.08
322.709	2181.08
323.355	2153.08
324.002	2148.08
324.648	2135.08
325.294	2188.08
325.941	2151.08
326.587	2109.08
327.233	2199.08
327.88	2161.08
328.526	2204.08
329.172	2118.08
329.818	2162.08
330.464	2158.08
331.11	2110.08
331.754	2145.08
332.4	2144.08
333.046	2136.08
333.692	2175.08
334.337	2138.08
334.983	2117.08
335.629	2187.08
336.275	2145.08
336.918	2129.08
337.564	2145.08
338.209	2199.08
338.855	2162.08
339.5	2124.08
340.143	2106.08
340.789	2101.08
341.434	2146.08
342.079	2143.08
342.722	2071.08
343.367	2094.08
344.012	2086.08
344.658	2123.08
345.3	2065.08
345.945	2103.08
346.59	2135.08
347.233	2095.08
347.878	2128.08
348.523	2091.08
349.165	2156.08
349.81	2068.08
350.455	2100.08
351.097	2204.08
351.742	2133.08
352.384	2147.08
353.029	2106.08
353.673	2108.08
354.315	2071.08
354.96	2085.08
355.602	2097.08
356.246	2146.08
356.888	2118.08
357.533	2120.08
358.175	2074.08
358.819	2097.08
359.461	2115.08
360.105	2097.08
360.746	2039.08
361.39	2059.08
362.032	2070.08
362.676	2102.08
363.318	2078.08
363.961	2102.08
364.603	2120.08
365.247	2081.08
365.888	2090.08
366.529	2104.08
367.173	2079.08
367.814	2083.08
368.456	2099.08
369.099	2101.08
369.74	2121.08
370.381	2079.08
371.025	2115.08
371.666	2117.08
372.307	2077.08
372.95	2146.08
373.591	2087.08
374.232	2119.08
374.875	2059.08
375.516	2092.08
376.156	2127.08
376.797	2079.08
377.44	2074.08
378.081	2098.08
378.721	2140.08
379.362	2085.08
380.002	2122.08
380.645	2097.08
381.285	2066.08
381.926	2063.08
382.566	2086.08
383.206	2048.08
383.847	2058.08
384.489	2095.08
385.129	2071.08
385.769	2091.08
386.409	2141.08
387.049	2083.08
387.689	2098.08
388.329	2115.08
388.969	2058.08
389.609	2086.08
390.249	2071.08
390.889	2089.08
391.528	2090.08
392.168	2068.08
392.81	2094.08
393.449	2058.08
394.089	2071.08
394.726	2079.08
395.366	2087.08
396.005	2058.08
396.645	2095.08
397.284	2103.08
397.923	2084.08
398.562	2030.08
399.202	2084.08
399.841	2122.08
400.48	2110.08
401.119	2120.08
401.758	2073.08
402.397	2063.08
403.034	2067.08
403.673	2048.08
404.311	2092.08
404.95	2090.08
405.589	2130.08
406.228	2038.08
406.864	2110.08
407.503	2073.08
408.142	2090.08
408.78	2039.08
409.419	2100.08
410.055	2132.08
410.693	2098.08
411.332	2028.08
411.968	2074.08
412.606	2115.08
413.244	2092.08
413.883	2062.08
414.519	2091.08
415.157	2104.08
415.795	2101.08
416.431	2071.08
417.069	2090.08
417.707	2121.08
418.342	2087.08
418.98	2105.08
419.616	2114.08
420.254	2075.08
420.891	2089.08
421.527	2090.08
422.165	2102.08
422.8	2107.08
423.438	2133.08
424.075	2095.08
424.71	2142.08
425.348	2092.08
425.983	2106.08
426.62	2127.08
427.256	2112.08
427.893	2135.08
428.528	2102.08
429.165	2082.08
429.8	2135.08
430.435	2095.08
431.072	2090.08
431.707	2127.08
432.344	2114.08
432.979	2113.08
433.615	2143.08
434.25	2159.08
434.885	2147.08
435.521	2107.08
436.156	2147.08
436.79	2105.08
437.427	2106.08
438.061	2132.08
438.696	2140.08
439.332	2169.08
439.967	2075.08
440.601	2149.08
441.237	2170.08
441.871	2106.08
442.505	2118.08
443.142	2135.08
443.776	2129.08
444.41	2111.08
445.044	2120.08
445.678	2091.08
446.314	2152.08
446.947	2176.08
447.581	2172.08
448.215	2116.08
448.849	2203.08
449.484	2125.08
450.118	2159.08
450.752	2142.08
451.385	2131.08
452.018	2129.08
452.652	2134.08
453.285	2170.08
453.921	2122.08
454.554	2131.61
455.187	2162.82
455.821	2173.84
456.454	2170.48
457.087	2120.36
457.72	2110.37
458.353	2128.99
458.986	2197.13
459.619	2109.2
460.252	2162.6
460.885	2183.38
461.518	2166.82
462.15	2141.51
462.783	2144.07
463.416	2177.36
464.048	2132.94
464.681	2174.95
465.314	2150.28
465.946	2116.92
466.579	2186.89
467.209	2158.43
467.841	2122.46
468.474	2114.65
469.106	2187.91
469.738	2157.99
470.371	2118.95
471.003	2129.38
471.633	2145.05
472.265	2138.93
472.897	2148.78
473.529	2193.16
474.161	2136.54
474.791	2203.36
475.423	2128.94
476.054	2157.6
476.686	2122.72
477.318	2170.43
477.948	2144.62
478.579	2176.86
479.211	2147.37
479.84	2116.96
480.472	2147.83
481.103	2139.82
481.733	2114.52
482.364	2128.99
482.996	2079.63
483.625	2168.14
484.256	2138.37
484.887	2166.58
485.516	2144.75
486.148	2128.77
486.779	2143.17
487.408	2149.5
488.039	2130.91
488.668	2117.25
489.298	2129.8
489.927	2153.17
490.558	2122.21
491.187	2199.54
491.818	2160.76
492.446	2147.55
493.077	2161.76
493.705	2148.05
494.336	2136.16
494.964	2151.84
495.595	2154.44
496.223	2117.46
496.854	2168.72
497.482	2137.69
498.112	2116.04
498.741	2154.9
499.371	2176.07
499.999	2150.58
500.627	2132.27
501.257	2150.48
501.885	2141.47
502.513	2150.48
503.143	2164.65
503.771	2157.21
504.399	2135.34
505.029	2136.84
505.656	2118.53
506.284	2176.1
506.914	2136.51
507.541	2142.12
508.169	2167.1
508.796	2097.37
509.426	2167.13
510.054	2207.09
510.681	2151.29
511.308	2191.75
511.938	2176.5
512.565	2181.74
513.192	2153.58
513.819	2154.13
514.446	2162.85
515.076	2165.48
515.703	2168.85
516.33	2186.65
516.957	2166.75
517.584	2139.06
518.21	2181.36
518.837	2153.09
519.464	2138.21
520.093	2175
520.72	2144.78
521.346	2154.94
521.973	2150.72
522.6	2195.03
523.226	2138.43
523.853	2153.64
524.479	2171.14
525.105	2169.3
525.732	2117.12
526.358	2166.35
526.984	2134.48
527.611	2165.21
528.237	2184.11
528.863	2110.52
529.489	2176.82
530.115	2168.58
530.741	2164.25
531.365	2177.85
531.991	2152.3
532.617	2161.34
533.243	2195.77
533.869	2179.59
534.495	2184.38
535.12	2144.86
535.746	2164.76
536.369	2169.17
536.995	2190.9
537.621	2169.17
538.246	2182.04
538.872	2198.62
539.495	2179.77
540.12	2176.69
540.746	2202.71
541.371	2206.25
541.994	2174.73
542.62	2173.67
543.245	2144.62
543.87	2148.82
544.493	2178.36
545.118	2169.6
545.743	2201.05
546.366	2157.21
546.991	2172.93
547.616	2153.65
548.238	2183.61
548.863	2165.24
549.488	2176.28
550.111	2182.48
550.735	2197.46
551.36	2218.75
551.982	2178.7
552.607	2157.73
553.229	2217.62
553.854	2201.92
554.476	2192.93
555.101	2191.6
555.723	2195.08
556.347	2217.03
556.969	2215.58
557.594	2181.83
558.216	2188.33
558.84	2197.63
559.462	2205.99
560.086	2209.71
560.708	2212.69
561.332	2243.4
561.954	2212.74
562.578	2250
563.199	2227.23
563.821	2214.68
564.445	2208.28
565.066	2199.97
565.69	2205.99
566.312	2162.32
566.933	2204.89
567.557	2236.2
568.178	2225.87
568.799	2182.01
569.423	2189.1
570.044	2222.56
570.665	2211.55
571.289	2206.42
571.91	2227.43
572.531	2200.99
573.152	2193.63
573.775	2205.61
574.396	2200.66
575.017	2208.39
575.638	2203.23
576.261	2197.87
576.882	2191.18
577.503	2236.3
578.123	2177.06
578.744	2175.78
579.365	2146.92
579.987	2195.15
580.608	2199.55
581.229	2173.67
581.849	2185.49
582.47	2191.8
583.09	2174.24
583.71	2179.18
584.331	2204.42
584.951	2163.72
585.571	2176.92
586.194	2173.52
586.814	2158.14
587.434	2147.01
588.054	2158.78
588.674	2181.54
589.294	2123.36
589.914	2104.95
590.534	2137.64
591.154	2123.19
591.774	2092.82
592.391	2137.38
593.011	2089.14
593.631	2094.73
594.25	2088.26
594.87	2129.12
595.49	2158.65
596.109	2085.78
596.729	2085.39
597.348	2085.37
597.967	2051.35
598.585	2065.52
599.204	2043
599.823	2100.52
600.443	2099.22
601.062	2022.64
601.681	2055.13
602.298	2063.64
602.917	2035.23
603.536	2046.47
604.155	2026.14
604.772	2021.15
605.391	2032.91
606.01	2061.83
606.629	2022.16
607.245	2020.2
607.864	1986.18
608.483	2028.78
609.099	2001.2
609.718	1999.76
610.337	2000.17
610.953	1977.23
611.572	1952.33
612.19	1975.5
612.806	1942.25
613.425	1942.19
614.043	1959.76
614.659	1949.89
615.278	1943.77
615.894	1912.25
616.512	1897.33
617.128	1953.3
617.746	1875.35
618.364	1925.64
618.98	1921.05
619.598	1877.62
620.214	1888.01
620.832	1911.37
621.448	1872.4
622.065	1892.48
622.681	1870.65
623.297	1868.67
623.914	1854.06
624.53	1874.27
625.148	1889.29
625.763	1826.58
626.381	1850.63
626.996	1834.11
627.611	1803.91
628.229	1799.6
628.844	1837.01
629.459	1776.25
630.076	1823.8
630.692	1791.16
631.307	1804.79
631.924	1751.26
632.539	1743.87
633.154	1767.13
633.771	1766.42
634.386	1739.64
635.001	1749.64
635.615	1771.27
636.232	1742.86
636.847	1751.92
637.462	1653.35
638.076	1752.49
638.693	1735.51
639.308	1701.25
639.922	1721.19
640.537	1699.79
641.151	1704.77
641.768	1693.77
642.382	1712.39
642.996	1667.66
643.611	1656.05
644.225	1669.31
644.839	1659.25
645.453	1637.08
646.067	1692.85
646.681	1627.64
647.295	1671.46
647.912	1621.6
648.526	1617.51
649.139	1600.65
649.753	1611.92
650.367	1629.37
650.981	1633.38
651.595	1563.54
652.208	1588.2
652.822	1567.68
653.436	1564.07
654.049	1565.03
654.663	1571.03
655.274	1577.79
655.888	1578.76
656.501	1560.9
657.115	1587.73
657.728	1529.92
658.333	1524.92
658.954	1531.92
659.574	1538.92
660.196	1520.92
660.816	1535.92
661.435	1510.92
662.057	1529.92
662.676	1504.92
663.298	1495.92
663.917	1522.92
664.537	1508.92
665.158	1547.92
665.777	1478.92
666.399	1462.92
667.018	1473.92
667.637	1453.92
668.258	1459.92
668.877	1493.92
669.496	1462.92
670.118	1473.92
670.737	1433.92
671.355	1473.92
671.974	1438.92
672.595	1413.92
673.214	1402.92
673.833	1430.92
674.452	1421.92
675.072	1406.92
675.691	1403.92
676.31	1392.92
676.928	1390.92
677.549	1425.92
678.167	1410.92
678.786	1397.92
679.404	1372.92
680.022	1412.92
680.641	1367.92
681.261	1398.92
681.879	1375.92
682.497	1327.92
683.116	1378.92
683.734	1388.92
684.352	1341.92
684.97	1308.92
685.588	1372.92
686.206	1345.92
686.824	1324.92
687.441	1340.92
688.059	1386.92
688.677	1332.92
689.297	1266.92
689.915	1303.92
690.532	1340.92
691.15	1280.92
691.765	1311.92
692.383	1288.92
693	1320.92
693.618	1349.92
694.235	1292.92
694.852	1281.92
695.47	1271.92
696.087	1299.92
696.704	1269.92
697.321	1289.92
697.939	1282.92
698.556	1282.92
699.173	1235.92
699.788	1244.92
700.405	1269.92
701.022	1244.92
701.639	1223.92
702.255	1240.92
702.872	1265.92
703.487	1210.92
704.104	1215.92
704.72	1195.92
705.337	1226.92
705.954	1214.92
706.568	1196.92
707.185	1209.92
707.801	1226.92
708.416	1189.92
709.032	1180.92
709.648	1186.92
710.265	1187.92
710.879	1181.92
711.495	1145.92
712.111	1168.92
712.725	1109.92
713.341	1189.92
713.958	1159.92
714.572	1166.92
715.188	1155.92
715.804	1175.92
716.417	1114.92
717.033	1120.92
717.647	1132.92
718.263	1135.92
718.876	1116.92
719.492	1137.92
720.108	1085.92
720.721	1112.92
721.337	1089.92
721.95	1101.92
722.566	1124.92
723.179	1089.92
723.795	1108.92
724.408	1105.92
725.023	1095.92
725.637	1087.92
726.252	1060.92
726.865	1063.92
727.48	1069.92
728.093	1095.92
728.706	1072.92
729.321	1084.92
729.934	1038.92
730.549	1045.92
731.162	1042.92
731.775	1034.92
732.39	1021.92
733.003	1025.92
733.615	1038.92
734.23	1042.92
734.843	1003.92
735.455	998.919
736.07	1023.92
736.682	1015.92
737.295	1021.92
737.909	998.919
738.522	1012.92
739.134	988.919
739.746	1000.92
740.361	1017.92
740.973	988.919
741.585	977.919
742.197	986.919
742.809	982.919
743.423	976.919
744.035	929.919
744.647	963.919
745.259	959.919
745.871	952.919
746.485	938.919
747.097	935.919
747.708	924.919
748.32	911.919
748.932	931.919
749.544	914.919
750.155	927.919
750.767	951.919
751.378	922.919
751.99	924.919
752.601	905.919
753.215	919.919
753.826	905.919
754.437	918.919
755.049	879.919
755.66	901.919
756.271	887.919
756.882	859.919
757.493	898.919
758.104	867.919
758.715	865.919
759.324	853.919
759.935	867.919
760.546	824.919
761.157	873.919
761.768	876.919
762.379	825.919
762.989	844.919
763.6	841.919
764.211	859.919
764.821	837.919
765.43	833.919
766.04	820.919
766.651	824.919
767.261	842.919
767.872	827.919
768.482	806.919
769.09	789.919
769.701	816.919
770.311	809.919
770.921	780.919
771.531	794.919
772.139	776.919
772.75	801.919
773.36	729.919
773.967	770.919
774.577	780.919
775.187	765.919
775.797	755.919
776.405	743.919
777.015	763.919
777.625	759.919
778.232	741.919
778.842	712.919
779.452	709.919
780.059	717.919
780.669	712.919
781.276	723.919
781.886	725.919
782.495	740.919
783.103	748.919
783.712	714.919
784.319	708.919
784.929	697.919
785.536	729.919
786.145	692.919
786.752	719.919
787.361	716.919
787.968	701.919
788.577	712.919
789.184	672.919
789.793	699.919
790.4	685.919
791.009	652.919
791.616	695.919
792.224	674.919
792.831	667.919
793.44	657.919
794.047	651.919
794.653	659.919
795.262	633.919
795.868	650.919
796.477	654.919
797.083	657.919
797.69	651.919
798.298	632.919
798.904	624.919
799.511	615.919
800.119	618.919
800.725	619.919
801.331	624.919
801.937	592.919
802.545	619.919
803.151	617.919
803.757	625.919
804.365	612.919
804.971	610.919
805.577	593.919
806.183	603.919
806.789	604.919
807.397	595.919
808.002	604.919
808.608	580.919
809.214	603.919
809.819	587.919
810.425	565.919
811.032	582.919
811.638	595.919
812.243	587.919
812.849	568.919
813.454	600.919
814.059	583.919
814.664	566.919
815.27	552.919
815.875	597.919
816.48	578.919
817.087	572.919
817.692	554.919
818.297	561.919
818.902	554.919
819.507	556.919
820.112	545.919
820.717	587.919
821.322	558.919
821.927	561.919
822.529	557.919
823.134	568.919
823.739	564.919
824.343	545.919
824.948	559.919
825.552	567.919
826.157	575.919
826.761	577.919
827.366	556.919
827.97	559.919
828.575	571.919
829.177	573.919
829.781	563.919
830.385	572.919
830.989	550.919
831.594	566.919
832.198	564.919
832.8	542.919
833.404	562.919
834.008	556.919
834.612	555.919
835.214	559.919
835.817	546.919
836.421	561.919
837.025	545.919
837.627	549.919
838.23	569.919
838.834	563.919
839.436	553.919
840.039	553.919
840.643	566.919
841.244	543.919
841.848	567.919
842.451	562.919
843.053	553.919
843.656	551.919
844.259	579.919
844.86	549.919
845.464	564.919
846.065	576.919
846.668	571.919
847.271	559.919
847.872	571.919
848.475	573.919
849.076	596.919
849.679	568.919
850.28	565.919
850.883	578.919
851.484	585.919
852.086	577.919
852.687	574.919
853.29	588.919
853.89	595.919
854.493	563.919
855.094	597.919
855.694	611.919
856.297	600.919
856.897	580.919
857.5	607.919
858.1	602.919
858.7	610.919
859.303	597.919
859.903	630.919
860.505	614.919
861.105	612.919
861.705	608.919
862.307	614.919
862.908	603.919
863.508	617.919
864.107	612.919
864.709	620.919
865.309	632.919
865.909	628.919
866.511	606.919
867.111	639.919
867.711	624.919
868.31	611.919
868.91	621.919
869.512	644.919
870.111	640.919
870.711	639.919
871.31	624.919
871.909	658.919
872.511	656.919
873.11	654.919
873.71	652.919
874.309	669.919
874.908	671.919
875.507	670.919
876.107	648.919
876.706	670.919
877.307	676.919
877.906	665.919
878.505	687.919
879.104	687.919
879.703	680.919
880.302	687.919
880.901	671.919
881.5	707.919
882.098	707.919
882.697	728.919
883.296	699.919
883.894	724.919
884.493	731.919
885.092	750.919
885.69	709.919
886.289	737.919
886.885	734.919
887.483	723.919
888.082	756.919
888.68	730.919
889.279	752.919
889.877	722.919
890.475	774.919
891.073	803.919
891.671	786.919
892.267	791.919
892.866	769.919
893.464	759.919
894.062	801.919
894.66	774.919
895.255	798.919
895.853	795.919
896.451	814.919
897.049	807.919
897.645	797.919
898.242	812.094
898.84	820.249
899.438	799.523
900.033	814.857
900.631	831.854
901.228	853.534
901.824	850.567
902.421	860.815
903.019	880.03
903.614	873.525
904.211	882.849
904.809	866.595
905.404	850.024
906.001	886.938
906.598	883.378
907.193	896.764
907.791	897.698
908.386	907.755
908.983	920.055
909.578	909.253
910.174	908.419
910.769	906.247
911.366	938.594
911.963	918.132
912.558	972.439
913.155	927.753
913.749	941.371
914.344	925.236
914.94	937.595
915.535	971.321
916.132	948.832
916.726	954.421
917.323	995.781
917.917	967.037
918.513	977.13
919.108	990.467
919.702	1014.08
920.298	1000.17
920.892	1024.15
921.487	1001.15
922.083	1021.85
922.677	1034.05
923.271	1012.89
923.867	1020.21
924.461	1017.04
925.055	1056.98
925.651	1048.02
926.245	1031.52
926.839	1042.97
927.432	1070.25
928.028	1099.43
928.622	1061.55
929.215	1059.89
929.809	1073.93
930.405	1069.73
930.998	1057.89
931.592	1074.71
932.185	1080.43
932.779	1098.48
933.372	1076.47
933.968	1113.15
934.561	1111.03
935.154	1102.14
935.747	1113.4
936.341	1124.61
936.934	1126.23
937.527	1114.69
938.12	1115.24
938.713	1138.09
939.308	1149.87
939.901	1121.73
940.494	1153.62
941.087	1143.68
941.68	1158.18
942.273	1154.3
942.865	1158.48
943.458	1126.51
944.051	1138.01
944.643	1179.24
945.236	1160.38
945.829	1177.89
946.419	1201.14
947.012	1187.49
947.604	1180.84
948.196	1170.18
948.789	1184.24
949.381	1186.52
949.974	1206.25
950.566	1216.93
951.158	1181.58
951.75	1217.31
952.34	1188.13
952.933	1202.17
953.525	1201.84
954.117	1216.34
954.709	1222.64
955.299	1234.12
955.891	1207.45
956.482	1209.37
957.074	1207.63
957.666	1240.39
958.256	1197.93
958.848	1185.99
959.439	1224.12
960.029	1218.22
960.621	1226.42
961.212	1233.57
961.804	1222.88
962.393	1239.61
962.985	1223.62
963.576	1205.36
964.165	1223.21
964.757	1222.46
965.346	1255.82
965.937	1229.98
966.529	1232.11
967.118	1217.35
967.709	1203.58
968.298	1219.63
968.889	1220.16
969.48	1232.65
970.069	1223.56
970.66	1218.65
971.249	1208.29
971.84	1219.76
972.429	1221.02
973.02	1231.11
973.608	1218.96
974.199	1204.14
974.788	1205.63
975.379	1220.78
975.967	1189.19
976.556	1199.8
977.146	1209.98
977.735	1205.31
978.325	1183.91
978.914	1207.83
979.502	1179.1
980.092	1177.29
980.681	1200.16
981.271	1174.9
981.859	1184.42
982.447	1205.33
983.037	1175.37
983.626	1195.43
984.214	1166
984.804	1157.58
985.392	1168.45
985.98	1177.65
986.568	1162.35
987.158	1152.67
987.745	1176.91
988.333	1154.92
988.921	1157.29
989.511	1153.07
990.098	1147.4
990.686	1140.61
991.274	1154.22
991.861	1150.56
992.449	1160.73
993.038	1141.17
993.626	1125.21
994.213	1130.17
994.8	1103.17
995.388	1142.41
995.975	1133.13
996.562	1131.43
997.15	1101.56
997.739	1098.85
998.326	1113.21
998.913	1081.08
999.5	1090.06
1000.09	1089.88
1000.67	1071.67
1001.26	1081.11
1001.85	1076.32
1002.44	1076.2
1003.02	1049.09
1003.61	1043.79
1004.2	1069.96
1004.78	1075.5
1005.37	1039.07
1005.96	1027.74
1006.54	1057.4
1007.13	1059.78
1007.71	1041.96
1008.3	1017.31
1008.89	1022.19
1009.47	1014.68
1010.06	1005.15
1010.65	1018.47
1011.23	1022.02
1011.82	1009.13
1012.4	977.07
1012.99	1002.08
1013.57	998.795
1014.16	963.706
1014.74	1006.89
1015.33	976.456
1015.92	987.691
1016.5	961.041
1017.09	981.673
1017.67	947.337
1018.26	938.863
1018.84	957.491
1019.43	964.042
1020.01	964.592
1020.6	950.701
1021.18	921.556
1021.77	933.28
1022.35	891.586
1022.94	915.527
1023.52	889.405
1024.11	930.333
1024.69	924.924
1025.28	916.713
1025.86	915.35
1026.45	872.964
1027.03	901.51
1027.62	894.078
1028.2	872.821
1028.78	872.422
1029.37	871.855
1029.95	870.739
1030.54	868.091
1031.12	873.75
1031.71	855.367
1032.29	855.468
1032.87	835.721
1033.46	843.285
1034.04	807.038
1034.62	839.06
1035.21	841.951
1035.79	815.514
1036.37	809.415
1036.96	808.114
1037.54	784.327
1038.13	822.683
1038.71	804.705
1039.29	798.788
1039.88	773.179
1040.46	801.376
1041.04	787.254
1041.62	808.37
1042.21	770.744
1042.79	777.66
1043.37	787.598
1043.96	740.928
1044.54	762.122
1045.12	750.633
1045.7	743.276
1046.29	736.855
1046.87	757.469
1047.45	742.479
1048.03	720.96
1048.62	776.539
1049.2	710.034
1049.78	733.816
1050.36	738.713
1050.95	725.941
1051.53	690.354
1052.11	699.542
1052.69	700.09
1053.27	700.477
1053.85	703.358
1054.43	689.269
1055.02	658.992
1055.6	691.524
1056.18	688.933
1056.76	668.716
1057.34	661.442
1057.93	678.726
1058.51	675.145
1059.09	654.156
1059.67	683.291
1060.25	654.951
1060.83	634.328
1061.41	655.43
1061.99	653.899
1062.57	669.708
1063.16	639.916
1063.73	638.062
1064.31	629.003
1064.9	633.65
1065.48	637.835
1066.06	626.551
1066.64	627.631
1067.22	617.783
1067.8	596.575
1068.38	579.215
1068.96	614.773
1069.54	602.46
1070.12	609.87
1070.7	585.698
1071.28	593.943
1071.86	569.88
1072.44	575.217
1073.02	581.462
1073.6	572.277
1074.18	562.188
1074.76	594.895
1075.34	548.555
1075.92	552.545
1076.5	562.14
1077.08	569.991
1077.46	549.991
1078.04	590.991
1078.63	554.991
1079.22	536.991
1079.81	547.991
1080.39	557.991
1080.98	551.991
1081.57	529.991
1082.15	529.991
1082.74	530.991
1083.33	532.991
1083.92	527.991
1084.5	511.991
1085.09	510.991
1085.68	524.991
1086.26	535.991
1086.85	528.991
1087.43	501.991
1088.02	515.991
1088.61	510.991
1089.2	487.991
1089.78	510.991
1090.37	494.991
1090.95	488.991
1091.54	483.991
1092.13	497.991
1092.71	485.991
1093.3	499.991
1093.88	465.991
1094.47	517.991
1095.06	483.991
1095.64	496.991
1096.23	455.991
1096.81	463.991
1097.4	461.991
1097.98	463.991
1098.57	460.991
1099.16	469.991
1099.74	463.991
1100.32	445.991
1100.91	447.991
1101.5	460.991
1102.08	439.991
1102.67	449.991
1103.25	454.991
1103.84	430.991
1104.42	441.991
1105.01	434.991
1105.59	436.991
1106.17	454.991
1106.76	443.991
1107.35	446.991
1107.93	417.991
1108.51	423.991
1109.1	429.991
1109.68	414.991
1110.27	413.991
1110.85	428.991
1111.44	414.991
1112.02	426.991
1112.6	417.991
1113.19	421.991
1113.77	392.991
1114.36	416.991
1114.94	406.991
1115.52	375.991
1116.11	409.991
1116.69	406.991
1117.28	387.991
1117.86	396.991
1118.44	390.991
1119.03	391.991
1119.61	366.991
1120.19	387.991
1120.78	384.991
1121.36	380.991
1121.94	375.991
1122.52	376.991
1123.11	354.991
1123.69	369.991
1124.27	354.991
1124.86	383.991
1125.44	355.991
1126.02	361.991
1126.61	356.991
1127.19	369.991
1127.77	355.991
1128.35	375.991
1128.94	353.991
1129.52	347.991
1130.1	338.991
1130.68	360.991
1131.27	356.991
1131.85	353.991
1132.43	338.991
1133.01	356.991
1133.6	338.991
1134.18	357.991
1134.76	359.991
1135.34	333.991
1135.92	332.991
1136.5	329.991
1137.09	336.991
1137.67	320.991
1138.25	316.991
1138.83	331.991
1139.41	332.991
1139.99	327.991
1140.58	344.991
1141.16	325.991
1141.74	312.991
1142.32	334.991
1142.9	340.991
1143.48	313.991
1144.06	312.991
1144.64	321.991
1145.22	309.991
1145.81	285.991
1146.39	323.991
1146.97	302.991
1147.55	290.991
1148.13	302.991
1148.71	293.991
1149.29	307.991
1149.87	303.991
1150.45	308.991
1151.03	302.991
1151.61	293.991
1152.19	294.991
1152.77	291.991
1153.35	302.991
1153.93	289.991
1154.51	298.991
1155.09	266.991
1155.67	281.991
1156.25	291.991
1156.83	295.991
1157.41	280.991
1157.99	286.991
1158.57	285.991
1159.15	280.991
1159.73	282.991
1160.31	268.991
1160.89	275.991
1161.47	282.991
1162.05	266.991
1162.63	260.991
1163.21	265.991
1163.79	273.991
1164.36	270.991
1164.95	255.991
1165.52	269.991
1166.1	260.991
1166.68	261.991
1167.26	243.991
1167.84	251.991
1168.42	253.991
1169	261.991
1169.57	251.991
1170.15	259.991
1170.73	252.991
1171.31	264.991
1171.89	260.991
1172.47	247.991
1173.05	253.991
1173.62	246.991
1174.2	236.991
1174.78	264.991
1175.36	254.991
1175.94	264.991
1176.51	244.991
1177.09	234.991
1177.67	242.991
1178.25	215.991
1178.83	234.991
1179.4	236.991
1179.98	243.991
1180.56	227.991
1181.14	235.991
1181.71	221.991
1182.29	240.991
1182.87	216.991
1183.44	228.991
1184.02	232.991
1184.6	241.991
1185.18	237.991
1185.75	223.991
1186.33	212.991
1186.91	223.991
1187.48	222.991
1188.06	213.991
1188.64	223.991
1189.21	219.991
1189.79	211.991
1190.37	219.991
1190.94	227.991
1191.52	201.991
1192.1	207.991
1192.67	212.991
1193.25	212.991
1193.83	215.991
1194.4	221.991
1194.98	216.991
1195.55	227.991
1196.13	216.991
1196.71	218.991
1197.28	197.991
1197.86	203.991
1198.43	202.991
1199.01	214.991
1199.59	214.991
1200.16	216.991
