17.0039	1747.21
17.6805	1726.21
18.3571	1665.21
19.0336	1663.21
19.7123	1702.21
20.3887	1736.21
21.0651	1676.21
21.7414	1656.21
22.4176	1693.21
23.0939	1765.21
23.77	1775.21
24.4462	1841.21
25.1222	1912.21
25.7983	1936.21
26.4742	1991.21
27.1502	1914.21
27.8261	2048.21
28.5019	1943.21
29.1777	1974.21
29.8534	1977.21
30.5291	2008.21
31.2048	2066.21
31.8804	2023.21
32.5559	2075.21
33.2314	2155.21
33.9069	2201.21
34.5823	2290.21
35.2577	2325.21
35.933	2389.21
36.6083	2447.21
37.2835	2429.21
37.9587	2495.21
38.6338	2452.21
39.3066	2530.21
39.9817	2525.21
40.6566	2550.21
41.3316	2638.21
42.0065	2747.21
42.6813	2762.21
43.3539	2806.21
44.0286	2848.21
44.7033	2821.21
45.378	2867.21
46.0526	2943.21
46.7249	3002.21
47.3994	3032.21
48.0739	3106.21
48.7483	3170.21
49.4204	3211.21
50.0947	3194.21
50.769	3241.21
51.4433	3153.21
52.1152	3260.21
52.7893	3196.21
53.4634	3292.21
54.1352	3204.21
54.8092	3293.21
55.4831	3350.21
56.1548	3362.21
56.8286	3457.21
57.5024	3616.21
58.1739	3570.21
58.8477	3584.21
59.5213	3695.21
60.1927	3735.21
60.8663	3687.21
61.5375	3597.21
62.211	3647.21
62.8845	3600.21
63.5556	3664.21
64.2289	3704.21
64.8999	3752.21
65.5732	3782.21
66.2441	3834.21
66.9173	3847.21
67.5881	3841.21
68.2612	3781.21
68.9319	3774.21
69.6049	3918.21
70.2755	3941.21
70.9484	3888.21
71.619	3973.21
72.2918	4003.21
72.9622	3868.21
73.6349	3968.21
74.3053	3966.21
74.9756	4047.21
75.6482	4025.21
76.3184	3991.21
76.9909	4005.21
77.661	4045.21
78.3311	3950.21
79.0034	3916.21
79.6734	4010.21
80.3433	4109.21
81.0155	4045.21
81.6854	4101.21
82.3552	4103.21
83.0272	4161.21
83.6969	4150.21
84.3666	4058.21
85.0385	4038.21
85.7081	4044.21
86.3776	4055.21
87.0471	4034.21
87.7188	3954.21
88.3882	4119.21
89.0575	4136.21
89.7268	4078.21
90.3961	4114.21
91.0676	4173.21
91.7367	4180.21
92.4059	4025.21
93.0749	4101.21
93.7439	4048.21
94.4152	4132.21
95.0841	4195.21
95.753	4078.21
96.4218	4051.21
97.0906	4093.21
97.7594	4055.21
98.4281	4106.21
99.0967	4130.21
99.7676	4083.21
100.436	4003.21
101.105	4027.21
101.773	4062.21
102.442	4028.21
103.11	3974.21
103.778	3985.21
104.447	4128.21
105.115	4115.21
105.783	4098.21
106.451	4144.21
107.119	4086.21
107.787	4040.21
108.455	3992.21
109.123	3924.21
109.791	4014.21
110.459	4027.21
111.127	3865.21
111.795	3988.21
112.462	3960.21
113.13	4028.21
113.795	3926.21
114.463	3927.21
115.13	3980.21
115.798	3924.21
116.465	3889.21
117.133	3927.21
117.8	3950.21
118.467	3850.21
119.132	3907.21
119.8	3914.21
120.467	3846.21
121.134	3840.21
121.801	3949.21
122.466	3904.21
123.133	3865.21
123.8	3935.21
124.467	3884.21
125.133	3877.21
125.798	3788.21
126.465	3844.21
127.131	3868.21
127.796	3814.21
128.462	3755.21
129.129	3776.21
129.796	3847.21
130.46	3774.21
131.126	3780.21
131.793	3751.21
132.457	3719.21
133.123	3714.21
133.789	3765.21
134.453	3718.21
135.119	3683.21
135.783	3746.21
136.449	3700.21
137.115	3687.21
137.779	3698.21
138.445	3776.21
139.108	3753.21
139.774	3669.21
140.438	3665.21
141.104	3658.21
141.769	3650.21
142.433	3626.21
143.098	3560.21
143.762	3583.21
144.427	3533.21
145.09	3573.21
145.756	3668.21
146.419	3587.21
147.084	3469.21
147.747	3508.21
148.41	3549.21
149.075	3513.21
149.738	3533.21
150.403	3497.21
151.066	3546.21
151.731	3551.21
152.394	3498.21
153.056	3579.21
153.721	3524.21
154.384	3406.21
155.046	3546.21
155.711	3433.21
156.374	3426.21
157.036	3402.21
157.701	3459.21
158.363	3438.21
159.025	3507.21
159.69	3422.21
160.352	3449.21
161.014	3476.21
161.676	3450.21
162.34	3428.21
163.002	3416.21
163.664	3438.21
164.326	3385.21
164.99	3341.21
165.652	3330.21
166.314	3314.21
166.975	3395.21
167.637	3296.21
168.301	3367.21
168.962	3278.21
169.624	3365.21
170.285	3264.21
170.947	3391.21
171.608	3345.21
172.272	3234.21
172.933	3247.21
173.594	3307.21
174.255	3262.21
174.917	3229.21
175.578	3279.21
176.239	3335.21
176.9	3223.21
177.561	3232.21
178.222	3244.21
178.882	3254.21
179.543	3252.21
180.204	3266.21
180.865	3209.21
181.526	3211.21
182.186	3176.21
182.847	3266.21
183.507	3201.21
184.168	3153.21
184.828	3161.21
185.489	3182.21
186.149	3220.21
186.809	3172.21
187.47	3139.21
188.13	3179.21
188.79	3195.21
189.45	3193.21
190.11	3102.21
190.768	3130.21
191.428	3120.21
192.088	3117.21
192.748	3084.21
193.408	3057.21
194.068	3056.21
194.728	3149.21
195.385	3138.21
196.045	3129.21
196.705	3088.21
197.364	3032.21
198.021	3092.21
198.681	3061.21
199.34	3083.21
200	3058.21
200.657	3046.21
201.316	3084.21
201.976	3063.21
202.635	3044.21
203.292	2969.21
203.951	3002.21
204.61	3012.21
205.267	2998.21
205.926	2893.21
206.585	3030.21
207.242	2967.21
207.9	2961.21
208.559	3071.21
209.216	3026.21
209.875	2996.21
210.533	3020.21
211.19	3031.21
211.848	3066.21
212.505	2864.21
213.163	2989.21
213.819	3024.21
214.478	3061.21
215.134	2985.21
215.792	2869.21
216.451	2982.21
217.107	3022.21
217.765	2945.21
218.421	2906.21
219.079	2958.21
219.735	3055.21
220.391	2985.21
221.049	2817.21
221.704	2954.21
222.362	2942.21
223.018	2901.21
223.675	2884.21
224.331	2878.21
224.989	2916.21
225.644	2921.21
226.3	2926.21
226.957	2985.21
227.612	3010.21
228.268	2947.21
228.925	2944.21
229.58	2861.21
230.235	2998.21
230.893	2837.21
231.548	2904.21
232.203	2914.21
232.86	2921.21
233.515	2895.21
234.17	2859.21
234.827	2958.21
235.481	2893.21
236.136	2927.21
236.791	2906.21
237.448	2902.21
238.102	2889.21
238.757	2926.21
239.411	2914.21
240.066	2887.21
240.722	2881.21
241.377	2928.21
242.031	2889.21
242.685	2946.21
243.339	2862.21
243.993	2901.21
244.648	2895.21
245.304	2804.21
245.958	2921.21
246.612	2852.21
247.266	2866.21
247.92	2890.21
248.574	2927.21
249.227	2840.21
249.881	2894.21
250.535	2847.21
251.189	2873.21
251.842	2825.21
252.496	2836.21
253.149	2893.21
253.803	2853.21
254.456	2836.21
255.11	2901.21
255.763	2826.21
256.416	2837.21
257.07	2923.21
257.723	2903.21
258.376	2924.21
259.029	2854.21
259.682	2879.21
260.335	2891.21
260.988	2883.21
261.641	2846.21
262.294	2878.21
262.947	2937.21
263.598	2850.21
264.251	2870.21
264.903	2838.21
265.556	2868.21
266.209	2839.21
266.861	2858.21
267.512	2880.21
268.164	2810.21
268.817	2854.21
269.469	2946.21
270.121	2879.21
270.772	2856.21
271.424	2815.21
272.076	2807.21
272.728	2895.21
273.378	2826.21
274.03	2856.21
274.682	2810.21
275.332	2872.21
275.984	2831.21
276.636	2861.21
277.288	2889.21
277.938	2867.21
278.59	2844.21
279.239	2858.21
279.891	2886.21
280.542	2914.21
281.192	2797.21
281.843	2870.21
282.495	2943.21
283.144	2821.21
283.796	2896.21
284.445	2855.21
285.096	2890.21
285.745	2803.21
286.397	2862.21
287.048	2886.21
287.697	2896.21
288.348	2889.21
288.997	2841.21
289.648	2892.21
290.297	2831.21
290.948	2896.21
291.596	2914.21
292.247	2898.21
292.896	2892.21
293.544	2835.21
294.195	2825.21
294.844	2892.21
295.494	2875.21
296.143	2793.21
296.793	2867.21
297.441	2907.21
298.09	2857.21
298.74	2873.21
299.388	2906.21
300.036	2870.21
300.687	2878.21
301.335	2824.21
301.983	2854.21
302.633	2933.21
303.281	2863.21
303.929	2925.21
304.579	2828.21
305.227	2866.21
305.874	2837.21
306.522	2828.21
307.172	2821.21
307.819	2857.21
308.467	2806.21
309.114	2870.21
309.764	2866.21
310.412	2901.21
311.059	2853.21
311.706	2820.21
312.354	2886.21
313.003	2857.21
313.65	2855.21
314.297	2833.21
314.944	2753.21
315.592	2825.21
316.239	2899.21
316.886	2902.21
317.535	2802.21
318.182	2850.21
318.828	2836.21
319.475	2833.21
320.122	2808.21
320.769	2806.21
321.415	2892.21
322.062	2859.21
322.709	2859.21
323.355	2721.21
324.002	2737.21
324.648	2850.21
325.294	2895.21
325.941	2884.21
326.587	2841.21
327.233	2829.21
327.88	2795.21
328.526	2762.21
329.172	2880.21
329.818	2824.21
330.464	2817.21
331.11	2819.21
331.754	2787.21
332.4	2797.21
333.046	2851.21
333.692	2858.21
334.337	2763.21
334.983	2747.21
335.629	2792.21
336.275	2776.21
336.918	2828.21
337.564	2852.21
338.209	2772.21
338.855	2782.21
339.5	2807.21
340.143	2789.21
340.789	2764.21
341.434	2733.21
342.079	2771.21
342.722	2821.21
343.367	2776.21
344.012	2725.21
344.658	2717.21
345.3	2716.21
345.945	2802.21
346.59	2794.21
347.233	2750.21
347.878	2667.21
348.523	2737.21
349.165	2778.21
349.81	2766.21
350.455	2768.21
351.097	2719.21
351.742	2726.21
352.384	2753.21
353.029	2823.21
353.673	2777.21
354.315	2727.21
354.96	2711.21
355.602	2701.21
356.246	2696.21
356.888	2709.21
357.533	2694.21
358.175	2699.21
358.819	2666.21
359.461	2700.21
360.105	2723.21
360.746	2753.21
361.39	2736.21
362.032	2704.21
362.676	2626.21
363.318	2677.21
363.961	2736.21
364.603	2697.21
365.247	2693.21
365.888	2681.21
366.529	2694.21
367.173	2600.21
367.814	2665.21
368.456	2709.21
369.099	2703.21
369.74	2658.21
370.381	2655.21
371.025	2613.21
371.666	2661.21
372.307	2663.21
372.95	2673.21
373.591	2638.21
374.232	2606.21
374.875	2687.21
375.516	2673.21
376.156	2617.21
376.797	2574.21
377.44	2615.21
378.081	2564.21
378.721	2580.21
379.362	2597.21
380.002	2579.21
380.645	2607.21
381.285	2647.21
381.926	2610.21
382.566	2596.21
383.206	2602.21
383.847	2618.21
384.489	2544.21
385.129	2607.21
385.769	2470.21
386.409	2509.21
387.049	2575.21
387.689	2576.21
388.329	2516.21
388.969	2555.21
389.609	2562.21
390.249	2581.21
390.889	2525.21
391.528	2509.21
392.168	2563.21
392.81	2574.21
393.449	2497.21
394.089	2484.21
394.726	2522.21
395.366	2461.21
396.005	2486.21
396.645	2517.21
397.284	2430.21
397.923	2493.21
398.562	2489.21
399.202	2480.21
399.841	2472.21
400.48	2508.21
401.119	2521.21
401.758	2468.21
402.397	2467.21
403.034	2512.21
403.673	2511.21
404.311	2457.21
404.95	2540.21
405.589	2448.21
406.228	2446.21
406.864	2462.21
407.503	2505.21
408.142	2426.21
408.78	2459.21
409.419	2446.21
410.055	2404.21
410.693	2436.21
411.332	2436.21
411.968	2478.21
412.606	2462.21
413.244	2421.21
413.883	2431.21
414.519	2501.21
415.157	2466.21
415.795	2385.21
416.431	2416.21
417.069	2403.21
417.707	2395.21
418.342	2365.21
418.98	2383.21
419.616	2451.21
420.254	2392.21
420.891	2430.21
421.527	2432.21
422.165	2430.21
422.8	2412.21
423.438	2390.21
424.075	2437.21
424.71	2392.21
425.348	2419.21
425.983	2406.21
426.62	2377.21
427.256	2417.21
427.893	2419.21
428.528	2427.21
429.165	2338.21
429.8	2433.21
430.435	2376.21
431.072	2404.21
431.707	2410.21
432.344	2388.21
432.979	2373.21
433.615	2393.21
434.25	2328.21
434.885	2361.21
435.521	2346.21
436.156	2372.21
436.79	2326.21
437.427	2378.21
438.061	2402.21
438.696	2404.21
439.332	2320.21
439.967	2307.21
440.601	2341.21
441.237	2297.21
441.871	2347.21
442.505	2420.21
443.142	2393.21
443.776	2324.21
444.41	2408.21
445.044	2312.21
445.678	2329.21
446.314	2276.21
446.947	2311.21
447.581	2335.21
448.215	2332.21
448.849	2386.21
449.484	2359.21
450.118	2382.21
450.752	2328.21
451.385	2373.21
452.018	2329.21
452.652	2350.21
453.285	2406.21
453.921	2286.21
454.554	2283.7
455.187	2342.87
455.821	2339.08
456.454	2327.63
457.087	2275.8
457.72	2337.95
458.353	2314.89
458.986	2323.63
459.619	2346.81
460.252	2350.34
460.885	2336.91
461.518	2381.47
462.15	2391.44
462.783	2381.49
463.416	2327.85
464.048	2385.26
464.681	2294.28
465.314	2263.61
465.946	2350.53
466.579	2362.21
467.209	2333.83
467.841	2316.33
468.474	2340.98
469.106	2273.27
469.738	2294.18
470.371	2356.07
471.003	2303.33
471.633	2354
472.265	2341.2
472.897	2346.16
473.529	2338.93
474.161	2323.62
474.791	2299.82
475.423	2282.03
476.054	2341.43
476.686	2294.61
477.318	2307.07
477.948	2324.98
478.579	2327.45
479.211	2344.65
479.84	2308.49
480.472	2262.93
481.103	2367.06
481.733	2292.27
482.364	2317.06
482.996	2302.34
483.625	2270.57
484.256	2284.84
484.887	2333.5
485.516	2326.54
486.148	2333.56
486.779	2291.1
487.408	2295.8
488.039	2320.21
488.668	2329.4
489.298	2304.31
489.927	2329.22
490.558	2310.59
491.187	2283.92
491.818	2360.77
492.446	2285.63
493.077	2301.75
493.705	2303.1
494.336	2332.81
494.964	2318.72
495.595	2301.79
496.223	2312.27
496.854	2341.16
497.482	2335.1
498.112	2302.81
498.741	2346.27
499.371	2349.26
499.999	2276.52
500.627	2310.03
501.257	2337.25
501.885	2346.52
502.513	2342.84
503.143	2293.7
503.771	2389.25
504.399	2395.45
505.029	2357.8
505.656	2387.87
506.284	2417.81
506.914	2393.77
507.541	2328.04
508.169	2383.92
508.796	2408.02
509.426	2441.16
510.054	2445.15
510.681	2434.75
511.308	2473.59
511.938	2470.59
512.565	2505.26
513.192	2497.81
513.819	2472.51
514.446	2524.01
515.076	2508.05
515.703	2498.77
516.33	2555.14
516.957	2592.59
517.584	2567.54
518.21	2669.03
518.837	2628.84
519.464	2677.17
520.093	2664.57
520.72	2680.98
521.346	2659.39
521.973	2712.44
522.6	2798.4
523.226	2787.45
523.853	2784.94
524.479	2836.39
525.105	2840.65
525.732	2824.62
526.358	2885.51
526.984	2847.16
527.611	2914.22
528.237	2948.65
528.863	2973.1
529.489	2996.56
530.115	3006.42
530.741	2971.67
531.365	3019.67
531.991	3013.22
532.617	3088.6
533.243	3069.89
533.869	3096.9
534.495	3110.87
535.12	3124.67
535.746	3154.45
536.369	3144.68
536.995	3154.92
537.621	3185.99
538.246	3236.99
538.872	3193.97
539.495	3204.48
540.12	3172.1
540.746	3224.06
541.371	3268.88
541.994	3231.03
542.62	3228.12
543.245	3201.41
543.87	3279.86
544.493	3272.38
545.118	3285.8
545.743	3298.79
546.366	3235.18
546.991	3279.58
547.616	3335.46
548.238	3255.06
548.863	3238.62
549.488	3327.8
550.111	3286.67
550.735	3232.2
551.36	3267.75
551.982	3244.85
552.607	3262.55
553.229	3229.23
553.854	3245.9
554.476	3267.74
555.101	3225.97
555.723	3207.26
556.347	3210.97
556.969	3270.01
557.594	3234.28
558.216	3207.59
558.84	3175.96
559.462	3183.14
560.086	3166.54
560.708	3184.34
561.332	3229.61
561.954	3195.61
562.578	3120.38
563.199	3162.24
563.821	3153.4
564.445	3158.41
565.066	3117.68
565.69	3126.05
566.312	3059.51
566.933	3101.98
567.557	3076.63
568.178	3031.84
568.799	3044.72
569.423	3048.19
570.044	2976.67
570.665	3055.83
571.289	2985.97
571.91	2938.71
572.531	2987.14
573.152	2922
573.775	2923.45
574.396	2958.64
575.017	2944.81
575.638	2892.61
576.261	2831.42
576.882	2814.56
577.503	2845.02
578.123	2821.11
578.744	2840.49
579.365	2755.34
579.987	2823.02
580.608	2725.91
581.229	2726.71
581.849	2715.87
582.47	2711.84
583.09	2711.55
583.71	2654.82
584.331	2668.12
584.951	2644.64
585.571	2661.62
586.194	2645.42
586.814	2620.88
587.434	2542.33
588.054	2622.8
588.674	2568.8
589.294	2527.89
589.914	2559.57
590.534	2550.93
591.154	2478.41
591.774	2472.88
592.391	2482.15
593.011	2448.62
593.631	2414.15
594.25	2399.09
594.87	2423.08
595.49	2437.57
596.109	2363.87
596.729	2402.14
597.348	2383.52
597.967	2392.09
598.585	2360.12
599.204	2305.01
599.823	2349.41
600.443	2295.4
601.062	2249.22
601.681	2273.8
602.298	2269.33
602.917	2253.21
603.536	2225.55
604.155	2226.14
604.772	2221.17
605.391	2179.52
606.01	2168.36
606.629	2179.54
607.245	2184.91
607.864	2108.05
608.483	2127.01
609.099	2109.74
609.718	2137.95
610.337	2125.13
610.953	2111.21
611.572	2092.63
612.19	2074.7
612.806	2093.54
613.425	2053.33
614.043	2044.31
614.659	2031.04
615.278	2056
615.894	2078.12
616.512	2004.4
617.128	2025.23
617.746	2063.88
618.364	2021.77
618.98	1979.64
619.598	2038.82
620.214	1970.3
620.832	1982.13
621.448	1960.88
622.065	1907.77
622.681	1947.74
623.297	1961.55
623.914	1982.48
624.53	1933.49
625.148	1945.06
625.763	1873.54
626.381	1905.08
626.996	1889.78
627.611	1892.23
628.229	1878.14
628.844	1916.65
629.459	1897.17
630.076	1859.27
630.692	1840.17
631.307	1849.69
631.924	1837.2
632.539	1851.63
633.154	1838.98
633.771	1801.34
634.386	1804.02
635.001	1833.81
635.615	1808.3
636.232	1864.96
636.847	1758.35
637.462	1808.26
638.076	1865.04
638.693	1742.64
639.308	1752.18
639.922	1768.99
640.537	1823.36
641.151	1802.84
641.768	1787.34
642.382	1734.65
642.996	1757.33
643.611	1755.84
644.225	1763.98
644.839	1801.17
645.453	1784.42
646.067	1759.39
646.681	1811.1
647.295	1770.22
647.912	1740.63
648.526	1751.46
649.139	1764.73
649.753	1766.8
650.367	1729.57
650.981	1745.56
651.595	1786.98
652.208	1733.04
652.822	1763.88
653.436	1776.62
654.049	1759.45
654.663	1739.24
655.274	1780.01
655.888	1764.25
656.501	1819.48
657.115	1776.95
657.728	1810.79
658.333	1801.79
658.954	1812.79
659.574	1811.79
660.196	1771.79
660.816	1821.79
661.435	1786.79
662.057	1885.79
662.676	1812.79
663.298	1829.79
663.917	1882.79
664.537	1863.79
665.158	1861.79
665.777	1963.79
666.399	1865.79
667.018	1903.79
667.637	1833.79
668.258	1889.79
668.877	1961.79
669.496	1952.79
670.118	1978.79
670.737	1983.79
671.355	1926.79
671.974	2050.79
672.595	1998.79
673.214	2070.79
673.833	2018.79
674.452	2020.79
675.072	2112.79
675.691	2096.79
676.31	2144.79
676.928	2142.79
677.549	2143.79
678.167	2164.79
678.786	2164.79
679.404	2146.79
680.022	2176.79
680.641	2264.79
681.261	2257.79
681.879	2266.79
682.497	2259.79
683.116	2298.79
683.734	2295.79
684.352	2371.79
684.97	2355.79
685.588	2305.79
686.206	2369.79
686.824	2435.79
687.441	2497.79
688.059	2495.79
688.677	2459.79
689.297	2417.79
689.915	2540.79
690.532	2532.79
691.15	2622.79
691.765	2595.79
692.383	2577.79
693	2673.79
693.618	2687.79
694.235	2676.79
694.852	2707.79
695.47	2746.79
696.087	2789.79
696.704	2771.79
697.321	2816.79
697.939	2829.79
698.556	2804.79
699.173	2773.79
699.788	2812.79
700.405	2919.79
701.022	2987.79
701.639	2995.79
702.255	2981.79
702.872	2971.79
703.487	2975.79
704.104	3023.79
704.72	3088.79
705.337	3089.79
705.954	3087.79
706.568	3167.79
707.185	3192.79
707.801	3163.79
708.416	3194.79
709.032	3177.79
709.648	3241.79
710.265	3249.79
710.879	3284.79
711.495	3272.79
712.111	3227.79
712.725	3402.79
713.341	3336.79
713.958	3400.79
714.572	3390.79
715.188	3432.79
715.804	3449.79
716.417	3385.79
717.033	3407.79
717.647	3519.79
718.263	3480.79
718.876	3480.79
719.492	3539.79
720.108	3574.79
720.721	3613.79
721.337	3535.79
721.95	3622.79
722.566	3676.79
723.179	3627.79
723.795	3685.79
724.408	3629.79
725.023	3605.79
725.637	3665.79
726.252	3717.79
726.865	3759.79
727.48	3739.79
728.093	3721.79
728.706	3808.79
729.321	3723.79
729.934	3711.79
730.549	3818.79
731.162	3707.79
731.775	3851.79
732.39	3774.79
733.003	3886.79
733.615	3832.79
734.23	3905.79
734.843	3905.79
735.455	3928.79
736.07	3844.79
736.682	3918.79
737.295	3887.79
737.909	3960.79
738.522	3891.79
739.134	3965.79
739.746	4044.79
740.361	3908.79
740.973	3876.79
741.585	3987.79
742.197	4006.79
742.809	4024.79
743.423	4062.79
744.035	3976.79
744.647	4069.79
745.259	4000.79
745.871	4051.79
746.485	3933.79
747.097	4055.79
747.708	3981.79
748.32	4079.79
748.932	4009.79
749.544	4007.79
750.155	3936.79
750.767	4009.79
751.378	4025.79
751.99	3987.79
752.601	4031.79
753.215	3983.79
753.826	4011.79
754.437	4042.79
755.049	3952.79
755.66	4060.79
756.271	3981.79
756.882	4017.79
757.493	4015.79
758.104	4067.79
758.715	4061.79
759.324	4131.79
759.935	4002.79
760.546	4040.79
761.157	3989.79
761.768	4031.79
762.379	3975.79
762.989	3949.79
763.6	3956.79
764.211	3969.79
764.821	4014.79
765.43	4038.79
766.04	3929.79
766.651	3956.79
767.261	3909.79
767.872	3850.79
768.482	3961.79
769.09	3940.79
769.701	3891.79
770.311	3851.79
770.921	3901.79
771.531	3853.79
772.139	3867.79
772.75	3891.79
773.36	3823.79
773.967	3840.79
774.577	3764.79
775.187	3787.79
775.797	3791.79
776.405	3771.79
777.015	3803.79
777.625	3750.79
778.232	3815.79
778.842	3740.79
779.452	3641.79
780.059	3708.79
780.669	3647.79
781.276	3697.79
781.886	3709.79
782.495	3636.79
783.103	3610.79
783.712	3552.79
784.319	3629.79
784.929	3502.79
785.536	3524.79
786.145	3588.79
786.752	3582.79
787.361	3473.79
787.968	3479.79
788.577	3399.79
789.184	3400.79
789.793	3429.79
790.4	3415.79
791.009	3412.79
791.616	3370.79
792.224	3309.79
792.831	3382.79
793.44	3345.79
794.047	3363.79
794.653	3307.79
795.262	3266.79
795.868	3276.79
796.477	3189.79
797.083	3231.79
797.69	3170.79
798.298	3164.79
798.904	3105.79
799.511	3179.79
800.119	3141.79
800.725	3059.79
801.331	3037.79
801.937	3053.79
802.545	3001.79
803.151	3018.79
803.757	3047.79
804.365	3015.79
804.971	2933.79
805.577	2943.79
806.183	2892.79
806.789	2868.79
807.397	2857.79
808.002	2876.79
808.608	2838.79
809.214	2865.79
809.819	2737.79
810.425	2809.79
811.032	2784.79
811.638	2678.79
812.243	2751.79
812.849	2713.79
813.454	2686.79
814.059	2598.79
814.664	2589.79
815.27	2589.79
815.875	2624.79
816.48	2649.79
817.087	2586.79
817.692	2563.79
818.297	2499.79
818.902	2501.79
819.507	2451.79
820.112	2457.79
820.717	2384.79
821.322	2379.79
821.927	2404.79
822.529	2351.79
823.134	2407.79
823.739	2301.79
824.343	2282.79
824.948	2318.79
825.552	2349.79
826.157	2254.79
826.761	2250.79
827.366	2230.79
827.97	2187.79
828.575	2143.79
829.177	2225.79
829.781	2191.79
830.385	2154.79
830.989	2136.79
831.594	2091.79
832.198	2053.79
832.8	2077.79
833.404	2112.79
834.008	2085.79
834.612	2006.79
835.214	1962.79
835.817	1977.79
836.421	1993.79
837.025	1900.79
837.627	1913.79
838.23	1892.79
838.834	1871.79
839.436	1903.79
840.039	1864.79
840.643	1831.79
841.244	1800.79
841.848	1765.79
842.451	1775.79
843.053	1830.79
843.656	1759.79
844.259	1755.79
844.86	1732.79
845.464	1666.79
846.065	1676.79
846.668	1636.79
847.271	1617.79
847.872	1641.79
848.475	1586.79
849.076	1627.79
849.679	1593.79
850.28	1558.79
850.883	1579.79
851.484	1577.79
852.086	1527.79
852.687	1485.79
853.29	1495.79
853.89	1487.79
854.493	1442.79
855.094	1452.79
855.694	1425.79
856.297	1393.79
856.897	1410.79
857.5	1447.79
858.1	1425.79
858.7	1350.79
859.303	1319.79
859.903	1335.79
860.505	1332.79
861.105	1254.79
861.705	1323.79
862.307	1285.79
862.908	1292.79
863.508	1245.79
864.107	1240.79
864.709	1275.79
865.309	1247.79
865.909	1182.79
866.511	1199.79
867.111	1188.79
867.711	1154.79
868.31	1187.79
868.91	1130.79
869.512	1132.79
870.111	1084.79
870.711	1100.79
871.31	1084.79
871.909	1075.79
872.511	1059.79
873.11	1061.79
873.71	1062.79
874.309	1049.79
874.908	992.786
875.507	978.786
876.107	968.786
876.706	965.786
877.307	965.786
877.906	981.786
878.505	914.786
879.104	958.786
879.703	967.786
880.302	922.786
880.901	903.786
881.5	893.786
882.098	896.786
882.697	884.786
883.296	866.786
883.894	891.786
884.493	847.786
885.092	844.786
885.69	814.786
886.289	819.786
886.885	818.786
887.483	782.786
888.082	797.786
888.68	795.786
889.279	791.786
889.877	747.786
890.475	760.786
891.073	789.786
891.671	757.786
892.267	740.786
892.866	746.786
893.464	726.786
894.062	720.786
894.66	705.786
895.255	697.786
895.853	687.786
896.451	669.786
897.049	697.786
897.645	696.786
898.242	654.133
898.84	637.44
899.438	624.727
900.033	648.997
900.631	675.522
901.228	639.964
901.824	603.45
902.421	589.45
903.019	604.935
903.614	629.73
904.211	615.568
904.809	615.024
905.404	609.142
906.001	618.37
906.598	590.489
907.193	562.849
907.791	583.561
908.386	587.004
908.983	542.357
909.578	573.776
910.174	588.33
910.769	559.875
911.366	562.013
911.963	537.687
912.558	564.043
913.155	535.871
913.749	552.518
914.344	515.835
914.94	539.115
915.535	536.879
916.132	512.591
916.726	519.969
917.323	532.747
917.917	535.454
918.513	540.028
919.108	524.145
919.702	512.822
920.298	486.157
920.892	506.576
921.487	465.132
922.083	494.924
922.677	502.868
923.271	505.613
923.867	482.201
924.461	469.429
925.055	496.58
925.651	482.329
926.245	478.65
926.839	478.103
927.432	481.334
928.028	449.618
928.622	462.595
929.215	450.943
929.809	453.314
930.405	466.849
930.998	457.671
931.592	448.852
932.185	466.194
932.779	468.641
933.372	440.606
933.968	444.375
934.561	447.567
935.154	443.659
935.747	426.222
936.341	445.997
936.934	420.298
937.527	430.223
938.12	434.898
938.713	414.819
939.308	447.692
939.901	422.834
940.494	405.391
941.087	425.17
941.68	426.997
942.273	426.588
942.865	413.535
943.458	427.754
944.051	430.04
944.643	399.597
945.236	405.21
945.829	414.533
946.419	398.474
947.012	402.061
947.604	406.579
948.196	412.533
948.789	404.734
949.381	383.637
949.974	401.521
950.566	393.526
951.158	398.26
951.75	399.421
952.34	374.085
952.933	379.247
953.525	402.635
954.117	389.234
954.709	387.904
955.299	380.198
955.891	372.164
956.482	377.006
957.074	373.366
957.666	385.763
958.256	378.123
958.848	389.385
959.439	359.541
960.029	372.093
960.621	374.738
961.212	376.432
961.804	367.428
962.393	371.288
962.985	356.149
963.576	378.961
964.165	393.644
964.757	370.608
965.346	368.885
965.937	365.852
966.529	371.126
967.118	363.868
967.709	368.515
968.298	361.898
968.889	362.103
969.48	360.198
970.069	359.799
970.66	364.924
971.249	356.723
971.84	358.053
972.429	361.819
973.02	346.792
973.608	340.01
974.199	348.274
974.788	360.693
975.379	357.789
975.967	363.026
976.556	357.921
977.146	351.149
977.735	354.937
978.325	357.772
978.914	332.719
979.502	343.426
980.092	336.129
980.681	333.534
981.271	333.079
981.859	340.039
982.447	349.066
983.037	338.389
983.626	354.524
984.214	328.382
984.804	333.227
985.392	334.752
985.98	325.666
986.568	329.584
987.158	325.267
987.745	318.29
988.333	326.283
988.921	329.207
989.511	333.158
990.098	324.131
990.686	326.999
991.274	313.672
991.861	326.531
992.449	318.405
993.038	316.917
993.626	310.438
994.213	326.227
994.8	316.712
995.388	314.699
995.975	328.246
996.562	332.042
997.15	311.639
997.739	311.672
998.326	314.646
998.913	324.682
999.5	317.217
1000.09	306.646
1000.67	321.5
1001.26	308.593
1001.85	310.754
1002.44	287.061
1003.02	317.009
1003.61	313.781
1004.2	317.51
1004.78	292.503
1005.37	314.82
1005.96	313.381
1006.54	308.33
1007.13	305.541
1007.71	292.172
1008.3	299.985
1008.89	304.7
1009.47	300.211
1010.06	303.78
1010.65	287.031
1011.23	287.434
1011.82	297.828
1012.4	290.921
1012.99	292.057
1013.57	293.287
1014.16	297.135
1014.74	276.889
1015.33	288.833
1015.92	286.813
1016.5	294.344
1017.09	274.631
1017.67	288.77
1018.26	291.453
1018.84	298.481
1019.43	288.257
1020.01	270.745
1020.6	290.595
1021.18	289.095
1021.77	281.953
1022.35	283.174
1022.94	275.758
1023.52	268.329
1024.11	278.611
1024.69	253.299
1025.28	277.745
1025.86	283.293
1026.45	271.491
1027.03	261.215
1027.62	269.174
1028.2	266.748
1028.78	271.685
1029.37	267.628
1029.95	284.123
1030.54	272.24
1031.12	267.038
1031.71	273.872
1032.29	262.344
1032.87	256.54
1033.46	262.304
1034.04	265.992
1034.62	267.565
1035.21	260.891
1035.79	259.338
1036.37	245.66
1036.96	255.587
1037.54	259.447
1038.13	237.924
1038.71	237.183
1039.29	273.482
1039.88	244.294
1040.46	258.841
1041.04	248.026
1041.62	256.374
1042.21	250.902
1042.79	238.516
1043.37	247.917
1043.96	258.27
1044.54	248.962
1045.12	241.318
1045.7	249.25
1046.29	253.778
1046.87	250.988
1047.45	238.945
1048.03	247.922
1048.62	239.419
1049.2	254.367
1049.78	235.788
1050.36	235.904
1050.95	240.115
1051.53	237.795
1052.11	240.339
1052.69	242.521
1053.27	238.643
1053.85	222.362
1054.43	251.105
1055.02	241.398
1055.6	230.877
1056.18	223.491
1056.76	233.009
1057.34	225.461
1057.93	238.629
1058.51	243.877
1059.09	233.699
1059.67	241.669
1060.25	225.692
1060.83	249.207
1061.41	222.847
1061.99	234.292
1062.57	240.2
1063.16	249.51
1063.73	245.005
1064.31	238.213
1064.9	226.817
1065.48	229.437
1066.06	231.843
1066.64	234.55
1067.22	231.721
1067.8	218.467
1068.38	227.421
1068.96	229.101
1069.54	241.777
1070.12	227.213
1070.7	236.813
1071.28	215.975
1071.86	220.361
1072.44	217.906
1073.02	224.015
1073.6	200.411
1074.18	232.978
1074.76	228.863
1075.34	228.787
1075.92	222.344
1076.5	207.008
1077.08	223.777
1077.46	215.777
1078.04	214.777
1078.63	200.777
1079.22	221.777
1079.81	215.777
1080.39	242.777
1080.98	223.777
1081.57	232.777
1082.15	242.777
1082.74	238.777
1083.33	220.777
1083.92	212.777
1084.5	219.777
1085.09	216.777
1085.68	221.777
1086.26	231.777
1086.85	235.777
1087.43	222.777
1088.02	210.777
1088.61	214.777
1089.2	210.777
1089.78	242.777
1090.37	219.777
1090.95	210.777
1091.54	198.777
1092.13	226.777
1092.71	205.777
1093.3	192.777
1093.88	211.777
1094.47	208.777
1095.06	212.777
1095.64	207.777
1096.23	209.777
1096.81	220.777
1097.4	203.777
1097.98	228.777
1098.57	215.777
1099.16	217.777
1099.74	212.777
1100.32	211.777
1100.91	213.777
1101.5	224.777
1102.08	219.777
1102.67	197.777
1103.25	222.777
1103.84	202.777
1104.42	225.777
1105.01	212.777
1105.59	196.777
1106.17	208.777
1106.76	186.777
1107.35	215.777
1107.93	202.777
1108.51	203.777
1109.1	208.777
1109.68	196.777
1110.27	220.777
1110.85	215.777
1111.44	205.777
1112.02	202.777
1112.6	193.777
1113.19	210.777
1113.77	209.777
1114.36	197.777
1114.94	199.777
1115.52	212.777
1116.11	186.777
1116.69	196.777
1117.28	211.777
1117.86	215.777
1118.44	196.777
1119.03	205.777
1119.61	182.777
1120.19	196.777
1120.78	201.777
1121.36	203.777
1121.94	209.777
1122.52	214.777
1123.11	218.777
1123.69	189.777
1124.27	196.777
1124.86	221.777
1125.44	189.777
1126.02	188.777
1126.61	196.777
1127.19	216.777
1127.77	195.777
1128.35	182.777
1128.94	201.777
1129.52	199.777
1130.1	204.777
1130.68	204.777
1131.27	211.777
1131.85	200.777
1132.43	184.777
1133.01	197.777
1133.6	205.777
1134.18	211.777
1134.76	211.777
1135.34	199.777
1135.92	203.777
1136.5	191.777
1137.09	195.777
1137.67	210.777
1138.25	206.777
1138.83	213.777
1139.41	202.777
1139.99	203.777
1140.58	197.777
1141.16	215.777
1141.74	195.777
1142.32	191.777
1142.9	200.777
1143.48	201.777
1144.06	197.777
1144.64	197.777
1145.22	185.777
1145.81	199.777
1146.39	207.777
1146.97	206.777
1147.55	186.777
1148.13	201.777
1148.71	201.777
1149.29	188.777
1149.87	209.777
1150.45	196.777
1151.03	203.777
1151.61	194.777
1152.19	194.777
1152.77	191.777
1153.35	191.777
1153.93	190.777
1154.51	187.777
1155.09	193.777
1155.67	197.777
1156.25	199.777
1156.83	206.777
1157.41	182.777
1157.99	198.777
1158.57	196.777
1159.15	188.777
1159.73	207.777
1160.31	194.777
1160.89	188.777
1161.47	185.777
1162.05	220.777
1162.63	189.777
1163.21	185.777
1163.79	193.777
1164.36	198.777
1164.95	187.777
1165.52	182.777
1166.1	187.777
1166.68	184.777
1167.26	203.777
1167.84	196.777
1168.42	199.777
1169	196.777
1169.57	186.777
1170.15	192.777
1170.73	182.777
1171.31	188.777
1171.89	176.777
1172.47	181.777
1173.05	190.777
1173.62	203.777
1174.2	188.777
1174.78	195.777
1175.36	167.777
1175.94	195.777
1176.51	196.777
1177.09	178.777
1177.67	188.777
1178.25	181.777
1178.83	193.777
1179.4	189.777
1179.98	188.777
1180.56	197.777
1181.14	186.777
1181.71	183.777
1182.29	192.777
1182.87	198.777
1183.44	171.777
1184.02	162.777
1184.6	173.777
1185.18	188.777
1185.75	193.777
1186.33	184.777
1186.91	178.777
1187.48	187.777
1188.06	194.777
1188.64	175.777
1189.21	170.777
1189.79	199.777
1190.37	150.777
1190.94	159.777
1191.52	170.777
1192.1	177.777
1192.67	171.777
1193.25	192.777
1193.83	190.777
1194.4	187.777
1194.98	192.777
1195.55	179.777
1196.13	183.777
1196.71	174.777
1197.28	199.777
1197.86	186.777
1198.43	176.777
1199.01	176.777
1199.59	175.777
1200.16	178.777
