17.0039	881.093
17.6805	876.093
18.3571	858.093
19.0336	785.093
19.7123	836.093
20.3887	838.093
21.0651	849.093
21.7414	839.093
22.4176	824.093
23.0939	859.093
23.77	851.093
24.4462	868.093
25.1222	911.093
25.7983	926.093
26.4742	960.093
27.1502	1009.09
27.8261	968.093
28.5019	1008.09
29.1777	1030.09
29.8534	996.093
30.5291	1003.09
31.2048	1003.09
31.8804	1040.09
32.5559	1075.09
33.2314	1072.09
33.9069	1122.09
34.5823	1186.09
35.2577	1192.09
35.933	1194.09
36.6083	1248.09
37.2835	1301.09
37.9587	1300.09
38.6338	1340.09
39.3066	1348.09
39.9817	1341.09
40.6566	1386.09
41.3316	1362.09
42.0065	1397.09
42.6813	1470.09
43.3539	1508.09
44.0286	1569.09
44.7033	1605.09
45.378	1626.09
46.0526	1549.09
46.7249	1551.09
47.3994	1673.09
48.0739	1692.09
48.7483	1694.09
49.4204	1801.09
50.0947	1812.09
50.769	1806.09
51.4433	1787.09
52.1152	1810.09
52.7893	1861.09
53.4634	1870.09
54.1352	1881.09
54.8092	1875.09
55.4831	1920.09
56.1548	1928.09
56.8286	1944.09
57.5024	2005.09
58.1739	2049.09
58.8477	2084.09
59.5213	2118.09
60.1927	2189.09
60.8663	2189.09
61.5375	2226.09
62.211	2134.09
62.8845	2094.09
63.5556	2110.09
64.2289	2181.09
64.8999	2186.09
65.5732	2209.09
66.2441	2167.09
66.9173	2191.09
67.5881	2234.09
68.2612	2288.09
68.9319	2297.09
69.6049	2259.09
70.2755	2287.09
70.9484	2305.09
71.619	2313.09
72.2918	2352.09
72.9622	2361.09
73.6349	2448.09
74.3053	2356.09
74.9756	2428.09
75.6482	2360.09
76.3184	2493.09
76.9909	2405.09
77.661	2428.09
78.3311	2336.09
79.0034	2382.09
79.6734	2356.09
80.3433	2402.09
81.0155	2390.09
81.6854	2496.09
82.3552	2487.09
83.0272	2524.09
83.6969	2491.09
84.3666	2558.09
85.0385	2488.09
85.7081	2455.09
86.3776	2363.09
87.0471	2445.09
87.7188	2512.09
88.3882	2453.09
89.0575	2496.09
89.7268	2421.09
90.3961	2468.09
91.0676	2491.09
91.7367	2544.09
92.4059	2597.09
93.0749	2584.09
93.7439	2546.09
94.4152	2588.09
95.0841	2512.09
95.753	2563.09
96.4218	2538.09
97.0906	2430.09
97.7594	2509.09
98.4281	2582.09
99.0967	2461.09
99.7676	2515.09
100.436	2476.09
101.105	2501.09
101.773	2451.09
102.442	2491.09
103.11	2444.09
103.778	2480.09
104.447	2461.09
105.115	2456.09
105.783	2476.09
106.451	2501.09
107.119	2563.09
107.787	2534.09
108.455	2517.09
109.123	2509.09
109.791	2468.09
110.459	2500.09
111.127	2395.09
111.795	2469.09
112.462	2452.09
113.13	2407.09
113.795	2392.09
114.463	2424.09
115.13	2488.09
115.798	2458.09
116.465	2483.09
117.133	2501.09
117.8	2429.09
118.467	2415.09
119.132	2431.09
119.8	2389.09
120.467	2392.09
121.134	2423.09
121.801	2432.09
122.466	2397.09
123.133	2453.09
123.8	2433.09
124.467	2423.09
125.133	2414.09
125.798	2402.09
126.465	2372.09
127.131	2359.09
127.796	2344.09
128.462	2366.09
129.129	2371.09
129.796	2317.09
130.46	2389.09
131.126	2433.09
131.793	2386.09
132.457	2309.09
133.123	2357.09
133.789	2335.09
134.453	2316.09
135.119	2352.09
135.783	2390.09
136.449	2394.09
137.115	2343.09
137.779	2312.09
138.445	2289.09
139.108	2316.09
139.774	2332.09
140.438	2343.09
141.104	2290.09
141.769	2290.09
142.433	2269.09
143.098	2299.09
143.762	2251.09
144.427	2304.09
145.09	2279.09
145.756	2205.09
146.419	2267.09
147.084	2285.09
147.747	2314.09
148.41	2297.09
149.075	2309.09
149.738	2280.09
150.403	2319.09
151.066	2250.09
151.731	2225.09
152.394	2298.09
153.056	2249.09
153.721	2289.09
154.384	2242.09
155.046	2265.09
155.711	2311.09
156.374	2232.09
157.036	2202.09
157.701	2178.09
158.363	2232.09
159.025	2180.09
159.69	2208.09
160.352	2221.09
161.014	2224.09
161.676	2207.09
162.34	2178.09
163.002	2210.09
163.664	2226.09
164.326	2181.09
164.99	2210.09
165.652	2142.09
166.314	2202.09
166.975	2137.09
167.637	2132.09
168.301	2172.09
168.962	2185.09
169.624	2171.09
170.285	2134.09
170.947	2096.09
171.608	2105.09
172.272	2158.09
172.933	2158.09
173.594	2166.09
174.255	2120.09
174.917	2154.09
175.578	2112.09
176.239	2100.09
176.9	2082.09
177.561	2162.09
178.222	2096.09
178.882	2074.09
179.543	2081.09
180.204	2072.09
180.865	2096.09
181.526	2091.09
182.186	2080.09
182.847	2068.09
183.507	2077.09
184.168	2107.09
184.828	2081.09
185.489	2081.09
186.149	2063.09
186.809	2087.09
187.47	2094.09
188.13	2066.09
188.79	2034.09
189.45	2113.09
190.11	2058.09
190.768	2067.09
191.428	2046.09
192.088	2053.09
192.748	2051.09
193.408	2072.09
194.068	2077.09
194.728	2030.09
195.385	2026.09
196.045	2011.09
196.705	1997.09
197.364	2030.09
198.021	2010.09
198.681	2101.09
199.34	2046.09
200	2010.09
200.657	2018.09
201.316	1980.09
201.976	2012.09
202.635	1978.09
203.292	2038.09
203.951	2068.09
204.61	2038.09
205.267	1984.09
205.926	2003.09
206.585	2003.09
207.242	2006.09
207.9	1960.09
208.559	2038.09
209.216	1976.09
209.875	1978.09
210.533	1982.09
211.19	1981.09
211.848	1982.09
212.505	1975.09
213.163	1989.09
213.819	1934.09
214.478	2055.09
215.134	1966.09
215.792	1916.09
216.451	1915.09
217.107	1982.09
217.765	1964.09
218.421	2006.09
219.079	1957.09
219.735	1934.09
220.391	1964.09
221.049	1888.09
221.704	1939.09
222.362	1966.09
223.018	1964.09
223.675	1940.09
224.331	1937.09
224.989	1970.09
225.644	1966.09
226.3	2014.09
226.957	1948.09
227.612	1943.09
228.268	1865.09
228.925	1909.09
229.58	1937.09
230.235	1970.09
230.893	1931.09
231.548	1967.09
232.203	1905.09
232.86	1926.09
233.515	1938.09
234.17	1925.09
234.827	1878.09
235.481	1918.09
236.136	1915.09
236.791	1958.09
237.448	1904.09
238.102	1959.09
238.757	1932.09
239.411	1920.09
240.066	1911.09
240.722	1878.09
241.377	1888.09
242.031	1888.09
242.685	1926.09
243.339	1835.09
243.993	1908.09
244.648	1910.09
245.304	1912.09
245.958	1894.09
246.612	1871.09
247.266	1860.09
247.92	1858.09
248.574	1859.09
249.227	1843.09
249.881	1902.09
250.535	1908.09
251.189	1916.09
251.842	1909.09
252.496	1866.09
253.149	1880.09
253.803	1790.09
254.456	1882.09
255.11	1828.09
255.763	1843.09
256.416	1845.09
257.07	1867.09
257.723	1892.09
258.376	1812.09
259.029	1889.09
259.682	1890.09
260.335	1863.09
260.988	1833.09
261.641	1859.09
262.294	1895.09
262.947	1875.09
263.598	1841.09
264.251	1807.09
264.903	1835.09
265.556	1848.09
266.209	1766.09
266.861	1856.09
267.512	1810.09
268.164	1801.09
268.817	1812.09
269.469	1816.09
270.121	1830.09
270.772	1800.09
271.424	1754.09
272.076	1845.09
272.728	1837.09
273.378	1805.09
274.03	1815.09
274.682	1884.09
275.332	1830.09
275.984	1827.09
276.636	1778.09
277.288	1818.09
277.938	1839.09
278.59	1833.09
279.239	1793.09
279.891	1821.09
280.542	1776.09
281.192	1824.09
281.843	1809.09
282.495	1804.09
283.144	1837.09
283.796	1803.09
284.445	1803.09
285.096	1815.09
285.745	1811.09
286.397	1788.09
287.048	1820.09
287.697	1781.09
288.348	1818.09
288.997	1819.09
289.648	1787.09
290.297	1798.09
290.948	1757.09
291.596	1766.09
292.247	1724.09
292.896	1804.09
293.544	1797.09
294.195	1764.09
294.844	1783.09
295.494	1799.09
296.143	1813.09
296.793	1726.09
297.441	1754.09
298.09	1789.09
298.74	1772.09
299.388	1797.09
300.036	1765.09
300.687	1808.09
301.335	1832.09
301.983	1776.09
302.633	1754.09
303.281	1757.09
303.929	1802.09
304.579	1814.09
305.227	1775.09
305.874	1754.09
306.522	1808.09
307.172	1794.09
307.819	1768.09
308.467	1823.09
309.114	1768.09
309.764	1784.09
310.412	1750.09
311.059	1747.09
311.706	1801.09
312.354	1740.09
313.003	1744.09
313.65	1765.09
314.297	1746.09
314.944	1783.09
315.592	1724.09
316.239	1693.09
316.886	1713.09
317.535	1766.09
318.182	1760.09
318.828	1793.09
319.475	1741.09
320.122	1740.09
320.769	1745.09
321.415	1771.09
322.062	1728.09
322.709	1750.09
323.355	1712.09
324.002	1685.09
324.648	1756.09
325.294	1757.09
325.941	1731.09
326.587	1736.09
327.233	1757.09
327.88	1748.09
328.526	1755.09
329.172	1740.09
329.818	1710.09
330.464	1744.09
331.11	1743.09
331.754	1714.09
332.4	1747.09
333.046	1718.09
333.692	1730.09
334.337	1701.09
334.983	1751.09
335.629	1733.09
336.275	1693.09
336.918	1738.09
337.564	1722.09
338.209	1755.09
338.855	1722.09
339.5	1757.09
340.143	1741.09
340.789	1712.09
341.434	1717.09
342.079	1719.09
342.722	1748.09
343.367	1717.09
344.012	1705.09
344.658	1694.09
345.3	1742.09
345.945	1737.09
346.59	1749.09
347.233	1768.09
347.878	1733.09
348.523	1741.09
349.165	1738.09
349.81	1725.09
350.455	1725.09
351.097	1729.09
351.742	1712.09
352.384	1708.09
353.029	1716.09
353.673	1720.09
354.315	1724.09
354.96	1753.09
355.602	1692.09
356.246	1749.09
356.888	1714.09
357.533	1712.09
358.175	1712.09
358.819	1712.09
359.461	1706.09
360.105	1705.09
360.746	1710.09
361.39	1738.09
362.032	1684.09
362.676	1705.09
363.318	1710.09
363.961	1708.09
364.603	1722.09
365.247	1754.09
365.888	1730.09
366.529	1757.09
367.173	1708.09
367.814	1739.09
368.456	1722.09
369.099	1741.09
369.74	1746.09
370.381	1728.09
371.025	1701.09
371.666	1711.09
372.307	1737.09
372.95	1709.09
373.591	1699.09
374.232	1687.09
374.875	1669.09
375.516	1693.09
376.156	1718.09
376.797	1667.09
377.44	1741.09
378.081	1686.09
378.721	1803.09
379.362	1726.09
380.002	1711.09
380.645	1694.09
381.285	1699.09
381.926	1703.09
382.566	1713.09
383.206	1719.09
383.847	1736.09
384.489	1679.09
385.129	1740.09
385.769	1719.09
386.409	1720.09
387.049	1721.09
387.689	1761.09
388.329	1754.09
388.969	1690.09
389.609	1762.09
390.249	1721.09
390.889	1735.09
391.528	1729.09
392.168	1716.09
392.81	1759.09
393.449	1747.09
394.089	1703.09
394.726	1684.09
395.366	1714.09
396.005	1716.09
396.645	1740.09
397.284	1727.09
397.923	1740.09
398.562	1721.09
399.202	1715.09
399.841	1759.09
400.48	1714.09
401.119	1723.09
401.758	1721.09
402.397	1732.09
403.034	1697.09
403.673	1734.09
404.311	1706.09
404.95	1751.09
405.589	1671.09
406.228	1738.09
406.864	1745.09
407.503	1748.09
408.142	1731.09
408.78	1802.09
409.419	1724.09
410.055	1775.09
410.693	1731.09
411.332	1813.09
411.968	1770.09
412.606	1736.09
413.244	1764.09
413.883	1757.09
414.519	1769.09
415.157	1766.09
415.795	1749.09
416.431	1778.09
417.069	1770.09
417.707	1790.09
418.342	1763.09
418.98	1766.09
419.616	1740.09
420.254	1802.09
420.891	1764.09
421.527	1785.09
422.165	1842.09
422.8	1807.09
423.438	1811.09
424.075	1781.09
424.71	1781.09
425.348	1792.09
425.983	1792.09
426.62	1792.09
427.256	1775.09
427.893	1765.09
428.528	1851.09
429.165	1821.09
429.8	1802.09
430.435	1779.09
431.072	1783.09
431.707	1829.09
432.344	1837.09
432.979	1841.09
433.615	1868.09
434.25	1855.09
434.885	1838.09
435.521	1884.09
436.156	1879.09
436.79	1808.09
437.427	1810.09
438.061	1830.09
438.696	1835.09
439.332	1839.09
439.967	1883.09
440.601	1896.09
441.237	1835.09
441.871	1849.09
442.505	1817.09
443.142	1855.09
443.776	1875.09
444.41	1892.09
445.044	1856.09
445.678	1891.09
446.314	1861.09
446.947	1862.09
447.581	1920.09
448.215	1885.09
448.849	1879.09
449.484	1925.09
450.118	1883.09
450.752	1867.09
451.385	1893.09
452.018	1876.09
452.652	1874.09
453.285	1930.09
453.921	1911.09
454.554	1845.72
455.187	1864.11
455.821	1949.66
456.454	1916.64
457.087	1917.91
457.72	1886.8
458.353	1877.49
458.986	1914.79
459.619	1964.15
460.252	1898.62
460.885	1926.34
461.518	1944.34
462.15	1917.16
462.783	1919.47
463.416	1942.93
464.048	1872.97
464.681	1919.75
465.314	1900.57
465.946	1929.67
466.579	1956.52
467.209	1899.15
467.841	1967.77
468.474	1961.54
469.106	1939.91
469.738	1968
470.371	1919.31
471.003	1961.4
471.633	1949.14
472.265	1955.77
472.897	1975.24
473.529	1941.93
474.161	1904.97
474.791	2002.13
475.423	1913.4
476.054	1953.98
476.686	2018.33
477.318	1923.14
477.948	1924.26
478.579	1971.34
479.211	1900.83
479.84	1941.98
480.472	1972.1
481.103	1978.9
481.733	1978.39
482.364	1987.6
482.996	1960.28
483.625	1977.68
484.256	1991.95
484.887	2004.16
485.516	2004.39
486.148	1980.31
486.779	1954.05
487.408	1967.13
488.039	1981.73
488.668	1979.72
489.298	1993.7
489.927	2003.55
490.558	2043.9
491.187	1979.33
491.818	1983.72
492.446	1989.81
493.077	2019.2
493.705	1951.44
494.336	1999.62
494.964	2029.06
495.595	2038.03
496.223	2002.73
496.854	1983.5
497.482	2004.87
498.112	2015.22
498.741	2013.06
499.371	2065.9
499.999	2020.05
500.627	1983.24
501.257	1994.19
501.885	2021.68
502.513	2045.5
503.143	2072.68
503.771	2055.18
504.399	2061.94
505.029	2015.29
505.656	2021.33
506.284	2058.76
506.914	2036.87
507.541	2070.4
508.169	2047.84
508.796	2046.54
509.426	2067.23
510.054	2054.83
510.681	2046.32
511.308	2024.63
511.938	2061.97
512.565	2084.19
513.192	2040.86
513.819	2043.68
514.446	2078.7
515.076	2117.5
515.703	2055.02
516.33	2047.48
516.957	2080.87
517.584	2070.23
518.21	2072.71
518.837	2056.11
519.464	2058.7
520.093	2097.56
520.72	2056.06
521.346	2105.62
521.973	2104.23
522.6	2098.36
523.226	2095.42
523.853	2100.61
524.479	2125.23
525.105	2103.46
525.732	2081
526.358	2082.95
526.984	2094.32
527.611	2111.62
528.237	2087.28
528.863	2085.49
529.489	2089.27
530.115	2080.54
530.741	2127.91
531.365	2117.78
531.991	2121.43
532.617	2133.28
533.243	2085.37
533.869	2147.6
534.495	2087.14
535.12	2124.41
535.746	2133.42
536.369	2107.99
536.995	2103.45
537.621	2121.96
538.246	2128.01
538.872	2126.11
539.495	2147.77
540.12	2131.69
540.746	2127.04
541.371	2128.03
541.994	2108.73
542.62	2149.83
543.245	2145.62
543.87	2130.69
544.493	2176.52
545.118	2157.57
545.743	2158.86
546.366	2164.01
546.991	2121.12
547.616	2197.53
548.238	2115.51
548.863	2169.67
549.488	2157.95
550.111	2191.82
550.735	2163.08
551.36	2201.35
551.982	2159.77
552.607	2166.33
553.229	2148.07
553.854	2159.43
554.476	2154.05
555.101	2189.66
555.723	2210.37
556.347	2199.04
556.969	2157.35
557.594	2231.45
558.216	2209.74
558.84	2183.05
559.462	2199.65
560.086	2198.64
560.708	2220.78
561.332	2198.55
561.954	2198.2
562.578	2182.73
563.199	2192.43
563.821	2203.84
564.445	2178.34
565.066	2177.85
565.69	2215.18
566.312	2189.44
566.933	2156.94
567.557	2198.51
568.178	2190.85
568.799	2176.01
569.423	2210.29
570.044	2180.16
570.665	2189.56
571.289	2162.42
571.91	2202.3
572.531	2188.17
573.152	2166.82
573.775	2150.65
574.396	2136.78
575.017	2180.47
575.638	2162.17
576.261	2153.06
576.882	2143.4
577.503	2144.1
578.123	2130.53
578.744	2052.26
579.365	2102.77
579.987	2112.3
580.608	2129.57
581.229	2109.7
581.849	2083.32
582.47	2098.23
583.09	2109.87
583.71	2100.58
584.331	2081.17
584.951	2115.26
585.571	2046.66
586.194	2059.52
586.814	2037.53
587.434	2060.83
588.054	1994.11
588.674	1997.06
589.294	2056.88
589.914	2022.95
590.534	1994.97
591.154	2000.95
591.774	1989.47
592.391	1983.04
593.011	1993.07
593.631	1961.23
594.25	1951.88
594.87	1929.77
595.49	1960.65
596.109	1956.51
596.729	1884.74
597.348	1914.98
597.967	1900.67
598.585	1878.87
599.204	1879.32
599.823	1863.16
600.443	1894.57
601.062	1861.05
601.681	1831.67
602.298	1845.93
602.917	1871.79
603.536	1834.57
604.155	1793.92
604.772	1817.62
605.391	1778.78
606.01	1787.72
606.629	1768.09
607.245	1794.45
607.864	1793.01
608.483	1760.15
609.099	1754.23
609.718	1739.71
610.337	1764.26
610.953	1748.08
611.572	1719.09
612.19	1750.13
612.806	1712.9
613.425	1757.77
614.043	1686.38
614.659	1696.89
615.278	1704.2
615.894	1671.06
616.512	1673.12
617.128	1683.8
617.746	1613.93
618.364	1648.99
618.98	1596.2
619.598	1687.85
620.214	1637.01
620.832	1616.31
621.448	1620.42
622.065	1598.61
622.681	1616.35
623.297	1622.58
623.914	1605.39
624.53	1561.62
625.148	1566.69
625.763	1574.1
626.381	1556.85
626.996	1544.15
627.611	1557.43
628.229	1559.77
628.844	1509.94
629.459	1528.17
630.076	1506.5
630.692	1544.72
631.307	1518.97
631.924	1484.71
632.539	1511.43
633.154	1477.63
633.771	1457.36
634.386	1485.22
635.001	1447.05
635.615	1477.14
636.232	1461.81
636.847	1418.49
637.462	1435.81
638.076	1429.68
638.693	1410.97
639.308	1392.52
639.922	1375.67
640.537	1362.86
641.151	1386.58
641.768	1382.28
642.382	1378.08
642.996	1323.2
643.611	1377.32
644.225	1360.23
644.839	1363.11
645.453	1332.13
646.067	1353.33
646.681	1326.3
647.295	1327.81
647.912	1326.98
648.526	1323.42
649.139	1287.65
649.753	1327.63
650.367	1255.34
650.981	1302.79
651.595	1214.8
652.208	1281.69
652.822	1278.14
653.436	1267.38
654.049	1235.98
654.663	1247.91
655.274	1268.34
655.888	1226.11
656.501	1235.94
657.115	1215.08
657.728	1146.91
658.333	1238.91
658.954	1226.91
659.574	1225.91
660.196	1213.91
660.816	1182.91
661.435	1176.91
662.057	1207.91
662.676	1160.91
663.298	1174.91
663.917	1174.91
664.537	1150.91
665.158	1145.91
665.777	1141.91
666.399	1154.91
667.018	1150.91
667.637	1161.91
668.258	1120.91
668.877	1155.91
669.496	1153.91
670.118	1127.91
670.737	1134.91
671.355	1077.91
671.974	1134.91
672.595	1091.91
673.214	1094.91
673.833	1092.91
674.452	1093.91
675.072	1100.91
675.691	1096.91
676.31	1077.91
676.928	1071.91
677.549	1073.91
678.167	1080.91
678.786	1044.91
679.404	1068.91
680.022	1064.91
680.641	1060.91
681.261	1068.91
681.879	1044.91
682.497	1060.91
683.116	1037.91
683.734	1011.91
684.352	1005.91
684.97	1040.91
685.588	1017.91
686.206	998.907
686.824	1034.91
687.441	1032.91
688.059	998.907
688.677	969.907
689.297	978.907
689.915	986.907
690.532	993.907
691.15	953.907
691.765	1003.91
692.383	992.907
693	999.907
693.618	948.907
694.235	978.907
694.852	968.907
695.47	955.907
696.087	941.907
696.704	952.907
697.321	943.907
697.939	961.907
698.556	927.907
699.173	928.907
699.788	926.907
700.405	940.907
701.022	925.907
701.639	928.907
702.255	920.907
702.872	914.907
703.487	933.907
704.104	893.907
704.72	919.907
705.337	929.907
705.954	890.907
706.568	885.907
707.185	898.907
707.801	867.907
708.416	880.907
709.032	905.907
709.648	887.907
710.265	878.907
710.879	859.907
711.495	865.907
712.111	847.907
712.725	882.907
713.341	861.907
713.958	824.907
714.572	850.907
715.188	863.907
715.804	836.907
716.417	809.907
717.033	839.907
717.647	845.907
718.263	844.907
718.876	798.907
719.492	834.907
720.108	838.907
720.721	841.907
721.337	833.907
721.95	805.907
722.566	809.907
723.179	795.907
723.795	767.907
724.408	823.907
725.023	818.907
725.637	771.907
726.252	805.907
726.865	779.907
727.48	807.907
728.093	784.907
728.706	757.907
729.321	770.907
729.934	778.907
730.549	775.907
731.162	765.907
731.775	764.907
732.39	765.907
733.003	779.907
733.615	762.907
734.23	747.907
734.843	706.907
735.455	732.907
736.07	737.907
736.682	725.907
737.295	751.907
737.909	718.907
738.522	714.907
739.134	715.907
739.746	725.907
740.361	719.907
740.973	693.907
741.585	714.907
742.197	727.907
742.809	707.907
743.423	674.907
744.035	709.907
744.647	703.907
745.259	715.907
745.871	662.907
746.485	680.907
747.097	687.907
747.708	661.907
748.32	671.907
748.932	677.907
749.544	672.907
750.155	707.907
750.767	677.907
751.378	649.907
751.99	654.907
752.601	622.907
753.215	635.907
753.826	646.907
754.437	649.907
755.049	637.907
755.66	646.907
756.271	622.907
756.882	643.907
757.493	620.907
758.104	643.907
758.715	638.907
759.324	622.907
759.935	632.907
760.546	630.907
761.157	630.907
761.768	612.907
762.379	605.907
762.989	606.907
763.6	635.907
764.211	574.907
764.821	592.907
765.43	578.907
766.04	577.907
766.651	579.907
767.261	581.907
767.872	574.907
768.482	576.907
769.09	600.907
769.701	602.907
770.311	575.907
770.921	546.907
771.531	530.907
772.139	573.907
772.75	562.907
773.36	543.907
773.967	524.907
774.577	547.907
775.187	545.907
775.797	508.907
776.405	545.907
777.015	535.907
777.625	502.907
778.232	531.907
778.842	559.907
779.452	539.907
780.059	510.907
780.669	535.907
781.276	529.907
781.886	514.907
782.495	517.907
783.103	499.907
783.712	526.907
784.319	502.907
784.929	508.907
785.536	481.907
786.145	504.907
786.752	486.907
787.361	476.907
787.968	472.907
788.577	485.907
789.184	463.907
789.793	464.907
790.4	470.907
791.009	471.907
791.616	491.907
792.224	444.907
792.831	457.907
793.44	443.907
794.047	465.907
794.653	448.907
795.262	442.907
795.868	436.907
796.477	464.907
797.083	452.907
797.69	428.907
798.298	447.907
798.904	450.907
799.511	418.907
800.119	436.907
800.725	450.907
801.331	435.907
801.937	444.907
802.545	428.907
803.151	435.907
803.757	427.907
804.365	431.907
804.971	426.907
805.577	413.907
806.183	425.907
806.789	413.907
807.397	396.907
808.002	422.907
808.608	411.907
809.214	418.907
809.819	412.907
810.425	415.907
811.032	413.907
811.638	430.907
812.243	408.907
812.849	385.907
813.454	406.907
814.059	416.907
814.664	408.907
815.27	409.907
815.875	404.907
816.48	412.907
817.087	409.907
817.692	385.907
818.297	420.907
818.902	403.907
819.507	391.907
820.112	396.907
820.717	396.907
821.322	404.907
821.927	392.907
822.529	391.907
823.134	409.907
823.739	403.907
824.343	405.907
824.948	407.907
825.552	399.907
826.157	396.907
826.761	397.907
827.366	409.907
827.97	399.907
828.575	410.907
829.177	389.907
829.781	397.907
830.385	401.907
830.989	409.907
831.594	400.907
832.198	387.907
832.8	407.907
833.404	411.907
834.008	379.907
834.612	405.907
835.214	409.907
835.817	405.907
836.421	421.907
837.025	412.907
837.627	407.907
838.23	416.907
838.834	414.907
839.436	403.907
840.039	414.907
840.643	417.907
841.244	416.907
841.848	406.907
842.451	406.907
843.053	421.907
843.656	437.907
844.259	438.907
844.86	443.907
845.464	443.907
846.065	440.907
846.668	437.907
847.271	441.907
847.872	440.907
848.475	435.907
849.076	436.907
849.679	455.907
850.28	454.907
850.883	428.907
851.484	447.907
852.086	436.907
852.687	448.907
853.29	462.907
853.89	465.907
854.493	459.907
855.094	477.907
855.694	459.907
856.297	459.907
856.897	473.907
857.5	456.907
858.1	468.907
858.7	471.907
859.303	475.907
859.903	479.907
860.505	484.907
861.105	502.907
861.705	505.907
862.307	495.907
862.908	487.907
863.508	491.907
864.107	508.907
864.709	500.907
865.309	506.907
865.909	497.907
866.511	510.907
867.111	516.907
867.711	535.907
868.31	483.907
868.91	526.907
869.512	551.907
870.111	530.907
870.711	538.907
871.31	496.907
871.909	551.907
872.511	543.907
873.11	556.907
873.71	566.907
874.309	545.907
874.908	566.907
875.507	569.907
876.107	570.907
876.706	592.907
877.307	565.907
877.906	587.907
878.505	609.907
879.104	601.907
879.703	612.907
880.302	588.907
880.901	605.907
881.5	625.907
882.098	634.907
882.697	604.907
883.296	623.907
883.894	657.907
884.493	650.907
885.092	630.907
885.69	647.907
886.289	656.907
886.885	667.907
887.483	645.907
888.082	691.907
888.68	690.907
889.279	690.907
889.877	670.907
890.475	696.907
891.073	681.907
891.671	718.907
892.267	704.907
892.866	733.907
893.464	735.907
894.062	736.907
894.66	733.907
895.255	743.907
895.853	753.907
896.451	758.907
897.049	756.907
897.645	774.907
898.242	756.256
898.84	781.374
899.438	783.508
900.033	797.719
900.631	793.199
901.228	859.248
901.824	794.524
902.421	815.583
903.019	801.968
903.614	827.152
904.211	863.715
904.809	846.341
905.404	905.436
906.001	854.125
906.598	874.259
907.193	860.212
907.791	875.834
908.386	889.424
908.983	887.265
909.578	893.878
910.174	925.639
910.769	937.684
911.366	898.832
911.963	951.943
912.558	951.625
913.155	900.941
913.749	960.029
914.344	938.853
914.94	994.294
915.535	988.864
916.132	968.166
916.726	987.797
917.323	973.626
917.917	1024.78
918.513	998.606
919.108	1011.64
919.702	1032.1
920.298	999.791
920.892	1028.98
921.487	999.563
922.083	1058.06
922.677	1047.28
923.271	1039.34
923.867	1042.34
924.461	1085.01
925.055	1094.46
925.651	1095.17
926.245	1071.72
926.839	1106.3
927.432	1104.73
928.028	1093.02
928.622	1141.08
929.215	1114.51
929.809	1112.44
930.405	1118.51
930.998	1120.3
931.592	1156.02
932.185	1152.94
932.779	1102.48
933.372	1120.49
933.968	1135.65
934.561	1150.21
935.154	1155.92
935.747	1124.39
936.341	1186.14
936.934	1174.49
937.527	1157.3
938.12	1182.18
938.713	1178.68
939.308	1198.1
939.901	1190.39
940.494	1174.81
941.087	1219.69
941.68	1188.02
942.273	1209.9
942.865	1201.07
943.458	1202.53
944.051	1223.48
944.643	1248.68
945.236	1247.2
945.829	1200.45
946.419	1202.81
947.012	1229.1
947.604	1243.52
948.196	1242.39
948.789	1234.69
949.381	1235.67
949.974	1225.57
950.566	1254.29
951.158	1238.59
951.75	1251.71
952.34	1217.61
952.933	1253.54
953.525	1269.55
954.117	1240.68
954.709	1229.36
955.299	1254.68
955.891	1268.84
956.482	1249.73
957.074	1278.39
957.666	1250.21
958.256	1250.53
958.848	1225.19
959.439	1257.48
960.029	1263.01
960.621	1218.32
961.212	1252.96
961.804	1241.6
962.393	1226.79
962.985	1253.61
963.576	1254.8
964.165	1256.62
964.757	1229.19
965.346	1251.57
965.937	1251.28
966.529	1233.62
967.118	1243.75
967.709	1232.58
968.298	1244.61
968.889	1243.04
969.48	1233.95
970.069	1230.64
970.66	1228.02
971.249	1221.98
971.84	1229.69
972.429	1222.03
973.02	1242.4
973.608	1220.2
974.199	1217.31
974.788	1217.36
975.379	1214.48
975.967	1198.61
976.556	1200.69
977.146	1182.51
977.735	1214.72
978.325	1179.71
978.914	1192.35
979.502	1211.64
980.092	1183.56
980.681	1171.1
981.271	1184.39
981.859	1143.56
982.447	1150.36
983.037	1169.55
983.626	1154.29
984.214	1139.63
984.804	1107.23
985.392	1116.3
985.98	1151.34
986.568	1119.06
987.158	1114.05
987.745	1119.7
988.333	1142.19
988.921	1111
989.511	1117.68
990.098	1130.59
990.686	1097.16
991.274	1110.03
991.861	1092.84
992.449	1120.71
993.038	1071.65
993.626	1083.28
994.213	1104.75
994.8	1068.95
995.388	1083.4
995.975	1075.23
996.562	1038.06
997.15	1085.36
997.739	1034.36
998.326	1019.64
998.913	1054.15
999.5	1032.29
1000.09	1034.65
1000.67	1021.91
1001.26	1050.31
1001.85	1036.75
1002.44	1008.16
1003.02	1012.9
1003.61	984.806
1004.2	970.921
1004.78	997.698
1005.37	973.285
1005.96	960.304
1006.54	985.472
1007.13	959.697
1007.71	951.907
1008.3	962.622
1008.89	949.722
1009.47	925.206
1010.06	970.162
1010.65	951.592
1011.23	919.03
1011.82	930.037
1012.4	926.986
1012.99	933.952
1013.57	927.194
1014.16	917.069
1014.74	882.692
1015.33	898.897
1015.92	895.675
1016.5	902.268
1017.09	889.061
1017.67	879.486
1018.26	870.354
1018.84	861.675
1019.43	862.58
1020.01	833
1020.6	854.651
1021.18	858.308
1021.77	846.249
1022.35	859.019
1022.94	817.551
1023.52	814.479
1024.11	839.813
1024.69	816.809
1025.28	787.872
1025.86	814.185
1026.45	803.55
1027.03	787.334
1027.62	789.363
1028.2	770.232
1028.78	781.247
1029.37	746.218
1029.95	779.029
1030.54	745.507
1031.12	757.233
1031.71	749.916
1032.29	761.296
1032.87	739.947
1033.46	730.762
1034.04	745.139
1034.62	712.66
1035.21	707.441
1035.79	757.557
1036.37	705.914
1036.96	686.908
1037.54	697.242
1038.13	685.157
1038.71	673.778
1039.29	686.437
1039.88	709.25
1040.46	655.363
1041.04	688.494
1041.62	659.05
1042.21	669.45
1042.79	645.456
1043.37	665.407
1043.96	627.121
1044.54	644.76
1045.12	633.257
1045.7	611.839
1046.29	607.44
1046.87	580.784
1047.45	616.156
1048.03	608.066
1048.62	602.136
1049.2	598.356
1049.78	601.827
1050.36	604.787
1050.95	584.591
1051.53	579.184
1052.11	588.196
1052.69	592.558
1053.27	582.435
1053.85	557.058
1054.43	573.773
1055.02	573.023
1055.6	546.725
1056.18	538.038
1056.76	534.221
1057.34	543.996
1057.93	545.777
1058.51	528.228
1059.09	522.171
1059.67	526.596
1060.25	548.826
1060.83	516.482
1061.41	557.336
1061.99	511.975
1062.57	526.776
1063.16	504.055
1063.73	482.196
1064.31	495.951
1064.9	490.943
1065.48	509.88
1066.06	461.45
1066.64	494.812
1067.22	486.408
1067.8	476.311
1068.38	473.254
1068.96	470.468
1069.54	458.206
1070.12	447.291
1070.7	465.528
1071.28	473.701
1071.86	463.298
1072.44	432.947
1073.02	429.101
1073.6	415.711
1074.18	435.139
1074.76	423.148
1075.34	404.708
1075.92	427.505
1076.5	419.999
1077.08	417.606
1077.46	390.606
1078.04	426.606
1078.63	438.606
1079.22	412.606
1079.81	399.606
1080.39	403.606
1080.98	400.606
1081.57	397.606
1082.15	379.606
1082.74	397.606
1083.33	373.606
1083.92	396.606
1084.5	359.606
1085.09	351.606
1085.68	383.606
1086.26	374.606
1086.85	345.606
1087.43	368.606
1088.02	361.606
1088.61	352.606
1089.2	341.606
1089.78	353.606
1090.37	364.606
1090.95	330.606
1091.54	325.606
1092.13	342.606
1092.71	359.606
1093.3	353.606
1093.88	335.606
1094.47	327.606
1095.06	339.606
1095.64	315.606
1096.23	311.606
1096.81	321.606
1097.4	337.606
1097.98	308.606
1098.57	299.606
1099.16	309.606
1099.74	286.606
1100.32	317.606
1100.91	323.606
1101.5	317.606
1102.08	305.606
1102.67	286.606
1103.25	291.606
1103.84	288.606
1104.42	298.606
1105.01	280.606
1105.59	261.606
1106.17	272.606
1106.76	273.606
1107.35	288.606
1107.93	274.606
1108.51	273.606
1109.1	254.606
1109.68	272.606
1110.27	249.606
1110.85	263.606
1111.44	279.606
1112.02	275.606
1112.6	275.606
1113.19	278.606
1113.77	261.606
1114.36	275.606
1114.94	238.606
1115.52	253.606
1116.11	258.606
1116.69	244.606
1117.28	239.606
1117.86	246.606
1118.44	255.606
1119.03	246.606
1119.61	241.606
1120.19	229.606
1120.78	235.606
1121.36	224.606
1121.94	213.606
1122.52	223.606
1123.11	236.606
1123.69	212.606
1124.27	229.606
1124.86	234.606
1125.44	240.606
1126.02	229.606
1126.61	214.606
1127.19	207.606
1127.77	212.606
1128.35	211.606
1128.94	177.606
1129.52	216.606
1130.1	196.606
1130.68	204.606
1131.27	192.606
1131.85	180.606
1132.43	192.606
1133.01	214.606
1133.6	189.606
1134.18	196.606
1134.76	183.606
1135.34	200.606
1135.92	197.606
1136.5	188.606
1137.09	180.606
1137.67	202.606
1138.25	185.606
1138.83	183.606
1139.41	193.606
1139.99	183.606
1140.58	172.606
1141.16	170.606
1141.74	167.606
1142.32	180.606
1142.9	174.606
1143.48	172.606
1144.06	173.606
1144.64	171.606
1145.22	161.606
1145.81	166.606
1146.39	161.606
1146.97	162.606
1147.55	154.606
1148.13	152.606
1148.71	148.606
1149.29	171.606
1149.87	161.606
1150.45	155.606
1151.03	153.606
1151.61	162.606
1152.19	142.606
1152.77	150.606
1153.35	152.606
1153.93	152.606
1154.51	129.606
1155.09	150.606
1155.67	156.606
1156.25	151.606
1156.83	155.606
1157.41	140.606
1157.99	138.606
1158.57	148.606
1159.15	127.606
1159.73	141.606
1160.31	145.606
1160.89	135.606
1161.47	134.606
1162.05	120.606
1162.63	133.606
1163.21	147.606
1163.79	123.606
1164.36	138.606
1164.95	129.606
1165.52	125.606
1166.1	119.606
1166.68	126.606
1167.26	132.606
1167.84	135.606
1168.42	120.606
1169	114.606
1169.57	131.606
1170.15	126.606
1170.73	130.606
1171.31	109.606
1171.89	112.606
1172.47	119.606
1173.05	127.606
1173.62	115.606
1174.2	117.606
1174.78	126.606
1175.36	112.606
1175.94	117.606
1176.51	116.606
1177.09	111.606
1177.67	121.606
1178.25	103.606
1178.83	109.606
1179.4	112.606
1179.98	111.606
1180.56	109.606
1181.14	94.6057
1181.71	117.606
1182.29	117.606
1182.87	102.606
1183.44	106.606
1184.02	120.606
1184.6	97.6057
1185.18	101.606
1185.75	107.606
1186.33	84.6057
1186.91	109.606
1187.48	98.6057
1188.06	105.606
1188.64	97.6057
1189.21	93.6057
1189.79	93.6057
1190.37	94.6057
1190.94	107.606
1191.52	93.6057
1192.1	95.6057
1192.67	102.606
1193.25	98.6057
1193.83	104.606
1194.4	93.6057
1194.98	102.606
1195.55	95.6057
1196.13	93.6057
1196.71	96.6057
1197.28	91.6057
1197.86	99.6057
1198.43	102.606
1199.01	77.6057
1199.59	92.6057
1200.16	95.6057
