17.0039	862.448
17.6805	864.448
18.3571	835.448
19.0336	870.448
19.7123	842.448
20.3887	833.448
21.0651	848.448
21.7414	892.448
22.4176	871.448
23.0939	879.448
23.77	880.448
24.4462	891.448
25.1222	923.448
25.7983	926.448
26.4742	989.448
27.1502	1012.45
27.8261	1048.45
28.5019	1072.45
29.1777	1071.45
29.8534	1062.45
30.5291	1083.45
31.2048	1058.45
31.8804	1085.45
32.5559	1091.45
33.2314	1150.45
33.9069	1184.45
34.5823	1215.45
35.2577	1220.45
35.933	1286.45
36.6083	1312.45
37.2835	1414.45
37.9587	1469.45
38.6338	1487.45
39.3066	1498.45
39.9817	1499.45
40.6566	1510.45
41.3316	1511.45
42.0065	1566.45
42.6813	1604.45
43.3539	1630.45
44.0286	1712.45
44.7033	1746.45
45.378	1820.45
46.0526	1843.45
46.7249	1829.45
47.3994	1820.45
48.0739	1930.45
48.7483	1940.45
49.4204	2009.45
50.0947	2102.45
50.769	2131.45
51.4433	2104.45
52.1152	2088.45
52.7893	2173.45
53.4634	2254.45
54.1352	2268.45
54.8092	2216.45
55.4831	2224.45
56.1548	2255.45
56.8286	2337.45
57.5024	2347.45
58.1739	2383.45
58.8477	2424.45
59.5213	2518.45
60.1927	2506.45
60.8663	2611.45
61.5375	2679.45
62.211	2730.45
62.8845	2584.45
63.5556	2560.45
64.2289	2562.45
64.8999	2545.45
65.5732	2587.45
66.2441	2657.45
66.9173	2633.45
67.5881	2687.45
68.2612	2701.45
68.9319	2678.45
69.6049	2749.45
70.2755	2704.45
70.9484	2730.45
71.619	2835.45
72.2918	2885.45
72.9622	2791.45
73.6349	2868.45
74.3053	2833.45
74.9756	2815.45
75.6482	2872.45
76.3184	2894.45
76.9909	2937.45
77.661	2944.45
78.3311	2903.45
79.0034	2900.45
79.6734	2881.45
80.3433	2916.45
81.0155	2897.45
81.6854	2877.45
82.3552	2916.45
83.0272	2937.45
83.6969	3071.45
84.3666	3058.45
85.0385	3030.45
85.7081	2976.45
86.3776	2942.45
87.0471	2935.45
87.7188	2910.45
88.3882	2956.45
89.0575	2941.45
89.7268	2920.45
90.3961	2954.45
91.0676	3031.45
91.7367	2989.45
92.4059	3068.45
93.0749	3053.45
93.7439	3006.45
94.4152	2997.45
95.0841	3029.45
95.753	2980.45
96.4218	3014.45
97.0906	3080.45
97.7594	2989.45
98.4281	3069.45
99.0967	2956.45
99.7676	2980.45
100.436	3048.45
101.105	3040.45
101.773	3068.45
102.442	2983.45
103.11	3043.45
103.778	3037.45
104.447	2948.45
105.115	3060.45
105.783	3007.45
106.451	3118.45
107.119	2966.45
107.787	2992.45
108.455	3120.45
109.123	3104.45
109.791	3017.45
110.459	2980.45
111.127	3019.45
111.795	2942.45
112.462	2933.45
113.13	2968.45
113.795	2940.45
114.463	3075.45
115.13	3013.45
115.798	3016.45
116.465	3000.45
117.133	3050.45
117.8	2961.45
118.467	2944.45
119.132	2933.45
119.8	3009.45
120.467	2972.45
121.134	2885.45
121.801	2987.45
122.466	2973.45
123.133	2930.45
123.8	3002.45
124.467	2968.45
125.133	3059.45
125.798	2955.45
126.465	2916.45
127.131	2879.45
127.796	2933.45
128.462	2925.45
129.129	2841.45
129.796	2965.45
130.46	2920.45
131.126	2961.45
131.793	2967.45
132.457	2903.45
133.123	2909.45
133.789	2864.45
134.453	2834.45
135.119	2941.45
135.783	2935.45
136.449	2886.45
137.115	2845.45
137.779	2856.45
138.445	2901.45
139.108	2854.45
139.774	2921.45
140.438	2880.45
141.104	2838.45
141.769	2840.45
142.433	2841.45
143.098	2858.45
143.762	2838.45
144.427	2830.45
145.09	2801.45
145.756	2870.45
146.419	2828.45
147.084	2755.45
147.747	2843.45
148.41	2870.45
149.075	2841.45
149.738	2858.45
150.403	2819.45
151.066	2794.45
151.731	2817.45
152.394	2787.45
153.056	2760.45
153.721	2865.45
154.384	2834.45
155.046	2811.45
155.711	2793.45
156.374	2788.45
157.036	2821.45
157.701	2781.45
158.363	2670.45
159.025	2772.45
159.69	2787.45
160.352	2720.45
161.014	2692.45
161.676	2760.45
162.34	2758.45
163.002	2774.45
163.664	2743.45
164.326	2720.45
164.99	2699.45
165.652	2760.45
166.314	2705.45
166.975	2711.45
167.637	2736.45
168.301	2700.45
168.962	2694.45
169.624	2641.45
170.285	2682.45
170.947	2665.45
171.608	2689.45
172.272	2728.45
172.933	2686.45
173.594	2691.45
174.255	2686.45
174.917	2647.45
175.578	2705.45
176.239	2639.45
176.9	2709.45
177.561	2718.45
178.222	2684.45
178.882	2612.45
179.543	2668.45
180.204	2580.45
180.865	2626.45
181.526	2632.45
182.186	2642.45
182.847	2603.45
183.507	2632.45
184.168	2647.45
184.828	2637.45
185.489	2647.45
186.149	2612.45
186.809	2631.45
187.47	2629.45
188.13	2677.45
188.79	2662.45
189.45	2606.45
190.11	2617.45
190.768	2603.45
191.428	2559.45
192.088	2616.45
192.748	2551.45
193.408	2628.45
194.068	2540.45
194.728	2565.45
195.385	2525.45
196.045	2565.45
196.705	2602.45
197.364	2550.45
198.021	2569.45
198.681	2519.45
199.34	2569.45
200	2541.45
200.657	2575.45
201.316	2560.45
201.976	2539.45
202.635	2539.45
203.292	2603.45
203.951	2493.45
204.61	2538.45
205.267	2542.45
205.926	2567.45
206.585	2522.45
207.242	2551.45
207.9	2580.45
208.559	2538.45
209.216	2502.45
209.875	2530.45
210.533	2466.45
211.19	2552.45
211.848	2544.45
212.505	2520.45
213.163	2553.45
213.819	2480.45
214.478	2500.45
215.134	2464.45
215.792	2472.45
216.451	2474.45
217.107	2536.45
217.765	2507.45
218.421	2529.45
219.079	2521.45
219.735	2548.45
220.391	2472.45
221.049	2435.45
221.704	2497.45
222.362	2521.45
223.018	2511.45
223.675	2446.45
224.331	2451.45
224.989	2479.45
225.644	2469.45
226.3	2480.45
226.957	2535.45
227.612	2483.45
228.268	2479.45
228.925	2463.45
229.58	2472.45
230.235	2467.45
230.893	2468.45
231.548	2423.45
232.203	2505.45
232.86	2505.45
233.515	2443.45
234.17	2461.45
234.827	2373.45
235.481	2472.45
236.136	2411.45
236.791	2470.45
237.448	2416.45
238.102	2483.45
238.757	2490.45
239.411	2415.45
240.066	2449.45
240.722	2462.45
241.377	2438.45
242.031	2408.45
242.685	2410.45
243.339	2435.45
243.993	2423.45
244.648	2474.45
245.304	2419.45
245.958	2464.45
246.612	2406.45
247.266	2386.45
247.92	2379.45
248.574	2408.45
249.227	2401.45
249.881	2394.45
250.535	2411.45
251.189	2404.45
251.842	2346.45
252.496	2437.45
253.149	2371.45
253.803	2395.45
254.456	2376.45
255.11	2367.45
255.763	2415.45
256.416	2408.45
257.07	2402.45
257.723	2357.45
258.376	2361.45
259.029	2432.45
259.682	2374.45
260.335	2391.45
260.988	2431.45
261.641	2428.45
262.294	2382.45
262.947	2430.45
263.598	2416.45
264.251	2366.45
264.903	2408.45
265.556	2348.45
266.209	2372.45
266.861	2338.45
267.512	2426.45
268.164	2389.45
268.817	2400.45
269.469	2312.45
270.121	2460.45
270.772	2430.45
271.424	2389.45
272.076	2397.45
272.728	2383.45
273.378	2380.45
274.03	2338.45
274.682	2349.45
275.332	2388.45
275.984	2386.45
276.636	2377.45
277.288	2372.45
277.938	2367.45
278.59	2361.45
279.239	2374.45
279.891	2289.45
280.542	2424.45
281.192	2349.45
281.843	2338.45
282.495	2313.45
283.144	2342.45
283.796	2381.45
284.445	2342.45
285.096	2344.45
285.745	2324.45
286.397	2363.45
287.048	2363.45
287.697	2352.45
288.348	2413.45
288.997	2359.45
289.648	2385.45
290.297	2356.45
290.948	2286.45
291.596	2334.45
292.247	2373.45
292.896	2382.45
293.544	2367.45
294.195	2310.45
294.844	2352.45
295.494	2287.45
296.143	2360.45
296.793	2325.45
297.441	2347.45
298.09	2302.45
298.74	2318.45
299.388	2369.45
300.036	2358.45
300.687	2293.45
301.335	2337.45
301.983	2379.45
302.633	2380.45
303.281	2272.45
303.929	2345.45
304.579	2359.45
305.227	2322.45
305.874	2327.45
306.522	2293.45
307.172	2293.45
307.819	2333.45
308.467	2345.45
309.114	2366.45
309.764	2358.45
310.412	2332.45
311.059	2296.45
311.706	2392.45
312.354	2348.45
313.003	2289.45
313.65	2292.45
314.297	2254.45
314.944	2320.45
315.592	2330.45
316.239	2345.45
316.886	2351.45
317.535	2319.45
318.182	2325.45
318.828	2295.45
319.475	2365.45
320.122	2276.45
320.769	2357.45
321.415	2306.45
322.062	2288.45
322.709	2312.45
323.355	2312.45
324.002	2307.45
324.648	2260.45
325.294	2355.45
325.941	2368.45
326.587	2315.45
327.233	2306.45
327.88	2276.45
328.526	2309.45
329.172	2312.45
329.818	2234.45
330.464	2357.45
331.11	2319.45
331.754	2267.45
332.4	2280.45
333.046	2303.45
333.692	2312.45
334.337	2352.45
334.983	2323.45
335.629	2327.45
336.275	2315.45
336.918	2308.45
337.564	2327.45
338.209	2319.45
338.855	2308.45
339.5	2324.45
340.143	2312.45
340.789	2324.45
341.434	2298.45
342.079	2292.45
342.722	2329.45
343.367	2314.45
344.012	2292.45
344.658	2263.45
345.3	2339.45
345.945	2307.45
346.59	2288.45
347.233	2289.45
347.878	2309.45
348.523	2286.45
349.165	2343.45
349.81	2243.45
350.455	2333.45
351.097	2242.45
351.742	2320.45
352.384	2289.45
353.029	2280.45
353.673	2304.45
354.315	2359.45
354.96	2241.45
355.602	2273.45
356.246	2296.45
356.888	2312.45
357.533	2295.45
358.175	2240.45
358.819	2312.45
359.461	2224.45
360.105	2278.45
360.746	2294.45
361.39	2200.45
362.032	2206.45
362.676	2293.45
363.318	2276.45
363.961	2290.45
364.603	2286.45
365.247	2211.45
365.888	2264.45
366.529	2254.45
367.173	2228.45
367.814	2279.45
368.456	2275.45
369.099	2295.45
369.74	2243.45
370.381	2270.45
371.025	2282.45
371.666	2277.45
372.307	2242.45
372.95	2247.45
373.591	2227.45
374.232	2234.45
374.875	2299.45
375.516	2255.45
376.156	2264.45
376.797	2248.45
377.44	2258.45
378.081	2275.45
378.721	2257.45
379.362	2259.45
380.002	2300.45
380.645	2337.45
381.285	2228.45
381.926	2365.45
382.566	2262.45
383.206	2224.45
383.847	2277.45
384.489	2245.45
385.129	2273.45
385.769	2277.45
386.409	2253.45
387.049	2322.45
387.689	2293.45
388.329	2266.45
388.969	2271.45
389.609	2276.45
390.249	2300.45
390.889	2219.45
391.528	2223.45
392.168	2272.45
392.81	2293.45
393.449	2260.45
394.089	2307.45
394.726	2343.45
395.366	2255.45
396.005	2312.45
396.645	2335.45
397.284	2252.45
397.923	2250.45
398.562	2308.45
399.202	2284.45
399.841	2272.45
400.48	2331.45
401.119	2312.45
401.758	2264.45
402.397	2202.45
403.034	2291.45
403.673	2280.45
404.311	2200.45
404.95	2285.45
405.589	2275.45
406.228	2283.45
406.864	2292.45
407.503	2302.45
408.142	2302.45
408.78	2262.45
409.419	2310.45
410.055	2273.45
410.693	2330.45
411.332	2292.45
411.968	2306.45
412.606	2266.45
413.244	2299.45
413.883	2318.45
414.519	2323.45
415.157	2284.45
415.795	2325.45
416.431	2342.45
417.069	2307.45
417.707	2301.45
418.342	2340.45
418.98	2296.45
419.616	2333.45
420.254	2303.45
420.891	2328.45
421.527	2314.45
422.165	2375.45
422.8	2368.45
423.438	2367.45
424.075	2371.45
424.71	2381.45
425.348	2371.45
425.983	2302.45
426.62	2337.45
427.256	2343.45
427.893	2353.45
428.528	2380.45
429.165	2355.45
429.8	2401.45
430.435	2342.45
431.072	2392.45
431.707	2426.45
432.344	2289.45
432.979	2369.45
433.615	2411.45
434.25	2408.45
434.885	2375.45
435.521	2403.45
436.156	2323.45
436.79	2419.45
437.427	2387.45
438.061	2417.45
438.696	2331.45
439.332	2335.45
439.967	2384.45
440.601	2345.45
441.237	2429.45
441.871	2389.45
442.505	2406.45
443.142	2366.45
443.776	2399.45
444.41	2459.45
445.044	2379.45
445.678	2431.45
446.314	2385.45
446.947	2460.45
447.581	2421.45
448.215	2409.45
448.849	2472.45
449.484	2444.45
450.118	2448.45
450.752	2416.95
451.385	2451.14
452.018	2415.62
452.652	2417.99
453.285	2454.77
453.921	2341.21
454.554	2390.69
455.187	2403.28
455.821	2399.4
456.454	2432.67
457.087	2427.88
457.72	2441.37
458.353	2417.17
458.986	2431.34
459.619	2382.66
460.252	2379.77
460.885	2415.25
461.518	2453.5
462.15	2454.82
462.783	2449.14
463.416	2403.87
464.048	2445.49
464.681	2407.26
465.314	2434.43
465.946	2466.5
466.579	2451.34
467.209	2418.18
467.841	2489.37
468.474	2401.88
469.106	2443.21
469.738	2418.45
470.371	2477.46
471.003	2440.36
471.633	2384.55
472.265	2433.25
472.897	2485.74
473.529	2432.97
474.161	2452.69
474.791	2475.2
475.423	2465.73
476.054	2437.96
476.686	2387.73
477.318	2396.39
477.948	2391.91
478.579	2398.73
479.211	2443.86
479.84	2396.06
480.472	2398.22
481.103	2393.68
481.733	2370.31
482.364	2421.88
482.996	2416.48
483.625	2440.54
484.256	2420.77
484.887	2378.82
485.516	2382.29
486.148	2448.86
486.779	2392.58
487.408	2413.83
488.039	2364.82
488.668	2385.02
489.298	2441.86
489.927	2434.36
490.558	2421.71
491.187	2374.86
491.818	2343.63
492.446	2407.38
493.077	2448.41
493.705	2388.83
494.336	2434.59
494.964	2438.36
495.595	2392.78
496.223	2424.82
496.854	2392.35
497.482	2402.74
498.112	2427.03
498.741	2386.58
499.371	2406.47
499.999	2396.7
500.627	2367.44
501.257	2383.6
501.885	2364
502.513	2354.36
503.143	2352.53
503.771	2396.81
504.399	2342.99
505.029	2324.98
505.656	2343.08
506.284	2375.54
506.914	2340.21
507.541	2358.48
508.169	2401.34
508.796	2380.71
509.426	2368.32
510.054	2404.99
510.681	2371.93
511.308	2339.83
511.938	2370.51
512.565	2368.26
513.192	2366.79
513.819	2385.44
514.446	2311.41
515.076	2329.86
515.703	2313.22
516.33	2345.72
516.957	2326.82
517.584	2345.64
518.21	2353.19
518.837	2296.4
519.464	2264.17
520.093	2269.12
520.72	2314.25
521.346	2272.43
521.973	2324.11
522.6	2300.88
523.226	2306.51
523.853	2322.02
524.479	2309.87
525.105	2262.74
525.732	2325.98
526.358	2288.01
526.984	2237.34
527.611	2214.99
528.237	2252.37
528.863	2237.03
529.489	2256.8
530.115	2220.03
530.741	2292.05
531.365	2232.29
531.991	2233.64
532.617	2249.6
533.243	2241.52
533.869	2227.46
534.495	2214.54
535.12	2182.03
535.746	2246.27
536.369	2238.91
536.995	2215.49
537.621	2202.69
538.246	2232.86
538.872	2171.22
539.495	2176.79
540.12	2187.25
540.746	2172.99
541.371	2211.05
541.994	2185.96
542.62	2163.49
543.245	2145.32
543.87	2153.23
544.493	2160.67
545.118	2173.35
545.743	2152.47
546.366	2159.29
546.991	2148.03
547.616	2077.17
548.238	2109.26
548.863	2100.17
549.488	2146.28
550.111	2085.69
550.735	2097.71
551.36	2111.6
551.982	2092.14
552.607	2059.54
553.229	2068.54
553.854	2069
554.476	2091
555.101	2090.56
555.723	2025.35
556.347	2055.4
556.969	2078.13
557.594	2071.06
558.216	2053.19
558.84	2059.09
559.462	2058.67
560.086	2080.75
560.708	2036.95
561.332	2030.11
561.954	2026.32
562.578	2073.05
563.199	1995.67
563.821	2044.16
564.445	2047.54
565.066	2021.19
565.69	2042.9
566.312	2038.53
566.933	1983.33
567.557	2026.61
568.178	1991.33
568.799	2046.73
569.423	1991.49
570.044	1981.8
570.665	2006.72
571.289	2009.05
571.91	1979.75
572.531	2001.89
573.152	1995.51
573.775	2019.63
574.396	2014.45
575.017	1985.78
575.638	2031.9
576.261	1979.19
576.882	1988.58
577.503	2011.34
578.123	1968.62
578.744	2005.65
579.365	1970.89
579.987	1954.57
580.608	1946.37
581.229	1981.37
581.849	1980.52
582.47	1955.4
583.09	1967.51
583.71	1982.19
584.331	1936.23
584.951	1928.55
585.571	1939.89
586.194	1948.44
586.814	1926.16
587.434	1967.52
588.054	1911.1
588.674	1933.97
589.294	1946.39
589.914	1931.1
590.534	1927.6
591.154	1873.45
591.774	1934.44
592.391	1879.85
593.011	1889.83
593.631	1853.57
594.25	1878.96
594.87	1880.14
595.49	1876.27
596.109	1835.62
596.729	1840.23
597.348	1815.66
597.967	1836.98
598.585	1819.99
599.204	1827.54
599.823	1824.38
600.443	1799.97
601.062	1830.89
601.681	1794.26
602.298	1795.13
602.917	1782.44
603.536	1759.3
604.155	1781.58
604.772	1734.85
605.391	1749.22
606.01	1754.32
606.629	1741.44
607.245	1734.4
607.864	1726.42
608.483	1686.72
609.099	1701.72
609.718	1710.12
610.337	1724.05
610.953	1713.93
611.572	1671.25
612.19	1700.88
612.806	1671.55
613.425	1672.61
614.043	1639.35
614.659	1634.19
615.278	1636.33
615.894	1612.99
616.512	1630.92
617.128	1641.96
617.746	1584.47
618.364	1613.48
618.98	1587.06
619.598	1573.78
620.214	1596.79
620.832	1590.74
621.448	1526.75
622.065	1569.2
622.681	1575.16
623.297	1520.02
623.914	1573.63
624.53	1595.07
625.148	1529.84
625.763	1539.54
626.381	1513.61
626.996	1521.17
627.611	1508.13
628.229	1480.28
628.844	1445.52
629.459	1498.56
630.076	1418.15
630.692	1434.98
631.307	1447.23
631.924	1407.3
632.539	1447.74
633.154	1358.78
633.771	1426.73
634.386	1416.59
635.001	1430.35
635.615	1416.73
636.232	1407.45
636.847	1377.33
637.462	1408.18
638.076	1386.11
638.693	1370.3
639.308	1326.37
639.922	1356.22
640.537	1319.93
641.151	1320.83
641.768	1366.79
642.382	1343.58
642.996	1333.11
643.611	1305.8
644.225	1295.96
644.839	1298.88
645.453	1289.12
646.067	1277.3
646.681	1264.93
647.295	1266.32
647.912	1212.7
648.526	1245.34
649.139	1231.05
649.753	1225.23
650.367	1245.88
650.981	1246.43
651.595	1248.34
652.208	1273
652.822	1205.34
653.436	1200.7
654.049	1211.57
654.663	1226.68
655.274	1234.54
655.888	1174.55
655.961	1198.55
656.581	1214.55
657.201	1196.55
657.823	1167.55
658.442	1187.55
659.064	1181.55
659.684	1192.55
660.306	1188.55
660.925	1148.55
661.547	1145.55
662.166	1167.55
662.786	1174.55
663.408	1173.55
664.027	1170.55
664.646	1191.55
665.268	1156.55
665.887	1150.55
666.506	1108.55
667.128	1105.55
667.747	1155.55
668.366	1096.55
668.987	1108.55
669.606	1116.55
670.225	1141.55
670.844	1108.55
671.465	1127.55
672.084	1100.55
672.703	1118.55
673.322	1104.55
673.942	1101.55
674.561	1102.55
675.18	1059.55
675.798	1072.55
676.417	1040.55
677.038	1107.55
677.656	1078.55
678.275	1060.55
678.893	1062.55
679.511	1065.55
680.13	1069.55
680.75	1064.55
681.368	1075.55
681.987	1060.55
682.605	1053.55
683.223	1057.55
683.841	1051.55
684.459	1045.55
685.077	1043.55
685.695	1028.55
686.313	1021.55
686.931	1044.55
687.549	1037.55
688.166	1016.55
688.784	1031.55
689.402	1031.55
690.02	1024.55
690.637	995.552
691.255	1011.55
691.872	1003.55
692.49	994.552
693.107	1006.55
693.725	1021.55
694.342	1025.55
694.96	1002.55
695.577	972.552
696.192	1000.55
696.809	977.552
697.426	1025.55
698.044	960.552
698.661	1007.55
699.278	986.552
699.895	989.552
700.51	992.552
701.127	963.552
701.744	989.552
702.36	951.552
702.977	923.552
703.592	961.552
704.209	959.552
704.825	976.552
705.442	957.552
706.056	950.552
706.673	941.552
707.29	949.552
707.906	918.552
708.52	937.552
709.137	952.552
709.753	946.552
710.367	940.552
710.984	931.552
711.6	929.552
712.214	931.552
712.83	948.552
713.444	930.552
714.06	934.552
714.676	937.552
715.29	928.552
715.906	879.552
716.52	909.552
717.136	903.552
717.752	906.552
718.365	918.552
718.981	923.552
719.595	901.552
720.21	924.552
720.824	920.552
721.44	910.552
722.053	898.552
722.669	903.552
723.282	883.552
723.897	900.552
724.511	872.552
725.126	888.552
725.739	886.552
726.352	916.552
726.968	900.552
727.581	872.552
728.196	866.552
728.809	872.552
729.422	872.552
730.037	912.552
730.65	858.552
731.265	878.552
731.877	835.552
732.49	844.552
733.105	882.552
733.718	867.552
734.33	851.552
734.943	848.552
735.558	887.552
736.17	860.552
736.783	880.552
737.397	846.552
738.01	845.552
738.622	829.552
739.234	848.552
739.846	803.552
740.461	817.552
741.073	852.552
741.685	868.552
742.297	845.552
742.909	831.552
743.523	821.552
744.135	850.552
744.747	810.552
745.359	831.552
745.971	816.552
746.583	845.552
747.195	827.552
747.807	827.552
748.42	806.552
749.032	834.552
749.644	827.552
750.255	813.552
750.867	812.552
751.478	810.552
752.09	819.552
752.701	803.552
753.313	833.552
753.924	811.552
754.535	827.552
755.146	791.552
755.758	776.552
756.369	799.552
756.98	803.552
757.591	781.552
758.202	794.552
758.813	786.552
759.424	784.552
760.033	758.552
760.644	773.552
761.255	794.552
761.866	803.552
762.476	785.552
763.087	787.552
763.698	792.552
764.309	788.552
764.917	741.552
765.528	751.552
766.138	767.552
766.749	776.552
767.359	770.552
767.967	782.552
768.578	747.552
769.188	772.552
769.798	733.552
770.409	738.552
771.017	742.552
771.627	761.552
772.237	754.552
772.845	736.552
773.455	733.552
774.065	749.552
774.673	714.552
775.283	736.552
775.893	742.552
776.501	715.552
777.111	730.552
777.72	730.552
778.328	731.552
778.938	729.552
779.547	711.552
780.155	707.552
780.764	716.552
781.372	717.552
781.981	696.552
782.589	724.552
783.198	729.552
783.807	666.552
784.415	680.552
785.024	715.552
785.631	699.552
786.24	701.552
786.848	689.552
787.457	695.552
788.064	688.552
788.673	700.552
789.28	681.552
789.886	672.552
790.495	664.552
791.102	625.552
791.711	644.552
792.318	650.552
792.927	688.552
793.533	672.552
794.14	656.552
794.749	645.552
795.355	650.552
795.962	625.552
796.57	615.552
797.176	654.552
797.783	644.552
798.391	640.552
798.998	628.552
799.604	596.552
800.212	630.552
800.818	618.552
801.424	602.552
802.03	616.552
802.639	616.552
803.245	629.552
803.851	585.552
804.457	608.552
805.062	594.552
805.67	588.552
806.276	588.552
806.882	615.552
807.488	590.552
808.093	596.552
808.699	555.552
809.307	579.552
809.912	556.552
810.518	577.552
811.123	561.552
811.729	572.552
812.334	556.552
812.94	547.552
813.545	552.552
814.15	537.552
814.755	526.552
815.361	556.552
815.968	525.552
816.573	526.552
817.178	520.552
817.783	503.552
818.388	528.552
818.993	517.552
819.598	509.552
820.201	510.552
820.806	494.552
821.411	502.552
822.015	487.552
822.62	480.552
823.225	495.552
823.83	484.552
824.434	480.552
825.039	472.552
825.643	459.552
826.248	475.552
826.85	457.552
827.455	462.552
828.059	466.552
828.663	438.552
829.268	440.552
829.872	451.552
830.474	449.552
831.078	421.552
831.682	447.552
832.286	452.552
832.891	442.552
833.492	434.552
834.096	435.552
834.7	424.552
835.304	435.552
835.906	450.552
836.51	428.552
837.114	424.552
837.715	442.552
838.319	410.552
838.923	422.552
839.524	419.552
840.128	408.552
840.732	407.552
841.333	413.552
841.936	428.552
842.538	421.552
843.141	426.552
843.745	418.552
844.346	421.552
844.949	399.552
845.55	420.552
846.153	438.552
846.754	441.552
847.358	415.552
847.961	406.552
848.562	404.552
849.165	418.552
849.766	406.552
850.368	392.552
850.969	408.552
851.57	404.552
852.173	404.552
852.773	396.552
853.376	425.552
853.977	412.552
854.58	408.552
855.18	396.552
855.781	410.552
856.383	401.552
856.984	405.552
857.586	408.552
858.186	403.552
858.787	399.552
859.389	408.552
859.989	412.552
860.589	427.552
861.192	397.552
861.792	392.552
862.392	416.552
862.992	423.552
863.594	402.552
864.194	407.552
864.794	409.552
865.393	426.552
865.995	407.552
866.595	416.552
867.195	412.552
867.795	436.552
868.396	444.552
868.996	416.552
869.596	436.552
870.195	426.552
870.795	436.552
871.394	444.552
871.996	442.552
872.595	433.552
873.195	431.552
873.794	419.552
874.393	428.552
874.992	431.552
875.592	457.552
876.191	452.552
876.79	434.552
877.389	437.552
877.988	445.552
878.587	456.552
879.186	449.552
879.785	461.552
880.384	462.552
880.983	465.552
881.581	443.552
882.18	444.552
882.779	461.552
883.378	472.552
883.976	453.552
884.575	449.552
885.174	496.552
885.772	476.552
886.371	465.552
886.969	470.552
887.567	488.552
888.164	481.552
888.762	478.552
889.36	501.552
889.959	487.552
890.557	506.552
891.155	514.552
891.753	487.552
892.349	480.552
892.947	483.671
893.545	482.803
894.143	515.614
894.739	509.739
895.337	498.852
895.935	514.343
896.533	505.926
897.129	520.214
897.726	531.738
898.324	524.04
898.922	501.75
899.517	544.938
900.115	530.118
900.713	544.803
901.308	512.333
901.906	552.21
902.501	556.126
903.098	546.336
903.696	559.393
904.291	556.665
904.888	565.505
905.486	584.1
906.081	580.606
906.678	562.733
907.273	594.378
907.87	573.247
908.465	577.187
909.062	564.919
909.657	587.466
910.254	595.042
910.849	592.572
911.446	607.763
912.041	596.588
912.637	590.026
913.232	619.364
913.829	591.619
914.423	625.683
915.02	617.367
915.615	608.965
916.209	607.466
916.806	619.626
917.4	657.393
917.996	622.182
918.591	622.462
919.185	633.545
919.781	650.899
920.376	645.716
920.97	646.016
921.566	647.424
922.16	651.577
922.754	661.676
923.35	645.45
923.944	670.835
924.538	655.764
925.132	641.817
925.728	654.26
926.322	699.89
926.916	680.045
927.51	659.689
928.105	686.478
928.699	702.546
929.293	707.992
929.886	700.965
930.48	689.226
931.076	691.985
931.669	663.834
932.263	699.799
932.856	687.199
933.449	669.955
934.043	711.536
934.636	702.325
935.229	722.452
935.825	714.548
936.418	740.951
937.011	729.173
937.604	728.259
938.197	719.886
938.79	732.89
939.383	741.512
939.976	723.325
940.569	737.432
941.162	745.842
941.755	749.049
942.348	759.367
942.94	728.682
943.533	741.057
944.126	765.579
944.719	767.924
945.311	755.732
945.902	780.413
946.494	769.708
947.087	781.289
947.679	777.259
948.272	774.21
948.864	755.435
949.456	772.586
950.049	796.566
950.639	783.801
951.231	791.338
951.823	767.57
952.415	791.818
953.008	802.878
953.6	774.997
954.19	787.655
954.782	794.391
955.374	801
955.966	797.432
956.555	764.509
957.147	789.023
957.739	806.629
958.329	788.751
958.921	793.262
959.512	808.256
960.104	808.228
960.693	822.873
961.285	813.276
961.877	810.136
962.466	821.327
963.058	803.151
963.647	798.682
964.238	818.389
964.83	801.701
965.419	827.123
966.01	811.49
966.599	838.315
967.191	823.77
967.78	831.866
968.371	841.73
968.962	821.868
969.551	829.624
970.142	832.727
970.731	848.846
971.322	827.932
971.911	843.439
972.502	844.62
973.09	842.817
973.679	829.812
974.27	851.421
974.859	846.762
975.449	836.609
976.038	874.81
976.628	856.588
977.217	862.89
977.805	864.548
978.396	849.768
978.984	840.491
979.573	834.6
980.163	841.703
980.751	859.263
981.34	879.254
981.93	844.167
982.518	875.328
983.106	843.777
983.696	864.219
984.284	837.106
984.872	851.787
985.46	858.703
986.05	857.315
986.638	895.463
987.226	840.687
987.814	838.309
988.404	859.153
988.992	877.553
989.579	859.74
990.167	888.019
990.755	864.203
991.342	871.851
991.932	856.823
992.519	865.226
993.107	852.047
993.694	865.96
994.282	848.592
994.869	857.76
995.456	882.218
996.044	866.017
996.631	870.6
997.218	874.435
997.805	875.943
998.392	868.244
998.98	862.164
999.567	859.619
1000.15	883.57
1000.74	851.245
1001.33	866.402
1001.91	853.965
1002.5	846.695
1003.09	875.263
1003.68	824.471
1004.26	848.6
1004.85	838.286
1005.44	854.668
1006.02	886.304
1006.61	893.046
1007.2	832.632
1007.78	874.587
1008.37	836.408
1008.95	843.321
1009.54	852.326
1010.13	837.377
1010.71	874.851
1011.3	861.383
1011.88	851.907
1012.47	856.04
1013.05	837.538
1013.64	837.173
1014.23	842.024
1014.81	856.242
1015.4	853.305
1015.98	852.517
1016.57	838.79
1017.15	856.889
1017.74	834.393
1018.33	824.371
1018.91	828.812
1019.49	847.669
1020.08	840.139
1020.66	849.055
1021.25	821.508
1021.84	815.937
1022.42	831.369
1023	837.99
1023.59	819.808
1024.17	817.944
1024.76	837.431
1025.34	824.424
1025.93	809.395
1026.51	831.427
1027.1	825.02
1027.68	815.596
1028.26	816.146
1028.85	821.803
1029.43	805.413
1030.02	804.292
1030.6	788.816
1031.18	823.779
1031.77	802.182
1032.35	806.197
1032.94	798.261
1033.52	792.408
1034.1	814.916
1034.69	800.988
1035.27	815.246
1035.86	815.081
1036.44	789.232
1037.02	800.333
1037.61	803.863
1038.19	790.82
1038.77	798.432
1039.35	794.293
1039.94	789.77
1040.52	797.479
1041.1	789.655
1041.69	775.522
1042.27	790.357
1042.85	784.449
1043.44	784.379
1044.02	775.331
1044.6	796.08
1045.18	778.879
1045.77	770.952
1046.35	793.685
1046.93	787.777
1047.51	754.484
1048.09	765.42
1048.68	758.163
1049.26	773.076
1049.84	788.779
1050.42	760.058
1051	740.697
1051.59	746.819
1052.17	767.143
1052.75	760.494
1053.33	718.139
1053.92	728.627
1054.5	745.468
1055.08	734.766
1055.66	750.852
1056.24	734.285
1056.82	703.73
1057.4	749.235
1057.98	747.21
1058.57	728.812
1059.15	729.696
1059.73	715.017
1060.31	741.809
1060.89	712.803
1061.47	705.609
1062.05	728.76
1062.63	705.232
1063.21	731.808
1063.79	715.868
1064.37	735.915
1064.96	725.448
1065.54	682.976
1066.12	724.255
1066.7	721.305
1067.28	721.933
1067.86	693.947
1068.44	704.7
1069.02	698.963
1069.6	687.313
1070.18	680.39
1070.76	693.936
1071.34	687.928
1071.92	681.814
1072.5	662.525
1073.08	696.526
1073.66	697.886
1074.11	669.886
1074.7	695.886
1075.29	712.886
1075.88	668.886
1076.47	682.886
1077.05	657.886
1077.64	651.886
1078.23	662.886
1078.82	705.886
1079.4	672.886
1079.99	675.886
1080.58	643.886
1081.16	660.886
1081.75	668.886
1082.34	643.886
1082.93	649.886
1083.51	613.886
1084.1	658.886
1084.68	630.886
1085.27	652.886
1085.86	646.886
1086.44	669.886
1087.03	635.886
1087.62	652.886
1088.2	645.886
1088.79	611.886
1089.38	629.886
1089.96	661.886
1090.55	629.886
1091.14	624.886
1091.72	646.886
1092.31	645.886
1092.89	638.886
1093.48	599.886
1094.06	611.886
1094.65	628.886
1095.24	615.886
1095.82	628.886
1096.41	626.886
1096.99	634.886
1097.58	614.886
1098.16	602.886
1098.75	575.886
1099.34	614.886
1099.92	600.886
1100.51	561.886
1101.09	554.886
1101.68	597.886
1102.26	600.886
1102.85	565.886
1103.43	581.886
1104.02	595.886
1104.6	593.886
1105.19	582.886
1105.77	576.886
1106.35	608.886
1106.94	577.886
1107.52	596.886
1108.11	582.886
1108.69	550.886
1109.28	562.886
1109.86	570.886
1110.44	557.886
1111.03	567.886
1111.61	585.886
1112.2	535.886
1112.78	559.886
1113.37	549.886
1113.95	551.886
1114.53	545.886
1115.12	516.886
1115.7	521.886
1116.28	545.886
1116.87	520.886
1117.45	546.886
1118.04	534.886
1118.62	550.886
1119.2	516.886
1119.79	512.886
1120.37	540.886
1120.95	522.886
1121.54	514.886
1122.12	532.886
1122.7	542.886
1123.28	522.886
1123.87	491.886
1124.45	508.886
1125.03	502.886
1125.62	488.886
1126.2	496.886
1126.78	501.886
1127.36	506.886
1127.95	497.886
1128.53	504.886
1129.11	498.886
1129.69	482.886
1130.28	499.886
1130.86	468.886
1131.44	492.886
1132.02	473.886
1132.6	498.886
1133.19	454.886
1133.77	466.886
1134.35	455.886
1134.93	487.886
1135.52	459.886
1136.1	464.886
1136.68	476.886
1137.26	460.886
1137.84	463.886
1138.42	472.886
1139	443.886
1139.59	452.886
1140.17	445.886
1140.75	446.886
1141.33	458.886
1141.91	474.886
1142.49	433.886
1143.07	438.886
1143.65	434.886
1144.23	443.886
1144.82	418.886
1145.4	422.886
1145.98	441.886
1146.56	437.886
1147.14	438.886
1147.72	406.886
1148.3	419.886
1148.88	408.886
1149.46	438.886
1150.04	408.886
1150.62	412.886
1151.2	419.886
1151.78	425.886
1152.36	394.886
1152.94	396.886
1153.52	401.886
1154.1	404.886
1154.68	391.886
1155.26	400.886
1155.84	417.886
1156.42	389.886
1157	394.886
1157.58	370.886
1158.16	395.886
1158.74	390.886
1159.32	384.886
1159.9	373.886
1160.48	394.886
1161.06	371.886
1161.64	373.886
1162.22	372.886
1162.8	381.886
1163.38	373.886
1163.95	350.886
1164.53	367.886
1165.11	374.886
1165.69	355.886
1166.27	344.886
1166.85	371.886
1167.43	337.886
1168.01	327.886
1168.59	360.886
1169.16	333.886
1169.74	359.886
1170.32	346.886
1170.9	342.886
1171.48	333.886
1172.05	335.886
1172.63	345.886
1173.21	320.886
1173.79	333.886
1174.37	348.886
1174.95	332.886
1175.52	324.886
1176.1	323.886
1176.68	336.886
1177.26	324.886
1177.83	308.886
1178.41	311.886
1178.99	319.886
1179.57	314.886
1180.15	308.886
1180.72	299.886
1181.3	317.886
1181.88	332.886
1182.46	290.886
1183.03	318.886
1183.61	310.886
1184.19	308.886
1184.76	295.886
1185.34	281.886
1185.92	297.886
1186.49	302.886
1187.07	288.886
1187.65	287.886
1188.22	285.886
1188.8	299.886
1189.38	276.886
1189.95	268.886
1190.53	288.886
1191.11	278.886
1191.68	268.886
1192.26	260.886
1192.84	273.886
1193.41	283.886
1193.99	272.886
1194.56	252.886
1195.14	271.886
1195.72	269.886
1196.29	266.886
1196.87	246.886
1197.44	247.886
1198.02	264.886
1198.6	239.886
1199.17	244.886
1199.75	250.886
1200.32	240.886
1200.9	242.886
1201.47	229.886
1202.05	256.886
1202.62	252.886
1203.2	227.886
1203.77	220.886
1204.35	227.886
1204.92	238.886
1205.5	218.886
1206.07	213.886
1206.65	217.886
1207.22	221.886
1207.8	214.886
1208.37	200.886
1208.95	205.886
1209.52	218.886
1210.1	223.886
1210.67	204.886
1211.25	212.886
1211.82	215.886
1212.4	196.886
1212.97	208.886
1213.54	198.886
1214.12	202.886
1214.69	183.886
1215.27	199.886
1215.84	206.886
1216.41	208.886
1216.99	199.886
1217.56	169.886
1218.14	200.886
1218.71	192.886
1219.28	194.886
1219.86	187.886
1220.43	178.886
1221	205.886
1221.58	184.886
1222.15	177.886
1222.72	184.886
1223.3	183.886
1223.87	181.886
1224.44	161.886
1225.02	173.886
1225.59	186.886
1226.16	167.886
1226.74	168.886
1227.31	183.886
1227.88	173.886
1228.45	185.886
1229.03	173.886
1229.6	157.886
1230.17	186.886
1230.74	169.886
1231.32	155.886
1231.89	182.886
1232.46	193.886
1233.04	154.886
1233.61	160.886
1234.18	168.886
1234.75	171.886
1235.32	187.886
1235.9	167.886
1236.47	167.886
1237.04	161.886
1237.61	161.886
1238.18	163.886
1238.75	156.886
1239.33	163.886
1239.9	163.886
1240.47	147.886
1241.04	156.886
1241.61	153.886
1242.19	179.886
1242.76	153.886
1243.33	159.886
1243.9	162.886
1244.47	172.886
1245.04	142.886
1245.61	152.886
1246.18	171.886
1246.75	166.886
1247.33	154.886
1247.9	153.886
1248.47	158.886
1249.04	169.886
1249.61	130.886
1250.18	150.886
1250.75	152.886
1251.32	149.886
1251.89	153.886
1252.46	150.886
1253.03	157.886
1253.6	159.886
1254.17	162.886
1254.74	162.886
1255.31	158.886
1255.88	160.886
1256.45	135.886
1257.02	155.886
1257.59	154.886
1258.16	161.886
1258.73	135.886
1259.3	156.886
1259.87	152.886
1260.44	155.886
1261.01	148.886
1261.58	139.886
1262.15	156.886
1262.72	164.886
1263.29	140.886
1263.86	147.886
1264.43	154.886
1265	156.886
1265.57	139.886
1266.14	148.886
1266.71	147.886
1267.27	152.886
1267.84	135.886
1268.41	138.886
1268.98	146.886
1269.55	161.886
1270.12	153.886
1270.69	146.886
1271.26	143.886
1271.82	158.886
1272.39	141.886
1272.96	144.886
1273.53	145.886
1274.1	153.886
1274.67	148.886
1275.23	131.886
1275.8	149.886
1276.37	145.886
1276.94	135.886
1277.51	141.886
1278.08	148.886
1278.64	154.886
1279.21	130.886
1279.78	139.886
1280.34	140.886
1280.91	162.886
1281.48	154.886
1282.05	142.886
1282.62	141.886
1283.18	149.886
1283.75	140.886
1284.32	144.886
1284.89	136.886
1285.45	161.886
1286.02	152.886
1286.59	147.886
1287.15	144.886
1287.72	143.886
1288.29	158.886
1288.85	132.886
1289.42	153.886
1289.99	154.886
1290.56	135.886
1291.12	128.886
1291.69	150.886
1292.26	155.886
1292.82	136.886
1293.39	138.886
1293.96	152.886
1294.52	159.886
1295.09	143.886
1295.65	133.886
1296.22	146.886
1296.79	146.886
1297.35	142.886
1297.92	132.886
1298.48	148.886
1299.05	140.886
1299.62	148.886
1300.18	145.886
