17.0039	1332.14
17.6719	1355.14
18.3528	1356.14
19.0272	1341.14
19.708	1424.14
20.3825	1462.14
21.0569	1503.14
21.7377	1614.14
22.4122	1582.14
23.0866	1581.14
23.761	1681.14
24.4419	1805.14
25.1163	1785.14
25.7907	1893.14
26.4651	2000.14
27.146	1992.14
27.8204	2167.14
28.4948	2161.14
29.1693	2171.14
29.8501	2264.14
30.5245	2281.14
31.1989	2305.14
31.8734	2369.14
32.5478	2414.14
33.2222	2489.14
33.9031	2460.14
34.5775	2566.14
35.2519	2632.14
35.9263	2694.14
36.6008	2694.14
37.2752	2769.14
37.9496	2871.14
38.6305	2844.14
39.2985	2804.14
39.9729	2765.14
40.6473	2813.14
41.3282	2836.14
42.0026	2767.14
42.677	2869.14
43.345	2894.14
44.0194	2987.14
44.6939	2981.14
45.3747	3060.14
46.0491	3005.14
46.7171	2948.14
47.3916	2885.14
48.066	2972.14
48.7404	3005.14
49.4148	3025.14
50.0892	3003.14
50.7637	3003.14
51.4381	2961.14
52.1061	2931.14
52.7805	2939.14
53.4549	2886.14
54.1294	2935.14
54.8038	2881.14
55.4782	2912.14
56.1462	2818.14
56.8206	2886.14
57.4951	2946.14
58.1695	2911.14
58.8439	2955.14
59.5119	3019.14
60.1863	3050.14
60.8608	3055.14
61.5288	3010.14
62.2032	2854.14
62.8776	2863.14
63.552	2821.14
64.22	2814.14
64.8945	2844.14
65.5689	2875.14
66.2369	2818.14
66.9113	2859.14
67.5793	2790.14
68.2537	2829.14
68.9282	2835.14
69.5962	2744.14
70.2706	2728.14
70.945	2782.14
71.613	2754.14
72.2874	2828.14
72.9554	2835.14
73.6299	2853.14
74.2979	2751.14
74.9723	2727.14
75.6403	2728.14
76.3147	2804.14
76.9827	2870.14
77.6571	2764.14
78.3251	2647.14
78.9996	2735.14
79.6676	2640.14
80.3356	2579.14
81.01	2599.14
81.678	2620.14
82.346	2672.14
83.0204	2682.14
83.6884	2667.14
84.3628	2676.14
85.0308	2614.14
85.6988	2625.14
86.3733	2486.14
87.0413	2542.14
87.7093	2602.14
88.3837	2481.14
89.0517	2479.14
89.7197	2491.14
90.3877	2538.14
91.0621	2573.14
91.7301	2617.14
92.3981	2484.14
93.0661	2553.14
93.7405	2463.14
94.4085	2500.14
95.0765	2487.14
95.7446	2471.14
96.4126	2479.14
97.087	2454.14
97.755	2472.14
98.423	2407.14
99.091	2431.14
99.759	2391.14
100.427	2405.14
101.101	2344.14
101.769	2360.14
102.437	2402.14
103.105	2389.14
103.773	2367.14
104.441	2448.14
105.109	2374.14
105.777	2289.14
106.445	2404.14
107.113	2359.14
107.781	2394.14
108.449	2383.14
109.117	2373.14
109.785	2309.14
110.453	2251.14
111.121	2317.14
111.789	2235.14
112.457	2255.14
113.125	2290.14
113.787	2321.14
114.455	2252.14
115.123	2283.14
115.791	2377.14
116.459	2314.14
117.127	2246.14
117.795	2226.14
118.463	2239.14
119.125	2212.14
119.793	2167.14
120.461	2192.14
121.129	2124.14
121.797	2175.14
122.458	2177.14
123.126	2194.14
123.794	2210.14
124.462	2219.14
125.13	2129.14
125.792	2095.14
126.46	2166.14
127.128	2126.14
127.789	2097.14
128.457	2172.14
129.125	2095.14
129.787	2100.14
130.455	2099.14
131.123	2114.14
131.784	2033.14
132.452	2092.14
133.114	2107.14
133.782	2020.14
134.444	1986.14
135.112	2010.14
135.78	2032.14
136.441	1999.14
137.109	2045.14
137.771	2046.14
138.439	2050.14
139.1	2023.14
139.768	2050.14
140.43	2041.14
141.098	1980.14
141.766	2043.14
142.428	1937.14
143.089	1961.14
143.757	1973.14
144.419	1907.14
145.087	1965.14
145.748	1989.14
146.41	1943.14
147.078	1980.14
147.739	1944.14
148.401	1914.14
149.069	1873.14
149.731	1955.14
150.399	1963.14
151.06	1887.14
151.722	1958.14
152.39	1924.14
153.051	1924.14
153.713	1941.14
154.374	1895.14
155.042	1873.14
155.704	1885.14
156.366	1943.14
157.027	1863.14
157.695	1828.14
158.357	1872.14
159.018	1886.14
159.68	1912.14
160.348	1809.14
161.01	1791.14
161.671	1837.14
162.333	1807.14
162.994	1814.14
163.656	1848.14
164.317	1847.14
164.985	1831.14
165.647	1821.14
166.309	1773.14
166.97	1836.14
167.632	1798.14
168.293	1839.14
168.955	1831.14
169.616	1764.14
170.278	1784.14
170.94	1815.14
171.601	1805.14
172.263	1794.14
172.924	1811.14
173.586	1850.14
174.248	1758.14
174.909	1709.14
175.571	1763.14
176.232	1780.14
176.894	1816.14
177.555	1748.14
178.217	1762.14
178.879	1859.14
179.54	1823.14
180.195	1762.14
180.857	1801.14
181.518	1822.14
182.18	1759.14
182.842	1754.14
183.503	1764.14
184.158	1775.14
184.82	1711.14
185.481	1787.14
186.143	1743.14
186.805	1724.14
187.466	1720.14
188.121	1780.14
188.783	1713.14
189.445	1758.14
190.106	1823.14
190.761	1725.14
191.423	1716.14
192.084	1746.14
192.74	1773.14
193.401	1783.14
194.063	1881.14
194.724	1809.14
195.379	1777.14
196.041	1735.14
196.696	1763.14
197.358	1712.14
198.013	1767.14
198.675	1758.14
199.336	1758.14
199.991	1764.14
200.653	1742.14
201.308	1729.14
201.97	1803.14
202.631	1748.14
203.286	1730.14
203.948	1758.14
204.603	1792.14
205.258	1756.14
205.92	1769.14
206.581	1747.14
207.236	1774.14
207.892	1766.14
208.553	1796.14
209.208	1710.14
209.87	1740.14
210.525	1786.14
211.18	1750.14
211.842	1768.14
212.497	1783.14
213.159	1743.14
213.814	1735.14
214.469	1687.14
215.13	1751.14
215.786	1767.14
216.447	1737.14
217.102	1778.14
217.758	1773.14
218.413	1847.14
219.074	1766.14
219.729	1755.14
220.385	1803.14
221.04	1758.14
221.695	1773.14
222.356	1757.14
223.012	1772.14
223.667	1777.14
224.322	1758.14
224.983	1806.14
225.639	1774.14
226.294	1865.14
226.949	1793.14
227.604	1780.14
228.259	1754.14
228.921	1749.14
229.576	1845.14
230.231	1783.14
230.886	1772.14
231.541	1772.14
232.197	1837.14
232.852	1828.14
233.507	1822.14
234.162	1844.14
234.817	1846.14
235.472	1770.14
236.128	1726.14
236.783	1800.14
237.444	1864.14
238.093	1846.14
238.748	1864.14
239.403	1852.14
240.058	1855.14
240.714	1873.14
241.369	1879.14
242.024	1863.14
242.679	1815.14
243.334	1888.14
243.989	1839.14
244.638	1882.14
245.3	1985.14
245.948	1954.14
246.604	1889.14
247.259	1891.14
247.914	1874.14
248.569	1917.14
249.224	1871.14
249.873	1877.14
250.528	1881.14
251.183	1861.14
251.838	1918.14
252.487	1877.14
253.142	1921.14
253.797	1883.14
254.453	1968.14
255.101	1923.14
255.756	1990.14
256.412	1916.14
257.06	1928.14
257.716	1915.14
258.371	1884.14
259.026	1966.14
259.675	1966.14
260.33	1981.14
260.985	1934.14
261.634	1947.14
262.289	1974.14
262.944	1989.14
263.593	1991.14
264.241	2021.14
264.897	1998.14
265.552	1995.14
266.2	1997.14
266.856	2019.14
267.504	1992.14
268.159	2008.14
268.808	2016.14
269.463	2036.14
270.112	2024.14
270.767	1992.14
271.416	2107.14
272.071	2040.14
272.72	2089.14
273.375	2043.14
274.024	2032.14
274.679	2076.14
275.328	2141.14
275.976	2037.14
276.632	2031.14
277.28	2107.14
277.929	2095.14
278.584	2089.14
279.233	2096.14
279.882	2047.14
280.537	2131.14
281.185	2116.14
281.834	2142.14
282.489	2137.14
283.138	2102.14
283.787	2160.14
284.436	2155.14
285.091	2178.14
285.739	2196.14
286.388	2162.14
287.043	2135.14
287.692	2094.14
288.341	2163.14
288.99	2220.14
289.645	2232.14
290.293	2166.14
290.942	2188.14
291.591	2265.14
292.24	2193.14
292.888	2203.14
293.537	2279.14
294.186	2231.14
294.835	2298.14
295.49	2262.14
296.138	2273.14
296.787	2295.14
297.436	2242.14
298.085	2297.14
298.733	2218.14
299.382	2323.14
300.031	2292.14
300.68	2291.14
301.328	2320.14
301.977	2247.14
302.626	2339.14
303.274	2356.14
303.923	2285.14
304.572	2303.14
305.221	2299.14
305.869	2375.14
306.518	2324.14
307.167	2350.14
307.816	2379.14
308.458	2349.14
309.107	2409.14
309.755	2372.14
310.404	2374.14
311.053	2410.14
311.702	2398.14
312.35	2406.14
312.999	2417.14
313.641	2372.14
314.29	2361.14
314.939	2421.14
315.588	2398.14
316.23	2441.14
316.879	2431.14
317.527	2577.14
318.176	2403.14
318.825	2450.14
319.467	2495.14
320.116	2488.14
320.765	2510.14
321.407	2510.14
322.056	2490.14
322.704	2523.14
323.347	2518.14
323.995	2491.14
324.644	2535.14
325.286	2515.14
325.935	2542.14
326.584	2545.14
327.226	2514.14
327.875	2525.14
328.517	2587.14
329.166	2578.14
329.815	2531.14
330.457	2537.14
331.106	2656.14
331.748	2575.14
332.39	2632.14
333.039	2618.14
333.688	2692.14
334.33	2669.14
334.979	2637.14
335.621	2666.14
336.27	2602.14
336.912	2682.14
337.555	2649.14
338.203	2665.14
338.846	2676.14
339.494	2681.14
340.137	2647.14
340.785	2729.14
341.428	2649.14
342.07	2746.14
342.719	2746.14
343.361	2767.14
344.003	2770.14
344.652	2764.14
345.294	2751.14
345.937	2779.14
346.585	2761.14
347.228	2734.14
347.87	2758.14
348.519	2803.14
349.161	2878.14
349.803	2774.14
350.446	2798.14
351.088	2863.14
351.737	2861.14
352.379	2816.14
353.021	2835.14
353.67	2880.14
354.306	2874.14
354.955	2949.14
355.597	2797.14
356.239	2812.14
356.882	2901.14
357.524	2934.14
358.166	2937.14
358.815	2977.14
359.457	2965.14
360.1	2907.14
360.742	3059.14
361.384	3071.14
362.026	2984.14
362.669	2996.14
363.311	3083.14
363.953	2996.14
364.596	2998.14
365.238	3018.14
365.88	3089.14
366.523	3132.14
367.165	2987.14
367.807	3079.14
368.45	3053.14
369.092	3089.14
369.734	3128.14
370.376	3060.14
371.019	3143.14
371.661	3177.14
372.303	3127.14
372.946	3140.14
373.582	3152.14
374.224	3068.14
374.866	3151.14
375.509	3142.14
376.151	3166.14
376.793	3088.14
377.435	3157.14
378.071	3187.14
378.714	3256.14
379.356	3229.14
379.998	3220.14
380.641	3243.14
381.276	3178.14
381.919	3190.14
382.561	3290.14
383.197	3277.14
383.839	3292.14
384.482	3317.14
385.124	3252.14
385.76	3314.14
386.402	3323.14
387.044	3376.14
387.68	3321.14
388.323	3415.14
388.965	3320.14
389.601	3207.14
390.243	3396.14
390.885	3307.14
391.521	3376.14
392.164	3309.14
392.806	3381.14
393.442	3322.14
394.084	3425.14
394.72	3415.14
395.362	3418.14
395.998	3404.14
396.64	3418.14
397.276	3395.14
397.919	3390.14
398.555	3441.14
399.197	3476.14
399.833	3462.14
400.475	3442.14
401.111	3472.14
401.753	3434.14
402.389	3549.14
403.025	3476.14
403.667	3453.14
404.303	3628.14
404.946	3470.14
405.581	3476.14
406.224	3451.14
406.86	3606.14
407.495	3603.14
408.138	3552.14
408.774	3616.14
409.41	3501.14
410.045	3690.14
410.688	3532.14
411.324	3629.14
411.96	3636.14
412.602	3587.14
413.238	3697.14
413.874	3717.14
414.509	3688.14
415.152	3560.14
415.788	3672.14
416.424	3691.14
417.059	3652.14
417.702	3746.14
418.338	3727.14
418.974	3674.14
419.609	3607.14
420.245	3627.14
420.888	3812.14
421.524	3680.14
422.159	3808.14
422.795	3808.14
423.431	3730.14
424.067	3797.14
424.703	3836.14
425.339	3821.14
425.975	3736.14
426.617	3836.14
427.246	3829.14
427.889	3824.14
428.525	3814.14
429.161	3797.14
429.796	3887.14
430.426	3857.14
431.068	3909.14
431.698	3898.14
432.34	3864.14
432.969	3877.14
433.612	3930.14
434.241	3919.14
434.877	3959.14
435.513	3989.14
436.149	3947.14
436.785	4047.14
437.421	3992.14
438.057	4025.14
438.692	3901.14
439.328	4034.14
439.958	4086.14
440.594	3906.14
441.23	3964.14
441.865	3968.14
442.501	3891.14
443.137	3976.14
443.767	3977.14
444.403	4011.14
445.038	4023.14
445.674	4055.14
446.31	3997.14
446.94	4070.14
447.576	4099.14
448.211	4045.14
448.841	4021.14
449.477	4025.14
450.113	4028.14
450.742	3972.83
451.378	4012.39
452.014	4043.89
452.643	3997.02
453.279	4117.02
453.915	4058.27
454.545	4123.02
455.18	4020.77
455.816	4020.77
456.446	4093.27
457.082	4031.7
457.711	3967.83
458.347	4079.14
458.977	3951.7
459.612	3994.2
460.248	4001.7
460.878	3996.52
461.514	4061.2
462.143	3896.39
462.779	4030.45
463.408	3916.39
464.044	3929.83
464.674	3934.14
465.31	3894.45
465.939	3885.64
466.575	3943.7
467.204	3922.95
467.834	3886.08
468.47	3908.83
469.099	3859.14
469.729	3911.58
470.365	3890.64
470.994	3808.27
471.624	3870.58
472.259	3866.64
472.889	3825.2
473.525	3835.39
474.154	3754.95
474.784	3757.45
475.413	3755.64
476.049	3766.52
476.679	3770.64
477.314	3722.45
477.944	3808.08
478.573	3662.89
479.203	3681.95
479.832	3829.7
480.468	3725.39
481.098	3741.45
481.727	3723.27
482.357	3759.33
482.986	3693.02
483.616	3730.52
484.251	3655.89
484.881	3683.77
485.51	3621.58
486.14	3641.08
486.769	3655.45
487.399	3550.52
488.035	3631.95
488.664	3610.27
489.294	3563.45
489.923	3480.89
490.552	3525.64
491.182	3543.89
491.811	3455.39
492.441	3498.45
493.07	3485.14
493.7	3413.89
494.329	3342.95
494.959	3315.14
495.588	3257.64
496.218	3298.02
496.847	3249.45
497.477	3205.52
498.106	3222.89
498.735	3090.89
499.365	3044.77
499.994	3025.39
500.624	3010.52
501.253	2942.2
501.876	2864.58
502.506	2852.08
503.135	2873.89
503.765	2757.08
504.394	2689.95
505.024	2715.33
505.653	2635.64
506.276	2567.77
506.906	2570.45
507.535	2465.33
508.165	2489.2
508.788	2397.02
509.417	2318.02
510.047	2322.33
510.676	2336.89
511.299	2225.52
511.928	2190.02
512.558	2222.77
513.187	2147.89
513.81	2068.58
514.44	2087.08
515.069	2039.14
515.699	1979.95
516.322	1999.27
516.951	1958.77
517.574	1911.58
518.204	1873.58
518.833	1892.2
519.456	1836.39
520.086	1773.77
520.715	1790.45
521.338	1764.02
521.968	1752.77
522.591	1724.95
523.22	1701.64
523.843	1659.02
524.473	1667.7
525.102	1608.83
525.725	1580.89
526.355	1612.45
526.978	1564.52
527.607	1564.27
528.23	1541.7
528.86	1479.83
529.483	1520.14
530.106	1504.7
530.735	1503.77
531.358	1479.2
531.988	1457.45
532.611	1469.14
533.234	1420.39
533.863	1404.52
534.486	1410.52
535.116	1387.58
535.739	1353.52
536.362	1387.83
536.991	1334.64
537.614	1342.83
538.237	1334.08
538.867	1320.58
539.49	1289.64
540.113	1291.33
540.742	1317.77
541.365	1245.52
541.989	1249.89
542.612	1241.77
543.241	1225.33
543.864	1232.95
544.487	1218.77
545.11	1220.14
545.74	1179.83
546.363	1185.95
546.986	1167.52
547.609	1196.2
548.232	1220.95
548.855	1150.14
549.484	1138.64
550.107	1124.89
550.73	1124.64
551.353	1140.83
551.976	1098.83
552.599	1124.95
553.222	1103.08
553.846	1083.52
554.469	1082.39
555.092	1052.95
555.715	1051.64
556.338	1038.39
556.961	1067.2
557.59	1040.95
558.207	1042.83
558.836	1052.52
559.453	1031.52
560.082	1036.64
560.699	1008.33
561.328	1009.2
561.945	1006.02
562.568	997.703
563.191	971.266
563.814	989.016
564.437	968.641
565.06	973.516
565.683	969.766
566.306	968.391
566.929	952.953
567.552	960.578
568.169	935.266
568.792	932.078
569.415	936.641
570.038	900.828
570.661	904.641
571.284	896.891
571.901	893.578
572.524	888.516
573.147	903.953
573.77	873.578
574.393	877.516
575.01	867.641
575.633	871.828
576.256	876.828
576.872	865.641
577.495	864.891
578.118	859.953
578.735	865.391
579.358	845.203
579.981	841.828
580.604	815.016
581.221	831.578
581.844	844.891
582.46	845.953
583.083	819.953
583.706	807.828
584.323	836.828
584.946	792.578
585.563	815.578
586.186	806.203
586.809	798.078
587.425	802.766
588.048	793.516
588.665	784.641
589.288	779.328
589.905	801.641
590.528	776.141
591.144	799.203
591.767	793.453
592.384	769.516
593.007	785.641
593.624	748.891
594.247	780.516
594.863	781.578
595.48	770.766
596.103	744.453
596.72	776.266
597.343	770.266
597.959	766.891
598.576	768.016
599.199	779.953
599.816	776.516
600.439	770.953
601.055	773.766
601.672	759.453
602.295	734.578
602.911	764.641
603.528	765.266
604.151	751.453
604.768	740.766
605.384	736.891
606.001	723.203
606.624	725.953
607.241	705.453
607.857	741.641
608.474	711.453
609.091	704.578
609.714	693.266
610.33	698.391
610.947	694.016
611.563	658.516
612.186	685.703
612.803	668.203
613.42	689.703
614.036	661.078
614.653	651.328
615.27	671.078
615.886	657.516
616.503	666.016
617.119	649.828
617.742	664.266
618.359	625.641
618.976	639.328
619.592	629.141
620.209	620.266
620.826	630.766
621.442	613.141
622.059	620.328
622.675	626.578
623.292	624.641
623.909	628.328
624.525	607.203
625.142	598.453
625.758	610.453
626.375	596.641
626.992	583.203
627.602	616.078
628.225	587.203
628.835	581.016
629.452	579.391
630.068	581.203
630.685	591.266
631.302	590.391
631.918	569.391
632.535	571.953
633.145	582.016
633.762	575.578
634.378	555.953
634.995	551.078
635.611	562.016
636.228	563.203
636.838	548.578
637.455	557.391
638.071	546.953
638.688	555.891
639.298	516.266
639.915	523.078
640.531	539.641
641.142	540.891
641.758	539.953
642.375	510.828
642.992	519.828
643.602	492.391
644.218	505.453
644.835	523.891
645.445	512.266
646.062	529.266
646.672	487.391
647.289	498.328
647.905	502.953
648.522	488.328
649.132	502.203
649.749	503.391
650.359	490.391
650.975	490.016
651.586	473.141
652.202	511.578
652.819	491.141
653.429	486.703
654.046	507.516
654.656	467.453
655.266	469.141
655.883	470.828
655.953	482.828
656.576	476.828
657.193	501.828
657.816	472.828
658.439	495.828
659.056	488.828
659.679	486.828
660.302	475.828
660.918	492.828
661.541	502.828
662.158	483.828
662.781	472.828
663.404	493.828
664.021	476.828
664.637	488.828
665.26	484.828
665.883	472.828
666.5	485.828
667.123	474.828
667.74	469.828
668.356	495.828
668.979	477.828
669.602	471.828
670.219	462.828
670.836	498.828
671.459	489.828
672.075	501.828
672.698	475.828
673.315	484.828
673.938	485.828
674.555	517.828
675.171	492.828
675.794	485.828
676.411	490.828
677.034	507.828
677.651	488.828
678.267	498.828
678.884	483.828
679.507	486.828
680.123	514.828
680.746	490.828
681.363	484.828
681.98	503.828
682.596	488.828
683.219	494.828
683.836	482.828
684.453	467.828
685.069	489.828
685.686	465.828
686.309	477.828
686.925	480.828
687.542	494.828
688.159	495.828
688.775	496.828
689.398	490.828
690.015	484.828
690.632	470.828
691.248	496.828
691.865	491.828
692.481	499.828
693.098	484.828
693.721	472.828
694.338	483.828
694.954	478.828
695.571	483.828
696.188	477.828
696.804	482.828
697.421	507.828
698.037	499.828
698.654	472.828
699.271	497.828
699.887	479.828
700.504	457.828
701.12	448.828
701.737	485.828
702.354	479.828
702.97	504.828
703.587	476.828
704.204	461.828
704.82	491.828
705.437	476.828
706.047	484.828
706.664	459.828
707.28	469.828
707.897	499.828
708.513	486.828
709.13	485.828
709.747	480.828
710.363	472.828
710.98	479.828
711.597	474.828
712.207	452.828
712.823	468.828
713.44	473.828
714.057	444.828
714.667	450.828
715.283	458.828
715.9	471.828
716.517	470.828
717.127	488.828
717.743	461.828
718.36	461.828
718.977	463.828
719.587	458.828
720.203	460.828
720.82	488.828
721.43	464.828
722.047	460.828
722.664	464.828
723.274	429.828
723.89	454.828
724.507	459.828
725.117	432.828
725.734	462.828
726.344	446.828
726.961	426.828
727.577	447.828
728.187	439.828
728.804	416.828
729.414	453.828
730.031	419.828
730.641	457.828
731.258	418.828
731.874	457.828
732.484	455.828
733.101	455.828
733.711	447.828
734.321	440.828
734.938	452.828
735.548	427.828
736.165	424.828
736.775	435.828
737.392	431.828
738.002	440.828
738.618	461.828
739.229	466.828
739.839	451.828
740.455	460.828
741.066	476.828
741.676	440.828
742.292	465.828
742.903	457.828
743.519	476.828
744.129	462.828
744.74	477.828
745.35	487.828
745.966	463.828
746.577	470.828
747.187	466.828
747.797	485.828
748.414	476.828
749.024	471.828
749.641	486.828
750.251	487.828
750.861	491.828
751.471	487.828
752.081	493.828
752.698	510.828
753.308	508.828
753.918	487.828
754.528	501.828
755.139	510.828
755.749	515.828
756.365	486.828
756.976	508.828
757.586	529.828
758.196	516.828
758.806	538.828
759.416	515.828
760.027	527.828
760.637	522.828
761.247	528.828
761.857	527.828
762.467	543.828
763.084	550.828
763.694	538.828
764.304	535.828
764.908	537.828
765.518	532.828
766.135	544.828
766.745	559.828
767.355	519.828
767.959	542.828
768.569	532.828
769.18	543.828
769.79	550.828
770.4	539.828
771.01	559.828
771.62	544.828
772.23	526.828
772.841	554.828
773.451	552.828
774.061	572.828
774.665	558.828
775.275	541.828
775.885	573.828
776.495	567.828
777.106	558.828
777.716	551.828
778.32	546.828
778.93	580.828
779.54	588.828
780.15	595.828
780.76	570.828
781.364	596.828
781.974	592.828
782.584	576.828
783.195	608.828
783.798	612.828
784.409	614.828
785.019	621.828
785.623	629.828
786.233	614.828
786.843	618.828
787.453	671.828
788.057	620.828
788.667	639.828
789.271	650.828
789.881	652.828
790.491	647.828
791.095	670.828
791.705	681.828
792.309	654.828
792.919	654.828
793.529	661.828
794.133	659.828
794.743	668.828
795.347	679.828
795.957	664.828
796.561	709.828
797.171	698.828
797.775	667.828
798.385	686.828
798.989	672.828
799.599	675.828
800.203	658.828
800.813	717.828
801.417	701.828
802.027	693.828
802.631	701.828
803.241	728.828
803.845	698.828
804.449	714.828
805.059	691.828
805.663	702.828
806.273	715.828
806.877	710.828
807.48	676.828
808.084	707.828
808.694	665.828
809.298	675.828
809.908	680.828
810.512	681.828
811.116	678.828
811.72	636.828
812.33	656.828
812.934	660.828
813.537	668.828
814.141	640.828
814.751	613.828
815.355	653.828
815.959	629.828
816.569	632.828
817.173	618.828
817.777	606.828
818.38	598.828
818.984	620.828
819.594	578.828
820.192	587.828
820.802	598.828
821.406	583.828
822.009	578.828
822.613	555.828
823.217	570.828
823.821	587.828
824.431	558.828
825.035	560.828
825.638	554.828
826.242	558.828
826.846	552.828
827.45	548.828
828.054	531.828
828.657	532.828
829.261	500.828
829.865	509.828
830.469	523.828
831.072	481.828
831.676	513.828
832.28	473.828
832.884	491.828
833.487	475.828
834.091	451.828
834.695	440.828
835.299	467.828
835.903	438.828
836.506	436.828
837.11	437.828
837.707	432.828
838.311	430.828
838.915	400.828
839.519	407.828
840.122	403.828
840.726	379.828
841.324	400.828
841.927	356.828
842.531	398.828
843.135	377.828
843.739	356.828
844.342	369.828
844.94	364.828
845.544	357.828
846.147	330.828
846.751	316.828
847.349	340.828
847.952	312.828
848.556	318.828
849.16	304.828
849.757	321.828
850.361	314.828
850.965	301.828
851.562	291.828
852.166	279.828
852.77	303.828
853.367	280.828
853.971	290.828
854.574	295.828
855.172	298.828
855.776	269.828
856.379	270.828
856.977	265.828
857.58	275.828
858.178	278.828
858.782	269.828
859.385	272.828
859.983	248.828
860.58	261.828
861.184	243.828
861.788	271.828
862.385	274.828
862.982	251.828
863.586	263.828
864.19	261.828
864.787	253.828
865.385	259.828
865.988	259.828
866.592	252.828
867.189	254.828
867.787	249.828
868.391	241.828
868.988	256.828
869.592	252.828
870.189	248.828
870.786	244.828
871.39	241.828
871.987	250.828
872.591	263.828
873.189	248.828
873.786	246.828
874.39	247.828
874.987	259.828
875.584	249.828
876.182	241.828
876.785	272.828
877.383	250.828
877.98	254.828
878.578	248.828
879.181	263.828
879.779	239.828
880.376	260.828
880.973	270.828
881.577	252.828
882.174	254.828
882.772	257.828
883.369	244.828
883.973	256.828
884.57	252.828
885.168	246.828
885.765	259.828
886.362	239.828
886.96	257.828
887.563	252.828
888.154	266.828
888.758	272.828
889.355	265.828
889.953	280.828
890.55	261.828
891.148	261.828
891.745	270.828
892.342	252.828
892.94	263.953
893.537	281.953
894.134	286.891
894.732	262.953
895.329	266.016
895.926	275.766
896.524	276.516
897.121	275.141
897.718	292.078
898.316	281.141
898.913	298.266
899.51	281.016
900.108	276.641
900.705	275.828
901.302	275.891
901.9	282.766
902.497	293.516
903.094	301.391
903.692	279.766
904.283	298.328
904.88	300.578
905.477	298.703
906.075	298.328
906.672	311.703
907.269	295.953
907.867	310.578
908.458	306.766
909.055	312.766
909.652	294.953
910.25	292.891
910.841	310.828
911.438	299.266
912.035	313.703
912.633	306.703
913.224	293.078
913.821	310.203
914.418	318.453
915.016	339.391
915.607	332.328
916.204	316.328
916.801	320.078
917.392	312.578
917.99	311.203
918.587	313.391
919.178	316.578
919.775	330.078
920.366	314.266
920.964	329.766
921.561	331.516
922.152	353.891
922.749	337.891
923.346	325.516
923.937	327.266
924.535	313.391
925.126	335.141
925.723	309.766
926.314	320.266
926.911	302.703
927.502	313.891
928.1	322.078
928.69	318.453
929.288	325.828
929.879	335.828
930.476	324.078
931.067	309.141
931.664	322.516
932.255	342.641
932.853	320.203
933.444	315.953
934.034	320.703
934.632	346.141
935.223	304.141
935.82	315.953
936.411	324.578
937.002	323.891
937.599	312.328
938.19	310.578
938.781	329.266
939.378	311.203
939.969	317.953
940.56	300.516
941.158	316.578
941.749	304.328
942.34	314.203
942.937	308.203
943.528	309.266
944.119	311.391
944.71	302.016
945.307	284.891
945.898	303.953
946.489	279.391
947.08	299.953
947.671	287.516
948.268	292.203
948.859	296.953
949.45	297.328
950.041	281.141
950.632	280.328
951.223	282.641
951.82	280.703
952.411	280.016
953.002	271.953
953.593	260.516
954.184	273.828
954.775	267.828
955.366	266.891
955.956	263.016
956.547	264.766
957.138	258.453
957.736	253.891
958.32	254.328
958.911	251.391
959.508	257.078
960.099	243.703
960.69	250.953
961.281	243.016
961.872	242.078
962.457	239.516
963.054	247.703
963.638	247.828
964.229	239.016
964.82	228.328
965.411	244.266
966.002	245.203
966.593	228.078
967.184	234.828
967.775	227.578
968.366	238.016
968.957	235.391
969.548	233.328
970.139	230.516
970.723	232.703
971.314	230.453
971.905	224.953
972.496	236.578
973.087	227.266
973.671	218.828
974.262	228.266
974.853	232.828
975.444	224.516
976.029	216.578
976.62	217.391
977.21	229.703
977.801	230.391
978.392	214.266
978.977	224.453
979.568	226.703
980.159	221.953
980.743	219.266
981.334	224.391
981.925	228.453
982.51	241.891
983.1	227.828
983.691	212.891
984.276	234.328
984.867	223.703
985.451	223.828
986.042	227.328
986.633	221.266
987.218	229.641
987.809	229.203
988.399	226.141
988.984	226.016
989.575	230.203
990.159	224.016
990.75	221.703
991.335	232.203
991.926	226.141
992.51	231.016
993.101	233.516
993.686	234.078
994.277	244.703
994.861	219.266
995.452	227.016
996.036	222.203
996.627	221.578
997.212	223.703
997.796	226.078
998.387	221.578
998.972	220.641
999.563	239.453
1000.15	231.703
1000.73	227.266
1001.32	236.328
1001.91	239.641
1002.5	236.641
1003.08	239.078
1003.67	241.203
1004.26	242.078
1004.84	234.266
1005.43	237.016
1006.02	242.266
1006.6	232.703
1007.19	250.641
1007.78	239.141
1008.36	249.891
1008.95	235.703
1009.53	240.516
1010.12	238.516
1010.71	245.953
1011.29	228.078
1011.88	236.391
1012.46	241.141
1013.05	243.328
1013.64	238.266
1014.22	252.203
1014.8	239.766
1015.39	240.766
1015.97	248.578
1016.56	258.266
1017.15	248.578
1017.73	249.078
1018.32	251.016
1018.9	266.266
1019.49	247.203
1020.07	247.516
1020.66	246.141
1021.24	258.578
1021.83	260.891
1022.41	261.141
1023	265.266
1023.58	267.641
1024.17	261.078
1024.75	262.578
1025.34	268.828
1025.92	266.328
1026.51	267.078
1027.09	273.266
1027.67	262.453
1028.26	277.141
1028.84	267.891
1029.42	280.828
1030.01	271.078
1030.59	279.703
1031.18	272.391
1031.76	281.016
1032.35	291.266
1032.93	281.641
1033.52	277.891
1034.1	283.891
1034.68	284.328
1035.26	269.391
1035.85	278.203
1036.43	286.453
1037.02	285.766
1037.6	286.891
1038.18	277.266
1038.76	298.391
1039.35	296.891
1039.93	301.141
1040.52	307.453
1041.09	307.703
1041.68	301.828
1042.26	312.266
1042.85	288.891
1043.43	309.078
1044.01	304.203
1044.6	299.016
1045.18	291.578
1045.76	302.203
1046.34	306.703
1046.93	320.703
1047.5	308.516
1048.09	314.203
1048.67	317.703
1049.25	320.891
1049.84	316.016
1050.41	318.078
1051	335.953
1051.58	329.516
1052.16	317.266
1052.75	327.266
1053.32	319.516
1053.91	335.578
1054.49	322.266
1055.07	340.203
1055.66	317.141
1056.23	340.953
1056.82	333.141
1057.4	329.516
1057.98	333.953
1058.56	320.891
1059.14	352.328
1059.72	339.953
1060.31	342.766
1060.88	356.266
1061.47	345.328
1062.05	323.016
1062.62	331.453
1063.21	334.766
1063.79	350.078
1064.37	346.641
1064.95	324.016
1065.53	337.453
1066.11	339.016
1066.69	317.203
1067.28	335.828
1067.85	330.328
1068.43	329.328
1069.01	344.766
1069.59	297.453
1070.17	339.078
1070.75	345.766
1071.33	330.953
1071.91	321.703
1072.49	320.516
1073.07	326.641
1073.65	322.891
1074.11	324.891
1074.69	335.891
1075.28	344.891
1075.87	335.891
1076.46	336.891
1077.04	336.891
1077.64	331.891
1078.22	333.891
1078.81	321.891
1079.4	302.891
1079.99	314.891
1080.57	325.891
1081.16	331.891
1081.75	321.891
1082.33	308.891
1082.92	337.891
1083.51	321.891
1084.09	325.891
1084.68	316.891
1085.27	321.891
1085.85	324.891
1086.44	314.891
1087.03	312.891
1087.61	314.891
1088.2	297.891
1088.79	315.891
1089.37	319.891
1089.95	315.891
1090.54	295.891
1091.13	305.891
1091.71	289.891
1092.3	319.891
1092.89	302.891
1093.47	299.891
1094.06	311.891
1094.64	311.891
1095.23	305.891
1095.81	296.891
1096.4	303.891
1096.99	317.891
1097.57	297.891
1098.16	290.891
1098.74	275.891
1099.33	318.891
1099.92	308.891
1100.5	293.891
1101.09	300.891
1101.67	291.891
1102.26	299.891
1102.84	292.891
1103.42	305.891
1104.01	299.891
1104.59	287.891
1105.18	280.891
1105.76	286.891
1106.35	286.891
1106.93	286.891
1107.52	284.891
1108.1	294.891
1108.68	284.891
1109.27	293.891
1109.85	297.891
1110.44	301.891
1111.02	306.891
1111.61	307.891
1112.19	305.891
1112.78	296.891
1113.36	289.891
1113.95	302.891
1114.53	293.891
1115.11	282.891
1115.69	293.891
1116.28	284.891
1116.86	279.891
1117.45	275.891
1118.03	306.891
1118.61	289.891
1119.19	288.891
1119.78	300.891
1120.36	299.891
1120.95	292.891
1121.53	292.891
1122.12	314.891
1122.69	301.891
1123.28	313.891
1123.86	287.891
1124.45	305.891
1125.02	300.891
1125.61	293.891
1126.19	301.891
1126.77	289.891
1127.36	306.891
1127.94	302.891
1128.52	289.891
1129.1	306.891
1129.69	293.891
1130.27	304.891
1130.85	294.891
1131.44	298.891
1132.02	296.891
1132.6	308.891
1133.18	270.891
1133.76	296.891
1134.34	306.891
1134.92	299.891
1135.51	293.891
1136.09	289.891
1136.67	305.891
1137.25	300.891
1137.83	295.891
1138.42	293.891
1139	305.891
1139.58	299.891
1140.16	279.891
1140.74	286.891
1141.33	303.891
1141.9	278.891
1142.48	291.891
1143.07	312.891
1143.65	305.891
1144.23	273.891
1144.81	291.891
1145.39	285.891
1145.97	292.891
1146.55	296.891
1147.13	299.891
1147.71	299.891
1148.3	295.891
1148.87	302.891
1149.45	293.891
1150.04	295.891
1150.61	286.891
1151.2	304.891
1151.78	292.891
1152.36	289.891
1152.94	296.891
1153.52	272.891
1154.1	289.891
1154.67	281.891
1155.26	312.891
1155.84	318.891
1156.41	296.891
1156.99	311.891
1157.58	300.891
1158.16	292.891
1158.73	278.891
1159.31	300.891
1159.9	303.891
1160.47	294.891
1161.05	282.891
1161.63	280.891
1162.21	289.891
1162.79	299.891
1163.37	308.891
1163.95	283.891
1164.53	295.891
1165.1	303.891
1165.68	289.891
1166.26	294.891
1166.85	291.891
1167.42	293.891
1168	292.891
1168.58	295.891
1169.16	298.891
1169.74	296.891
1170.31	288.891
1170.89	267.891
1171.47	298.891
1172.05	294.891
1172.63	279.891
1173.2	271.891
1173.78	287.891
1174.36	298.891
1174.94	291.891
1175.52	279.891
1176.09	277.891
1176.67	286.891
1177.25	283.891
1177.83	288.891
1178.41	268.891
1178.99	268.891
1179.56	284.891
1180.14	285.891
1180.72	298.891
1181.29	286.891
1181.87	281.891
1182.45	267.891
1183.03	280.891
1183.6	282.891
1184.18	277.891
1184.76	275.891
1185.33	262.891
1185.91	280.891
1186.49	281.891
1187.07	268.891
1187.64	261.891
1188.22	284.891
1188.79	278.891
1189.37	250.891
1189.95	297.891
1190.53	295.891
1191.1	268.891
1191.68	273.891
1192.26	268.891
1192.83	266.891
1193.41	263.891
1193.98	276.891
1194.56	264.891
1195.13	277.891
1195.71	261.891
1196.29	264.891
1196.86	266.891
1197.44	275.891
1198.01	274.891
1198.59	263.891
1199.17	267.891
1199.74	283.891
1200.32	252.891
1200.89	254.891
1201.47	257.891
1202.04	260.891
1202.62	257.891
1203.19	255.891
1203.77	273.891
1204.34	254.891
1204.92	262.891
1205.49	246.891
1206.07	247.891
1206.64	265.891
1207.21	246.891
1207.79	253.891
1208.36	241.891
1208.94	252.891
1209.51	245.891
1210.09	228.891
1210.66	242.891
1211.24	237.891
1211.81	249.891
1212.39	237.891
1212.96	247.891
1213.54	245.891
1214.11	250.891
1214.68	235.891
1215.26	218.891
1215.83	235.891
1216.41	237.891
1216.98	224.891
1217.56	219.891
1218.13	235.891
1218.71	239.891
1219.28	219.891
1219.85	229.891
1220.43	221.891
1221	215.891
1221.57	209.891
1222.14	218.891
1222.72	211.891
1223.29	230.891
1223.86	202.891
1224.44	197.891
1225.01	219.891
1225.58	227.891
1226.16	205.891
1226.73	192.891
1227.3	209.891
1227.88	203.891
1228.45	201.891
1229.02	189.891
1229.59	211.891
1230.16	207.891
1230.74	195.891
1231.31	187.891
1231.89	196.891
1232.46	203.891
1233.03	185.891
1233.6	176.891
1234.17	188.891
1234.74	187.891
1235.32	202.891
1235.89	177.891
1236.46	181.891
1237.04	185.891
1237.6	170.891
1238.17	162.891
1238.75	169.891
1239.32	178.891
1239.89	177.891
1240.46	167.891
1241.03	177.891
1241.6	171.891
1242.18	171.891
1242.75	164.891
1243.32	158.891
1243.89	165.891
1244.46	151.891
1245.03	147.891
1245.61	176.891
1246.18	165.891
1246.75	164.891
1247.32	159.891
1247.89	165.891
1248.46	168.891
1249.03	143.891
1249.6	155.891
1250.17	152.891
1250.74	156.891
1251.32	155.891
1251.89	129.891
1252.45	144.891
1253.02	146.891
1253.6	151.891
1254.17	144.891
1254.73	151.891
1255.3	152.891
1255.88	135.891
1256.45	127.891
1257.02	127.891
1257.58	151.891
1258.16	137.891
1258.73	130.891
1259.29	129.891
1259.86	146.891
1260.44	149.891
1261.01	136.891
1261.57	148.891
1262.15	145.891
1262.71	134.891
1263.28	138.891
1263.85	143.891
1264.42	148.891
1264.99	147.891
1265.56	136.891
1266.13	134.891
1266.7	154.891
1267.26	124.891
1267.84	125.891
1268.41	121.891
1268.97	140.891
1269.54	140.891
1270.11	138.891
1270.68	128.891
1271.25	138.891
1271.82	141.891
1272.39	117.891
1272.96	137.891
1273.52	145.891
1274.09	127.891
1274.66	131.891
1275.23	133.891
1275.79	140.891
1276.37	118.891
1276.93	124.891
1277.5	137.891
1278.07	133.891
1278.64	139.891
1279.2	135.891
1279.77	116.891
1280.34	142.891
1280.91	131.891
1281.47	121.891
1282.04	141.891
1282.61	152.891
1283.17	140.891
1283.75	129.891
1284.31	133.891
1284.88	139.891
1285.45	138.891
1286.01	135.891
1286.58	135.891
1287.15	137.891
1287.72	139.891
1288.28	127.891
1288.85	125.891
1289.42	139.891
1289.98	133.891
1290.55	134.891
1291.12	122.891
1291.68	134.891
1292.25	151.891
1292.82	128.891
1293.38	124.891
1293.95	142.891
1294.51	142.891
1295.08	125.891
1295.65	115.891
1296.21	141.891
1296.78	148.891
1297.34	135.891
1297.91	127.891
1298.48	128.891
1299.05	135.891
1299.61	141.891
1300.18	135.891
