17.0039	959.8
17.6805	956.8
18.3571	917.8
19.0336	946.8
19.7123	938.8
20.3887	980.8
21.0651	963.8
21.7414	924.8
22.4176	958.8
23.0939	970.8
23.77	1003.8
24.4462	973.8
25.1222	1016.8
25.7983	1070.8
26.4742	1041.8
27.1502	1110.8
27.8261	1125.8
28.5019	1158.8
29.1777	1212.8
29.8534	1164.8
30.5291	1192.8
31.2048	1149.8
31.8804	1187.8
32.5559	1224.8
33.2314	1255.8
33.9069	1244.8
34.5823	1238.8
35.2577	1314.8
35.933	1389.8
36.6083	1471.8
37.2835	1540.8
37.9587	1581.8
38.6338	1535.8
39.3066	1581.8
39.9817	1556.8
40.6566	1557.8
41.3316	1658.8
42.0065	1630.8
42.6813	1739.8
43.3539	1735.8
44.0286	1804.8
44.7033	1857.8
45.378	1902.8
46.0526	1900.8
46.7249	1918.8
47.3994	1932.8
48.0739	1968.8
48.7483	2079.8
49.4204	2081.8
50.0947	2132.8
50.769	2175.8
51.4433	2266.8
52.1152	2151.8
52.7893	2239.8
53.4634	2215.8
54.1352	2267.8
54.8092	2227.8
55.4831	2247.8
56.1548	2320.8
56.8286	2359.8
57.5024	2365.8
58.1739	2422.8
58.8477	2515.8
59.5213	2559.8
60.1927	2584.8
60.8663	2649.8
61.5375	2637.8
62.211	2656.8
62.8845	2618.8
63.5556	2534.8
64.2289	2594.8
64.8999	2585.8
65.5732	2598.8
66.2441	2608.8
66.9173	2651.8
67.5881	2666.8
68.2612	2679.8
68.9319	2726.8
69.6049	2767.8
70.2755	2715.8
70.9484	2778.8
71.619	2800.8
72.2918	2837.8
72.9622	2800.8
73.6349	2882.8
74.3053	2810.8
74.9756	2886.8
75.6482	2759.8
76.3184	2900.8
76.9909	2978.8
77.661	2866.8
78.3311	2909.8
79.0034	2829.8
79.6734	2888.8
80.3433	2843.8
81.0155	2871.8
81.6854	2964.8
82.3552	2929.8
83.0272	2849.8
83.6969	2957.8
84.3666	3014.8
85.0385	3079.8
85.7081	2966.8
86.3776	2905.8
87.0471	2891.8
87.7188	2854.8
88.3882	2929.8
89.0575	2910.8
89.7268	2803.8
90.3961	3009.8
91.0676	2932.8
91.7367	2997.8
92.4059	2939.8
93.0749	2970.8
93.7439	2903.8
94.4152	2862.8
95.0841	2970.8
95.753	3013.8
96.4218	2956.8
97.0906	3016.8
97.7594	2936.8
98.4281	2977.8
99.0967	2958.8
99.7676	2903.8
100.436	3006.8
101.105	3004.8
101.773	2908.8
102.442	2966.8
103.11	2874.8
103.778	2935.8
104.447	2918.8
105.115	2971.8
105.783	2925.8
106.451	2978.8
107.119	3018.8
107.787	3023.8
108.455	2968.8
109.123	3083.8
109.791	2935.8
110.459	2912.8
111.127	2917.8
111.795	2924.8
112.462	2828.8
113.13	2947.8
113.795	2826.8
114.463	2862.8
115.13	2911.8
115.798	2849.8
116.465	2975.8
117.133	2932.8
117.8	2980.8
118.467	2849.8
119.132	2946.8
119.8	2897.8
120.467	2883.8
121.134	2883.8
121.801	2874.8
122.466	2926.8
123.133	2895.8
123.8	2904.8
124.467	2972.8
125.133	2951.8
125.798	2858.8
126.465	2802.8
127.131	2824.8
127.796	2835.8
128.462	2798.8
129.129	2826.8
129.796	2843.8
130.46	2877.8
131.126	2859.8
131.793	2800.8
132.457	2774.8
133.123	2850.8
133.789	2802.8
134.453	2777.8
135.119	2802.8
135.783	2900.8
136.449	2732.8
137.115	2723.8
137.779	2800.8
138.445	2744.8
139.108	2750.8
139.774	2794.8
140.438	2793.8
141.104	2885.8
141.769	2759.8
142.433	2770.8
143.098	2724.8
143.762	2772.8
144.427	2801.8
145.09	2707.8
145.756	2730.8
146.419	2719.8
147.084	2693.8
147.747	2778.8
148.41	2756.8
149.075	2669.8
149.738	2803.8
150.403	2751.8
151.066	2639.8
151.731	2720.8
152.394	2819.8
153.056	2723.8
153.721	2679.8
154.384	2680.8
155.046	2707.8
155.711	2689.8
156.374	2694.8
157.036	2714.8
157.701	2741.8
158.363	2694.8
159.025	2747.8
159.69	2656.8
160.352	2703.8
161.014	2663.8
161.676	2645.8
162.34	2563.8
163.002	2667.8
163.664	2640.8
164.326	2640.8
164.99	2609.8
165.652	2629.8
166.314	2646.8
166.975	2666.8
167.637	2594.8
168.301	2611.8
168.962	2622.8
169.624	2670.8
170.285	2620.8
170.947	2629.8
171.608	2616.8
172.272	2629.8
172.933	2566.8
173.594	2588.8
174.255	2595.8
174.917	2489.8
175.578	2602.8
176.239	2646.8
176.9	2555.8
177.561	2557.8
178.222	2646.8
178.882	2572.8
179.543	2622.8
180.204	2508.8
180.865	2519.8
181.526	2535.8
182.186	2575.8
182.847	2534.8
183.507	2576.8
184.168	2480.8
184.828	2534.8
185.489	2508.8
186.149	2538.8
186.809	2559.8
187.47	2577.8
188.13	2505.8
188.79	2577.8
189.45	2536.8
190.11	2452.8
190.768	2539.8
191.428	2502.8
192.088	2551.8
192.748	2514.8
193.408	2437.8
194.068	2465.8
194.728	2525.8
195.385	2447.8
196.045	2409.8
196.705	2449.8
197.364	2495.8
198.021	2493.8
198.681	2516.8
199.34	2434.8
200	2473.8
200.657	2456.8
201.316	2492.8
201.976	2523.8
202.635	2434.8
203.292	2474.8
203.951	2454.8
204.61	2489.8
205.267	2463.8
205.926	2490.8
206.585	2439.8
207.242	2480.8
207.9	2422.8
208.559	2426.8
209.216	2376.8
209.875	2466.8
210.533	2450.8
211.19	2365.8
211.848	2470.8
212.505	2535.8
213.163	2484.8
213.819	2376.8
214.478	2408.8
215.134	2445.8
215.792	2402.8
216.451	2505.8
217.107	2401.8
217.765	2457.8
218.421	2372.8
219.079	2442.8
219.735	2381.8
220.391	2456.8
221.049	2462.8
221.704	2375.8
222.362	2406.8
223.018	2350.8
223.675	2408.8
224.331	2456.8
224.989	2471.8
225.644	2402.8
226.3	2404.8
226.957	2429.8
227.612	2437.8
228.268	2378.8
228.925	2429.8
229.58	2420.8
230.235	2377.8
230.893	2319.8
231.548	2418.8
232.203	2422.8
232.86	2348.8
233.515	2359.8
234.17	2364.8
234.827	2364.8
235.481	2352.8
236.136	2431.8
236.791	2378.8
237.448	2428.8
238.102	2397.8
238.757	2380.8
239.411	2389.8
240.066	2359.8
240.722	2428.8
241.377	2367.8
242.031	2408.8
242.685	2399.8
243.339	2395.8
243.993	2328.8
244.648	2359.8
245.304	2384.8
245.958	2411.8
246.612	2387.8
247.266	2359.8
247.92	2414.8
248.574	2342.8
249.227	2414.8
249.881	2329.8
250.535	2375.8
251.189	2326.8
251.842	2353.8
252.496	2245.8
253.149	2315.8
253.803	2288.8
254.456	2423.8
255.11	2388.8
255.763	2374.8
256.416	2355.8
257.07	2394.8
257.723	2319.8
258.376	2359.8
259.029	2352.8
259.682	2350.8
260.335	2381.8
260.988	2311.8
261.641	2280.8
262.294	2359.8
262.947	2355.8
263.598	2392.8
264.251	2335.8
264.903	2366.8
265.556	2219.8
266.209	2364.8
266.861	2286.8
267.512	2382.8
268.164	2270.8
268.817	2324.8
269.469	2320.8
270.121	2333.8
270.772	2272.8
271.424	2340.8
272.076	2333.8
272.728	2288.8
273.378	2388.8
274.03	2364.8
274.682	2364.8
275.332	2336.8
275.984	2301.8
276.636	2351.8
277.288	2321.8
277.938	2308.8
278.59	2262.8
279.239	2287.8
279.891	2345.8
280.542	2326.8
281.192	2297.8
281.843	2178.8
282.495	2262.8
283.144	2300.8
283.796	2288.8
284.445	2325.8
285.096	2334.8
285.745	2308.8
286.397	2295.8
287.048	2316.8
287.697	2260.8
288.348	2276.8
288.997	2282.8
289.648	2292.8
290.297	2332.8
290.948	2282.8
291.596	2309.8
292.247	2229.8
292.896	2317.8
293.544	2319.8
294.195	2338.8
294.844	2317.8
295.494	2343.8
296.143	2326.8
296.793	2314.8
297.441	2255.8
298.09	2309.8
298.74	2322.8
299.388	2294.8
300.036	2371.8
300.687	2370.8
301.335	2358.8
301.983	2386.8
302.633	2293.8
303.281	2334.8
303.929	2260.8
304.579	2264.8
305.227	2275.8
305.874	2254.8
306.522	2334.8
307.172	2318.8
307.819	2331.8
308.467	2362.8
309.114	2231.8
309.764	2307.8
310.412	2256.8
311.059	2310.8
311.706	2268.8
312.354	2286.8
313.003	2224.8
313.65	2342.8
314.297	2275.8
314.944	2306.8
315.592	2312.8
316.239	2318.8
316.886	2285.8
317.535	2314.8
318.182	2312.8
318.828	2295.8
319.475	2288.8
320.122	2317.8
320.769	2273.8
321.415	2319.8
322.062	2272.8
322.709	2265.8
323.355	2249.8
324.002	2301.8
324.648	2341.8
325.294	2236.8
325.941	2239.8
326.587	2244.8
327.233	2293.8
327.88	2303.8
328.526	2308.8
329.172	2215.8
329.818	2247.8
330.464	2195.8
331.11	2277.8
331.754	2253.8
332.4	2295.8
333.046	2292.8
333.692	2240.8
334.337	2276.8
334.983	2258.8
335.629	2242.8
336.275	2235.8
336.918	2301.8
337.564	2247.8
338.209	2296.8
338.855	2243.8
339.5	2256.8
340.143	2263.8
340.789	2207.8
341.434	2293.8
342.079	2212.8
342.722	2245.8
343.367	2255.8
344.012	2264.8
344.658	2279.8
345.3	2224.8
345.945	2243.8
346.59	2306.8
347.233	2274.8
347.878	2259.8
348.523	2274.8
349.165	2204.8
349.81	2303.8
350.455	2250.8
351.097	2281.8
351.742	2324.8
352.384	2285.8
353.029	2241.8
353.673	2198.8
354.315	2280.8
354.96	2251.8
355.602	2324.8
356.246	2247.8
356.888	2269.8
357.533	2286.8
358.175	2273.8
358.819	2272.8
359.461	2305.8
360.105	2266.8
360.746	2266.8
361.39	2269.8
362.032	2174.8
362.676	2265.8
363.318	2285.8
363.961	2233.8
364.603	2255.8
365.247	2270.8
365.888	2309.8
366.529	2234.8
367.173	2262.8
367.814	2257.8
368.456	2266.8
369.099	2278.8
369.74	2258.8
370.381	2213.8
371.025	2326.8
371.666	2269.8
372.307	2266.8
372.95	2257.8
373.591	2294.8
374.232	2310.8
374.875	2277.8
375.516	2213.8
376.156	2279.8
376.797	2208.8
377.44	2283.8
378.081	2243.8
378.721	2300.8
379.362	2222.8
380.002	2300.8
380.645	2287.8
381.285	2216.8
381.926	2309.8
382.566	2244.8
383.206	2222.8
383.847	2213.8
384.489	2201.8
385.129	2282.8
385.769	2306.8
386.409	2289.8
387.049	2282.8
387.689	2267.8
388.329	2253.8
388.969	2278.8
389.609	2276.8
390.249	2181.8
390.889	2271.8
391.528	2263.8
392.168	2323.8
392.81	2255.8
393.449	2319.8
394.089	2303.8
394.726	2266.8
395.366	2301.8
396.005	2268.8
396.645	2280.8
397.284	2244.8
397.923	2272.8
398.562	2314.8
399.202	2372.8
399.841	2185.8
400.48	2193.8
401.119	2356.8
401.758	2343.8
402.397	2244.8
403.034	2269.8
403.673	2311.8
404.311	2290.8
404.95	2322.8
405.589	2327.8
406.228	2349.8
406.864	2350.8
407.503	2333.8
408.142	2281.8
408.78	2306.8
409.419	2363.8
410.055	2362.8
410.693	2406.8
411.332	2350.8
411.968	2305.8
412.606	2290.8
413.244	2357.8
413.883	2292.8
414.519	2335.8
415.157	2349.8
415.795	2366.8
416.431	2310.8
417.069	2396.8
417.707	2381.8
418.342	2332.8
418.98	2372.8
419.616	2343.8
420.254	2409.8
420.891	2337.8
421.527	2385.8
422.165	2410.8
422.8	2439.8
423.438	2416.8
424.075	2375.8
424.71	2375.8
425.348	2434.8
425.983	2398.8
426.62	2394.8
427.256	2399.8
427.893	2450.8
428.528	2431.8
429.165	2431.8
429.8	2394.8
430.435	2414.8
431.072	2426.8
431.707	2473.8
432.344	2447.8
432.979	2303.8
433.615	2423.8
434.25	2469.8
434.885	2421.8
435.521	2454.8
436.156	2392.8
436.79	2454.8
437.427	2441.8
438.061	2492.8
438.696	2432.8
439.332	2460.8
439.967	2453.8
440.601	2406.8
441.237	2461.8
441.871	2502.8
442.505	2491.8
443.142	2510.8
443.776	2548.8
444.41	2475.8
445.044	2512.8
445.678	2475.8
446.314	2503.8
446.947	2565.8
447.581	2544.8
448.215	2457.8
448.849	2495.8
449.484	2503.8
450.118	2550.8
450.752	2508.71
451.385	2523.31
452.018	2573.28
452.652	2522.5
453.285	2588.43
453.921	2585.22
454.554	2616.17
455.187	2564.37
455.821	2571.54
456.454	2561.89
457.087	2532.77
457.72	2557.18
458.353	2548.86
458.986	2570.06
459.619	2539.75
460.252	2555.94
460.885	2641.29
461.518	2576.22
462.15	2574.86
462.783	2604.62
463.416	2606.54
464.048	2644.02
464.681	2627.76
465.314	2629.73
465.946	2583.29
466.579	2573.89
467.209	2615.09
467.841	2621.11
468.474	2593.35
469.106	2640.12
469.738	2614.85
470.371	2616.59
471.003	2637.15
471.633	2611.11
472.265	2640.5
472.897	2621.99
473.529	2589.09
474.161	2644.47
474.791	2620.6
475.423	2588.75
476.054	2634.1
476.686	2654.11
477.318	2608.29
477.948	2620.78
478.579	2626.81
479.211	2594.38
479.84	2691.41
480.472	2642.59
481.103	2649.43
481.733	2613.17
482.364	2628.52
482.996	2639.68
483.625	2610.25
484.256	2650.96
484.887	2658.4
485.516	2638.36
486.148	2610.02
486.779	2698.61
487.408	2602.16
488.039	2650.15
488.668	2632.68
489.298	2659.87
489.927	2663.95
490.558	2668.85
491.187	2650.86
491.818	2624.72
492.446	2618.14
493.077	2648.72
493.705	2574.09
494.336	2623.79
494.964	2663.81
495.595	2692.09
496.223	2623.76
496.854	2676.1
497.482	2627.8
498.112	2656.59
498.741	2655.46
499.371	2685.14
499.999	2659.75
500.627	2649.93
501.257	2648.73
501.885	2672.88
502.513	2663.07
503.143	2673.86
503.771	2597.11
504.399	2660.13
505.029	2609.03
505.656	2664.1
506.284	2677.32
506.914	2691.08
507.541	2658.47
508.169	2685.18
508.796	2627.71
509.426	2668.34
510.054	2653.51
510.681	2703.52
511.308	2631.98
511.938	2566.84
512.565	2642.63
513.192	2593.57
513.819	2644.26
514.446	2636.5
515.076	2621.55
515.703	2594.81
516.33	2619.84
516.957	2646.97
517.584	2632.62
518.21	2571.15
518.837	2635.79
519.464	2613.6
520.093	2623.44
520.72	2603
521.346	2639.59
521.973	2605.44
522.6	2592.83
523.226	2607.7
523.853	2594.73
524.479	2556.69
525.105	2545.85
525.732	2571.72
526.358	2579.68
526.984	2562.83
527.611	2582.02
528.237	2539.44
528.863	2543.59
529.489	2549.01
530.115	2578.17
530.741	2504.64
531.365	2576.36
531.991	2558.09
532.617	2530.74
533.243	2507.8
533.869	2470.45
534.495	2502.18
535.12	2497.78
535.746	2490.21
536.369	2547.97
536.995	2469.22
537.621	2495.03
538.246	2444.2
538.872	2501.24
539.495	2511.33
540.12	2444.06
540.746	2462.35
541.371	2433.75
541.994	2462
542.62	2429.21
543.245	2441.84
543.87	2402.38
544.493	2475.94
545.118	2426.23
545.743	2443.94
546.366	2413.21
546.991	2434.98
547.616	2420.28
548.238	2434.5
548.863	2371.77
549.488	2389.46
550.111	2400.11
550.735	2388.15
551.36	2411.19
551.982	2394.47
552.607	2366.39
553.229	2403.39
553.854	2345.5
554.476	2389.52
555.101	2361.7
555.723	2357.31
556.347	2341.49
556.969	2354.98
557.594	2345.86
558.216	2333.08
558.84	2343.39
559.462	2319.15
560.086	2306.16
560.708	2292.47
561.332	2298.36
561.954	2314.22
562.578	2308.3
563.199	2361.67
563.821	2327.41
564.445	2333.68
565.066	2297.27
565.69	2316.97
566.312	2290.44
566.933	2349.25
567.557	2339.37
568.178	2291.03
568.799	2288.31
569.423	2297.8
570.044	2288.67
570.665	2293.71
571.289	2314.55
571.91	2298.21
572.531	2264.01
573.152	2321.37
573.775	2283.38
574.396	2257.26
575.017	2259.87
575.638	2261.91
576.261	2315.9
576.882	2290.92
577.503	2284.33
578.123	2253.52
578.744	2236.46
579.365	2242.18
579.987	2233.59
580.608	2262.95
581.229	2227.79
581.849	2256.82
582.47	2216.01
583.09	2221.5
583.71	2193.84
584.331	2214.1
584.951	2153.14
585.571	2205.6
586.194	2200.7
586.814	2191.77
587.434	2177.79
588.054	2216.45
588.674	2166.14
589.294	2121.32
589.914	2165.83
590.534	2141.16
591.154	2143.73
591.774	2121
592.391	2098.39
593.011	2100.7
593.631	2093.91
594.25	2114.02
594.87	2114.3
595.49	2072.15
596.109	2072.91
596.729	2049.67
597.348	2053.94
597.967	2038.74
598.585	2099.23
599.204	2052.14
599.823	2030.52
600.443	2024.18
601.062	2031.96
601.681	1979.76
602.298	1977.16
602.917	1993.1
603.536	1966.16
604.155	2015.17
604.772	1951.92
605.391	1915
606.01	1958.46
606.629	1972.77
607.245	1882.87
607.864	1963.82
608.483	1908.8
609.099	1887.86
609.718	1884.29
610.337	1885.52
610.953	1885.21
611.572	1845.77
612.19	1856.67
612.806	1840.05
613.425	1854.19
614.043	1860.18
614.659	1828.39
615.278	1792.1
615.894	1811.87
616.512	1764.12
617.128	1821.31
617.746	1773.25
618.364	1787.77
618.98	1774.39
619.598	1715.01
620.214	1748.31
620.832	1727.68
621.448	1725.47
622.065	1707.3
622.681	1689.76
623.297	1718.74
623.914	1673.15
624.53	1719.76
625.148	1650.27
625.763	1664.91
626.381	1684.97
626.996	1633.5
627.611	1623.89
628.229	1666.43
628.844	1622.58
629.459	1594.29
630.076	1587.96
630.692	1580.84
631.307	1560.97
631.924	1563.38
632.539	1571.9
633.154	1565.49
633.771	1568.7
634.386	1552.53
635.001	1535.51
635.615	1520.94
636.232	1536.01
636.847	1485.91
637.462	1516.5
638.076	1463.94
638.693	1465.14
639.308	1428.31
639.922	1479.29
640.537	1463.78
641.151	1452.25
641.768	1446.4
642.382	1487.72
642.996	1445.36
643.611	1414.04
644.225	1375.96
644.839	1391.18
645.453	1407
646.067	1368.17
646.681	1339.5
647.295	1333.27
647.912	1362.79
648.526	1327.62
649.139	1369.88
649.753	1332.04
650.367	1328.94
650.981	1328.92
651.595	1330.17
652.208	1308.52
652.822	1310.37
653.436	1310.57
654.049	1324.12
654.663	1263.66
655.274	1267.29
655.888	1266.2
655.961	1263.2
656.581	1264.2
657.201	1246.2
657.823	1226.2
658.442	1260.2
659.064	1223.2
659.684	1216.2
660.306	1224.2
660.925	1221.2
661.547	1222.2
662.166	1244.2
662.786	1206.2
663.408	1212.2
664.027	1200.2
664.646	1180.2
665.268	1203.2
665.887	1187.2
666.506	1148.2
667.128	1156.2
667.747	1198.2
668.366	1179.2
668.987	1172.2
669.606	1170.2
670.225	1134.2
670.844	1190.2
671.465	1135.2
672.084	1120.2
672.703	1086.2
673.322	1132.2
673.942	1130.2
674.561	1121.2
675.18	1131.2
675.798	1135.2
676.417	1122.2
677.038	1127.2
677.656	1087.2
678.275	1120.2
678.893	1118.2
679.511	1084.2
680.13	1092.2
680.75	1116.2
681.368	1086.2
681.987	1075.2
682.605	1074.2
683.223	1096.2
683.841	1041.2
684.459	1079.2
685.077	1082.2
685.695	1081.2
686.313	1070.2
686.931	1056.2
687.549	1056.2
688.166	1069.2
688.784	1076.2
689.402	1031.2
690.02	1043.2
690.637	1075.2
691.255	1011.2
691.872	1024.2
692.49	1007.2
693.107	1040.2
693.725	1016.2
694.342	1016.2
694.96	1048.2
695.577	1004.2
696.192	999.2
696.809	1018.2
697.426	1047.2
698.044	1043.2
698.661	1028.2
699.278	1013.2
699.895	1044.2
700.51	1019.2
701.127	1003.2
701.744	1012.2
702.36	969.2
702.977	1017.2
703.592	995.2
704.209	983.2
704.825	996.2
705.442	1009.2
706.056	998.2
706.673	968.2
707.29	986.2
707.906	1019.2
708.52	982.2
709.137	954.2
709.753	961.2
710.367	955.2
710.984	973.2
711.6	953.2
712.214	957.2
712.83	983.2
713.444	968.2
714.06	946.2
714.676	900.2
715.29	944.2
715.906	944.2
716.52	922.2
717.136	917.2
717.752	943.2
718.365	937.2
718.981	906.2
719.595	925.2
720.21	893.2
720.824	919.2
721.44	945.2
722.053	919.2
722.669	897.2
723.282	906.2
723.897	897.2
724.511	918.2
725.126	897.2
725.739	945.2
726.352	937.2
726.968	892.2
727.581	868.2
728.196	911.2
728.809	879.2
729.422	876.2
730.037	862.2
730.65	895.2
731.265	863.2
731.877	861.2
732.49	910.2
733.105	866.2
733.718	873.2
734.33	885.2
734.943	869.2
735.558	871.2
736.17	848.2
736.783	869.2
737.397	896.2
738.01	850.2
738.622	840.2
739.234	858.2
739.846	870.2
740.461	869.2
741.073	863.2
741.685	798.2
742.297	864.2
742.909	866.2
743.523	857.2
744.135	819.2
744.747	852.2
745.359	840.2
745.971	833.2
746.583	846.2
747.195	834.2
747.807	840.2
748.42	800.2
749.032	823.2
749.644	819.2
750.255	807.2
750.867	785.2
751.478	781.2
752.09	799.2
752.701	816.2
753.313	803.2
753.924	784.2
754.535	800.2
755.146	801.2
755.758	804.2
756.369	772.2
756.98	784.2
757.591	777.2
758.202	800.2
758.813	777.2
759.424	749.2
760.033	776.2
760.644	783.2
761.255	780.2
761.866	741.2
762.476	761.2
763.087	769.2
763.698	758.2
764.309	756.2
764.917	750.2
765.528	768.2
766.138	759.2
766.749	770.2
767.359	719.2
767.967	738.2
768.578	715.2
769.188	732.2
769.798	748.2
770.409	759.2
771.017	736.2
771.627	729.2
772.237	702.2
772.845	727.2
773.455	691.2
774.065	695.2
774.673	740.2
775.283	707.2
775.893	736.2
776.501	721.2
777.111	695.2
777.72	683.2
778.328	695.2
778.938	702.2
779.547	696.2
780.155	682.2
780.764	671.2
781.372	689.2
781.981	702.2
782.589	666.2
783.198	664.2
783.807	663.2
784.415	668.2
785.024	675.2
785.631	659.2
786.24	649.2
786.848	625.2
787.457	665.2
788.064	644.2
788.673	627.2
789.28	626.2
789.886	641.2
790.495	637.2
791.102	627.2
791.711	626.2
792.318	639.2
792.927	608.2
793.533	623.2
794.14	606.2
794.749	612.2
795.355	613.2
795.962	596.2
796.57	603.2
797.176	631.2
797.783	606.2
798.391	593.2
798.998	591.2
799.604	591.2
800.212	556.2
800.818	587.2
801.424	590.2
802.03	562.2
802.639	600.2
803.245	544.2
803.851	530.2
804.457	535.2
805.062	538.2
805.67	539.2
806.276	547.2
806.882	561.2
807.488	531.2
808.093	528.2
808.699	513.2
809.307	542.2
809.912	539.2
810.518	523.2
811.123	517.2
811.729	510.2
812.334	498.2
812.94	485.2
813.545	513.2
814.15	473.2
814.755	497.2
815.361	462.2
815.968	456.2
816.573	484.2
817.178	451.2
817.783	450.2
818.388	455.2
818.993	459.2
819.598	448.2
820.201	423.2
820.806	452.2
821.411	459.2
822.015	413.2
822.62	430.2
823.225	447.2
823.83	447.2
824.434	401.2
825.039	418.2
825.643	414.2
826.248	412.2
826.85	405.2
827.455	418.2
828.059	391.2
828.663	408.2
829.268	393.2
829.872	420.2
830.474	407.2
831.078	398.2
831.682	410.2
832.286	393.2
832.891	396.2
833.492	415.2
834.096	395.2
834.7	393.2
835.304	390.2
835.906	385.2
836.51	410.2
837.114	397.2
837.715	395.2
838.319	373.2
838.923	391.2
839.524	367.2
840.128	388.2
840.732	388.2
841.333	375.2
841.936	375.2
842.538	371.2
843.141	375.2
843.745	377.2
844.346	357.2
844.949	370.2
845.55	384.2
846.153	380.2
846.754	383.2
847.358	397.2
847.961	376.2
848.562	382.2
849.165	388.2
849.766	402.2
850.368	376.2
850.969	393.2
851.57	398.2
852.173	386.2
852.773	395.2
853.376	397.2
853.977	382.2
854.58	386.2
855.18	426.2
855.781	384.2
856.383	396.2
856.984	414.2
857.586	392.2
858.186	392.2
858.787	388.2
859.389	404.2
859.989	406.2
860.589	412.2
861.192	398.2
861.792	421.2
862.392	401.2
862.992	405.2
863.594	407.2
864.194	423.2
864.794	415.2
865.393	410.2
865.995	417.2
866.595	406.2
867.195	417.2
867.795	423.2
868.396	406.2
868.996	423.2
869.596	427.2
870.195	442.2
870.795	411.2
871.394	435.2
871.996	453.2
872.595	431.2
873.195	442.2
873.794	442.2
874.393	457.2
874.992	471.2
875.592	457.2
876.191	465.2
876.79	459.2
877.389	472.2
877.988	443.2
878.587	457.2
879.186	476.2
879.785	477.2
880.384	490.2
880.983	497.2
881.581	459.2
882.18	492.2
882.779	488.2
883.378	478.2
883.976	494.2
884.575	525.2
885.174	519.2
885.772	514.2
886.371	503.2
886.969	527.2
887.567	513.2
888.164	539.2
888.762	551.2
889.36	539.2
889.959	532.2
890.557	535.2
891.155	549.2
891.753	539.2
892.349	566.2
892.947	572.191
893.545	561.188
894.143	575.074
894.739	571.64
895.337	578.072
895.935	555.497
896.533	585.654
897.129	577.236
897.726	604.616
898.324	592.093
898.922	601.371
899.517	600.558
900.115	609.058
900.713	615.65
901.308	617.491
901.906	623.435
902.501	640.485
903.098	632.031
903.696	647.352
904.291	662.548
904.888	641.318
905.486	660.836
906.081	639.577
906.678	676.29
907.273	657.285
907.87	672.627
908.465	654.518
909.062	695.414
909.657	682.555
910.254	670.488
910.849	696.827
911.446	702.198
912.041	682.54
912.637	714.506
913.232	736.17
913.829	704.618
914.423	738.324
915.02	717.009
915.615	734.528
916.209	731.6
916.806	737.922
917.4	793.924
917.996	737.773
918.591	733.967
919.185	726.074
919.781	766.486
920.376	755.699
920.97	760.494
921.566	746.536
922.16	791.132
922.754	781.114
923.35	805.142
923.944	780.589
924.538	802.829
925.132	808.81
925.728	801.683
926.322	795.376
926.916	788.586
927.51	809.856
928.105	838.557
928.699	847.548
929.293	852.607
929.886	842.217
930.48	824.716
931.076	844.015
931.669	827.306
932.263	885.233
932.856	872.109
933.449	851.152
934.043	850.136
934.636	877.934
935.229	878.742
935.825	871.275
936.418	869.151
937.011	892.256
937.604	901.153
938.197	877.98
938.79	878.834
939.383	891.331
939.976	917.075
940.569	912.23
941.162	876.308
941.755	923.797
942.348	922.951
942.94	922.121
943.533	929.293
944.126	935.645
944.719	945.661
945.311	953.74
945.902	955.216
946.494	917.012
947.087	938.133
947.679	928.075
948.272	940.432
948.864	952.767
949.456	960.697
950.049	948.732
950.639	941.538
951.231	974.398
951.823	973.718
952.415	957.495
953.008	969.727
953.6	1001.91
954.19	989.836
954.782	987.006
955.374	966.193
955.966	991.085
956.555	995.164
957.147	988.008
957.739	970.681
958.329	985.1
958.921	1024.73
959.512	1009.92
960.104	1004.32
960.693	1035.15
961.285	1001.98
961.877	1017.15
962.466	1010.98
963.058	1004.51
963.647	997.08
964.238	1012.27
964.83	1029.13
965.419	1019.6
966.01	1005.58
966.599	1029.76
967.191	1038.01
967.78	1001.84
968.371	1055.54
968.962	1024.22
969.551	1016.57
970.142	1023.58
970.731	1029.54
971.322	1057.06
971.911	1074.12
972.502	1037.85
973.09	1054.81
973.679	1060.7
974.27	1050.21
974.859	1050.82
975.449	1055.34
976.038	1055.92
976.628	1044.61
977.217	1035.98
977.805	1047.93
978.396	1032.85
978.984	1046.46
979.573	1048.1
980.163	1045.04
980.751	1052.24
981.34	1059.9
981.93	1059.28
982.518	1026.44
983.106	1024.82
983.696	1065.26
984.284	1054.14
984.872	1064.66
985.46	1073.12
986.05	1084.85
986.638	1036.35
987.226	1073.92
987.814	1049.83
988.404	1051.69
988.992	1070.21
989.579	1061.3
990.167	1058.15
990.755	1048.04
991.342	1055.23
991.932	1065.52
992.519	1044.89
993.107	1035.94
993.694	1021.04
994.282	1053.65
994.869	1067.33
995.456	1047.48
996.044	1019.78
996.631	1045.83
997.218	1044.08
997.805	1035.43
998.392	1055.01
998.98	1057.44
999.567	1022.58
1000.15	1029.03
1000.74	1017.86
1001.33	1031.86
1001.91	1025.49
1002.5	1033.18
1003.09	1034.51
1003.68	1020.68
1004.26	1036.41
1004.85	1044.92
1005.44	1003.59
1006.02	1002.15
1006.61	1015.39
1007.2	989.611
1007.78	1012.86
1008.37	994.86
1008.95	998.277
1009.54	1002.31
1010.13	1021.8
1010.71	1029.04
1011.3	1039.23
1011.88	1067.49
1012.47	994.768
1013.05	996.486
1013.64	965.403
1014.23	998.222
1014.81	990.286
1015.4	981.987
1015.98	992.823
1016.57	960.797
1017.15	959.266
1017.74	995.958
1018.33	976.592
1018.91	979.117
1019.49	1007.77
1020.08	959.461
1020.66	944.875
1021.25	974.72
1021.84	981.08
1022.42	946.159
1023	937.29
1023.59	952.875
1024.17	958.362
1024.76	950.476
1025.34	942.881
1025.93	937.349
1026.51	969.338
1027.1	937.196
1027.68	905.886
1028.26	931.622
1028.85	919.54
1029.43	943.225
1030.02	929.708
1030.6	924.654
1031.18	915.5
1031.77	912.872
1032.35	905.513
1032.94	908.331
1033.52	884.949
1034.1	894.5
1034.69	890.159
1035.27	904.442
1035.86	883.354
1036.44	860.313
1037.02	889.134
1037.61	885.311
1038.19	893.821
1038.77	888.742
1039.35	892.165
1039.94	898.304
1040.52	881.569
1041.1	880.227
1041.69	853.341
1042.27	876.829
1042.85	850.747
1043.44	855.209
1044.02	877.8
1044.6	806.556
1045.18	853.265
1045.77	821.909
1046.35	816.139
1046.93	849.263
1047.51	823.509
1048.09	831.029
1048.68	816.454
1049.26	799.579
1049.84	848.17
1050.42	823.618
1051	787.07
1051.59	810.77
1052.17	822.603
1052.75	811.189
1053.33	812.996
1053.92	785.863
1054.5	814.386
1055.08	825.563
1055.66	810.295
1056.24	772.701
1056.82	777.204
1057.4	783.956
1057.98	772.31
1058.57	763.003
1059.15	754.559
1059.73	726.37
1060.31	766.815
1060.89	743.9
1061.47	751.508
1062.05	735.646
1062.63	717.666
1063.21	721.49
1063.79	732.592
1064.37	725.876
1064.96	708.913
1065.54	705.511
1066.12	701.694
1066.7	712.571
1067.28	713.244
1067.86	728.951
1068.44	687.699
1069.02	684.056
1069.6	672.896
1070.18	699.357
1070.76	655.554
1071.34	674.587
1071.92	691.996
1072.5	662.816
1073.08	660.954
1073.66	649.32
1074.11	658.32
1074.7	650.32
1075.29	635.32
1075.88	662.32
1076.47	640.32
1077.05	694.32
1077.64	630.32
1078.23	632.32
1078.82	653.32
1079.4	637.32
1079.99	634.32
1080.58	620.32
1081.16	623.32
1081.75	618.32
1082.34	655.32
1082.93	624.32
1083.51	643.32
1084.1	601.32
1084.68	595.32
1085.27	612.32
1085.86	583.32
1086.44	616.32
1087.03	591.32
1087.62	631.32
1088.2	594.32
1088.79	586.32
1089.38	600.32
1089.96	577.32
1090.55	587.32
1091.14	569.32
1091.72	566.32
1092.31	578.32
1092.89	579.32
1093.48	557.32
1094.06	560.32
1094.65	577.32
1095.24	563.32
1095.82	532.32
1096.41	552.32
1096.99	540.32
1097.58	562.32
1098.16	547.32
1098.75	543.32
1099.34	554.32
1099.92	535.32
1100.51	529.32
1101.09	549.32
1101.68	579.32
1102.26	537.32
1102.85	496.32
1103.43	522.32
1104.02	543.32
1104.6	514.32
1105.19	520.32
1105.77	489.32
1106.35	519.32
1106.94	501.32
1107.52	496.32
1108.11	546.32
1108.69	516.32
1109.28	522.32
1109.86	474.32
1110.44	489.32
1111.03	483.32
1111.61	477.32
1112.2	481.32
1112.78	474.32
1113.37	505.32
1113.95	498.32
1114.53	481.32
1115.12	460.32
1115.7	458.32
1116.28	464.32
1116.87	440.32
1117.45	442.32
1118.04	421.32
1118.62	432.32
1119.2	454.32
1119.79	431.32
1120.37	429.32
1120.95	432.32
1121.54	416.32
1122.12	447.32
1122.7	412.32
1123.28	444.32
1123.87	437.32
1124.45	411.32
1125.03	426.32
1125.62	445.32
1126.2	413.32
1126.78	412.32
1127.36	392.32
1127.95	415.32
1128.53	398.32
1129.11	407.32
1129.69	393.32
1130.28	430.32
1130.86	392.32
1131.44	387.32
1132.02	392.32
1132.6	387.32
1133.19	380.32
1133.77	369.32
1134.35	365.32
1134.93	368.32
1135.52	373.32
1136.1	386.32
1136.68	377.32
1137.26	373.32
1137.84	377.32
1138.42	339.32
1139	389.32
1139.59	377.32
1140.17	354.32
1140.75	355.32
1141.33	330.32
1141.91	358.32
1142.49	374.32
1143.07	325.32
1143.65	354.32
1144.23	329.32
1144.82	352.32
1145.4	325.32
1145.98	322.32
1146.56	328.32
1147.14	333.32
1147.72	321.32
1148.3	324.32
1148.88	348.32
1149.46	337.32
1150.04	309.32
1150.62	304.32
1151.2	327.32
1151.78	330.32
1152.36	292.32
1152.94	304.32
1153.52	303.32
1154.1	274.32
1154.68	319.32
1155.26	265.32
1155.84	299.32
1156.42	273.32
1157	289.32
1157.58	289.32
1158.16	299.32
1158.74	273.32
1159.32	274.32
1159.9	297.32
1160.48	281.32
1161.06	296.32
1161.64	235.32
1162.22	264.32
1162.8	261.32
1163.38	265.32
1163.95	269.32
1164.53	256.32
1165.11	263.32
1165.69	286.32
1166.27	267.32
1166.85	249.32
1167.43	255.32
1168.01	245.32
1168.59	233.32
1169.16	228.32
1169.74	247.32
1170.32	260.32
1170.9	253.32
1171.48	262.32
1172.05	251.32
1172.63	231.32
1173.21	251.32
1173.79	231.32
1174.37	234.32
1174.95	237.32
1175.52	230.32
1176.1	202.32
1176.68	225.32
1177.26	229.32
1177.83	203.32
1178.41	195.32
1178.99	200.32
1179.57	190.32
1180.15	201.32
1180.72	205.32
1181.3	195.32
1181.88	204.32
1182.46	178.32
1183.03	201.32
1183.61	191.32
1184.19	203.32
1184.76	179.32
1185.34	178.32
1185.92	176.32
1186.49	163.32
1187.07	170.32
1187.65	155.32
1188.22	184.32
1188.8	174.32
1189.38	160.32
1189.95	168.32
1190.53	160.32
1191.11	156.32
1191.68	160.32
1192.26	153.32
1192.84	140.32
1193.41	170.32
1193.99	156.32
1194.56	147.32
1195.14	149.32
1195.72	149.32
1196.29	150.32
1196.87	147.32
1197.44	139.32
1198.02	165.32
1198.6	143.32
1199.17	133.32
1199.75	145.32
1200.32	132.32
1200.9	128.32
1201.47	133.32
1202.05	130.32
1202.62	131.32
1203.2	112.32
1203.77	106.32
1204.35	134.32
1204.92	106.32
1205.5	121.32
1206.07	129.32
1206.65	127.32
1207.22	115.32
1207.8	111.32
1208.37	95.3204
1208.95	130.32
1209.52	105.32
1210.1	104.32
1210.67	95.3204
1211.25	91.3204
1211.82	91.3204
1212.4	86.3204
1212.97	83.3204
1213.54	111.32
1214.12	90.3204
1214.69	106.32
1215.27	90.3204
1215.84	111.32
1216.41	91.8561
1216.99	124.32
1217.56	86.3204
1218.14	81.3204
1218.71	81.3204
1219.28	86.3204
1219.86	77.3204
1220.43	65.3204
1221	85.3204
1221.58	67.3204
1222.15	77.3204
1222.72	99.3204
1223.3	95.3204
1223.87	84.3204
1224.44	68.3204
1225.02	79.3204
1225.59	81.3204
1226.16	73.3204
1226.74	73.3204
1227.31	73.3204
1227.88	60.3204
1228.45	82.3204
1229.03	66.3204
1229.6	88.3204
1230.17	65.3204
1230.74	74.3204
1231.32	73.3204
1231.89	73.3204
1232.46	73.3204
1233.04	62.3204
1233.61	69.3204
1234.18	58.3204
1234.75	71.3204
1235.32	78.3204
1235.9	60.3204
1236.47	55.3204
1237.04	70.3204
1237.61	71.3204
1238.18	53.3204
1238.75	63.3204
1239.33	48.3204
1239.9	70.3204
1240.47	52.3204
1241.04	54.3204
1241.61	63.3204
1242.19	71.3204
1242.76	52.3204
1243.33	42.3204
1243.9	80.3204
1244.47	58.3204
1245.04	57.3204
1245.61	58.3204
1246.18	62.3204
1246.75	42.3204
1247.33	53.3204
1247.9	71.3204
1248.47	57.3204
1249.04	61.3204
1249.61	38.3204
1250.18	65.3204
1250.75	41.3204
1251.32	56.3204
1251.89	44.3204
1252.46	61.3204
1253.03	53.3204
1253.6	75.3204
1254.17	49.3204
1254.74	51.3204
1255.31	58.3204
1255.88	71.3204
1256.45	48.3204
1257.02	45.3204
1257.59	48.3204
1258.16	61.3204
1258.73	46.3204
1259.3	39.3204
1259.87	44.3204
1260.44	70.3204
1261.01	43.3204
1261.58	51.3204
1262.15	39.3204
1262.72	59.3204
1263.29	43.3204
1263.86	60.3204
1264.43	71.3204
1265	61.3204
1265.57	42.3204
1266.14	47.3204
1266.71	61.3204
1267.27	54.3204
1267.84	28.3204
1268.41	52.3204
1268.98	84.3204
1269.55	73.3204
1270.12	48.3204
1270.69	71.3204
1271.26	58.3204
1271.82	55.3204
1272.39	65.3204
1272.96	36.3204
1273.53	46.3204
1274.1	79.3204
1274.67	59.3204
1275.23	54.3204
1275.8	51.3204
1276.37	64.3204
1276.94	52.3204
1277.51	47.3204
1278.08	67.3204
1278.64	69.3204
1279.21	38.3204
1279.78	44.3204
1280.34	50.3204
1280.91	71.3204
1281.48	47.3204
1282.05	38.3204
1282.62	53.3204
1283.18	72.3204
1283.75	52.3204
1284.32	43.3204
1284.89	42.3204
1285.45	56.3204
1286.02	69.3204
1286.59	46.3204
1287.15	41.3204
1287.72	55.3204
1288.29	52.3204
1288.85	48.3204
1289.42	51.3204
1289.99	55.3204
1290.56	59.3204
1291.12	69.3204
1291.69	56.3204
1292.26	39.3204
1292.82	64.3204
1293.39	43.3204
1293.96	60.3204
1294.52	65.3204
1295.09	55.3204
1295.65	41.3204
1296.22	53.3204
1296.79	73.3204
1297.35	63.3204
1297.92	40.3204
1298.48	48.3204
1299.05	58.3204
1299.62	58.3204
1300.18	42.3204
