17.0039	830.482
17.6805	834.482
18.3571	806.482
19.0336	829.482
19.7123	810.482
20.3887	823.482
21.0651	862.482
21.7414	868.482
22.4176	827.482
23.0939	832.482
23.77	868.482
24.4462	878.482
25.1222	922.482
25.7983	914.482
26.4742	927.482
27.1502	996.482
27.8261	1058.48
28.5019	1029.48
29.1777	1096.48
29.8534	1067.48
30.5291	1072.48
31.2048	1069.48
31.8804	1066.48
32.5559	1072.48
33.2314	1135.48
33.9069	1184.48
34.5823	1212.48
35.2577	1264.48
35.933	1307.48
36.6083	1349.48
37.2835	1381.48
37.9587	1447.48
38.6338	1435.48
39.3066	1489.48
39.9817	1479.48
40.6566	1514.48
41.3316	1558.48
42.0065	1529.48
42.6813	1613.48
43.3539	1672.48
44.0286	1762.48
44.7033	1787.48
45.378	1827.48
46.0526	1822.48
46.7249	1772.48
47.3994	1876.48
48.0739	1970.48
48.7483	1968.48
49.4204	2002.48
50.0947	2034.48
50.769	2128.48
51.4433	2114.48
52.1152	2070.48
52.7893	2158.48
53.4634	2147.48
54.1352	2187.48
54.8092	2222.48
55.4831	2223.48
56.1548	2213.48
56.8286	2267.48
57.5024	2416.48
58.1739	2377.48
58.8477	2369.48
59.5213	2458.48
60.1927	2593.48
60.8663	2578.48
61.5375	2658.48
62.211	2660.48
62.8845	2532.48
63.5556	2464.48
64.2289	2529.48
64.8999	2576.48
65.5732	2574.48
66.2441	2542.48
66.9173	2651.48
67.5881	2679.48
68.2612	2718.48
68.9319	2702.48
69.6049	2706.48
70.2755	2725.48
70.9484	2711.48
71.619	2797.48
72.2918	2753.48
72.9622	2778.48
73.6349	2820.48
74.3053	2756.48
74.9756	2894.48
75.6482	2847.48
76.3184	2895.48
76.9909	2889.48
77.661	2907.48
78.3311	2807.48
79.0034	2854.48
79.6734	2861.48
80.3433	2798.48
81.0155	2774.48
81.6854	2860.48
82.3552	2851.48
83.0272	2822.48
83.6969	2966.48
84.3666	2940.48
85.0385	2946.48
85.7081	2911.48
86.3776	2917.48
87.0471	2884.48
87.7188	2903.48
88.3882	2879.48
89.0575	2880.48
89.7268	2898.48
90.3961	2920.48
91.0676	3000.48
91.7367	2889.48
92.4059	2985.48
93.0749	3035.48
93.7439	2956.48
94.4152	2976.48
95.0841	2867.48
95.753	2886.48
96.4218	2937.48
97.0906	2971.48
97.7594	2925.48
98.4281	2895.48
99.0967	2812.48
99.7676	2943.48
100.436	2973.48
101.105	3011.48
101.773	2878.48
102.442	2893.48
103.11	2902.48
103.778	2911.48
104.447	2846.48
105.115	2920.48
105.783	2927.48
106.451	2972.48
107.119	3074.48
107.787	3003.48
108.455	2978.48
109.123	2937.48
109.791	2924.48
110.459	2917.48
111.127	2865.48
111.795	2875.48
112.462	2858.48
113.13	2857.48
113.795	2910.48
114.463	2898.48
115.13	2920.48
115.798	2912.48
116.465	2922.48
117.133	2988.48
117.8	2885.48
118.467	2891.48
119.132	2884.48
119.8	2926.48
120.467	2822.48
121.134	2925.48
121.801	2900.48
122.466	2861.48
123.133	2863.48
123.8	2901.48
124.467	2924.48
125.133	2802.48
125.798	2838.48
126.465	2860.48
127.131	2841.48
127.796	2817.48
128.462	2794.48
129.129	2820.48
129.796	2875.48
130.46	2857.48
131.126	2803.48
131.793	2883.48
132.457	2820.48
133.123	2771.48
133.789	2786.48
134.453	2812.48
135.119	2777.48
135.783	2774.48
136.449	2756.48
137.115	2661.48
137.779	2820.48
138.445	2736.48
139.108	2772.48
139.774	2765.48
140.438	2835.48
141.104	2795.48
141.769	2832.48
142.433	2769.48
143.098	2749.48
143.762	2762.48
144.427	2677.48
145.09	2759.48
145.756	2744.48
146.419	2698.48
147.084	2682.48
147.747	2724.48
148.41	2730.48
149.075	2771.48
149.738	2686.48
150.403	2729.48
151.066	2732.48
151.731	2737.48
152.394	2680.48
153.056	2682.48
153.721	2761.48
154.384	2747.48
155.046	2663.48
155.711	2673.48
156.374	2710.48
157.036	2664.48
157.701	2598.48
158.363	2703.48
159.025	2628.48
159.69	2657.48
160.352	2685.48
161.014	2651.48
161.676	2598.48
162.34	2576.48
163.002	2666.48
163.664	2600.48
164.326	2638.48
164.99	2575.48
165.652	2589.48
166.314	2639.48
166.975	2633.48
167.637	2570.48
168.301	2655.48
168.962	2638.48
169.624	2562.48
170.285	2555.48
170.947	2651.48
171.608	2588.48
172.272	2553.48
172.933	2610.48
173.594	2580.48
174.255	2525.48
174.917	2511.48
175.578	2540.48
176.239	2584.48
176.9	2559.48
177.561	2558.48
178.222	2595.48
178.882	2510.48
179.543	2568.48
180.204	2538.48
180.865	2570.48
181.526	2568.48
182.186	2536.48
182.847	2511.48
183.507	2522.48
184.168	2519.48
184.828	2574.48
185.489	2535.48
186.149	2462.48
186.809	2488.48
187.47	2504.48
188.13	2496.48
188.79	2530.48
189.45	2517.48
190.11	2441.48
190.768	2516.48
191.428	2507.48
192.088	2443.48
192.748	2489.48
193.408	2494.48
194.068	2488.48
194.728	2545.48
195.385	2497.48
196.045	2390.48
196.705	2493.48
197.364	2482.48
198.021	2466.48
198.681	2445.48
199.34	2452.48
200	2460.48
200.657	2458.48
201.316	2482.48
201.976	2468.48
202.635	2417.48
203.292	2395.48
203.951	2478.48
204.61	2484.48
205.267	2415.48
205.926	2415.48
206.585	2488.48
207.242	2425.48
207.9	2435.48
208.559	2433.48
209.216	2437.48
209.875	2424.48
210.533	2435.48
211.19	2381.48
211.848	2394.48
212.505	2384.48
213.163	2449.48
213.819	2358.48
214.478	2370.48
215.134	2428.48
215.792	2370.48
216.451	2409.48
217.107	2348.48
217.765	2345.48
218.421	2342.48
219.079	2391.48
219.735	2400.48
220.391	2396.48
221.049	2360.48
221.704	2376.48
222.362	2368.48
223.018	2434.48
223.675	2370.48
224.331	2361.48
224.989	2429.48
225.644	2354.48
226.3	2361.48
226.957	2357.48
227.612	2340.48
228.268	2408.48
228.925	2323.48
229.58	2373.48
230.235	2321.48
230.893	2369.48
231.548	2363.48
232.203	2399.48
232.86	2355.48
233.515	2329.48
234.17	2381.48
234.827	2321.48
235.481	2373.48
236.136	2417.48
236.791	2393.48
237.448	2400.48
238.102	2349.48
238.757	2323.48
239.411	2333.48
240.066	2375.48
240.722	2325.48
241.377	2362.48
242.031	2378.48
242.685	2356.48
243.339	2389.48
243.993	2336.48
244.648	2311.48
245.304	2322.48
245.958	2359.48
246.612	2338.48
247.266	2316.48
247.92	2395.48
248.574	2353.48
249.227	2309.48
249.881	2279.48
250.535	2343.48
251.189	2364.48
251.842	2304.48
252.496	2321.48
253.149	2299.48
253.803	2301.48
254.456	2310.48
255.11	2330.48
255.763	2337.48
256.416	2268.48
257.07	2344.48
257.723	2288.48
258.376	2333.48
259.029	2261.48
259.682	2278.48
260.335	2322.48
260.988	2330.48
261.641	2267.48
262.294	2309.48
262.947	2341.48
263.598	2223.48
264.251	2235.48
264.903	2302.48
265.556	2296.48
266.209	2346.48
266.861	2243.48
267.512	2357.48
268.164	2297.48
268.817	2256.48
269.469	2299.48
270.121	2302.48
270.772	2271.48
271.424	2316.48
272.076	2353.48
272.728	2336.48
273.378	2285.48
274.03	2277.48
274.682	2301.48
275.332	2250.48
275.984	2269.48
276.636	2315.48
277.288	2251.48
277.938	2298.48
278.59	2298.48
279.239	2235.48
279.891	2282.48
280.542	2284.48
281.192	2274.48
281.843	2278.48
282.495	2273.48
283.144	2165.48
283.796	2304.48
284.445	2275.48
285.096	2253.48
285.745	2303.48
286.397	2218.48
287.048	2269.48
287.697	2227.48
288.348	2279.48
288.997	2243.48
289.648	2348.48
290.297	2236.48
290.948	2246.48
291.596	2251.48
292.247	2291.48
292.896	2286.48
293.544	2274.48
294.195	2304.48
294.844	2232.48
295.494	2271.48
296.143	2232.48
296.793	2252.48
297.441	2248.48
298.09	2278.48
298.74	2235.48
299.388	2274.48
300.036	2246.48
300.687	2270.48
301.335	2288.48
301.983	2232.48
302.633	2263.48
303.281	2291.48
303.929	2302.48
304.579	2279.48
305.227	2252.48
305.874	2295.48
306.522	2247.48
307.172	2303.48
307.819	2193.48
308.467	2231.48
309.114	2263.48
309.764	2264.48
310.412	2270.48
311.059	2192.48
311.706	2254.48
312.354	2286.48
313.003	2259.48
313.65	2211.48
314.297	2203.48
314.944	2237.48
315.592	2210.48
316.239	2220.48
316.886	2227.48
317.535	2178.48
318.182	2222.48
318.828	2253.48
319.475	2232.48
320.122	2216.48
320.769	2287.48
321.415	2256.48
322.062	2203.48
322.709	2250.48
323.355	2234.48
324.002	2222.48
324.648	2200.48
325.294	2259.48
325.941	2227.48
326.587	2202.48
327.233	2201.48
327.88	2277.48
328.526	2208.48
329.172	2206.48
329.818	2184.48
330.464	2229.48
331.11	2241.48
331.754	2149.48
332.4	2179.48
333.046	2229.48
333.692	2195.48
334.337	2284.48
334.983	2181.48
335.629	2226.48
336.275	2197.48
336.918	2161.48
337.564	2213.48
338.209	2152.48
338.855	2242.48
339.5	2224.48
340.143	2190.48
340.789	2167.48
341.434	2240.48
342.079	2238.48
342.722	2145.48
343.367	2220.48
344.012	2178.48
344.658	2207.48
345.3	2161.48
345.945	2176.48
346.59	2179.48
347.233	2174.48
347.878	2223.48
348.523	2240.48
349.165	2234.48
349.81	2232.48
350.455	2215.48
351.097	2206.48
351.742	2267.48
352.384	2211.48
353.029	2233.48
353.673	2240.48
354.315	2230.48
354.96	2210.48
355.602	2187.48
356.246	2187.48
356.888	2220.48
357.533	2235.48
358.175	2187.48
358.819	2175.48
359.461	2238.48
360.105	2187.48
360.746	2288.48
361.39	2230.48
362.032	2149.48
362.676	2224.48
363.318	2166.48
363.961	2240.48
364.603	2204.48
365.247	2218.48
365.888	2213.48
366.529	2186.48
367.173	2255.48
367.814	2227.48
368.456	2207.48
369.099	2195.48
369.74	2262.48
370.381	2254.48
371.025	2190.48
371.666	2168.48
372.307	2179.48
372.95	2207.48
373.591	2254.48
374.232	2193.48
374.875	2194.48
375.516	2171.48
376.156	2195.48
376.797	2200.48
377.44	2217.48
378.081	2282.48
378.721	2168.48
379.362	2191.48
380.002	2226.48
380.645	2197.48
381.285	2182.48
381.926	2230.48
382.566	2167.48
383.206	2187.48
383.847	2197.48
384.489	2199.48
385.129	2211.48
385.769	2229.48
386.409	2198.48
387.049	2230.48
387.689	2287.48
388.329	2193.48
388.969	2268.48
389.609	2173.48
390.249	2250.48
390.889	2217.48
391.528	2232.48
392.168	2248.48
392.81	2161.48
393.449	2189.48
394.089	2207.48
394.726	2228.48
395.366	2238.48
396.005	2231.48
396.645	2212.48
397.284	2275.48
397.923	2208.48
398.562	2319.48
399.202	2241.48
399.841	2212.48
400.48	2187.48
401.119	2277.48
401.758	2252.48
402.397	2232.48
403.034	2274.48
403.673	2269.48
404.311	2190.48
404.95	2243.48
405.589	2220.48
406.228	2251.48
406.864	2262.48
407.503	2256.48
408.142	2270.48
408.78	2232.48
409.419	2220.48
410.055	2250.48
410.693	2291.48
411.332	2339.48
411.968	2270.48
412.606	2243.48
413.244	2224.48
413.883	2293.48
414.519	2307.48
415.157	2263.48
415.795	2284.48
416.431	2270.48
417.069	2328.48
417.707	2264.48
418.342	2336.48
418.98	2256.48
419.616	2334.48
420.254	2291.48
420.891	2350.48
421.527	2219.48
422.165	2284.48
422.8	2384.48
423.438	2340.48
424.075	2377.48
424.71	2354.48
425.348	2315.48
425.983	2275.48
426.62	2337.48
427.256	2343.48
427.893	2379.48
428.528	2361.48
429.165	2350.48
429.8	2329.48
430.435	2328.48
431.072	2327.48
431.707	2398.48
432.344	2391.48
432.979	2378.48
433.615	2418.48
434.25	2398.48
434.885	2327.48
435.521	2322.48
436.156	2369.48
436.79	2432.48
437.427	2348.48
438.061	2438.48
438.696	2427.48
439.332	2439.48
439.967	2468.48
440.601	2404.48
441.237	2430.48
441.871	2463.48
442.505	2410.48
443.142	2394.48
443.776	2447.48
444.41	2448.48
445.044	2422.48
445.678	2457.48
446.314	2426.48
446.947	2438.48
447.581	2416.48
448.215	2430.48
448.849	2457.48
449.484	2500.48
450.118	2483.48
450.752	2418.91
451.385	2442.12
452.018	2466.31
452.652	2476.69
453.285	2475.58
453.921	2444.73
454.554	2515.65
455.187	2445.53
455.821	2509.92
456.454	2479.42
457.087	2449.73
457.72	2520.85
458.353	2430.22
458.986	2501.12
459.619	2507.95
460.252	2499.41
460.885	2416.37
461.518	2497.06
462.15	2571.76
462.783	2534.5
463.416	2456.5
464.048	2485.42
464.681	2532.19
465.314	2532.75
465.946	2525.01
466.579	2518.41
467.209	2488.27
467.841	2482.28
468.474	2531.04
469.106	2482.34
469.738	2512.56
470.371	2515.36
471.003	2537.89
471.633	2498.67
472.265	2504.86
472.897	2517.05
473.529	2513.8
474.161	2552.59
474.791	2560.51
475.423	2564.41
476.054	2498.74
476.686	2513.1
477.318	2488.14
477.948	2522.08
478.579	2446.93
479.211	2551.93
479.84	2516.49
480.472	2515.54
481.103	2519.88
481.733	2472.5
482.364	2512.37
482.996	2475.05
483.625	2582.67
484.256	2541.45
484.887	2541.65
485.516	2596.95
486.148	2508.7
486.779	2521.8
487.408	2548.49
488.039	2509.45
488.668	2525.91
489.298	2559.06
489.927	2505.48
490.558	2568.59
491.187	2568.27
491.818	2514.38
492.446	2551.74
493.077	2544.57
493.705	2536.17
494.336	2516.46
494.964	2515.88
495.595	2543.45
496.223	2546.29
496.854	2490.89
497.482	2489.89
498.112	2502.32
498.741	2438.85
499.371	2523.51
499.999	2524.59
500.627	2536.19
501.257	2546.56
501.885	2521.3
502.513	2613.27
503.143	2588.4
503.771	2604.23
504.399	2546.19
505.029	2469.84
505.656	2547.88
506.284	2542.76
506.914	2562.13
507.541	2563.87
508.169	2560.82
508.796	2503.21
509.426	2470.81
510.054	2532.1
510.681	2499.09
511.308	2564.43
511.938	2490.09
512.565	2501.29
513.192	2531.59
513.819	2504.62
514.446	2494.97
515.076	2484.24
515.703	2489.82
516.33	2497.83
516.957	2478.78
517.584	2491.62
518.21	2481.42
518.837	2477.38
519.464	2474.83
520.093	2505.34
520.72	2486.36
521.346	2513.15
521.973	2459.23
522.6	2464.06
523.226	2439.42
523.853	2443.94
524.479	2451.9
525.105	2443.58
525.732	2492.74
526.358	2461.64
526.984	2401.75
527.611	2422.7
528.237	2491.73
528.863	2406.91
529.489	2433.48
530.115	2442.97
530.741	2432.89
531.365	2411.46
531.991	2416.6
532.617	2425.85
533.243	2432.38
533.869	2435.26
534.495	2396.09
535.12	2390.91
535.746	2431.75
536.369	2372.41
536.995	2414.8
537.621	2397.83
538.246	2389.78
538.872	2381.36
539.495	2356.3
540.12	2350.37
540.746	2332.62
541.371	2343.14
541.994	2328.85
542.62	2330.03
543.245	2353.74
543.87	2339.65
544.493	2368.65
545.118	2329.2
545.743	2341.51
546.366	2288.59
546.991	2307.03
547.616	2317.67
548.238	2332.43
548.863	2278.22
549.488	2316.74
550.111	2268.64
550.735	2301.5
551.36	2276.38
551.982	2266.34
552.607	2282.51
553.229	2249.33
553.854	2268.5
554.476	2269.77
555.101	2302.49
555.723	2243.59
556.347	2244.33
556.969	2238.23
557.594	2215.14
558.216	2218.65
558.84	2253.27
559.462	2281.99
560.086	2200.94
560.708	2246.9
561.332	2262.18
561.954	2206.31
562.578	2237.09
563.199	2272.69
563.821	2224.9
564.445	2239.92
565.066	2207.48
565.69	2208.79
566.312	2206.01
566.933	2228.33
567.557	2207
568.178	2202.59
568.799	2216.22
569.423	2222.74
570.044	2206.12
570.665	2239.19
571.289	2224.6
571.91	2202.38
572.531	2210.45
573.152	2198.51
573.775	2200.41
574.396	2202.27
575.017	2190.37
575.638	2217.11
576.261	2231.21
576.882	2187.09
577.503	2153.7
578.123	2159.14
578.744	2163.55
579.365	2203.25
579.987	2181.92
580.608	2187.06
581.229	2145.58
581.849	2138.56
582.47	2155.69
583.09	2128.45
583.71	2151.8
584.331	2134.59
584.951	2127.03
585.571	2129.91
586.194	2160.07
586.814	2119.53
587.434	2132.92
588.054	2154.58
588.674	2090.37
589.294	2109.29
589.914	2117.52
590.534	2085.07
591.154	2077.82
591.774	2100.47
592.391	2099.51
593.011	2025.91
593.631	2042.65
594.25	2026.22
594.87	2028.97
595.49	2040.44
596.109	2033.36
596.729	2050.61
597.348	1989.32
597.967	2032.15
598.585	1970.97
599.204	1975.51
599.823	1942.88
600.443	1945.33
601.062	1962.57
601.681	1957.58
602.298	1954.01
602.917	1926.73
603.536	1916.21
604.155	1933.09
604.772	1907.07
605.391	1894.71
606.01	1861.82
606.629	1941.88
607.245	1863.44
607.864	1934.33
608.483	1909.51
609.099	1810.13
609.718	1857.33
610.337	1809.37
610.953	1846.32
611.572	1821.25
612.19	1840.56
612.806	1851.24
613.425	1798.31
614.043	1753.86
614.659	1825.23
615.278	1823.71
615.894	1801.88
616.512	1721.74
617.128	1755.94
617.746	1740.64
618.364	1743.22
618.98	1701.06
619.598	1689.08
620.214	1714.12
620.832	1731.07
621.448	1746.36
622.065	1685.7
622.681	1692.8
623.297	1614.48
623.914	1663.17
624.53	1660.13
625.148	1632.29
625.763	1650.85
626.381	1655.81
626.996	1585.91
627.611	1602.65
628.229	1616.37
628.844	1566.28
629.459	1596.7
630.076	1602.12
630.692	1574.03
631.307	1536.12
631.924	1546.68
632.539	1589.8
633.154	1508.52
633.771	1530.54
634.386	1567.52
635.001	1517.45
635.615	1513.34
636.232	1490.83
636.847	1473.4
637.462	1472.92
638.076	1474.91
638.693	1455.85
639.308	1440.36
639.922	1445.59
640.537	1455.27
641.151	1449.09
641.768	1402.3
642.382	1420.53
642.996	1417.52
643.611	1418.72
644.225	1405.77
644.839	1374.45
645.453	1376.1
646.067	1376.79
646.681	1358.99
647.295	1349.35
647.912	1380.53
648.526	1322.88
649.139	1295.41
649.753	1340.39
650.367	1305.91
650.981	1303.86
651.595	1318.3
652.208	1319.1
652.822	1303.82
653.436	1351.71
654.049	1284.66
654.663	1312.42
655.274	1278.5
655.888	1299.52
655.961	1259.52
656.581	1275.52
657.201	1278.52
657.823	1295.52
658.442	1257.52
659.064	1245.52
659.684	1246.52
660.306	1277.52
660.925	1240.52
661.547	1230.52
662.166	1221.52
662.786	1233.52
663.408	1178.52
664.027	1213.52
664.646	1186.52
665.268	1208.52
665.887	1205.52
666.506	1219.52
667.128	1207.52
667.747	1173.52
668.366	1124.52
668.987	1153.52
669.606	1186.52
670.225	1172.52
670.844	1176.52
671.465	1150.52
672.084	1145.52
672.703	1179.52
673.322	1157.52
673.942	1133.52
674.561	1171.52
675.18	1103.52
675.798	1132.52
676.417	1147.52
677.038	1133.52
677.656	1151.52
678.275	1140.52
678.893	1102.52
679.511	1111.52
680.13	1128.52
680.75	1103.52
681.368	1144.52
681.987	1103.52
682.605	1094.52
683.223	1137.52
683.841	1122.52
684.459	1113.52
685.077	1098.52
685.695	1102.52
686.313	1043.52
686.931	1094.52
687.549	1063.52
688.166	1065.52
688.784	1088.52
689.402	1121.52
690.02	1046.52
690.637	1082.52
691.255	1094.52
691.872	1041.52
692.49	1064.52
693.107	1060.52
693.725	1086.52
694.342	1067.52
694.96	1043.52
695.577	1021.52
696.192	1054.52
696.809	1010.52
697.426	1050.52
698.044	1023.52
698.661	1021.52
699.278	1036.52
699.895	1006.52
700.51	1061.52
701.127	1012.52
701.744	1023.52
702.36	1017.52
702.977	1010.52
703.592	980.518
704.209	1005.52
704.825	1020.52
705.442	1003.52
706.056	982.518
706.673	1005.52
707.29	1010.52
707.906	1015.52
708.52	960.518
709.137	1044.52
709.753	1000.52
710.367	1023.52
710.984	983.518
711.6	972.518
712.214	997.518
712.83	973.518
713.444	945.518
714.06	917.518
714.676	968.518
715.29	972.518
715.906	973.518
716.52	930.518
717.136	958.518
717.752	939.518
718.365	937.518
718.981	940.518
719.595	934.518
720.21	988.518
720.824	946.518
721.44	925.518
722.053	950.518
722.669	931.518
723.282	949.518
723.897	929.518
724.511	923.518
725.126	910.518
725.739	927.518
726.352	933.518
726.968	942.518
727.581	929.518
728.196	892.518
728.809	911.518
729.422	907.518
730.037	923.518
730.65	930.518
731.265	890.518
731.877	945.518
732.49	903.518
733.105	903.518
733.718	918.518
734.33	922.518
734.943	904.518
735.558	885.518
736.17	885.518
736.783	905.518
737.397	896.518
738.01	902.518
738.622	850.518
739.234	875.518
739.846	895.518
740.461	888.518
741.073	861.518
741.685	875.518
742.297	863.518
742.909	870.518
743.523	853.518
744.135	833.518
744.747	830.518
745.359	839.518
745.971	844.518
746.583	869.518
747.195	853.518
747.807	828.518
748.42	849.518
749.032	819.518
749.644	848.518
750.255	853.518
750.867	808.518
751.478	835.518
752.09	815.518
752.701	822.518
753.313	827.518
753.924	808.518
754.535	840.518
755.146	818.518
755.758	800.518
756.369	785.518
756.98	825.518
757.591	771.518
758.202	794.518
758.813	817.518
759.424	836.518
760.033	807.518
760.644	795.518
761.255	805.518
761.866	779.518
762.476	783.518
763.087	810.518
763.698	829.518
764.309	820.518
764.917	776.518
765.528	761.518
766.138	761.518
766.749	784.518
767.359	769.518
767.967	783.518
768.578	782.518
769.188	747.518
769.798	782.518
770.409	766.518
771.017	783.518
771.627	778.518
772.237	753.518
772.845	752.518
773.455	759.518
774.065	755.518
774.673	725.518
775.283	715.518
775.893	751.518
776.501	721.518
777.111	734.518
777.72	732.518
778.328	717.518
778.938	695.518
779.547	735.518
780.155	719.518
780.764	712.518
781.372	707.518
781.981	725.518
782.589	706.518
783.198	687.518
783.807	721.518
784.415	671.518
785.024	699.518
785.631	692.518
786.24	714.518
786.848	694.518
787.457	672.518
788.064	674.518
788.673	668.518
789.28	693.518
789.886	646.518
790.495	632.518
791.102	666.518
791.711	665.518
792.318	658.518
792.927	625.518
793.533	633.518
794.14	669.518
794.749	645.518
795.355	646.518
795.962	646.518
796.57	633.518
797.176	623.518
797.783	627.518
798.391	618.518
798.998	625.518
799.604	616.518
800.212	593.518
800.818	624.518
801.424	581.518
802.03	600.518
802.639	609.518
803.245	613.518
803.851	622.518
804.457	578.518
805.062	578.518
805.67	563.518
806.276	592.518
806.882	578.518
807.488	565.518
808.093	562.518
808.699	551.518
809.307	537.518
809.912	551.518
810.518	550.518
811.123	568.518
811.729	540.518
812.334	547.518
812.94	537.518
813.545	542.518
814.15	526.518
814.755	538.518
815.361	528.518
815.968	511.518
816.573	513.518
817.178	505.518
817.783	509.518
818.388	511.518
818.993	488.518
819.598	514.518
820.201	501.518
820.806	485.518
821.411	478.518
822.015	486.518
822.62	480.518
823.225	478.518
823.83	490.518
824.434	490.518
825.039	451.518
825.643	471.518
826.248	464.518
826.85	460.518
827.455	455.518
828.059	458.518
828.663	445.518
829.268	456.518
829.872	447.518
830.474	412.518
831.078	439.518
831.682	433.518
832.286	437.518
832.891	455.518
833.492	425.518
834.096	437.518
834.7	430.518
835.304	448.518
835.906	437.518
836.51	432.518
837.114	423.518
837.715	447.518
838.319	457.518
838.923	438.518
839.524	443.518
840.128	446.518
840.732	425.518
841.333	409.518
841.936	444.518
842.538	424.518
843.141	430.518
843.745	425.518
844.346	425.518
844.949	433.518
845.55	442.518
846.153	429.518
846.754	417.518
847.358	421.518
847.961	446.518
848.562	415.518
849.165	407.518
849.766	456.518
850.368	425.518
850.969	429.518
851.57	435.518
852.173	427.518
852.773	430.518
853.376	422.518
853.977	437.518
854.58	436.518
855.18	432.518
855.781	436.518
856.383	419.518
856.984	437.518
857.586	460.518
858.186	427.518
858.787	426.518
859.389	445.518
859.989	432.518
860.589	428.518
861.192	458.518
861.792	459.518
862.392	463.518
862.992	443.518
863.594	442.518
864.194	483.518
864.794	440.518
865.393	452.518
865.995	480.518
866.595	472.518
867.195	459.518
867.795	453.518
868.396	475.518
868.996	476.518
869.596	491.518
870.195	474.518
870.795	477.518
871.394	486.518
871.996	450.518
872.595	475.518
873.195	486.518
873.794	476.518
874.393	492.518
874.992	487.518
875.592	503.518
876.191	493.518
876.79	485.518
877.389	520.518
877.988	472.518
878.587	516.518
879.186	506.518
879.785	518.518
880.384	525.518
880.983	525.518
881.581	532.518
882.18	522.518
882.779	514.518
883.378	545.518
883.976	537.518
884.575	525.518
885.174	542.518
885.772	537.518
886.371	555.518
886.969	546.518
887.567	556.518
888.164	561.518
888.762	539.518
889.36	560.518
889.959	578.518
890.557	565.518
891.155	572.518
891.753	570.518
892.349	599.518
892.947	596.749
893.545	599.862
894.143	614.779
894.739	607.513
895.337	610.447
895.935	605.903
896.533	616.555
897.129	618.195
897.726	635.36
898.324	632.852
898.922	612.122
899.517	644.19
900.115	638.969
900.713	647.318
901.308	641.549
901.906	667.982
902.501	661.331
903.098	661.731
903.696	669.184
904.291	663.886
904.888	675.932
905.486	690.806
906.081	662.711
906.678	663.877
907.273	701.846
907.87	690.32
908.465	689.958
909.062	686.641
909.657	729.155
910.254	718.975
910.849	709.275
911.446	710.347
912.041	750.124
912.637	738.273
913.232	718.221
913.829	728.547
914.423	746.565
915.02	755.609
915.615	739.339
916.209	759.372
916.806	740.13
917.4	766.806
917.996	774.188
918.591	760.313
919.185	754.39
919.781	790.623
920.376	771.245
920.97	768.496
921.566	776.606
922.16	819.766
922.754	805.126
923.35	801.633
923.944	786.081
924.538	816.263
925.132	802.342
925.728	831.921
926.322	858.418
926.916	848.32
927.51	832.858
928.105	848.279
928.699	839.642
929.293	827.678
929.886	875.736
930.48	851.31
931.076	877.542
931.669	843.729
932.263	871.308
932.856	891.45
933.449	870.719
934.043	876.525
934.636	876.206
935.229	857.365
935.825	874.325
936.418	887.82
937.011	892.888
937.604	900.465
938.197	911.425
938.79	927.41
939.383	925.679
939.976	903.24
940.569	905.261
941.162	920.966
941.755	913.687
942.348	916.784
942.94	923.064
943.533	942.502
944.126	936.063
944.719	921.98
945.311	938.89
945.902	953.002
946.494	961.324
947.087	942.573
947.679	948.709
948.272	954.487
948.864	940.109
949.456	985.535
950.049	958.292
950.639	981.105
951.231	989.363
951.823	976.533
952.415	960.357
953.008	975.192
953.6	960.06
954.19	1016.62
954.782	997.633
955.374	1016.33
955.966	991.657
956.555	999.878
957.147	978.268
957.739	1011.54
958.329	1017.65
958.921	997.892
959.512	1011.26
960.104	1023.19
960.693	1014.57
961.285	1012.46
961.877	1007.17
962.466	1027.55
963.058	1004.64
963.647	1028.09
964.238	1035.98
964.83	1023.93
965.419	1009.58
966.01	1037.98
966.599	1035.88
967.191	1042.21
967.78	1021.89
968.371	1041.71
968.962	1024.88
969.551	1037.7
970.142	1045.71
970.731	1057.07
971.322	1043.02
971.911	1055.97
972.502	1029.52
973.09	1037.15
973.679	1047.46
974.27	1035.13
974.859	1077.19
975.449	1036.16
976.038	1061.35
976.628	1039.35
977.217	1023.96
977.805	1019.99
978.396	1055.22
978.984	1083.24
979.573	1058.73
980.163	1044.2
980.751	1054.66
981.34	1016.76
981.93	1036.82
982.518	1044.11
983.106	1061.76
983.696	1034.33
984.284	1038.26
984.872	1044.34
985.46	1053.31
986.05	1045.93
986.638	1063.39
987.226	1058.47
987.814	1059.33
988.404	1067.84
988.992	1040.67
989.579	1026.46
990.167	1046.53
990.755	1032.65
991.342	1068.49
991.932	1048.12
992.519	1035.53
993.107	1033.1
993.694	1055.87
994.282	1031.02
994.869	1037
995.456	1073.7
996.044	1029.07
996.631	1030.3
997.218	1036.64
997.805	1046.96
998.392	1041.42
998.98	1028.05
999.567	1003.95
1000.15	1053.06
1000.74	1042.57
1001.33	1038.46
1001.91	1036.89
1002.5	1030.94
1003.09	1049.48
1003.68	1024.28
1004.26	1028.52
1004.85	1024.75
1005.44	1012.99
1006.02	1031.64
1006.61	1038.14
1007.2	1018.86
1007.78	1015.31
1008.37	1013.75
1008.95	985.363
1009.54	1007.4
1010.13	980.515
1010.71	1001.27
1011.3	996.804
1011.88	986.896
1012.47	1010.52
1013.05	1021.62
1013.64	1032.49
1014.23	973.536
1014.81	1004.03
1015.4	995.15
1015.98	994.69
1016.57	971.45
1017.15	989.901
1017.74	975.184
1018.33	971.995
1018.91	963.786
1019.49	980.419
1020.08	977.648
1020.66	951.874
1021.25	977.566
1021.84	982.468
1022.42	961.395
1023	970.858
1023.59	971.366
1024.17	934.076
1024.76	970.251
1025.34	921.534
1025.93	941.174
1026.51	981.715
1027.1	925.594
1027.68	924.58
1028.26	925.344
1028.85	976.988
1029.43	933.678
1030.02	908.461
1030.6	926.362
1031.18	945.842
1031.77	886.849
1032.35	907.451
1032.94	922.863
1033.52	926.452
1034.1	938.05
1034.69	860.307
1035.27	900.934
1035.86	873.601
1036.44	895.013
1037.02	904.855
1037.61	929.646
1038.19	887.104
1038.77	914.606
1039.35	897.51
1039.94	865.107
1040.52	885.227
1041.1	882.958
1041.69	862.479
1042.27	864.152
1042.85	883.673
1043.44	887.489
1044.02	892.04
1044.6	891.532
1045.18	876.727
1045.77	856.223
1046.35	851.581
1046.93	873.645
1047.51	832.288
1048.09	870.198
1048.68	817.85
1049.26	856.235
1049.84	803.822
1050.42	828.893
1051	846.104
1051.59	813.544
1052.17	822.938
1052.75	833.012
1053.33	830.128
1053.92	812.742
1054.5	818.175
1055.08	849.778
1055.66	813.715
1056.24	801.691
1056.82	823.748
1057.4	786.381
1057.98	797.942
1058.57	784.3
1059.15	776.077
1059.73	801.821
1060.31	795.895
1060.89	760.407
1061.47	767.778
1062.05	750.241
1062.63	769.968
1063.21	786.049
1063.79	773.332
1064.37	745.51
1064.96	775.065
1065.54	733.527
1066.12	776.905
1066.7	731.198
1067.28	719.942
1067.86	748.117
1068.44	700.126
1069.02	747.03
1069.6	760.313
1070.18	709.132
1070.76	706.141
1071.34	720.26
1071.92	697.413
1072.5	701.774
1073.08	715.835
1073.66	692.144
1074.11	725.144
1074.7	698.144
1075.29	694.144
1075.88	696.144
1076.47	692.144
1077.05	693.144
1077.64	684.144
1078.23	662.144
1078.82	677.144
1079.4	679.144
1079.99	649.144
1080.58	673.144
1081.16	683.144
1081.75	671.144
1082.34	681.144
1082.93	682.144
1083.51	675.144
1084.1	635.144
1084.68	622.144
1085.27	654.144
1085.86	690.144
1086.44	654.144
1087.03	666.144
1087.62	631.144
1088.2	620.144
1088.79	646.144
1089.38	649.144
1089.96	620.144
1090.55	640.144
1091.14	669.144
1091.72	622.144
1092.31	604.144
1092.89	624.144
1093.48	644.144
1094.06	631.144
1094.65	607.144
1095.24	603.144
1095.82	612.144
1096.41	606.144
1096.99	609.144
1097.58	571.144
1098.16	584.144
1098.75	586.144
1099.34	616.144
1099.92	578.144
1100.51	578.144
1101.09	568.144
1101.68	572.144
1102.26	578.144
1102.85	563.144
1103.43	574.144
1104.02	539.144
1104.6	598.144
1105.19	568.144
1105.77	546.144
1106.35	563.144
1106.94	592.144
1107.52	577.144
1108.11	545.144
1108.69	554.144
1109.28	538.144
1109.86	529.144
1110.44	543.144
1111.03	519.144
1111.61	516.144
1112.2	543.144
1112.78	533.144
1113.37	539.144
1113.95	529.144
1114.53	507.144
1115.12	504.144
1115.7	505.144
1116.28	542.144
1116.87	556.144
1117.45	486.144
1118.04	489.144
1118.62	532.144
1119.2	510.144
1119.79	533.144
1120.37	483.144
1120.95	486.144
1121.54	507.144
1122.12	506.144
1122.7	491.144
1123.28	491.144
1123.87	502.144
1124.45	507.144
1125.03	479.144
1125.62	487.144
1126.2	479.144
1126.78	479.144
1127.36	495.144
1127.95	450.144
1128.53	492.144
1129.11	461.144
1129.69	457.144
1130.28	470.144
1130.86	479.144
1131.44	453.144
1132.02	414.144
1132.6	459.144
1133.19	441.144
1133.77	438.144
1134.35	438.144
1134.93	437.144
1135.52	415.144
1136.1	425.144
1136.68	462.144
1137.26	440.144
1137.84	412.144
1138.42	439.144
1139	408.144
1139.59	409.144
1140.17	430.144
1140.75	428.144
1141.33	386.144
1141.91	411.144
1142.49	419.144
1143.07	413.144
1143.65	404.144
1144.23	396.144
1144.82	400.144
1145.4	415.144
1145.98	374.144
1146.56	414.144
1147.14	386.144
1147.72	422.144
1148.3	370.144
1148.88	397.144
1149.46	380.144
1150.04	388.144
1150.62	360.144
1151.2	408.144
1151.78	377.144
1152.36	390.144
1152.94	370.144
1153.52	382.144
1154.1	379.144
1154.68	355.144
1155.26	346.144
1155.84	368.144
1156.42	362.144
1157	336.144
1157.58	366.144
1158.16	340.144
1158.74	336.144
1159.32	341.144
1159.9	338.144
1160.48	360.144
1161.06	341.144
1161.64	353.144
1162.22	334.144
1162.8	314.144
1163.38	342.144
1163.95	338.144
1164.53	310.144
1165.11	312.144
1165.69	345.144
1166.27	350.144
1166.85	309.144
1167.43	304.144
1168.01	310.144
1168.59	343.144
1169.16	312.144
1169.74	312.144
1170.32	304.144
1170.9	320.144
1171.48	303.144
1172.05	294.144
1172.63	311.144
1173.21	290.144
1173.79	300.144
1174.37	286.144
1174.95	301.144
1175.52	316.144
1176.1	287.144
1176.68	287.144
1177.26	278.144
1177.83	283.144
1178.41	282.144
1178.99	287.144
1179.57	271.144
1180.15	266.144
1180.72	277.144
1181.3	267.144
1181.88	270.144
1182.46	287.144
1183.03	271.144
1183.61	252.144
1184.19	284.144
1184.76	252.144
1185.34	260.144
1185.92	261.144
1186.49	255.144
1187.07	261.144
1187.65	259.144
1188.22	254.144
1188.8	247.144
1189.38	266.144
1189.95	239.144
1190.53	250.144
1191.11	242.144
1191.68	246.144
1192.26	216.144
1192.84	217.144
1193.41	253.144
1193.99	242.144
1194.56	250.144
1195.14	230.144
1195.72	210.144
1196.29	221.144
1196.87	223.144
1197.44	232.144
1198.02	218.144
1198.6	232.144
1199.17	199.144
1199.75	224.144
1200.32	194.144
1200.9	214.144
1201.47	207.144
1202.05	200.144
1202.62	202.144
1203.2	210.144
1203.77	216.144
1204.35	197.144
1204.92	199.144
1205.5	203.144
1206.07	208.144
1206.65	204.144
1207.22	190.144
1207.8	201.144
1208.37	195.144
1208.95	198.144
1209.52	175.144
1210.1	201.144
1210.67	189.144
1211.25	190.144
1211.82	173.144
1212.4	186.144
1212.97	193.144
1213.54	171.144
1214.12	183.144
1214.69	170.144
1215.27	167.144
1215.84	173.144
1216.41	171.144
1216.99	188.144
1217.56	182.144
1218.14	173.144
1218.71	173.144
1219.28	171.144
1219.86	166.144
1220.43	169.144
1221	174.144
1221.58	157.144
1222.15	174.144
1222.72	159.144
1223.3	170.144
1223.87	161.144
1224.44	154.144
1225.02	162.144
1225.59	167.144
1226.16	156.144
1226.74	168.144
1227.31	149.144
1227.88	158.144
1228.45	158.144
1229.03	159.144
1229.6	136.144
1230.17	143.144
1230.74	158.144
1231.32	164.144
1231.89	146.144
1232.46	166.144
1233.04	148.144
1233.61	163.144
1234.18	149.144
1234.75	150.144
1235.32	147.144
1235.9	164.144
1236.47	170.144
1237.04	152.144
1237.61	154.144
1238.18	148.144
1238.75	152.144
1239.33	152.144
1239.9	152.144
1240.47	168.144
1241.04	152.144
1241.61	142.144
1242.19	133.144
1242.76	143.144
1243.33	152.144
1243.9	155.144
1244.47	150.144
1245.04	154.144
1245.61	150.144
1246.18	140.144
1246.75	146.144
1247.33	152.144
1247.9	158.144
1248.47	136.144
1249.04	150.144
1249.61	154.144
1250.18	143.144
1250.75	144.144
1251.32	144.144
1251.89	152.144
1252.46	146.144
1253.03	141.144
1253.6	131.144
1254.17	147.144
1254.74	136.144
1255.31	125.144
1255.88	130.144
1256.45	142.144
1257.02	156.144
1257.59	132.144
1258.16	138.144
1258.73	139.144
1259.3	124.144
1259.87	135.144
1260.44	158.144
1261.01	152.144
1261.58	142.144
1262.15	157.144
1262.72	151.421
1263.29	146.895
1263.86	166.144
1264.43	185.823
1265	187.216
1265.57	147.144
1266.14	157.144
1266.71	144.144
1267.27	137.144
1267.84	150.144
1268.41	132.144
1268.98	132.144
1269.55	152.144
1270.12	144.144
1270.69	154.144
1271.26	140.144
1271.82	132.144
1272.39	149.144
1272.96	139.144
1273.53	136.144
1274.1	142.144
1274.67	139.144
1275.23	148.144
1275.8	125.144
1276.37	146.144
1276.94	140.144
1277.51	150.144
1278.08	143.144
1278.64	135.144
1279.21	158.144
1279.78	142.144
1280.34	134.144
1280.91	133.144
1281.48	144.144
1282.05	144.144
1282.62	133.144
1283.18	135.144
1283.75	142.144
1284.32	132.144
1284.89	140.144
1285.45	131.144
1286.02	146.144
1286.59	140.144
1287.15	143.144
1287.72	147.144
1288.29	152.144
1288.85	150.144
1289.42	144.144
1289.99	125.144
1290.56	114.144
1291.12	137.144
1291.69	143.144
1292.26	155.144
1292.82	128.144
1293.39	152.144
1293.96	141.144
1294.52	127.144
1295.09	145.144
1295.65	144.144
1296.22	140.144
1296.79	135.144
1297.35	144.144
1297.92	124.144
1298.48	139.144
1299.05	105.144
1299.62	139.144
1300.18	146.144
