17.0039	857.677
17.6805	844.677
18.3571	827.677
19.0336	803.677
19.7123	829.677
20.3887	854.677
21.0651	848.677
21.7414	859.677
22.4176	856.677
23.0939	841.677
23.77	894.677
24.4462	890.677
25.1222	914.677
25.7983	1019.68
26.4742	980.677
27.1502	978.677
27.8261	1005.68
28.5019	1016.68
29.1777	1008.68
29.8534	1011.68
30.5291	1041.68
31.2048	1087.68
31.8804	1127.68
32.5559	1053.68
33.2314	1125.68
33.9069	1144.68
34.5823	1207.68
35.2577	1247.68
35.933	1295.68
36.6083	1244.68
37.2835	1318.68
37.9587	1270.68
38.6338	1330.68
39.3066	1322.68
39.9817	1407.68
40.6566	1405.68
41.3316	1426.68
42.0065	1499.68
42.6813	1550.68
43.3539	1555.68
44.0286	1588.68
44.7033	1530.68
45.378	1571.68
46.0526	1598.68
46.7249	1656.68
47.3994	1716.68
48.0739	1782.68
48.7483	1782.68
49.4204	1821.68
50.0947	1746.68
50.769	1843.68
51.4433	1875.68
52.1152	1840.68
52.7893	1829.68
53.4634	1874.68
54.1352	1875.68
54.8092	1919.68
55.4831	1943.68
56.1548	1983.68
56.8286	1999.68
57.5024	2005.68
58.1739	2117.68
58.8477	2148.68
59.5213	2201.68
60.1927	2078.68
60.8663	2118.68
61.5375	2100.68
62.211	2099.68
62.8845	2104.68
63.5556	2183.68
64.2289	2156.68
64.8999	2152.68
65.5732	2149.68
66.2441	2204.68
66.9173	2251.68
67.5881	2243.68
68.2612	2197.68
68.9319	2257.68
69.6049	2288.68
70.2755	2333.68
70.9484	2311.68
71.619	2251.68
72.2918	2318.68
72.9622	2300.68
73.6349	2296.68
74.3053	2331.68
74.9756	2363.68
75.6482	2361.68
76.3184	2408.68
76.9909	2365.68
77.661	2328.68
78.3311	2270.68
79.0034	2331.68
79.6734	2347.68
80.3433	2266.68
81.0155	2349.68
81.6854	2360.68
82.3552	2427.68
83.0272	2475.68
83.6969	2429.68
84.3666	2328.68
85.0385	2346.68
85.7081	2354.68
86.3776	2390.68
87.0471	2359.68
87.7188	2374.68
88.3882	2366.68
89.0575	2368.68
89.7268	2361.68
90.3961	2416.68
91.0676	2423.68
91.7367	2471.68
92.4059	2410.68
93.0749	2429.68
93.7439	2476.68
94.4152	2439.68
95.0841	2383.68
95.753	2403.68
96.4218	2410.68
97.0906	2343.68
97.7594	2418.68
98.4281	2417.68
99.0967	2384.68
99.7676	2422.68
100.436	2389.68
101.105	2405.68
101.773	2397.68
102.442	2418.68
103.11	2404.68
103.778	2378.68
104.447	2419.68
105.115	2448.68
105.783	2441.68
106.451	2396.68
107.119	2439.68
107.787	2415.68
108.455	2426.68
109.123	2374.68
109.791	2349.68
110.459	2414.68
111.127	2424.68
111.795	2362.68
112.462	2335.68
113.13	2372.68
113.795	2362.68
114.463	2425.68
115.13	2388.68
115.798	2378.68
116.465	2417.68
117.133	2363.68
117.8	2396.68
118.467	2366.68
119.132	2382.68
119.8	2425.68
120.467	2351.68
121.134	2425.68
121.801	2365.68
122.466	2369.68
123.133	2369.68
123.8	2379.68
124.467	2369.68
125.133	2349.68
125.798	2346.68
126.465	2362.68
127.131	2318.68
127.796	2292.68
128.462	2372.68
129.129	2374.68
129.796	2393.68
130.46	2332.68
131.126	2380.68
131.793	2336.68
132.457	2303.68
133.123	2313.68
133.789	2341.68
134.453	2278.68
135.119	2253.68
135.783	2275.68
136.449	2362.68
137.115	2320.68
137.779	2297.68
138.445	2310.68
139.108	2278.68
139.774	2322.68
140.438	2280.68
141.104	2335.68
141.769	2317.68
142.433	2308.68
143.098	2335.68
143.762	2231.68
144.427	2264.68
145.09	2315.68
145.756	2228.68
146.419	2274.68
147.084	2340.68
147.747	2248.68
148.41	2244.68
149.075	2252.68
149.738	2237.68
150.403	2250.68
151.066	2308.68
151.731	2281.68
152.394	2256.68
153.056	2288.68
153.721	2272.68
154.384	2233.68
155.046	2260.68
155.711	2216.68
156.374	2187.68
157.036	2202.68
157.701	2179.68
158.363	2221.68
159.025	2236.68
159.69	2239.68
160.352	2195.68
161.014	2225.68
161.676	2220.68
162.34	2180.68
163.002	2193.68
163.664	2192.68
164.326	2184.68
164.99	2205.68
165.652	2196.68
166.314	2227.68
166.975	2193.68
167.637	2175.68
168.301	2197.68
168.962	2196.68
169.624	2159.68
170.285	2181.68
170.947	2193.68
171.608	2242.68
172.272	2186.68
172.933	2125.68
173.594	2131.68
174.255	2151.68
174.917	2116.68
175.578	2210.68
176.239	2114.68
176.9	2168.68
177.561	2138.68
178.222	2179.68
178.882	2155.68
179.543	2170.68
180.204	2148.68
180.865	2132.68
181.526	2143.68
182.186	2125.68
182.847	2125.68
183.507	2144.68
184.168	2104.68
184.828	2119.68
185.489	2162.68
186.149	2125.68
186.809	2127.68
187.47	2135.68
188.13	2141.68
188.79	2092.68
189.45	2087.68
190.11	2147.68
190.768	2156.68
191.428	2107.68
192.088	2121.68
192.748	2109.68
193.408	2089.68
194.068	2069.68
194.728	2061.68
195.385	2114.68
196.045	2109.68
196.705	2161.68
197.364	2131.68
198.021	2101.68
198.681	2085.68
199.34	2114.68
200	2106.68
200.657	2100.68
201.316	2062.68
201.976	2083.68
202.635	2117.68
203.292	2112.68
203.951	2130.68
204.61	2063.68
205.267	2069.68
205.926	2072.68
206.585	2122.68
207.242	2103.68
207.9	2071.68
208.559	2107.68
209.216	2076.68
209.875	2103.68
210.533	2019.68
211.19	2038.68
211.848	2107.68
212.505	2018.68
213.163	2089.68
213.819	2007.68
214.478	2069.68
215.134	2059.68
215.792	2072.68
216.451	2078.68
217.107	2029.68
217.765	1996.68
218.421	2035.68
219.079	2016.68
219.735	2088.68
220.391	2034.68
221.049	2056.68
221.704	2018.68
222.362	2045.68
223.018	2056.68
223.675	2035.68
224.331	1987.68
224.989	2028.68
225.644	2032.68
226.3	2073.68
226.957	2059.68
227.612	2040.68
228.268	2070.68
228.925	2018.68
229.58	2014.68
230.235	1999.68
230.893	1996.68
231.548	2031.68
232.203	2096.68
232.86	1996.68
233.515	1992.68
234.17	2055.68
234.827	2068.68
235.481	2066.68
236.136	1955.68
236.791	1982.68
237.448	2028.68
238.102	2046.68
238.757	2045.68
239.411	2055.68
240.066	1970.68
240.722	2016.68
241.377	2038.68
242.031	2001.68
242.685	2004.68
243.339	2031.68
243.993	1960.68
244.648	2006.68
245.304	2016.68
245.958	1947.68
246.612	1957.68
247.266	2012.68
247.92	2043.68
248.574	2006.68
249.227	2018.68
249.881	1985.68
250.535	1961.68
251.189	2014.68
251.842	2035.68
252.496	1968.68
253.149	1959.68
253.803	1948.68
254.456	1960.68
255.11	2035.68
255.763	1972.68
256.416	1957.68
257.07	1952.68
257.723	1981.68
258.376	1971.68
259.029	2004.68
259.682	1969.68
260.335	2022.68
260.988	1978.68
261.641	2001.68
262.294	2041.68
262.947	1968.68
263.598	1947.68
264.251	1954.68
264.903	1939.68
265.556	1928.68
266.209	1981.68
266.861	1922.68
267.512	1981.68
268.164	2004.68
268.817	1957.68
269.469	1964.68
270.121	1976.68
270.772	1974.68
271.424	2012.68
272.076	1996.68
272.728	1958.68
273.378	1974.68
274.03	1968.68
274.682	2012.68
275.332	1981.68
275.984	1904.68
276.636	1985.68
277.288	1956.68
277.938	1980.68
278.59	1925.68
279.239	1959.68
279.891	2007.68
280.542	1965.68
281.192	1963.68
281.843	2002.68
282.495	1947.68
283.144	1907.68
283.796	1970.68
284.445	1962.68
285.096	1949.68
285.745	1977.68
286.397	1974.68
287.048	1954.68
287.697	2012.68
288.348	1994.68
288.997	1928.68
289.648	1981.68
290.297	1988.68
290.948	1965.68
291.596	1959.68
292.247	1941.68
292.896	1941.68
293.544	1931.68
294.195	1961.68
294.844	1974.68
295.494	1995.68
296.143	1964.68
296.793	1974.68
297.441	1992.68
298.09	1939.68
298.74	2006.68
299.388	1927.68
300.036	1940.68
300.687	1910.68
301.335	1973.68
301.983	1921.68
302.633	1962.68
303.281	1989.68
303.929	1921.68
304.579	1993.68
305.227	1941.68
305.874	1940.68
306.522	1910.68
307.172	1930.68
307.819	1903.68
308.467	1946.68
309.114	1929.68
309.764	1918.68
310.412	1904.68
311.059	1943.68
311.706	1946.68
312.354	1956.68
313.003	1947.68
313.65	1974.68
314.297	1913.68
314.944	1977.68
315.592	1915.68
316.239	1941.68
316.886	1925.68
317.535	1964.68
318.182	1903.68
318.828	1928.68
319.475	1981.68
320.122	1944.68
320.769	1976.68
321.415	1926.68
322.062	1932.68
322.709	1914.68
323.355	1863.68
324.002	1931.68
324.648	1916.68
325.294	1895.68
325.941	1941.68
326.587	1946.68
327.233	1873.68
327.88	1950.68
328.526	1926.68
329.172	1957.68
329.818	1910.68
330.464	1910.68
331.11	1894.68
331.754	1901.68
332.4	1924.68
333.046	1984.68
333.692	1892.68
334.337	1908.68
334.983	1960.68
335.629	1902.68
336.275	1919.68
336.918	1917.68
337.564	1901.68
338.209	1944.68
338.855	1878.68
339.5	1946.68
340.143	1913.68
340.789	1944.68
341.434	1907.68
342.079	1902.68
342.722	1902.68
343.367	1917.68
344.012	1949.68
344.658	1895.68
345.3	1901.68
345.945	1888.68
346.59	1858.68
347.233	1950.68
347.878	1901.68
348.523	1949.68
349.165	1882.68
349.81	1893.68
350.455	1950.68
351.097	1889.68
351.742	1915.68
352.384	1892.68
353.029	1900.68
353.673	1935.68
354.315	1918.68
354.96	1890.68
355.602	1932.68
356.246	1895.68
356.888	1967.68
357.533	1890.68
358.175	1912.68
358.819	1878.68
359.461	1905.68
360.105	1914.68
360.746	1936.68
361.39	1954.68
362.032	1888.68
362.676	1894.68
363.318	1923.68
363.961	1872.68
364.603	1900.68
365.247	1899.68
365.888	1927.68
366.529	1924.68
367.173	1887.68
367.814	1910.68
368.456	1935.68
369.099	1917.68
369.74	1970.68
370.381	1925.68
371.025	1959.68
371.666	1972.68
372.307	1886.68
372.95	1975.68
373.591	1939.68
374.232	1909.68
374.875	1872.68
375.516	1907.68
376.156	1861.68
376.797	1884.68
377.44	1878.68
378.081	1924.68
378.721	1880.68
379.362	1902.68
380.002	1908.68
380.645	1864.68
381.285	1912.68
381.926	1947.68
382.566	1897.68
383.206	1887.68
383.847	1909.68
384.489	1899.68
385.129	1921.68
385.769	1915.68
386.409	1908.68
387.049	1915.68
387.689	1900.68
388.329	1920.68
388.969	1916.68
389.609	1989.68
390.249	1923.68
390.889	1880.68
391.528	1896.68
392.168	1923.68
392.81	1936.68
393.449	1909.68
394.089	1934.68
394.726	1956.68
395.366	1863.68
396.005	1869.68
396.645	1904.68
397.284	1900.68
397.923	1943.68
398.562	1897.68
399.202	1884.68
399.841	1904.68
400.48	1894.68
401.119	1896.68
401.758	1921.68
402.397	1921.68
403.034	1944.68
403.673	1898.68
404.311	1894.68
404.95	1946.68
405.589	1937.68
406.228	1888.68
406.864	1951.68
407.503	1896.68
408.142	1926.68
408.78	1825.68
409.419	1912.68
410.055	1908.68
410.693	1941.68
411.332	1919.68
411.968	1955.68
412.606	1916.68
413.244	1935.68
413.883	1892.68
414.519	1947.68
415.157	1925.68
415.795	1979.68
416.431	1957.68
417.069	1964.68
417.707	1943.68
418.342	2001.68
418.98	1939.68
419.616	1940.68
420.254	1952.68
420.891	1961.68
421.527	1913.68
422.165	1919.68
422.8	2027.68
423.438	1981.68
424.075	1969.68
424.71	1904.68
425.348	1949.68
425.983	1948.68
426.62	1926.68
427.256	1902.68
427.893	1958.68
428.528	1967.68
429.165	1989.68
429.8	1954.68
430.435	1971.68
431.072	1927.68
431.707	1936.68
432.344	1956.68
432.979	1902.68
433.615	2006.68
434.25	1946.68
434.885	1954.68
435.521	1948.68
436.156	1948.68
436.79	1953.68
437.427	1986.68
438.061	1999.68
438.696	1990.68
439.332	2000.68
439.967	1992.68
440.601	1947.68
441.237	2014.68
441.871	2006.68
442.505	2021.68
443.142	1959.68
443.776	1970.68
444.41	1988.68
445.044	2018.68
445.678	2012.68
446.314	1997.68
446.947	2011.68
447.581	1997.68
448.215	2012.68
448.849	2003.68
449.484	2027.68
450.118	2019.68
450.752	1997.04
451.385	2031.07
452.018	1977.7
452.652	2009.94
453.285	2010.6
453.921	2038.83
454.554	2020.74
455.187	1953.13
455.821	2027.08
456.454	2024.58
457.087	2005.07
457.72	1973.85
458.353	2022.45
458.986	2025.52
459.619	2008.26
460.252	1957.05
460.885	2015.81
461.518	2041.38
462.15	1997.71
462.783	1997.66
463.416	1986.41
464.048	2041.86
464.681	1971.7
465.314	2008.38
465.946	1982.07
466.579	2011.45
467.209	1989.76
467.841	2014.84
468.474	1949.33
469.106	2067.24
469.738	2036.02
470.371	2033.25
471.003	2015.07
471.633	2000.5
472.265	2016.21
472.897	2021.11
473.529	2038.56
474.161	2020.58
474.791	2004.87
475.423	1939.22
476.054	2009.13
476.686	2006.8
477.318	2008.71
477.948	2012.4
478.579	2052.92
479.211	2043.28
479.84	1994.91
480.472	2054.7
481.103	2038.84
481.733	1993.01
482.364	2011.71
482.996	1998.1
483.625	2016.43
484.256	2008.43
484.887	1995.26
485.516	1987.08
486.148	1967.31
486.779	2032.43
487.408	2023.53
488.039	1967.7
488.668	1948.72
489.298	1995.03
489.927	1945.36
490.558	2024.95
491.187	1982.54
491.818	1996.6
492.446	1984.46
493.077	2003.27
493.705	2010.56
494.336	2018.49
494.964	1986.03
495.595	2003.12
496.223	1956.32
496.854	1972.56
497.482	1973.27
498.112	1985.14
498.741	1975.46
499.371	2023.4
499.999	1972.76
500.627	1960.17
501.257	1967.96
501.885	1977.82
502.513	1967.83
503.143	1966.68
503.771	1980.22
504.399	1959.29
505.029	1974.18
505.656	1944.65
506.284	1962.15
506.914	1962.4
507.541	1983.72
508.169	1932.07
508.796	1967.58
509.426	1976.18
510.054	1968.14
510.681	1954.59
511.308	1943.92
511.938	1952.92
512.565	1909.79
513.192	1949.2
513.819	1944.7
514.446	1958.02
515.076	1948.69
515.703	1944.55
516.33	1943.71
516.957	1914.27
517.584	1876.5
518.21	1926.39
518.837	1859.79
519.464	1899.88
520.093	1925.58
520.72	1927.36
521.346	1892.24
521.973	1886.97
522.6	1890.06
523.226	1869.09
523.853	1887.96
524.479	1840.49
525.105	1898.71
525.732	1927.08
526.358	1855.87
526.984	1889.84
527.611	1881.98
528.237	1841.9
528.863	1866.03
529.489	1895.57
530.115	1874.66
530.741	1872.97
531.365	1849.14
531.991	1897.41
532.617	1854.39
533.243	1882.14
533.869	1810.89
534.495	1871.69
535.12	1849.83
535.746	1816.88
536.369	1835.6
536.995	1835.52
537.621	1828.5
538.246	1822.65
538.872	1873.68
539.495	1813.39
540.12	1851.21
540.746	1791.33
541.371	1783.55
541.994	1812.62
542.62	1817.35
543.245	1808.32
543.87	1816.69
544.493	1803.49
545.118	1817.5
545.743	1776.65
546.366	1841.68
546.991	1818.66
547.616	1790.07
548.238	1762.04
548.863	1769.45
549.488	1762.46
550.111	1778.32
550.735	1839.75
551.36	1767.38
551.982	1827.27
552.607	1753.75
553.229	1773.11
553.854	1764.5
554.476	1729.46
555.101	1768.47
555.723	1747.97
556.347	1755.35
556.969	1727.5
557.594	1745.03
558.216	1804.17
558.84	1727.75
559.462	1734.23
560.086	1807.12
560.708	1747.75
561.332	1716.83
561.954	1748.98
562.578	1730.66
563.199	1715.84
563.821	1703.9
564.445	1698.59
565.066	1730.6
565.69	1688.89
566.312	1711.72
566.933	1718.93
567.557	1701.81
568.178	1710.73
568.799	1713.63
569.423	1762.27
570.044	1702.79
570.665	1698.23
571.289	1727.91
571.91	1705.17
572.531	1690.95
573.152	1719.06
573.775	1698.66
574.396	1682.27
575.017	1675.07
575.638	1696.63
576.261	1686.56
576.882	1683.82
577.503	1687.89
578.123	1668.83
578.744	1681.26
579.365	1701.71
579.987	1696.88
580.608	1689.5
581.229	1630.21
581.849	1685.48
582.47	1698.98
583.09	1665.41
583.71	1716.17
584.331	1668.93
584.951	1683.78
585.571	1663.65
586.194	1672.37
586.814	1660.04
587.434	1667.12
588.054	1641.14
588.674	1606.1
589.294	1647.84
589.914	1610.56
590.534	1627.59
591.154	1609.53
591.774	1609.16
592.391	1648.88
593.011	1629.66
593.631	1594.04
594.25	1545.54
594.87	1590
595.49	1615.06
596.109	1571.4
596.729	1591.67
597.348	1575.14
597.967	1582.56
598.585	1566.69
599.204	1594.43
599.823	1557.97
600.443	1569.24
601.062	1561.36
601.681	1552.82
602.298	1519.84
602.917	1533.28
603.536	1533.2
604.155	1507.96
604.772	1534.6
605.391	1535.7
606.01	1485.28
606.629	1522.14
607.245	1487.34
607.864	1517.57
608.483	1485.97
609.099	1426.18
609.718	1464.23
610.337	1467.02
610.953	1423.56
611.572	1444.86
612.19	1468.08
612.806	1397.87
613.425	1434.36
614.043	1435.9
614.659	1409.38
615.278	1420.79
615.894	1442.64
616.512	1385.84
617.128	1382.16
617.746	1358.14
618.364	1391.86
618.98	1384.48
619.598	1381.56
620.214	1369.75
620.832	1365.14
621.448	1377.94
622.065	1370.88
622.681	1373.32
623.297	1364.34
623.914	1327.03
624.53	1328
625.148	1348.41
625.763	1346.18
626.381	1323.77
626.996	1305.8
627.611	1323.59
628.229	1307.59
628.844	1263.21
629.459	1254.81
630.076	1311.02
630.692	1307.18
631.307	1287.81
631.924	1271.2
632.539	1268.31
633.154	1257.04
633.771	1234.52
634.386	1227.57
635.001	1212.33
635.615	1221.65
636.232	1239.63
636.847	1203.33
637.462	1159.61
638.076	1244.09
638.693	1150.65
639.308	1199.58
639.922	1200.03
640.537	1220.13
641.151	1184.64
641.768	1180.23
642.382	1151.93
642.996	1162.1
643.611	1145.74
644.225	1158.9
644.839	1141.53
645.453	1122.47
646.067	1154.77
646.681	1146.62
647.295	1153.33
647.912	1100.23
648.526	1106.12
649.139	1151.81
649.753	1119.93
650.367	1139.74
650.981	1139.8
651.595	1085.4
652.208	1102.06
652.822	1103.86
653.436	1108.46
654.049	1099.6
654.663	1083.61
655.274	1073.51
655.888	1074.32
655.961	1051.32
656.581	1081.32
657.201	1070.32
657.823	1033.32
658.442	1024.32
659.064	1068.32
659.684	1053.32
660.306	1065.32
660.925	1062.32
661.547	1057.32
662.166	1083.32
662.786	1042.32
663.408	1071.32
664.027	1012.32
664.646	1049.32
665.268	1067.32
665.887	1061.32
666.506	1035.32
667.128	1040.32
667.747	1001.32
668.366	1041.32
668.987	1003.32
669.606	1020.32
670.225	997.323
670.844	976.323
671.465	997.323
672.084	997.323
672.703	985.323
673.322	1014.32
673.942	973.323
674.561	982.323
675.18	998.323
675.798	976.323
676.417	957.323
677.038	964.323
677.656	989.323
678.275	955.323
678.893	981.323
679.511	955.323
680.13	991.323
680.75	979.323
681.368	1000.32
681.987	991.323
682.605	978.323
683.223	1003.32
683.841	900.323
684.459	957.323
685.077	939.323
685.695	975.323
686.313	952.323
686.931	927.323
687.549	972.323
688.166	857.323
688.784	940.323
689.402	911.323
690.02	941.323
690.637	937.323
691.255	934.323
691.872	926.323
692.49	915.323
693.107	888.323
693.725	936.323
694.342	911.323
694.96	920.323
695.577	932.323
696.192	899.323
696.809	888.323
697.426	920.323
698.044	905.323
698.661	886.323
699.278	885.323
699.895	874.323
700.51	894.323
701.127	896.323
701.744	865.323
702.36	888.323
702.977	913.323
703.592	858.323
704.209	861.323
704.825	868.323
705.442	884.323
706.056	884.323
706.673	878.323
707.29	890.323
707.906	877.323
708.52	855.323
709.137	872.323
709.753	873.323
710.367	886.323
710.984	893.323
711.6	806.323
712.214	865.323
712.83	854.323
713.444	844.323
714.06	835.323
714.676	843.323
715.29	845.323
715.906	854.323
716.52	808.323
717.136	845.323
717.752	854.323
718.365	885.323
718.981	780.323
719.595	804.323
720.21	811.323
720.824	821.323
721.44	837.323
722.053	840.323
722.669	807.323
723.282	822.323
723.897	802.323
724.511	825.323
725.126	829.323
725.739	835.323
726.352	863.323
726.968	809.323
727.581	838.323
728.196	791.323
728.809	840.323
729.422	842.323
730.037	830.323
730.65	829.323
731.265	783.323
731.877	822.323
732.49	785.323
733.105	832.323
733.718	800.323
734.33	800.323
734.943	773.323
735.558	813.323
736.17	790.323
736.783	768.323
737.397	806.323
738.01	802.323
738.622	791.323
739.234	765.323
739.846	756.323
740.461	762.323
741.073	774.323
741.685	753.323
742.297	779.323
742.909	792.323
743.523	754.323
744.135	758.323
744.747	737.323
745.359	789.323
745.971	789.323
746.583	762.323
747.195	761.323
747.807	781.323
748.42	744.323
749.032	730.323
749.644	757.323
750.255	737.323
750.867	776.323
751.478	752.323
752.09	720.323
752.701	774.323
753.313	762.323
753.924	773.323
754.535	734.323
755.146	749.323
755.758	726.323
756.369	710.323
756.98	718.323
757.591	735.323
758.202	752.323
758.813	736.323
759.424	723.323
760.033	733.323
760.644	723.323
761.255	719.323
761.866	728.323
762.476	723.323
763.087	718.323
763.698	737.323
764.309	726.323
764.917	706.323
765.528	683.323
766.138	696.323
766.749	701.323
767.359	706.323
767.967	670.323
768.578	719.323
769.188	721.323
769.798	701.323
770.409	697.323
771.017	701.323
771.627	693.323
772.237	700.323
772.845	655.323
773.455	686.323
774.065	680.323
774.673	697.323
775.283	669.323
775.893	639.323
776.501	693.323
777.111	679.323
777.72	687.323
778.328	704.323
778.938	670.323
779.547	681.323
780.155	643.323
780.764	619.323
781.372	667.323
781.981	688.323
782.589	688.323
783.198	649.323
783.807	666.323
784.415	652.323
785.024	633.323
785.631	635.323
786.24	645.323
786.848	658.323
787.457	605.323
788.064	619.323
788.673	635.323
789.28	619.323
789.886	634.323
790.495	603.323
791.102	630.323
791.711	606.323
792.318	609.323
792.927	597.323
793.533	612.323
794.14	586.323
794.749	590.323
795.355	606.323
795.962	579.323
796.57	606.323
797.176	587.323
797.783	559.323
798.391	608.323
798.998	597.323
799.604	571.323
800.212	588.323
800.818	571.323
801.424	579.323
802.03	583.323
802.639	590.323
803.245	549.323
803.851	553.323
804.457	547.323
805.062	545.323
805.67	542.323
806.276	544.323
806.882	563.323
807.488	521.323
808.093	544.323
808.699	494.323
809.307	535.323
809.912	506.323
810.518	535.323
811.123	528.323
811.729	523.323
812.334	499.323
812.94	500.323
813.545	521.323
814.15	495.323
814.755	491.323
815.361	491.323
815.968	474.323
816.573	491.323
817.178	480.323
817.783	485.323
818.388	473.323
818.993	468.323
819.598	470.323
820.201	473.323
820.806	456.323
821.411	484.323
822.015	491.323
822.62	498.323
823.225	459.323
823.83	459.323
824.434	434.323
825.039	431.323
825.643	429.323
826.248	418.323
826.85	430.323
827.455	438.323
828.059	419.323
828.663	409.323
829.268	428.323
829.872	398.323
830.474	430.323
831.078	429.323
831.682	410.323
832.286	371.323
832.891	412.323
833.492	405.323
834.096	403.323
834.7	412.323
835.304	396.323
835.906	393.323
836.51	408.323
837.114	396.323
837.715	412.323
838.319	375.323
838.923	399.323
839.524	382.323
840.128	402.323
840.732	403.323
841.333	371.323
841.936	381.323
842.538	381.323
843.141	401.323
843.745	368.323
844.346	365.323
844.949	357.323
845.55	382.323
846.153	382.323
846.754	378.323
847.358	389.323
847.961	425.323
848.562	388.323
849.165	351.323
849.766	402.323
850.368	395.323
850.969	382.323
851.57	381.323
852.173	365.323
852.773	376.323
853.376	414.323
853.977	389.323
854.58	363.323
855.18	393.323
855.781	374.323
856.383	335.323
856.984	387.323
857.586	388.323
858.186	399.323
858.787	385.323
859.389	374.323
859.989	368.323
860.589	404.323
861.192	410.323
861.792	403.323
862.392	398.323
862.992	403.323
863.594	387.323
864.194	389.323
864.794	409.323
865.393	409.323
865.995	379.323
866.595	419.323
867.195	417.323
867.795	408.323
868.396	422.323
868.996	398.323
869.596	397.323
870.195	414.323
870.795	412.323
871.394	385.323
871.996	417.323
872.595	390.323
873.195	399.323
873.794	399.323
874.393	419.323
874.992	379.323
875.592	416.323
876.191	433.323
876.79	441.323
877.389	439.323
877.988	418.323
878.587	421.323
879.186	435.323
879.785	431.323
880.384	452.323
880.983	430.323
881.581	448.323
882.18	431.323
882.779	423.323
883.378	432.323
883.976	441.323
884.575	453.323
885.174	430.323
885.772	452.323
886.371	444.323
886.969	465.323
887.567	465.323
888.164	446.323
888.762	462.323
889.36	478.323
889.959	461.323
890.557	468.323
891.155	483.323
891.753	460.323
892.349	484.323
892.947	471.469
893.545	491.367
894.143	474.39
894.739	480.81
895.337	465.715
895.935	500.652
896.533	495.105
897.129	525.069
897.726	459.052
898.324	496.466
898.922	513.985
899.517	511.314
900.115	505.742
900.713	513.117
901.308	512.547
901.906	547.547
902.501	491.699
903.098	519.427
903.696	514.433
904.291	560.426
904.888	537.016
905.486	549.091
906.081	550.189
906.678	549.773
907.273	554.462
907.87	527.887
908.465	565.012
909.062	544.865
909.657	560.552
910.254	548.53
910.849	563.014
911.446	562.859
912.041	562.131
912.637	569.89
913.232	565.253
913.829	573.22
914.423	588.03
915.02	601.781
915.615	596.5
916.209	589.065
916.806	597.837
917.4	585.224
917.996	618.625
918.591	607.6
919.185	587.981
919.781	622.799
920.376	618.955
920.97	628.353
921.566	620.29
922.16	617.727
922.754	632.344
923.35	621.582
923.944	621.22
924.538	663.073
925.132	651.227
925.728	649.394
926.322	615.742
926.916	655.522
927.51	669.132
928.105	655.084
928.699	653.974
929.293	688.63
929.886	669.711
930.48	642.598
931.076	613.952
931.669	658.22
932.263	666.886
932.856	684.611
933.449	665.123
934.043	667.278
934.636	679.295
935.229	683.195
935.825	685.921
936.418	697.215
937.011	708.608
937.604	680.631
938.197	690.266
938.79	687.55
939.383	670.186
939.976	674.391
940.569	707.686
941.162	719.624
941.755	684.365
942.348	733.245
942.94	724.327
943.533	706.127
944.126	737.301
944.719	736.382
945.311	687.39
945.902	722.557
946.494	744.187
947.087	722.843
947.679	707.486
948.272	742.615
948.864	735.15
949.456	756.832
950.049	726.09
950.639	824.01
951.231	744.629
951.823	729.301
952.415	760.307
953.008	749.189
953.6	745.581
954.19	756.148
954.782	757.389
955.374	752.412
955.966	757.264
956.555	726.587
957.147	748.654
957.739	750.35
958.329	792.359
958.921	770.64
959.512	780.135
960.104	764.654
960.693	775.552
961.285	753.447
961.877	773.099
962.466	773.53
963.058	743.921
963.647	798.234
964.238	776.645
964.83	731.815
965.419	763.03
966.01	806.251
966.599	763.832
967.191	758.158
967.78	811.641
968.371	800.947
968.962	779.894
969.551	784.923
970.142	765.716
970.731	786.114
971.322	760.911
971.911	787.446
972.502	795.772
973.09	779.781
973.679	777.111
974.27	792.996
974.859	774.279
975.449	796.046
976.038	791.552
976.628	776.62
977.217	796.832
977.805	795.57
978.396	780.333
978.984	778.006
979.573	791.495
980.163	812.4
980.751	827.285
981.34	801.405
981.93	789.76
982.518	808.913
983.106	799.288
983.696	813.209
984.284	795.261
984.872	825.217
985.46	823.54
986.05	810.379
986.638	796.068
987.226	799.695
987.814	796.041
988.404	840.36
988.992	803.967
989.579	784.427
990.167	811.874
990.755	766.74
991.342	813.964
991.932	786.545
992.519	815.12
993.107	797.282
993.694	813.308
994.282	790.578
994.869	806.273
995.456	812.41
996.044	814.586
996.631	775.028
997.218	759.075
997.805	804.703
998.392	788.746
998.98	804.69
999.567	798.899
1000.15	811.797
1000.74	822.257
1001.33	790.945
1001.91	800.585
1002.5	785.98
1003.09	792.335
1003.68	794.119
1004.26	775.027
1004.85	791.534
1005.44	802.269
1006.02	806.519
1006.61	791.058
1007.2	790.227
1007.78	808.414
1008.37	788.041
1008.95	776.511
1009.54	786.334
1010.13	790.431
1010.71	800.362
1011.3	814.189
1011.88	801.587
1012.47	775.345
1013.05	790.069
1013.64	791.861
1014.23	753.731
1014.81	763.949
1015.4	788.624
1015.98	797.018
1016.57	763.825
1017.15	788.051
1017.74	783.797
1018.33	761.004
1018.91	782.359
1019.49	785.466
1020.08	779.144
1020.66	802.909
1021.25	781.806
1021.84	781.813
1022.42	770.169
1023	767.446
1023.59	778.497
1024.17	766.359
1024.76	743.893
1025.34	778.652
1025.93	759.613
1026.51	771.204
1027.1	780.846
1027.68	756.059
1028.26	770.699
1028.85	754.902
1029.43	782.112
1030.02	771.247
1030.6	768.076
1031.18	774.251
1031.77	758.859
1032.35	752.824
1032.94	742.418
1033.52	717.488
1034.1	738.748
1034.69	725.532
1035.27	706.415
1035.86	723.629
1036.44	733.216
1037.02	743.537
1037.61	727.915
1038.19	744.92
1038.77	754.112
1039.35	718.742
1039.94	722.406
1040.52	739.949
1041.1	731.346
1041.69	738.303
1042.27	719.371
1042.85	715.386
1043.44	697.003
1044.02	675.8
1044.6	721.662
1045.18	677.576
1045.77	722.288
1046.35	697.653
1046.93	690.992
1047.51	731.835
1048.09	687.161
1048.68	726.127
1049.26	692.225
1049.84	736.939
1050.42	702.7
1051	674.134
1051.59	666.195
1052.17	698.123
1052.75	674.593
1053.33	726.981
1053.92	695.121
1054.5	649.218
1055.08	695.956
1055.66	686.942
1056.24	680.804
1056.82	659.917
1057.4	685.044
1057.98	676.145
1058.57	657.128
1059.15	675.176
1059.73	676.309
1060.31	658.789
1060.89	694.046
1061.47	675.591
1062.05	644.378
1062.63	675.103
1063.21	636.285
1063.79	651.441
1064.37	655.728
1064.96	643.479
1065.54	653.341
1066.12	670.807
1066.7	644.967
1067.28	658.75
1067.86	622.711
1068.44	629.896
1069.02	668.101
1069.6	622.326
1070.18	663.671
1070.76	708.516
1071.34	632.589
1071.92	628.195
1072.5	608.306
1073.08	628.916
1073.66	626.095
1074.11	597.095
1074.7	618.095
1075.29	598.095
1075.88	595.095
1076.47	619.095
1077.05	606.095
1077.64	581.095
1078.23	629.095
1078.82	634.095
1079.4	613.095
1079.99	587.095
1080.58	592.095
1081.16	601.095
1081.75	596.095
1082.34	628.095
1082.93	609.095
1083.51	573.095
1084.1	575.095
1084.68	560.095
1085.27	553.095
1085.86	551.095
1086.44	598.095
1087.03	573.095
1087.62	583.095
1088.2	600.095
1088.79	534.095
1089.38	589.095
1089.96	544.095
1090.55	566.095
1091.14	609.095
1091.72	544.095
1092.31	592.095
1092.89	590.095
1093.48	572.095
1094.06	528.095
1094.65	534.095
1095.24	578.095
1095.82	530.095
1096.41	511.095
1096.99	568.095
1097.58	560.095
1098.16	534.095
1098.75	555.095
1099.34	508.095
1099.92	524.095
1100.51	532.095
1101.09	537.095
1101.68	478.095
1102.26	529.095
1102.85	525.095
1103.43	497.095
1104.02	495.095
1104.6	521.095
1105.19	528.095
1105.77	555.095
1106.35	491.095
1106.94	506.095
1107.52	533.095
1108.11	503.095
1108.69	506.095
1109.28	520.095
1109.86	530.095
1110.44	483.095
1111.03	499.095
1111.61	456.095
1112.2	499.095
1112.78	466.095
1113.37	500.095
1113.95	502.095
1114.53	485.095
1115.12	423.095
1115.7	451.095
1116.28	522.095
1116.87	467.095
1117.45	456.095
1118.04	458.095
1118.62	442.095
1119.2	446.095
1119.79	428.095
1120.37	448.095
1120.95	463.095
1121.54	450.095
1122.12	461.095
1122.7	430.095
1123.28	430.095
1123.87	457.095
1124.45	459.095
1125.03	446.095
1125.62	455.095
1126.2	437.095
1126.78	425.095
1127.36	432.095
1127.95	440.095
1128.53	411.095
1129.11	405.095
1129.69	397.095
1130.28	413.095
1130.86	398.095
1131.44	416.095
1132.02	403.095
1132.6	400.095
1133.19	421.095
1133.77	391.095
1134.35	384.095
1134.93	410.095
1135.52	396.095
1136.1	355.095
1136.68	370.095
1137.26	357.095
1137.84	382.095
1138.42	351.095
1139	380.095
1139.59	382.095
1140.17	358.095
1140.75	380.095
1141.33	385.095
1141.91	372.095
1142.49	374.095
1143.07	335.095
1143.65	355.095
1144.23	348.095
1144.82	376.095
1145.4	343.095
1145.98	356.095
1146.56	346.095
1147.14	361.095
1147.72	354.095
1148.3	344.095
1148.88	351.095
1149.46	338.095
1150.04	356.095
1150.62	342.095
1151.2	352.095
1151.78	327.095
1152.36	320.095
1152.94	322.095
1153.52	346.095
1154.1	325.095
1154.68	332.095
1155.26	322.095
1155.84	312.095
1156.42	315.095
1157	303.095
1157.58	302.095
1158.16	301.095
1158.74	275.095
1159.32	337.095
1159.9	306.095
1160.48	303.095
1161.06	292.095
1161.64	312.095
1162.22	299.095
1162.8	279.095
1163.38	284.095
1163.95	301.095
1164.53	282.095
1165.11	258.095
1165.69	308.095
1166.27	259.095
1166.85	267.095
1167.43	258.095
1168.01	283.095
1168.59	288.095
1169.16	270.095
1169.74	266.095
1170.32	267.095
1170.9	250.095
1171.48	279.095
1172.05	269.095
1172.63	278.095
1173.21	256.095
1173.79	275.095
1174.37	249.095
1174.95	253.095
1175.52	241.095
1176.1	254.095
1176.68	269.095
1177.26	241.095
1177.83	264.095
1178.41	235.095
1178.99	242.095
1179.57	230.095
1180.15	264.095
1180.72	219.095
1181.3	223.095
1181.88	217.095
1182.46	224.095
1183.03	215.095
1183.61	224.095
1184.19	219.095
1184.76	202.095
1185.34	208.095
1185.92	224.095
1186.49	218.095
1187.07	202.095
1187.65	187.095
1188.22	219.095
1188.8	210.095
1189.38	209.095
1189.95	204.095
1190.53	170.095
1191.11	184.095
1191.68	170.095
1192.26	171.095
1192.84	177.095
1193.41	183.095
1193.99	178.095
1194.56	156.095
1195.14	185.095
1195.72	159.095
1196.29	178.095
1196.87	184.095
1197.44	161.095
1198.02	166.095
1198.6	167.095
1199.17	160.095
1199.75	148.095
1200.32	166.095
1200.9	173.095
1201.47	157.095
1202.05	152.095
1202.62	158.095
1203.2	168.095
1203.77	141.095
1204.35	154.095
1204.92	154.095
1205.5	148.095
1206.07	166.095
1206.65	140.095
1207.22	145.095
1207.8	150.095
1208.37	133.095
1208.95	122.095
1209.52	152.095
1210.1	142.095
1210.67	101.095
1211.25	141.095
1211.82	122.095
1212.4	131.095
1212.97	112.095
1213.54	107.095
1214.12	123.095
1214.69	136.095
1215.27	113.095
1215.84	122.095
1216.41	124.095
1216.99	127.095
1217.56	89.0952
1218.14	93.0952
1218.71	118.095
1219.28	115.095
1219.86	90.0952
1220.43	93.0952
1221	102.095
1221.58	117.095
1222.15	95.0952
1222.72	94.0952
1223.3	99.0952
1223.87	92.0952
1224.44	110.095
1225.02	77.0952
1225.59	102.095
1226.16	92.0952
1226.74	100.095
1227.31	87.0952
1227.88	71.0952
1228.45	86.0952
1229.03	88.0952
1229.6	57.0952
1230.17	106.095
1230.74	62.0952
1231.32	80.0952
1231.89	59.0952
1232.46	101.095
1233.04	82.0952
1233.61	94.0952
1234.18	70.0952
1234.75	71.0952
1235.32	79.0952
1235.9	87.0952
1236.47	78.0952
1237.04	62.0952
1237.61	72.0952
1238.18	115.095
1238.75	56.0952
1239.33	89.0952
1239.9	101.095
1240.47	81.0952
1241.04	72.0952
1241.61	77.0952
1242.19	87.0952
1242.76	70.0952
1243.33	65.0952
1243.9	72.0952
1244.47	87.0952
1245.04	78.0952
1245.61	57.0952
1246.18	52.0952
1246.75	68.0952
1247.33	81.0952
1247.9	71.0952
1248.47	65.0952
1249.04	72.0952
1249.61	73.0952
1250.18	41.0952
1250.75	60.0952
1251.32	75.0952
1251.89	70.0952
1252.46	47.0952
1253.03	60.0952
1253.6	62.0952
1254.17	64.0952
1254.74	56.0952
1255.31	79.0952
1255.88	54.0952
1256.45	64.0952
1257.02	59.0952
1257.59	67.0952
1258.16	74.0952
1258.73	76.0952
1259.3	36.0952
1259.87	65.0952
1260.44	80.0952
1261.01	78.0952
1261.58	73.0952
1262.15	62.0952
1262.72	66.0952
1263.29	77.0952
1263.86	77.0952
1264.43	56.0952
1265	57.0952
1265.57	62.0952
1266.14	47.0952
1266.71	62.0952
1267.27	75.0952
1267.84	73.0952
1268.41	75.0952
1268.98	62.0952
1269.55	66.0952
1270.12	77.0952
1270.69	48.0952
1271.26	55.0952
1271.82	62.0952
1272.39	74.0952
1272.96	64.0952
1273.53	44.0952
1274.1	55.0952
1274.67	85.0952
1275.23	50.0952
1275.8	53.0952
1276.37	52.0952
1276.94	67.0952
1277.51	57.0952
1278.08	58.0952
1278.64	50.0952
1279.21	69.0952
1279.78	60.0952
1280.34	40.0952
1280.91	64.0952
1281.48	80.0952
1282.05	47.0952
1282.62	72.0952
1283.18	56.0952
1283.75	73.0952
1284.32	66.0952
1284.89	64.0952
1285.45	56.0952
1286.02	61.0952
1286.59	61.0952
1287.15	50.0952
1287.72	44.0952
1288.29	65.0952
1288.85	58.0952
1289.42	43.0952
1289.99	39.0952
1290.56	75.0952
1291.12	76.0952
1291.69	58.0952
1292.26	61.0952
1292.82	58.0952
1293.39	77.0952
1293.96	40.0952
1294.52	57.0952
1295.09	54.0952
1295.65	57.0952
1296.22	35.0952
1296.79	43.0952
1297.35	72.0952
1297.92	67.0952
1298.48	72.0952
1299.05	46.0952
1299.62	52.0952
1300.18	76.0952
