17.6805	6863.32
18.348	6741.32
19.0297	6788.32
19.7043	6872.32
20.3789	6909.32
21.0606	6971.32
21.7351	7011.32
22.4097	7096.32
23.0843	6901.32
23.766	7332.32
24.4406	7375.32
25.1152	8362.32
25.7898	7819.32
26.4644	7851.32
27.1461	8105.32
27.8206	8205.32
28.4952	8384.32
29.1698	8462.32
29.8444	8655.32
30.519	8830.32
31.2007	8684.32
31.8753	8975.32
32.5499	9151.32
33.2244	9977.32
33.899	10018.3
34.5736	9881.32
35.2482	10011.3
35.9228	10095.3
36.6045	10660.3
37.2791	11002.3
37.9537	11084.3
38.6282	11107.3
39.3028	11572.3
39.9774	11717.3
40.652	11287.3
41.3266	11701.3
42.0012	12036.3
42.6758	12355.3
43.3504	12698.3
44.025	13279.3
44.6995	13455.3
45.3741	13555.3
46.0487	13845.3
46.7162	14184.3
47.3908	14181.3
48.0654	14289.3
48.74	14592.3
49.4146	14933.3
50.0891	15112.3
50.7637	15427.3
51.4383	15641.3
52.1058	15671.3
52.7804	15829.3
53.455	16383.3
54.1296	16386.3
54.8042	16201.3
55.4787	16456.3
56.1462	16607.3
56.8208	16965.3
57.4954	16821.3
58.17	17103.3
58.8375	17472.3
59.5121	17973.3
60.1867	18221.3
60.8612	18463.3
61.5287	18661.3
62.2033	18470.3
62.8779	18363.3
63.5454	18206.3
64.22	18294.3
64.8946	18422.3
65.5692	18991.3
66.2366	19013.3
66.9112	19268.3
67.5787	19313.3
68.2533	19396.3
68.9279	19390.3
69.5954	19385.3
70.27	19673.3
70.9446	19552.3
71.612	19777.3
72.2866	20037.3
72.9541	20136.3
73.6287	20153.3
74.2962	19939.3
74.9708	20363.3
75.6383	20311.3
76.3129	20759.3
76.9803	20829.3
77.6549	20823.3
78.3224	20545.3
78.997	20677.3
79.6645	20434.3
80.3391	20492.3
81.0066	20605.3
81.6812	20715.3
82.3486	20607.3
83.0232	20997.3
83.6907	20743.3
84.3582	21025.3
85.0328	20986.3
85.7003	20895.3
86.3678	20743.3
87.0424	20674.3
87.7098	20723.3
88.3844	20807.3
89.0519	20814.3
89.7194	21037.3
90.3869	21079.3
91.0615	21133.3
91.729	21141.3
92.3965	21253.3
93.071	21343.3
93.7385	21045.3
94.406	21305.3
95.0806	21216.3
95.7481	21265.3
96.4156	21126.3
97.0831	20949.3
97.7505	21019.3
98.418	21216.3
99.0926	21297.3
99.7601	21219.3
100.428	20997.3
101.095	21150.3
101.763	21187.3
102.437	21033.3
103.105	21221.3
103.772	20879.3
104.44	21167.3
105.107	21073.3
105.775	20920.3
106.442	21165.3
107.11	21326.3
107.777	21311.3
108.452	21161.3
109.119	21037.3
109.787	20962.3
110.454	20818.3
111.122	20879.3
111.789	20615.3
112.457	20663.3
113.124	20878.3
113.792	20649.3
114.459	20608.3
115.127	21035.3
115.794	21269.3
116.461	20936.3
117.129	20900.3
117.796	21074.3
118.457	20936.3
119.124	20369.3
119.792	20282.3
120.459	20268.3
121.127	20466.3
121.794	20293.3
122.462	20408.3
123.129	20567.3
123.79	20163.3
124.457	20295.3
125.125	20333.3
125.792	20367.3
126.46	20004.3
127.127	20047.3
127.787	20168.3
128.455	19991.3
129.122	19979.3
129.79	19911.3
130.45	19699.3
131.118	19903.3
131.785	19875.3
132.453	19644.3
133.113	19783.3
133.781	19559.3
134.448	19743.3
135.116	19678.3
135.776	19689.3
136.443	19915.3
137.111	19760.3
137.771	19561.3
138.439	19561.3
139.099	19717.3
139.767	19617.3
140.434	19596.3
141.095	19489.3
141.762	19318.3
142.422	19258.3
143.09	19147.3
143.757	18940.3
144.418	19249.3
145.085	18791.3
145.746	18895.3
146.413	19039.3
147.074	18798.3
147.741	18559.3
148.401	18811.3
149.069	18991.3
149.729	19025.3
150.397	18718.3
151.057	18652.3
151.725	18515.3
152.385	18490.3
153.053	18476.3
153.713	18603.3
154.373	18628.3
155.041	18413.3
155.701	18396.3
156.369	18314.3
157.029	18191.3
157.697	17917.3
158.357	18096.3
159.017	18036.3
159.685	18013.3
160.345	17996.3
161.006	18034.3
161.666	17975.3
162.333	17861.3
162.994	17973.3
163.654	17903.3
164.322	17763.3
164.982	17991.3
165.642	17845.3
166.31	17517.3
166.97	17509.3
167.631	17637.3
168.291	17510.3
168.959	17665.3
169.619	17554.3
170.279	17482.3
170.94	17344.3
171.6	17319.3
172.268	17471.3
172.928	17472.3
173.588	17711.3
174.249	17416.3
174.909	17421.3
175.57	17102.3
176.23	17030.3
176.89	17135.3
177.551	17000.3
178.211	16973.3
178.879	17078.3
179.539	17152.3
180.199	16841.3
180.86	17000.3
181.52	17158.3
182.181	16937.3
182.841	17055.3
183.501	16766.3
184.162	16981.3
184.822	16631.3
185.482	16795.3
186.143	16664.3
186.803	16616.3
187.464	16681.3
188.124	16491.3
188.784	16613.3
189.445	16453.3
190.105	16548.3
190.758	16433.3
191.419	16451.3
192.079	16313.3
192.74	16615.3
193.4	16619.3
194.06	16223.3
194.721	16623.3
195.381	16411.3
196.034	16199.3
196.695	16170.3
197.355	16024.3
198.016	16213.3
198.676	16208.3
199.336	16110.3
199.99	16079.3
200.65	16218.3
201.31	16489.3
201.971	16106.3
202.631	16075.3
203.285	16151.3
203.945	15897.3
204.605	15977.3
205.259	16313.3
205.919	15964.3
206.579	15747.3
207.233	15637.3
207.893	15886.3
208.553	15953.3
209.207	15881.3
209.867	15795.3
210.527	15930.3
211.181	15971.3
211.841	15657.3
212.494	15606.3
213.155	15570.3
213.815	15486.3
214.468	15527.3
215.129	15634.3
215.782	15453.3
216.443	15642.3
217.103	15341.3
217.756	15447.3
218.417	15749.3
219.07	15776.3
219.73	15993.3
220.384	15545.3
221.044	15384.3
221.697	15393.3
222.358	15462.3
223.011	15402.3
223.671	15445.3
224.325	15459.3
224.985	15402.8
225.638	15349.3
226.291	15244.3
226.952	15295.3
227.605	15445.3
228.258	15305.3
228.919	15195.3
229.572	15224.3
230.225	15255.3
230.886	15113.3
231.539	15385.3
232.192	15165.3
232.853	15149.3
233.506	15221.3
234.159	15435.3
234.82	15109.3
235.473	15191.3
236.126	15045.3
236.787	14987.3
237.44	15373.3
238.093	15562.3
238.747	15339.3
239.407	15068.3
240.06	15557.3
240.713	15369.3
241.367	15285.3
242.027	15219.3
242.68	15061.3
243.334	15029.3
243.987	14990.3
244.64	14951.3
245.294	15122.3
245.954	14992.3
246.607	15237.3
247.261	15125.3
247.914	15061.3
248.567	14845.3
249.22	14941.3
249.874	15151.3
250.527	14877.3
251.18	14974.3
251.834	15003.3
252.487	15061.3
253.14	15024.3
253.793	14876.3
254.447	14902.3
255.1	14881.3
255.753	14908.3
256.407	14973.3
257.06	15014.3
257.713	14906.3
258.366	14892.3
259.02	15086.3
259.673	15158.3
260.326	15079.3
260.979	15018.3
261.633	14926.3
262.286	14942.3
262.939	14941.3
263.593	15115.3
264.246	15045.3
264.899	14984.3
265.552	15068.3
266.199	15159.3
266.852	14916.3
267.505	14903.3
268.159	15119.3
268.812	15016.3
269.465	14900.3
270.111	14977.3
270.765	14877.3
271.418	15107.3
272.071	15002.3
272.724	15045.3
273.371	15021.3
274.024	15032.3
274.677	15153.3
275.323	15012.8
275.977	15231.3
276.63	14964.3
277.283	14951.3
277.929	15100.3
278.583	14741.3
279.229	15194.3
279.882	15017.3
280.535	15022.3
281.182	14973.3
281.835	14855.3
282.488	14943.3
283.134	14897.3
283.788	15169.3
284.441	15065.3
285.087	15200.3
285.74	14948.3
286.387	14910.3
287.04	15011.3
287.693	14924.3
288.339	14904.3
288.993	14981.3
289.639	15152.3
290.292	15067.3
290.938	14736.3
291.592	15163.3
292.238	15111.3
292.891	14681.3
293.537	15166.3
294.191	14993.3
294.837	15008.3
295.49	15067.3
296.136	15027.3
296.789	14904.3
297.436	15271.3
298.082	15037.3
298.735	14940.3
299.381	15094.3
300.027	14911.3
300.681	15069.3
301.327	15033.3
301.973	15072.3
302.626	14925.3
303.273	15113.3
303.919	15423.3
304.572	15145.3
305.218	15093.3
305.864	14877.3
306.518	15106.3
307.164	14901.3
307.81	15141.3
308.463	15029.3
309.11	14914.3
309.756	14887.3
310.402	14853.3
311.055	15001.3
311.701	14968.3
312.348	15162.3
312.994	15071.3
313.64	14969.3
314.293	14777.3
314.939	14905.3
315.586	14768.3
316.232	14809.3
316.878	14853.3
317.524	14859.3
318.177	14827.3
318.824	14757.3
319.47	14914.3
320.116	14671.3
320.762	14800.3
321.408	14828.3
322.055	14947.3
322.701	14685.3
323.347	14848.3
323.993	14736.3
324.639	14885.3
325.285	14900.3
325.932	14776.3
326.578	14706.3
327.224	14791.3
327.87	14836.3
328.516	14914.3
329.163	14695.3
329.809	14591.3
330.455	14889.3
331.101	14763.8
331.747	15049.3
332.393	14640.3
333.04	14726.3
333.686	14735.3
334.332	14433.3
334.978	14757.3
335.624	14586.3
336.271	14766.3
336.91	14777.3
337.556	14899.3
338.202	15009.3
338.848	14653.3
339.494	14567.3
340.134	14579.3
340.78	14616.3
341.426	14583.3
342.072	14572.3
342.718	14487.3
343.357	14549.3
344.004	14365.3
344.65	14454.3
345.296	14485.3
345.935	14224.3
346.581	14450.3
347.227	14341.3
347.874	14417.3
348.513	14374.3
349.159	14424.3
349.805	14254.3
350.451	14240.3
351.09	14243.3
351.736	14178.3
352.376	14029.3
353.022	14244.3
353.668	14261.3
354.307	14189.3
354.953	14067.3
355.592	14388.3
356.238	14168.3
356.885	14130.3
357.524	14250.3
358.17	14304.3
358.809	14247.3
359.455	14248.3
360.094	14215.3
360.74	14367.3
361.387	14343.3
362.026	14269.3
362.672	14328.3
363.311	14031.3
363.957	13868.3
364.596	13989.3
365.242	13893.3
365.881	13801.3
366.521	13952.3
367.167	14109.3
367.806	14092.3
368.452	14260.3
369.091	13877.3
369.73	13935.3
370.376	14024.3
371.015	14467.3
371.662	13842.3
372.301	13748.3
372.94	13883.3
373.586	13767.3
374.225	13693.3
374.871	13807.3
375.51	13712.3
376.149	13717.3
376.788	13829.3
377.435	13686.3
378.074	13921.3
378.713	13779.3
379.352	13741.3
379.998	13679.3
380.637	13618.3
381.276	13481.3
381.915	13651.3
382.562	13598.3
383.201	13747.3
383.84	13422.3
384.479	13367.3
385.125	13432.3
385.764	13611.3
386.403	13337.3
387.042	13383.3
387.681	13472.3
388.32	13445.3
388.959	13393.3
389.599	13440.3
390.245	13243.3
390.884	13519.3
391.523	13352.3
392.162	13688.3
392.801	13247.3
393.44	13125.3
394.079	13110.3
394.718	13093.3
395.357	13319.3
395.996	13130.3
396.636	13084.3
397.275	13228.3
397.914	13260.3
398.553	13346.3
399.192	13308.3
399.831	13317.3
400.47	13197.3
401.109	13096.3
401.748	13143.3
402.387	12854.3
403.026	13207.3
403.665	12990.3
404.305	13133.3
404.944	13222.3
405.583	12979.3
406.222	12959.3
406.854	13123.3
407.493	12995.3
408.132	12889.3
408.771	13011.3
409.41	12917.3
410.049	12941.3
410.688	13001.3
411.327	13005.3
411.959	13171.3
412.598	13081.3
413.238	13173.3
413.877	13006.3
414.509	13339.3
415.148	12951.3
415.787	12797.3
416.426	12783.3
417.065	12795.3
417.697	13110.3
418.336	12661.3
418.975	12816.3
419.607	12891.3
420.246	12971.3
420.885	12840.3
421.517	12697.3
422.156	12805.3
422.795	12768.3
423.427	12982.3
424.066	13242.3
424.706	12778.3
425.338	12674.3
425.977	12693.3
426.616	12892.3
427.248	12914.3
427.887	12886.3
428.519	12809.3
429.158	12656.3
429.79	12825.3
430.429	12797.3
431.068	12562.3
431.7	12773.3
432.339	12526.3
432.971	12791.3
433.61	12727.3
434.242	12720.3
434.881	12689.3
435.513	12690.3
436.152	12591.3
436.784	12772.3
437.423	12917.3
438.055	13053.3
438.687	12796.3
439.326	12709.3
439.958	12775.3
440.59	12566.3
441.229	12917.3
441.861	12833.3
442.5	13030.3
443.132	12843.3
443.772	12733.3
444.404	12675.3
445.035	12696.3
445.667	12917.3
446.307	12771.3
446.939	12845.3
447.578	12866.3
448.21	12765.3
448.842	12744.3
449.481	12754.3
450.113	12792.3
450.745	12650.3
451.377	12757.3
452.009	12866.3
452.648	12919.3
453.28	12688.3
453.912	12849.3
454.544	12879.3
455.183	12720.3
455.815	12960.3
456.447	12901.3
457.079	12902.3
457.711	12900.3
458.343	12802.3
458.982	12912.3
459.614	12716.3
460.246	13115.3
460.878	12964.3
461.51	13210.3
462.142	13032.3
462.774	12714.8
463.406	12997.3
464.045	12874.8
464.677	12938.3
465.309	12964.3
465.941	13039.3
466.573	12789.8
467.205	12862.8
467.837	12715.8
468.469	12693.3
469.101	13151.3
469.732	13227.8
470.364	12969.3
470.996	13150.8
471.628	13104.3
472.26	12961.8
472.892	13035.3
473.524	12985.3
474.156	13289.8
474.781	13508.8
475.413	13167.8
476.045	13084.3
476.677	13049.3
477.309	13380.8
477.941	13267.8
478.573	13260.3
479.205	13270.3
479.83	13260.3
480.462	13051.8
481.094	13639.3
481.726	13511.8
482.358	13331.8
482.99	13403.8
483.615	13449.8
484.247	13293.8
484.879	13334.3
485.511	13239.3
486.143	13309.8
486.775	13058.3
487.4	13168.8
488.032	13138.3
488.664	13262.3
489.288	13290.8
489.92	13348.3
490.552	13443.8
491.177	13308.8
491.809	13334.8
492.441	13512.8
493.073	13433.3
493.698	13788.3
494.33	13719.8
494.955	14123.8
495.587	13404.3
496.219	13424.3
496.844	13571.3
497.476	13618.8
498.108	13602.3
498.733	13597.8
499.365	13774.8
499.99	13660.8
500.622	13675.8
501.254	13885.8
501.878	13806.3
502.503	13931.8
503.135	13857.3
503.767	14006.3
504.392	14249.8
505.024	14105.3
505.649	14174.3
506.274	14134.3
506.906	14364.3
507.538	14432.3
508.163	14620.8
508.788	14564.8
509.42	14606.3
510.044	14861.3
510.676	14696.3
511.301	14937.3
511.933	14957.8
512.558	15162.3
513.183	15367.8
513.815	15333.3
514.44	15577.3
515.072	15649.3
515.697	15823.8
516.322	15961.8
516.947	16076.8
517.579	16142.3
518.203	16317.8
518.828	16477.3
519.46	16652.3
520.085	16784.3
520.71	16844.8
521.342	16964.3
521.967	17515.3
522.592	17196.3
523.217	17467.3
523.849	17777.3
524.474	17978.3
525.098	18092.8
525.723	18094.3
526.348	18213.8
526.98	18555.3
527.605	18672.8
528.23	18875.3
528.855	18784.8
529.48	19017.8
530.112	19129.8
530.737	19305.8
531.361	19536.8
531.986	19512.8
532.611	19769.8
533.236	19794.8
533.861	19906.3
534.486	19969.8
535.111	20013.3
535.736	20358.3
536.36	20608.8
536.985	20683.8
537.61	20540.8
538.242	20945.3
538.867	20822.8
539.485	20819.8
540.117	20874.3
540.742	21201.3
541.367	21303.8
541.984	21178.8
542.609	21034.8
543.234	21183.3
543.866	21078.3
544.484	21133.3
545.109	21168.8
545.734	21222.3
546.359	21156.8
546.983	21185.8
547.608	21210.8
548.233	21169.8
548.858	21556.3
549.483	21491.3
550.101	21246.8
550.726	21208.3
551.351	21414.8
551.975	21328.8
552.6	21291.3
553.225	21474.3
553.85	21173.3
554.468	21161.8
555.093	21085.3
555.718	21003.8
556.342	20996.3
556.96	20861.8
557.585	20880.8
558.21	20745.3
558.835	20843.3
559.453	20735.8
560.078	20541.3
560.702	20590.3
561.327	20750.8
561.945	20465.3
562.57	20469.8
563.195	20435.8
563.813	20635.8
564.438	20325.3
565.062	20118.8
565.68	19915.8
566.305	19898.3
566.923	20082.8
567.548	19782.3
568.173	19635.8
568.79	19488.3
569.415	19714.3
570.04	19588.3
570.658	19448.3
571.283	19299.8
571.901	19132.8
572.526	19044.3
573.143	18993.3
573.768	18999.3
574.386	18761.3
575.011	18823.8
575.629	18499.8
576.253	18302.3
576.878	18366.8
577.496	18277.3
578.114	18313.3
578.739	18192.8
579.357	17804.8
579.981	17971.8
580.599	17786.3
581.224	17730.8
581.842	17639.3
582.46	17427.3
583.085	17351.3
583.702	17153.3
584.32	17032.8
584.945	17001.3
585.563	16695.3
586.188	16956.8
586.805	16775.8
587.43	16564.3
588.048	16399.8
588.666	16193.3
589.284	16187.8
589.909	16153.8
590.526	15896.3
591.144	15895.8
591.769	15803.3
592.387	15620.3
593.005	15713.3
593.622	15611.8
594.24	15458.8
594.865	15417.3
595.483	15087.8
596.101	15051.3
596.718	14979.8
597.343	14949.3
597.961	14989.3
598.579	14616.3
599.197	14546.8
599.814	14375.8
600.432	14175.8
601.057	14301.8
601.675	14172.8
602.293	14304.8
602.91	13919.8
603.528	14043.8
604.146	13964.8
604.764	13656.8
605.381	13665.3
606.006	13712.8
606.624	13616.8
607.235	13339.3
607.86	13293.8
608.477	13400.3
609.095	13328.8
609.713	13002.3
610.331	12841.3
610.949	12826.3
611.566	12950.3
612.184	12929.3
612.802	12859.3
613.42	12815.3
614.037	12712.3
614.655	12555.3
615.273	12415.3
615.884	12530.8
616.502	12522.3
617.119	12354.3
617.737	12363.8
618.355	12075.8
618.973	12171.8
619.59	12098.3
620.208	12012.8
620.826	11856.3
621.444	11877.3
622.062	11961.3
622.672	11873.3
623.29	11878.3
623.908	11761.3
624.526	11816.8
625.143	11812.3
625.754	11802.8
626.372	11766.8
626.99	11464.8
627.607	11281.3
628.225	11262.3
628.836	11251.3
629.454	11258.3
630.071	11242.3
630.682	11192.3
631.3	11041.3
631.918	11179.3
632.528	11086.8
633.146	10870.3
633.764	11069.3
634.382	10981.8
634.992	10895.3
635.61	10856.8
636.228	10774.3
636.839	10916.3
637.456	10801.3
638.067	10595.8
638.685	10388.8
639.303	10777.3
639.913	10360.3
640.531	10426.3
641.142	10523.3
641.76	10449.3
642.377	10458.3
642.988	10359.3
643.606	10333.8
644.216	10323.8
644.834	10459.8
645.445	10477.8
646.063	10283.8
646.673	10347.3
647.291	10109.8
647.902	10387.3
648.52	10271.3
649.13	10335.8
649.748	10175.8
650.359	10169.8
650.977	10247.8
651.587	10053.8
652.198	10093.8
652.816	9999.82
653.355	10028.8
653.973	10160.8
654.598	10166.8
655.216	10150.8
655.841	10142.8
656.458	10128.8
657.083	10153.8
657.701	10230.8
658.326	10018.8
658.944	10279.8
659.562	10203.8
660.186	10393.8
660.804	10278.8
661.429	10327.8
662.047	10464.8
662.665	10368.8
663.289	10451.8
663.907	10479.8
664.532	10510.8
665.15	10598.8
665.768	10468.8
666.393	10528.8
667.01	10488.8
667.628	10714.8
668.246	10826.8
668.871	10744.8
669.489	10823.8
670.106	10728.8
670.731	11098.8
671.349	11247.8
671.967	11171.8
672.592	11086.8
673.209	11303.8
673.827	11175.8
674.445	11359.8
675.063	11530.8
675.681	11494.8
676.305	11446.8
676.923	11707.8
677.541	11847.8
678.159	11988.8
678.777	11975.8
679.394	12102.8
680.019	11983.8
680.637	12300.8
681.255	12288.8
681.873	12720.8
682.49	12542.8
683.108	12670.8
683.726	12823.8
684.344	13198.8
684.962	12993.8
685.579	13102.8
686.204	13273.8
686.822	13253.8
687.44	13471.8
688.058	13720.8
688.675	13676.8
689.293	14095.8
689.911	14122.8
690.529	14314.8
691.146	14410.8
691.764	14480.8
692.382	14642.8
693	14732.8
693.618	14846.8
694.235	14920.8
694.853	15110.8
695.464	15064.8
696.082	15465.8
696.699	15494.8
697.317	15591.8
697.935	15951.8
698.553	15769.8
699.17	16238.8
699.788	16131.8
700.399	16401.8
701.017	16635.8
701.635	16859.8
702.252	16801.8
702.87	16848.8
703.488	17017.8
704.099	17242.8
704.716	17492.8
705.334	17524.8
705.952	17490.8
706.57	17706.8
707.18	18048.8
707.798	18177.8
708.416	18430.8
709.034	18630.8
709.644	18442.8
710.262	18760.8
710.88	18654.8
711.498	19035.8
712.108	19186.8
712.726	19044.8
713.344	19405.8
713.955	19440.8
714.572	19642.8
715.19	19551.8
715.801	19750.8
716.419	19911.8
717.029	19887.8
717.647	20044.8
718.265	20322.8
718.876	20434.8
719.493	20494.8
720.104	20690.8
720.722	20784.8
721.34	20854.8
721.95	20914.8
722.568	20944.8
723.179	21280.8
723.797	21364.8
724.407	21410.8
725.025	21552.8
725.636	22956.8
726.253	21752.8
726.864	22696.8
727.482	22100.8
728.093	22187.8
728.71	22320.8
729.321	22310.8
729.939	22428.8
730.549	22463.8
731.16	22428.8
731.778	22767.8
732.389	22812.8
733.006	23019.8
733.617	22943.8
734.235	22892.8
734.846	23069.8
735.456	23000.8
736.074	23445.8
736.685	23121.8
737.295	23016.8
737.913	23440.8
738.524	23208.8
739.134	23371.8
739.752	23342.8
740.363	23494.8
740.974	23673.8
741.591	23507.8
742.202	23878.8
742.813	23936.8
743.423	24139.8
744.041	23963.8
744.652	23806.8
745.263	23852.8
745.873	24058.8
746.491	23968.8
747.102	23855.8
747.712	24234.8
748.323	24255.8
748.941	24162.8
749.552	24070.8
750.162	24364.8
750.773	24026.8
751.384	24142.8
751.994	24512.8
752.605	24377.8
753.216	24387.8
753.826	24419.8
754.444	24446.8
755.055	24164.8
755.665	24275.8
756.276	24254.8
756.887	24384.8
757.497	24399.8
758.108	24357.8
758.719	24289.8
759.33	24318.8
759.94	24490.8
760.551	24519.8
761.162	24560.8
761.772	24289.8
762.383	24355.8
762.994	24334.8
763.604	24228.8
764.215	23908.8
764.826	24130.8
765.436	24082.8
766.047	24078.8
766.658	24238.8
767.268	23896.8
767.879	23721.8
768.49	23848.8
769.1	24054.8
769.711	23950.8
770.322	23886.8
770.932	23626.8
771.536	23961.8
772.147	24010.8
772.757	23642.8
773.368	23742.8
773.979	23461.8
774.589	23539.8
775.193	23461.8
775.804	23199.8
776.414	23292.3
777.025	23210.8
777.636	23216.8
778.239	23099.8
778.85	23109.8
779.461	23233.8
780.071	23014.8
780.682	23038.8
781.286	23017.8
781.896	22809.8
782.507	22425.8
783.111	22646.8
783.721	22722.8
784.332	22124.8
784.935	22483.8
785.546	22607.8
786.157	21830.8
786.768	21889.8
787.371	22099.8
787.982	21969.8
788.592	21759.8
789.196	21904.8
789.807	21630.8
790.41	21335.8
791.021	21328.8
791.625	21041.8
792.235	21018.8
792.846	20983.8
793.449	20848.8
794.06	20690.8
794.664	20567.8
795.274	20526.8
795.878	20142.8
796.489	20176.8
797.092	20129.8
797.703	20102.8
798.314	19924.8
798.917	19916.8
799.528	19647.8
800.131	19171.8
800.735	19312.8
801.346	19142.8
801.949	19275.8
802.56	19111.8
803.164	18900.8
803.774	18814.8
804.378	18838.8
804.988	18426.8
805.592	18238.8
806.196	18053.8
806.806	18332.8
807.41	18267.8
808.013	18160.8
808.624	17900.8
809.228	17666.8
809.838	17214.8
810.442	17546.8
811.046	17317.8
811.649	17088.8
812.26	16926.8
812.863	16872.8
813.467	16714.8
814.078	16597.8
814.681	16471.8
815.285	16249.8
815.888	16132.8
816.499	16282.8
817.103	15891.8
817.706	15813.8
818.31	15561.8
818.913	15378.8
819.524	15339.8
820.128	15385.8
820.731	15179.8
821.335	15121.8
821.945	14745.8
822.549	14841.8
823.153	14560.8
823.756	14162.8
824.36	14142.8
824.963	14188.8
825.574	14094.8
826.178	14125.8
826.774	13946.8
827.385	13895.8
827.988	13314.8
828.592	13568.8
829.195	13118.8
829.799	13049.8
830.403	13028.8
831.006	12981.8
831.61	13228.8
832.213	12775.8
832.817	12415.8
833.421	12577.8
834.024	12212.8
834.628	12170.8
835.231	12081.8
835.835	12041.8
836.438	11839.8
837.042	11723.3
837.646	11731.8
838.249	11431.3
838.853	11379.3
839.456	11475.8
840.06	11185.8
840.664	11045.3
841.267	10777.8
841.871	10742.8
842.474	10564.8
843.071	10251.3
843.674	10350.3
844.278	10232.3
844.881	10213.3
845.485	10070.8
846.089	9980.82
846.685	9871.32
847.289	9709.82
847.892	9540.32
848.496	9596.32
849.099	9450.82
849.703	9452.32
850.299	9322.82
850.903	9064.32
851.507	9254.82
852.11	8954.32
852.707	8821.32
853.31	9280.32
853.914	8495.32
854.51	8640.82
855.114	8647.32
855.717	8382.82
856.321	8153.32
856.918	7978.32
857.521	7944.32
858.125	7863.82
858.728	7755.32
859.325	7739.82
859.928	7594.32
860.525	7425.82
861.128	7573.32
861.732	7412.82
862.328	7268.82
862.932	7285.32
863.529	7029.82
864.132	6964.82
864.729	6852.82
865.332	6659.82
865.936	6600.82
866.532	6591.82
867.136	6349.32
867.732	6350.32
868.336	6289.32
868.932	6260.82
869.536	6105.32
870.132	6060.32
870.736	5981.32
871.332	5800.32
871.936	5853.82
872.532	5834.82
873.136	5557.82
873.733	5573.32
874.336	5318.32
874.933	5551.32
875.536	5415.32
876.133	5237.32
876.729	5271.82
877.333	5244.32
877.929	4837.32
878.533	4983.82
879.129	4836.82
879.726	4773.82
880.329	4639.32
880.926	4673.82
881.529	4631.82
882.126	4530.82
882.722	4435.32
883.326	4388.32
883.922	4255.82
884.519	4249.82
885.115	4288.82
885.719	4209.82
886.315	4058.82
886.912	4096.32
887.515	4007.32
888.112	3944.32
888.708	3945.82
889.305	4080.32
889.908	3725.32
890.505	3712.82
891.101	3653.32
891.698	3554.82
892.294	3528.82
892.891	3541.32
893.494	3583.82
894.091	3479.32
894.687	3332.32
895.284	3309.82
895.88	3280.82
896.477	3216.32
897.08	3210.82
897.677	3126.82
898.273	3101.82
898.87	3035.32
899.466	3065.32
900.063	3315.82
900.659	3014.32
901.256	2972.32
901.852	2919.82
902.449	2909.32
903.045	2848.82
903.642	2758.32
904.245	2781.82
904.835	2823.32
905.438	2819.32
906.035	2692.32
906.624	2590.82
907.228	2759.32
907.824	2606.32
908.413	2621.32
909.01	2583.32
909.613	2527.32
910.203	2496.32
910.799	2453.82
911.396	2436.82
911.992	2389.82
912.589	2381.82
913.185	2391.32
913.782	2275.82
914.378	2341.82
914.975	2303.82
915.571	2322.82
916.168	2199.32
916.757	2189.32
917.354	2278.32
917.95	2258.82
918.546	2163.32
919.143	2277.32
919.732	2223.82
920.329	2113.82
920.925	2190.32
921.522	2351.82
922.118	2088.32
922.708	2067.82
923.304	2161.82
923.901	2011.32
924.497	2228.32
925.086	2068.82
925.683	2007.32
926.279	1976.82
926.876	1961.32
927.465	1964.32
928.062	1936.82
928.658	1886.82
929.248	1866.32
929.844	1887.82
930.44	1871.82
931.03	1879.82
931.626	1860.32
932.223	1850.82
932.812	1774.82
933.409	1801.32
934.005	1957.82
934.595	1792.82
935.191	1743.82
935.78	1734.82
936.377	1723.32
936.973	1688.32
937.563	1695.82
938.159	1666.32
938.749	1709.32
939.345	1668.82
939.934	1735.82
940.531	1712.82
941.12	1764.82
941.717	1603.82
942.306	1683.82
942.903	1753.32
943.492	1773.82
944.089	1583.82
944.678	1655.32
945.274	2176.32
945.864	1620.82
946.46	1564.32
947.05	1584.82
947.646	1559.32
948.235	1583.32
948.825	1566.32
949.421	1503.32
950.011	1572.82
950.6	1695.32
951.197	1516.82
951.786	1491.82
952.382	1467.82
952.972	1568.32
953.561	1480.32
954.158	1444.32
954.747	1498.82
955.336	1499.32
955.933	1447.32
956.522	1428.32
957.112	1430.32
957.708	1424.32
958.297	1435.32
958.887	1373.32
959.476	1427.32
960.073	1408.32
960.662	1404.32
961.251	1432.32
961.841	1380.82
962.437	1376.32
963.027	1455.82
963.616	1374.32
964.205	1411.82
964.795	1340.32
965.384	1341.32
965.981	1374.32
966.57	1400.82
967.159	1343.82
967.749	1363.82
968.338	1324.32
968.927	1287.32
969.524	1338.82
970.113	1300.32
970.703	1711.82
971.292	1764.82
971.881	1319.32
972.471	1266.82
973.06	1296.82
973.65	1309.82
974.239	1267.32
974.828	1258.82
975.418	1267.32
976.007	1274.82
976.596	1302.32
977.186	1422.32
977.775	1424.82
978.365	1280.32
978.954	1285.32
979.543	1237.32
980.133	1240.32
980.722	1239.82
981.312	1248.32
981.901	1226.32
982.49	1173.82
983.08	1229.82
983.669	1209.32
984.258	1220.82
984.848	1195.32
985.437	1190.82
986.027	1179.32
986.616	1179.32
987.198	1156.82
987.788	1195.82
988.377	1195.32
988.966	1243.82
989.556	1359.82
990.145	1138.32
990.727	1159.32
991.317	1125.82
991.906	1127.82
992.495	1110.32
993.085	1145.32
993.667	1120.82
994.257	1139.32
994.846	1130.32
995.435	1124.32
996.025	1113.82
996.607	1101.82
997.196	1084.82
997.786	1113.32
998.368	1080.32
998.957	1106.32
999.547	1113.32
1000.14	1094.82
1000.72	1116.32
1001.31	1057.32
1001.9	1050.32
1002.48	1050.82
1003.07	1065.32
1003.66	1072.32
1004.24	1166.82
1004.83	1193.32
1005.42	1122.32
1006	1030.82
1006.59	1012.82
1007.17	1004.82
1007.76	1053.82
1008.35	1071.32
1008.93	1123.82
1009.52	1118.32
1010.11	1032.82
1010.7	991.322
1011.28	986.822
1011.87	992.822
1012.45	1028.82
1013.04	1016.32
1013.62	984.322
1014.21	1131.32
1014.8	1074.82
1015.38	952.322
1015.96	983.322
1016.55	952.822
1017.14	945.322
1017.73	959.322
1018.31	967.822
1018.9	926.322
1019.48	1005.82
1020.07	1386.32
1020.65	973.822
1021.23	920.822
1021.82	915.322
1022.4	900.822
1022.99	919.822
1023.58	900.822
1024.16	894.322
1024.74	902.322
1025.33	891.822
1025.91	905.322
1026.49	877.322
1027.08	895.822
1027.67	886.322
1028.25	837.822
1028.84	865.322
1029.42	860.322
1030	876.322
1030.58	838.822
1031.17	865.822
1031.76	1107.82
1032.34	927.322
1032.92	845.322
1033.51	814.322
1034.09	824.822
1034.67	830.822
1035.26	799.822
1035.85	799.322
1036.43	847.822
1037.01	1167.82
1037.59	1040.82
1038.18	850.822
1038.76	794.822
1039.35	808.322
1039.93	791.822
1040.51	815.822
1041.09	764.322
1041.68	798.322
1042.26	803.322
1042.84	784.322
1043.42	752.822
1044.01	740.322
1044.59	769.822
1045.18	768.322
1045.76	791.322
1046.34	757.822
1046.92	714.322
1047.51	729.822
1048.09	850.822
1048.67	891.322
1049.25	859.822
1049.84	844.322
1050.42	914.322
1051	1050.82
1051.58	987.322
1052.16	711.822
1052.75	724.822
1053.33	715.322
1053.91	748.822
1054.49	721.322
1055.08	848.322
1055.65	817.822
1056.23	777.322
1056.82	775.322
1057.4	840.822
1057.98	703.822
1058.56	684.322
1059.14	689.822
1059.73	708.322
1060.31	704.822
1060.88	716.822
1061.47	681.322
1062.05	679.822
1062.63	739.822
1063.21	727.322
1063.8	692.322
1064.37	668.322
1064.95	702.822
1065.54	661.322
1066.12	694.322
1066.7	650.322
1067.28	709.322
1067.86	661.322
1068.44	618.822
1069.02	673.322
1069.6	624.822
1070.18	617.822
1070.76	673.322
1071.34	616.322
1071.92	638.322
1072.5	600.322
1073.08	649.822
1073.66	654.822
1074.24	650.322
1074.82	641.322
1075.4	631.822
1075.98	636.822
1076.56	646.822
1077.14	608.322
1077.72	621.322
1078.3	635.822
1078.88	649.822
1079.45	646.322
1080.04	609.822
1080.61	617.322
1081.19	610.822
1081.78	579.322
1082.35	581.822
1082.62	591.822
1083.21	626.822
1083.79	610.822
1084.38	608.822
1084.96	595.822
1085.55	616.822
1086.14	587.822
1086.72	571.822
1087.31	594.822
1087.9	635.822
1088.48	628.822
1089.07	571.822
1089.65	579.822
1090.23	609.822
1090.82	579.822
1091.4	582.822
1091.99	609.822
1092.58	611.822
1093.16	633.822
1093.75	603.822
1094.33	567.822
1094.92	712.822
1095.5	596.822
1096.08	637.822
1096.67	554.822
1097.26	641.822
1097.84	588.822
1098.43	597.822
1099.01	585.822
1099.59	606.822
1100.17	575.822
1100.76	561.822
1101.35	592.822
1101.93	573.822
1102.51	580.822
1103.09	579.822
1103.68	568.822
1104.26	589.822
1104.85	584.822
1105.43	595.822
1106.02	588.822
1106.6	593.822
1107.18	529.822
1107.76	609.822
1108.35	561.822
1108.94	567.822
1109.52	588.822
1110.1	554.822
1110.68	568.822
1111.27	553.822
1111.85	551.822
1112.43	554.822
1113.01	531.822
1113.59	570.822
1114.18	552.822
1114.77	586.822
1115.35	565.822
1115.93	574.822
1116.51	573.822
1117.1	542.822
1117.68	557.822
1118.26	557.822
1118.84	584.822
1119.42	639.322
1120.01	690.822
1120.59	665.822
1121.17	688.822
1121.75	574.822
1122.34	555.822
1122.92	563.822
1123.5	560.822
1124.08	556.822
1124.67	559.822
1125.25	570.822
1125.83	535.822
1126.4	556.822
1126.99	582.822
1127.57	545.822
1128.15	572.822
1128.73	547.822
1129.32	655.322
1129.9	650.822
1130.48	568.822
1131.06	575.822
1131.65	557.822
1132.22	541.822
1132.8	547.822
1133.38	568.822
1133.97	637.822
1134.55	640.322
1135.12	568.822
1135.71	550.822
1136.29	648.322
1136.87	652.822
1137.45	660.822
1138.03	658.822
1138.61	589.822
1139.19	537.822
1139.78	506.822
1140.35	552.822
1140.93	522.822
1141.52	522.822
1142.09	476.822
1142.67	537.822
1143.26	547.822
1143.83	649.822
1144.41	651.822
1144.99	655.322
1145.57	639.322
1146.15	628.822
1146.73	782.322
1147.31	623.822
1147.89	603.322
1148.47	563.822
1149.05	510.822
1149.63	489.822
1150.21	515.822
1150.79	512.822
1151.37	527.822
1151.95	514.822
1152.53	509.822
1153.1	634.322
1153.69	625.322
1154.26	508.822
1154.84	534.822
1155.43	514.822
1156	492.822
1156.58	510.822
1157.16	764.322
1157.73	751.322
1158.32	743.822
1158.9	756.322
1159.47	510.822
1160.05	496.822
1160.63	497.822
1161.21	506.822
1161.79	528.822
1162.36	468.822
1162.95	526.822
1163.52	760.322
1164.1	580.822
1164.68	589.822
1165.25	477.822
1165.83	510.822
1166.41	469.822
1166.99	484.822
1167.57	525.822
1168.14	516.822
1168.72	482.822
1169.3	487.822
1169.88	515.822
1170.45	518.822
1171.03	483.822
1171.61	707.822
1172.18	700.322
1172.76	503.822
1173.34	450.822
1173.92	519.822
1174.49	469.822
1175.07	466.822
1175.65	465.822
1176.22	519.822
1176.8	504.822
1177.38	475.822
1177.96	498.822
1178.53	478.822
1179.11	485.822
1179.68	507.822
1180.26	490.822
1180.84	480.822
1181.42	485.822
1181.99	493.822
1182.57	507.822
1183.14	488.822
1183.72	491.822
1184.29	498.822
1184.87	474.822
1185.45	471.822
1186.02	493.822
1186.6	475.822
1187.17	478.822
1187.75	472.822
1188.32	470.822
1188.9	469.822
1189.48	457.822
1190.05	479.822
1190.63	506.822
1191.2	482.822
1191.78	485.822
1192.35	463.822
1192.93	446.822
1193.5	493.822
1194.08	492.822
1194.66	485.822
1195.23	456.822
1195.8	450.822
1196.38	495.822
1196.95	639.822
1197.53	465.822
1198.1	439.822
1198.68	501.822
1199.25	520.822
1199.83	722.822
1200.4	717.822
1200.98	448.822
1201.55	447.822
1202.12	455.822
1202.7	501.822
1203.27	462.822
1203.85	453.822
1204.42	445.822
1205	444.822
1205.57	453.822
1206.14	486.822
1206.72	720.322
1207.29	630.822
1207.87	653.322
1208.44	726.822
1209.02	407.822
1209.58	457.822
1210.16	490.822
1210.74	686.822
1211.3	488.822
1211.88	477.822
1212.45	425.822
1213.03	435.822
1213.6	461.822
1214.17	446.822
1214.75	429.822
1215.32	474.822
1215.89	436.822
1216.47	479.822
1217.04	461.822
1217.61	452.822
1218.18	437.822
1218.76	451.822
1219.33	454.822
1219.9	468.822
1220.47	448.822
1221.05	482.822
1221.62	444.822
1222.19	422.822
1222.76	453.822
1223.34	547.322
1223.91	549.822
1224.48	544.322
1225.05	542.822
1225.63	544.822
1226.19	540.822
1226.77	540.822
1227.34	524.822
1227.91	423.822
1228.49	422.822
1229.06	425.822
1229.63	392.822
1230.2	458.822
1230.77	488.822
1231.34	538.822
1231.92	538.322
1232.49	432.822
1233.05	437.822
1233.63	422.822
1234.2	420.822
1234.77	422.822
1235.34	442.822
1235.91	440.822
1236.48	520.322
1237.05	523.322
1237.63	483.822
1238.19	403.822
1238.77	435.822
1239.34	421.822
1239.91	389.822
1240.48	422.822
1241.05	433.822
1241.62	428.822
1242.19	432.822
1242.76	457.822
1243.33	406.822
1243.9	445.822
1244.47	409.822
1245.04	468.822
1245.61	401.822
1246.18	410.822
1246.75	410.822
1247.32	424.822
1247.89	423.822
1248.46	429.822
1249.03	438.822
1249.6	440.822
1250.17	605.322
1250.74	605.822
1251.31	615.322
1251.88	612.822
1252.45	533.822
1253.02	532.822
1253.59	384.822
1254.16	392.822
1254.73	410.822
1255.29	410.822
1255.86	389.822
1256.44	398.822
1257	421.822
1257.57	372.822
1258.14	415.822
1258.71	369.822
1259.28	391.822
1259.85	412.822
1260.41	377.822
1260.98	383.822
1261.55	433.822
1262.12	395.822
1262.69	368.822
1263.25	387.822
1263.82	393.822
1264.39	371.822
1264.96	386.822
1265.53	386.822
1266.1	405.822
1266.67	380.822
1267.24	379.822
1267.81	419.822
1268.37	361.822
1268.94	353.822
1269.5	364.822
1270.07	374.822
1270.64	398.822
1271.21	385.822
1271.77	365.822
1272.34	385.822
1272.91	375.822
1273.48	408.822
1274.05	375.822
1274.62	654.822
1275.18	644.822
1275.74	660.322
1276.31	639.322
1276.88	654.322
1277.45	432.822
1278.02	417.822
1278.58	380.822
1279.15	393.822
1279.71	358.822
1280.28	405.822
1280.85	363.822
1281.42	329.822
1281.98	364.822
1282.55	353.822
1283.11	400.822
1283.68	354.822
1284.24	374.822
1284.81	362.822
1285.38	350.822
1285.95	375.822
1286.51	324.822
1287.08	373.822
1287.65	366.822
1288.21	343.822
1288.77	345.822
1289.34	365.822
1289.91	393.822
1290.47	364.822
1291.04	373.822
1291.61	353.822
1292.17	340.822
1292.74	350.822
1293.3	365.822
1293.87	362.822
1294.43	657.822
1294.99	384.822
1295.56	365.822
1296.13	342.822
1296.69	334.822
1297.26	328.822
1297.82	329.822
1298.39	344.822
1298.95	338.822
1299.52	330.822
1300.08	334.822
1300.65	391.822
1301.21	351.822
1301.78	377.322
1302.34	333.822
1302.91	334.822
1303.47	358.822
1304.03	324.822
1304.6	349.822
1305.16	337.822
1305.72	347.822
1306.29	340.822
1306.85	332.822
1307.42	369.822
1307.98	352.822
1308.54	319.822
1309.11	338.822
1309.67	329.822
1310.24	503.822
1310.8	613.822
1311.36	313.822
1311.93	360.822
1312.49	367.822
1313.06	323.822
1313.62	633.822
1314.18	469.822
1314.75	497.322
1315.31	486.822
1315.87	472.822
1316.43	485.822
1317	476.822
1317.56	346.822
1318.12	326.822
1318.69	331.822
1319.25	341.822
1319.81	341.822
1320.37	315.822
1320.94	334.822
1321.5	338.822
1322.06	288.822
1322.62	324.822
1323.19	428.322
1323.75	630.822
1324.31	329.822
1324.88	314.822
1325.44	293.822
1326	306.822
1326.57	317.822
1327.13	532.822
1327.69	453.822
1328.25	296.822
1328.81	334.822
1329.38	268.822
1329.94	266.822
1330.5	282.822
1331.06	346.822
1331.62	276.822
1332.18	306.822
1332.74	310.822
1333.3	316.822
1333.87	288.822
1334.43	320.822
1334.99	277.822
1335.55	258.822
1336.12	297.822
1336.67	309.822
1337.23	294.822
1337.8	586.822
1338.35	269.822
1338.92	293.822
1339.48	286.822
1340.04	256.822
1340.6	258.822
1341.16	258.822
1341.72	283.822
1342.28	286.822
1342.84	258.822
1343.4	262.822
1343.96	283.822
1344.52	270.822
1345.08	285.822
1345.65	262.822
1346.21	268.822
1346.77	267.822
1347.33	271.822
1347.88	289.822
1348.44	250.822
1349	274.822
1349.57	276.822
1350.13	265.822
1350.69	282.822
1351.25	262.822
1351.8	249.822
1352.36	276.822
1352.92	416.322
1353.49	409.322
1354.05	415.322
1354.6	382.322
1355.16	385.822
1355.72	277.822
1356.28	264.822
1356.84	229.822
1357.4	255.822
1357.96	255.822
1358.51	658.822
1359.07	420.822
1359.63	430.322
1360.2	419.322
1360.76	488.822
1361.31	262.822
1361.87	229.822
1362.43	241.822
1362.99	241.822
1363.55	259.822
1364.11	256.822
1364.66	260.822
1365.22	249.822
1365.78	229.822
1366.34	255.822
1366.9	535.822
1367.45	248.822
1368.01	234.822
1368.57	264.822
1369.13	250.822
1369.69	224.822
1370.24	228.822
1370.8	232.822
1371.36	256.822
1371.92	250.822
1372.47	210.822
1373.03	246.822
1373.59	437.822
1374.15	248.322
1374.7	237.822
1375.26	225.822
1375.82	227.822
1376.38	207.822
1376.93	202.822
1377.49	228.822
1378.05	219.822
1378.61	283.822
1379.16	283.822
1379.72	283.822
1380.28	291.322
1380.83	294.822
1381.39	293.822
1381.95	293.322
1382.51	294.322
1383.06	328.822
1383.61	332.322
1384.18	309.822
1384.73	313.822
1385.29	330.822
1385.84	329.322
1386.4	330.822
1386.96	329.322
1387.51	327.822
1388.07	326.322
1388.62	324.822
1389.18	316.822
1389.74	311.822
1390.3	322.322
1390.85	321.322
1391.4	313.822
1391.96	279.322
1392.51	412.322
1393.07	443.822
1393.63	437.322
1394.18	419.822
1394.73	420.822
1395.3	418.322
1395.85	418.822
1396.4	419.322
1396.96	418.322
1397.51	416.822
1398.07	415.822
1398.63	414.322
1399.18	402.822
1399.73	401.322
1400.29	399.822
1400.84	398.322
1401.4	352.822
1401.96	232.322
1402.51	312.322
1403.06	327.322
1403.62	325.822
1404.17	326.322
1404.73	326.322
1405.28	332.822
1405.84	333.322
1406.39	333.322
1406.94	332.322
1407.5	332.322
1408.06	332.322
1408.61	332.822
1409.16	331.822
1409.72	331.322
1410.27	330.322
1410.83	326.822
1411.38	204.322
1411.93	188.322
1412.49	188.322
1413.04	178.822
1413.59	198.822
1414.15	188.822
1414.7	175.822
1415.25	196.822
1415.81	176.822
1416.36	202.822
1416.91	178.822
1417.46	201.822
1418.02	187.822
1418.57	178.822
1419.13	170.822
1419.68	176.822
1420.23	161.822
1420.78	184.822
1421.33	198.822
1421.89	168.822
1422.44	169.822
1423	178.822
1423.55	164.822
1424.1	163.822
1424.65	124.822
1425.2	310.822
1425.76	91.8217
1426.31	227.822
1426.86	185.822
1427.41	-75.1783
1427.97	36.8217
1428.52	-302.178
1429.07	-374.178
1429.62	-438.178
1430.18	-457.178
