18.3571	1614.87
19.0246	1677.87
19.7071	1698.87
20.3821	1695.87
21.0572	1719.87
21.7322	1714.87
22.4072	1760.87
23.0897	1790.87
23.7648	1875.87
24.4398	1927.87
25.1148	2035.87
25.7898	2118.87
26.4648	2110.87
27.1399	2162.87
27.8149	2205.87
28.4974	2174.87
29.1724	2309.87
29.8475	2296.87
30.5225	2297.87
31.1975	2488.87
31.8725	2469.87
32.5476	2639.87
33.2226	2624.87
33.8976	2687.87
34.5726	2898.87
35.2477	2993.87
35.9227	3062.87
36.5977	3096.87
37.2727	3180.87
37.9478	3142.87
38.6228	3278.87
39.2978	3312.87
39.9728	3369.87
40.6478	3543.87
41.3229	3633.87
41.9979	3690.87
42.6729	3770.87
43.3479	3961.87
44.023	3992.87
44.698	4178.87
45.373	4239.87
46.048	4274.87
46.7156	4366.87
47.3906	4424.87
48.0656	4526.87
48.7406	4674.87
49.4157	4621.87
50.0907	4773.87
50.7582	4836.87
51.4332	4874.87
52.1082	5018.87
52.7833	4887.87
53.4583	5151.87
54.1258	5186.87
54.8008	5180.87
55.4759	5295.87
56.1509	5320.87
56.8184	5358.87
57.4934	5584.87
58.1685	5746.87
58.8435	5824.87
59.511	5845.87
60.186	5761.87
60.8611	5835.87
61.5286	5775.87
62.2036	5930.87
62.8786	5836.87
63.5462	5833.87
64.2212	6033.87
64.8962	6180.87
65.5637	6116.87
66.2387	6104.87
66.9063	6130.87
67.5813	6250.87
68.2563	6330.87
68.9238	6358.87
69.5989	6330.87
70.2664	6352.87
70.9414	6449.87
71.6089	6389.87
72.284	6446.87
72.9515	6525.87
73.6265	6579.87
74.3015	6568.87
74.9691	6667.87
75.6441	6656.87
76.3116	6558.87
76.9866	6476.87
77.6541	6578.87
78.3217	6666.87
78.9967	6708.87
79.6642	6638.87
80.3392	6630.87
81.0068	6788.87
81.6743	6860.87
82.3493	6825.87
83.0168	6749.87
83.6919	6766.87
84.3594	6800.87
85.0344	6777.87
85.7019	6742.87
86.3695	6797.87
87.037	6775.87
87.712	6812.87
88.3795	6847.87
89.0471	6936.87
89.7221	6840.87
90.3896	6936.87
91.0571	7006.87
91.7321	7014.87
92.3997	6894.87
93.0672	6947.87
93.7347	6947.87
94.4097	6978.87
95.0773	6935.87
95.7448	6808.87
96.4123	6938.87
97.0798	7020.87
97.7549	7000.87
98.4224	6901.87
99.0899	6893.87
99.7574	6813.87
100.432	6873.87
101.1	6998.87
101.767	6997.87
102.435	6972.87
103.103	6930.87
103.77	6961.87
104.438	6994.87
105.105	6999.87
105.773	7048.87
106.44	7051.87
107.115	7002.87
107.783	6916.87
108.45	6906.87
109.118	6878.87
109.785	6950.87
110.453	6826.87
111.12	6973.87
111.788	6878.87
112.455	6910.87
113.123	6939.87
113.79	6919.87
114.458	6975.87
115.125	6934.87
115.793	7004.87
116.461	6857.87
117.128	6871.87
117.796	6983.87
118.463	6738.87
119.123	6869.87
119.791	6922.87
120.458	6758.87
121.126	6861.87
121.793	6851.87
122.461	7103.87
123.128	7038.87
123.796	6846.87
124.456	6871.87
125.123	6674.87
125.791	6698.87
126.458	6938.87
127.126	7090.87
127.786	6969.87
128.453	7081.87
129.121	6871.87
129.788	6880.87
130.456	7039.87
131.116	6995.87
131.784	6835.87
132.451	6713.87
133.119	6854.87
133.779	6686.87
134.446	6756.87
135.114	6664.87
135.774	6736.87
136.441	6818.87
137.109	6734.87
137.769	6866.87
138.436	6873.87
139.104	6766.87
139.764	6858.87
140.431	6793.87
141.099	6731.87
141.759	6615.87
142.426	6728.87
143.094	6723.87
143.754	6682.87
144.421	6654.87
145.082	6596.87
145.749	6598.87
146.409	6626.87
147.077	6540.87
147.737	6624.87
148.404	6684.87
149.064	6572.87
149.732	6612.87
150.399	6669.87
151.059	6551.87
151.727	6559.87
152.387	6586.87
153.047	6590.87
153.714	6623.87
154.374	6521.87
155.042	6546.87
155.702	6616.87
156.369	6504.87
157.029	6427.87
157.689	6498.87
158.357	6532.87
159.017	6534.87
159.685	6360.87
160.345	6581.87
161.005	6570.87
161.672	6467.87
162.332	6435.87
162.992	6508.87
163.66	6395.87
164.32	6450.87
164.98	6510.87
165.647	6433.87
166.307	6436.87
166.967	6378.87
167.627	6383.87
168.295	6431.87
168.955	6353.87
169.615	6371.87
170.275	6327.87
170.942	6325.87
171.602	6402.87
172.262	6467.87
172.923	6470.87
173.59	6508.87
174.25	6514.87
174.91	6438.87
175.57	6458.87
176.23	6283.87
176.89	6330.87
177.55	6299.87
178.218	6306.87
178.878	6330.87
179.538	6317.87
180.198	6261.87
180.858	6284.87
181.518	6340.87
182.178	6410.87
182.838	6255.87
183.498	6319.87
184.158	6288.87
184.818	6277.87
185.478	6247.87
186.145	6407.87
186.805	6246.87
187.465	6252.87
188.126	6242.87
188.786	6271.87
189.446	6217.87
190.106	6207.87
190.758	6366.87
191.418	6309.87
192.078	6247.87
192.738	6075.87
193.398	6290.87
194.058	6274.87
194.718	6456.87
195.378	6236.87
196.038	6248.87
196.698	6285.87
197.358	6214.87
198.011	6181.87
198.671	6243.87
199.331	6220.87
199.991	6154.87
200.651	6056.87
201.311	6295.87
201.971	6179.87
202.631	6156.87
203.284	6161.87
203.944	6134.87
204.604	6162.87
205.256	6124.87
205.916	6012.87
206.576	5982.87
207.236	6074.87
207.896	6173.87
208.549	6063.87
209.209	6254.87
209.869	6251.87
210.529	6065.87
211.181	6056.87
211.841	5989.87
212.494	6111.87
213.154	5990.87
213.814	6071.87
214.474	6151.87
215.126	6224.87
215.786	6020.87
216.447	6029.87
217.099	6122.87
217.759	6295.87
218.412	6198.87
219.072	6157.87
219.724	5992.87
220.384	6034.87
221.044	5991.87
221.697	5989.87
222.357	6073.87
223.009	6000.87
223.669	5935.87
224.322	6122.87
224.982	5968.87
225.634	5938.87
226.294	6002.87
226.947	6009.87
227.607	6068.87
228.259	5964.87
228.919	5974.87
229.572	5915.87
230.225	6035.87
230.885	5954.87
231.537	5999.87
232.197	5984.87
232.85	6068.87
233.51	6009.87
234.162	5963.87
234.822	6048.87
235.475	5980.87
236.127	5913.87
236.78	6012.87
237.44	5962.87
238.092	5989.87
238.752	5888.87
239.405	5943.87
240.057	5946.87
240.717	6002.87
241.37	5998.87
242.022	5949.87
242.675	5937.87
243.335	5939.87
243.987	5950.87
244.64	5938.87
245.3	5884.87
245.953	5885.87
246.605	5971.87
247.258	6056.87
247.91	5878.87
248.563	5966.87
249.223	5837.87
249.875	5942.87
250.528	5832.87
251.18	5948.87
251.833	5938.87
252.485	5934.87
253.145	5899.87
253.798	5873.87
254.45	5940.87
255.103	5877.87
255.755	5875.87
256.408	5796.87
257.06	5969.87
257.713	6000.87
258.366	5955.87
259.026	5760.87
259.678	5938.87
260.331	5981.87
260.983	5933.87
261.636	5816.87
262.288	5874.87
262.941	5990.87
263.593	6013.87
264.246	5829.87
264.898	5927.87
265.551	5840.87
266.203	5943.87
266.856	5879.87
267.501	5987.87
268.153	5785.87
268.806	5870.87
269.458	5885.87
270.111	5890.87
270.763	5854.87
271.416	5878.87
272.068	5838.87
272.721	5893.87
273.374	5866.87
274.026	5942.87
274.679	5875.87
275.324	5844.87
275.976	5903.87
276.629	5922.87
277.281	5966.87
277.934	6001.87
278.579	5909.87
279.231	5855.87
279.884	5945.87
280.536	5934.87
281.181	5827.87
281.834	5765.87
282.486	5958.87
283.139	5930.87
283.791	5886.87
284.436	5889.87
285.089	5743.87
285.741	5919.87
286.386	5745.87
287.039	5753.87
287.692	5876.87
288.344	5879.87
288.989	5794.87
289.642	5827.87
290.287	5864.87
290.939	5814.87
291.592	5943.87
292.237	6009.87
292.889	5878.87
293.534	5790.87
294.187	5826.87
294.839	5920.87
295.484	5858.87
296.137	5859.87
296.789	5806.87
297.434	5822.87
298.079	5785.87
298.732	5742.87
299.384	5797.87
300.029	5781.87
300.682	5808.87
301.327	5837.87
301.972	5745.87
302.625	5840.87
303.277	5830.87
303.922	5806.87
304.575	5790.87
305.22	5772.87
305.865	5775.87
306.517	5844.87
307.162	5777.87
307.815	5734.87
308.46	5777.87
309.105	5819.87
309.757	5778.87
310.402	5812.87
311.055	5839.87
311.7	5788.87
312.345	5848.87
312.997	5669.87
313.642	5783.87
314.287	5789.87
314.94	5802.87
315.585	5868.87
316.23	5846.87
316.875	5737.87
317.528	5863.87
318.173	5897.87
318.818	5857.87
319.47	5870.87
320.115	5812.87
320.76	5723.87
321.405	5827.87
322.058	5738.87
322.703	5793.87
323.348	5812.87
323.993	5809.87
324.638	5856.87
325.29	5781.87
325.935	5909.87
326.58	5804.87
327.225	5760.87
327.87	5761.87
328.515	5831.87
329.168	5784.87
329.813	5719.87
330.458	5775.87
331.103	5742.87
331.748	5842.87
332.393	5705.87
333.038	5747.87
333.683	5768.87
334.328	5798.87
334.973	5681.87
335.618	5736.87
336.271	5692.87
336.908	5666.87
337.553	5806.87
338.198	5816.87
338.851	5734.87
339.496	5806.87
340.133	5697.87
340.778	5816.87
341.423	5718.87
342.068	5712.87
342.713	5752.87
343.358	5706.87
344.004	5699.87
344.649	5782.87
345.294	5681.87
345.939	5778.87
346.584	5911.87
347.229	5871.87
347.874	6040.87
348.519	5860.87
349.156	5721.87
349.801	5760.87
350.446	5704.87
351.091	5814.87
351.736	5782.87
352.374	5884.87
353.019	5698.87
353.664	5710.87
354.309	5732.87
354.954	5691.87
355.591	5769.87
356.236	5716.87
356.881	5736.87
357.526	5715.87
358.164	5761.87
358.809	5796.87
359.454	5640.87
360.099	5736.87
360.737	5734.87
361.382	5788.87
362.027	5689.87
362.672	5816.87
363.309	5666.87
363.954	5717.87
364.599	5816.87
365.237	5723.87
365.882	5806.87
366.519	5731.87
367.164	5780.87
367.809	5715.87
368.447	5709.87
369.092	5871.87
369.729	5771.87
370.374	5711.87
371.019	5771.87
371.657	5744.87
372.302	5712.87
372.94	5843.87
373.585	5727.87
374.222	5799.87
374.867	5731.87
375.505	5813.87
376.15	5650.87
376.787	5777.87
377.432	5689.87
378.07	5758.87
378.715	5763.87
379.352	5680.87
379.997	5780.87
380.635	5812.87
381.28	5729.87
381.917	5730.87
382.562	5736.87
383.2	5858.87
383.837	5767.87
384.482	5796.87
385.12	5814.87
385.765	5856.87
386.402	5830.87
387.04	5847.87
387.685	5825.87
388.323	5815.87
388.96	5795.87
389.605	5852.87
390.243	5854.87
390.88	5812.87
391.518	5752.87
392.163	5839.87
392.8	5760.87
393.445	5694.87
394.083	5892.87
394.72	5843.87
395.358	5685.87
395.995	5842.87
396.64	5798.87
397.278	5703.87
397.915	5866.87
398.553	5849.87
399.19	5858.87
399.835	5889.87
400.473	5920.87
401.111	6062.87
401.748	5830.87
402.393	5745.87
403.023	5886.87
403.668	5831.87
404.306	5822.87
404.943	5971.87
405.581	6100.87
406.218	5992.87
406.856	5841.87
407.493	5853.87
408.131	5845.87
408.776	5908.87
409.413	5797.87
410.051	5830.87
410.688	5999.87
411.326	5931.87
411.963	5916.87
412.601	5940.87
413.238	5964.87
413.876	5969.87
414.513	5911.87
415.151	5921.87
415.789	5890.87
416.426	5990.87
417.064	5935.87
417.701	5985.87
418.339	5918.87
418.976	5962.87
419.606	5933.87
420.244	5980.87
420.881	5972.87
421.519	5896.87
422.156	5904.87
422.794	5889.87
423.431	6018.87
424.069	6031.87
424.706	6045.87
425.344	5943.87
425.974	5934.87
426.611	5914.87
427.249	5961.87
427.886	6015.87
428.524	6091.87
429.154	5971.87
429.792	6161.87
430.429	6058.87
431.067	5988.87
431.697	6089.87
432.334	6049.87
432.972	6007.87
433.609	6089.87
434.239	6055.87
434.877	6124.87
435.514	6057.87
436.152	6087.87
436.782	6210.87
437.419	6133.87
438.057	6081.87
438.687	6072.87
439.324	5983.87
439.962	6191.87
440.592	6247.87
441.229	6088.87
441.867	6154.87
442.497	6190.87
443.134	6108.87
443.772	6123.87
444.402	6074.87
445.04	6266.87
445.67	6096.87
446.307	6152.87
446.937	6164.87
447.575	6170.87
448.205	6170.87
448.842	6277.87
449.48	6172.87
450.11	6241.87
450.747	6180.87
451.377	6257.87
452.015	6270.87
452.645	6289.87
453.275	6163.87
453.912	6264.87
454.55	6163.87
455.18	6211.87
455.81	6267.87
456.447	6228.87
457.077	6226.87
457.715	6207.87
458.345	6253.87
458.975	6313.87
459.613	6202.87
460.243	6372.87
460.88	6248.87
461.51	6286.5
462.14	6326.25
462.778	6294
463.408	6266.37
464.038	6216.87
464.675	6339.37
465.305	6315
465.935	6097.75
466.573	6306
467.203	6350.75
467.833	6245.87
468.463	6225.87
469.1	6247
469.73	6308.87
470.36	6237.25
470.998	6223.12
471.628	6236.37
472.258	6293.12
472.888	6285.37
473.518	6233.62
474.156	6381.12
474.786	6291
475.416	6266.75
476.046	6197.62
476.676	6309.75
477.313	6184.12
477.943	6202.5
478.573	6268.62
479.203	6263.75
479.833	6243.12
480.463	6229.37
481.093	6197.87
481.723	6200.75
482.353	6200.37
482.991	6138.12
483.621	6243.62
484.251	6198.62
484.881	6197.87
485.511	6246.75
486.141	6174.87
486.771	6202.12
487.401	6216
488.031	6269.25
488.661	6298.62
489.291	6200.75
489.921	6076.87
490.551	6198.75
491.181	6132.62
491.811	6192.75
492.441	6146.12
493.071	6162
493.701	6234.87
494.331	6284.12
494.954	6196.75
495.591	6128.75
496.214	6243.25
496.844	6164.87
497.474	6229.5
498.104	6145.87
498.734	6138.5
499.364	6147.5
499.994	6182.87
500.617	6095.25
501.247	6195.87
501.877	6214
502.507	6092.62
503.137	6216.75
503.767	6160.5
504.389	6107.5
505.019	6058.62
505.649	6043.25
506.279	6121.25
506.909	6097.87
507.532	6157.75
508.162	6263.75
508.792	6162.75
509.422	6097.75
510.044	6053.62
510.674	6209.75
511.304	6157.12
511.927	6038.5
512.557	6099.25
513.187	6046.12
513.809	5971.87
514.44	6115.12
515.07	6104.87
515.692	6075.12
516.322	6049.5
516.952	5941.62
517.575	5964.25
518.205	5972.25
518.827	6000.25
519.457	5980.5
520.087	5912.25
520.71	5957.75
521.34	5981.75
521.962	5994.37
522.592	5903.12
523.222	5947.87
523.845	5925.37
524.475	5891.62
525.097	5886.25
525.727	5976.12
526.35	5926.87
526.98	5879.5
527.602	5889.5
528.232	5818.87
528.855	5845.75
529.485	5837.37
530.108	5900.87
530.738	5904.5
531.36	5771.25
531.983	5801
532.613	5706
533.235	5855.37
533.858	5874
534.488	5733.37
535.11	5862
535.74	5726.25
536.363	5712
536.985	5649
537.615	5707
538.238	5760.87
538.868	5737.5
539.49	5700.87
540.113	5610.87
540.735	5565.87
541.365	5661.62
541.988	5667.87
542.61	5596.25
543.24	5577.12
543.863	5658.37
544.486	5596.25
545.108	5566.75
545.738	5550.75
546.361	5519.12
546.983	5536.25
547.606	5636.12
548.228	5552.62
548.858	5501.5
549.481	5582.62
550.103	5516.25
550.726	5540.87
551.356	5573.37
551.978	5570.75
552.601	5531.87
553.223	5484.12
553.846	5457.75
554.468	5445.5
555.091	5489.12
555.713	5393.75
556.343	5414
556.958	5341.12
557.589	5437.5
558.211	5348.12
558.834	5392.12
559.456	5415.62
560.079	5380.25
560.701	5348.75
561.324	5413
561.946	5379
562.569	5269.75
563.191	5296.37
563.814	5288.12
564.436	5271.37
565.059	5348
565.681	5340.62
566.304	5276.12
566.926	5300.5
567.549	5241.5
568.171	5337.25
568.794	5215
569.416	5264
570.039	5268.75
570.661	5281.12
571.284	5251.62
571.899	5312.5
572.522	5391.5
573.144	5267.62
573.767	5279.75
574.389	5235.25
575.012	5258.87
575.634	5178.5
576.257	5203.87
576.872	5192.87
577.494	5245.62
578.117	5236.12
578.739	5202.25
579.354	5204.25
579.977	5172.37
580.599	5207.12
581.222	5194.5
581.844	5127.62
582.459	5133.75
583.082	5056.5
583.704	5052
584.327	5139.25
584.942	5131.12
585.565	5121.37
586.187	5007.75
586.81	5099.12
587.425	5016.87
588.047	5036.5
588.67	5016.75
589.285	5034.62
589.907	5016.37
590.53	4996.25
591.145	5030.37
591.767	4998
592.382	4915.62
593.005	4927.25
593.62	4935.12
594.242	4945
594.865	4881.75
595.48	4871.87
596.102	4821.62
596.725	4817.5
597.34	4796.5
597.962	4843.75
598.577	4785
599.2	4785.37
599.815	4771.5
600.438	4674.75
601.053	4797.12
601.675	4761.5
602.29	4707.62
602.913	4683.75
603.528	4737.62
604.15	4641.62
604.765	4567
605.38	4566
606.003	4594
606.618	4467.75
607.24	4584.12
607.855	4622.37
608.478	4491
609.093	4473.25
609.708	4481.62
610.33	4476.5
610.945	4430.62
611.568	4406.37
612.183	4376.87
612.798	4302.25
613.42	4333.62
614.035	4336.37
614.651	4404.87
615.273	4381.62
615.888	4301
616.503	4256.87
617.118	4211.62
617.741	4204.62
618.356	4193.5
618.971	4193.75
619.593	4216.5
620.208	4220.75
620.823	4228.25
621.438	4182.5
622.061	4077
622.676	4108.12
623.291	4046.75
623.906	4003.25
624.521	4003.37
625.143	4108.87
625.758	3982.75
626.373	4065.25
626.988	3906.37
627.603	3884.87
628.219	3947.62
628.833	3829.62
629.449	3852.75
630.071	3903
630.686	3876.87
631.301	3806.25
631.916	3836.87
632.531	3843.37
633.146	3830.75
633.761	3840.87
634.376	3832
634.991	3730.62
635.606	3765
636.221	3713.75
636.836	3620.5
637.451	3625.12
638.066	3696.75
638.689	3639
639.304	3770.75
639.911	3648.25
640.526	3651.25
641.141	3609.87
641.764	3572.25
642.371	3615.12
642.987	3510.62
643.602	3497.12
644.217	3549.12
644.832	3426.37
645.447	3439.25
646.062	3456.62
646.677	3466.37
647.292	3445.25
647.907	3425.12
648.522	3430
649.129	3396
649.744	3408.75
650.359	3345.37
650.974	3380.62
651.589	3402.5
652.204	3367
652.812	3306.87
653.427	3320.12
653.689	3306.12
654.312	3264.12
654.927	3286.12
655.549	3308.12
656.172	3177.12
656.794	3262.12
657.417	3268.12
658.032	3268.12
658.655	3299.12
659.277	3219.12
659.9	3207.12
660.515	3244.12
661.137	3132.12
661.76	3203.12
662.382	3239.12
662.997	3301.12
663.62	3288.12
664.242	3164.12
664.865	3094.12
665.48	3116.12
666.102	3078.12
666.725	3060.12
667.34	3080.12
667.962	3035.12
668.585	3107.12
669.2	3110.12
669.822	3112.12
670.437	3030.12
671.06	3015.12
671.682	3007.12
672.298	3037.12
672.92	2967.12
673.543	2962.12
674.158	2981.12
674.78	2965.12
675.395	2993.12
676.018	2988.12
676.633	2970.12
677.255	2967.12
677.878	3025.12
678.493	3153.12
679.108	2978.12
679.73	3015.12
680.345	2930.12
680.968	2932.12
681.583	2903.12
682.205	2860.12
682.82	2904.12
683.443	2877.12
684.058	2855.12
684.68	2940.12
685.295	2825.12
685.918	2850.12
686.533	2934.12
687.148	2821.12
687.771	2891.12
688.386	2840.12
689.001	2776.12
689.623	2813.12
690.238	2799.12
690.861	2887.12
691.476	2865.12
692.091	2796.12
692.713	2720.12
693.328	2742.12
693.943	2819.12
694.566	2700.12
695.181	2770.12
695.796	2815.12
696.418	2784.12
697.033	2815.12
697.648	2718.12
698.263	2776.12
698.886	2796.12
699.501	2721.12
700.116	2725.12
700.731	2719.12
701.354	2668.12
701.969	2641.12
702.584	2769.12
703.199	2666.12
703.814	2658.12
704.436	2628.12
705.051	2608.12
705.666	2680.12
706.281	2626.12
706.896	2661.12
707.511	2648.12
708.126	2616.12
708.749	2636.12
709.364	2665.12
709.979	2659.12
710.594	2582.12
711.209	2609.12
711.824	2617.12
712.439	2543.12
713.054	2632.12
713.669	2566.12
714.292	2580.12
714.899	2626.12
715.522	2562.12
716.137	2543.12
716.744	2555.12
717.367	2587.12
717.982	2551.12
718.597	2560.12
719.212	2639.12
719.819	2545.12
720.442	2508.12
721.057	2540.12
721.664	2489.12
722.279	2549.12
722.894	2467.12
723.509	2498.12
724.124	2506.12
724.739	2631.12
725.354	2487.12
725.969	2532.12
726.584	2513.12
727.199	2489.12
727.807	2449.12
728.422	2400.12
729.037	2419.12
729.652	2609.12
730.267	2594.12
730.882	2420.12
731.497	2476.12
732.112	2475.12
732.72	2410.12
733.335	2306.12
733.95	2344.12
734.565	2440.12
735.18	2371.12
735.787	2408.12
736.402	2364.12
737.017	2356.12
737.632	2362.12
738.24	2387.12
738.855	2345.12
739.47	2296.12
740.077	2381.12
740.692	2391.12
741.307	2349.12
741.915	2360.12
742.53	2333.12
743.145	2308.12
743.76	2362.12
744.368	2342.12
744.983	2316.12
745.598	2303.12
746.205	2380.12
746.82	2372.12
747.428	2291.12
748.043	2271.12
748.658	2366.12
749.265	2303.12
749.88	2291.12
750.488	2234.12
751.103	2288.12
751.71	2310.12
752.325	2299.12
752.933	2262.12
753.548	2249.12
754.163	2190.12
754.77	2346.12
755.385	2292.12
755.993	2233.12
756.608	2295.12
757.216	2300.12
757.831	2280.12
758.438	2240.12
759.053	2234.12
759.661	2265.12
760.276	2240.12
760.883	2185.12
761.491	2280.12
762.106	2176.12
762.713	2220.12
763.328	2175.12
763.936	2163.12
764.551	2176.12
765.158	2151.12
765.766	2189.12
766.381	2183.12
766.988	2119.12
767.596	2204.12
768.211	2149.12
768.818	2224.12
769.426	2108.12
770.041	2151.12
770.648	2184.12
771.256	2169.12
771.871	2151.12
772.479	2159.12
773.086	2074.12
773.694	2107.12
774.309	2097.12
774.916	2081.12
775.524	2032.12
776.131	2102.12
776.746	2057.12
777.354	2164.12
777.961	2236.12
778.569	2065.12
779.184	2128.12
779.791	2045.12
780.399	2028.12
781.006	2063.12
781.614	2077.12
782.221	2000.12
782.836	1968.12
783.444	1988.12
784.051	1996.12
784.659	2010.12
785.266	1979.12
785.874	2003.12
786.489	1916.12
787.089	1941.12
787.704	1980.12
788.312	1940.12
788.919	1935.12
789.527	1847.12
790.134	1886.12
790.742	1986.12
791.349	2008.12
791.957	1905.12
792.564	1869.12
793.172	1923.12
793.779	1839.12
794.387	1849.12
794.994	1836.12
795.602	1919.12
796.209	1851.12
796.817	1789.12
797.424	1803.12
798.032	1804.12
798.639	1809.12
799.247	1792.12
799.854	1812.12
800.462	1779.12
801.07	1803.12
801.677	1728.12
802.277	1796.12
802.885	1784.12
803.492	1758.12
804.1	1754.12
804.707	1729.12
805.315	1734.12
805.922	1692.12
806.53	1694.12
807.13	1682.12
807.737	1675.12
808.345	1663.12
808.952	1661.12
809.56	1670.12
810.16	1653.12
810.767	1648.12
811.375	1627.12
811.982	1658.12
812.59	1614.12
813.19	1569.12
813.797	1585.12
814.405	1566.12
815.005	1569.12
815.613	1527.12
816.22	1568.12
816.828	1545.12
817.428	1590.12
818.035	1532.12
818.643	1527.12
819.243	1517.12
819.85	1510.12
820.458	1501.12
821.058	1551.12
821.665	1486.12
822.273	1483.12
822.873	1477.12
823.48	1425.12
824.088	1397.12
824.688	1391.12
825.295	1447.12
825.895	1420.12
826.503	1435.12
827.11	1410.12
827.711	1393.12
828.318	1373.12
828.918	1411.12
829.526	1358.12
830.126	1391.12
830.733	1400.12
831.333	1378.12
831.941	1345.12
832.541	1326.12
833.148	1349.12
833.748	1346.12
834.356	1321.12
834.956	1341.12
835.563	1381.12
836.163	1361.12
836.771	1350.12
837.371	1308.12
837.971	1381
838.578	1293.37
839.178	1318.12
839.786	1321
840.386	1310.87
840.993	1289
841.594	1304.87
842.193	1329.5
842.801	1321.5
843.401	1309
844.009	1318.25
844.609	1318.12
845.209	1326.25
845.809	1334.87
846.416	1248.75
847.016	1278.87
847.616	1303.87
848.224	1330.12
848.824	1292.75
849.424	1318.37
850.031	1281.12
850.631	1284.12
851.231	1264.75
851.831	1325.25
852.439	1267.62
853.039	1239.25
853.639	1302.62
854.239	1323.5
854.839	1317.37
855.446	1311.12
856.047	1318.87
856.646	1346.5
857.247	1329.25
857.847	1329.87
858.454	1296.75
859.054	1298
859.654	1301.62
860.254	1284.87
860.854	1287.87
861.454	1299.12
862.054	1354.75
862.662	1343.62
863.254	1286.37
863.854	1362.62
864.462	1342.37
865.062	1367.37
865.662	1325
866.262	1372.37
866.862	1356.75
867.462	1352.25
868.062	1360.12
868.662	1385
869.262	1359.37
869.862	1408.25
870.462	1318.5
871.062	1382.62
871.662	1410.87
872.262	1370.25
872.862	1361.62
873.462	1355.37
874.062	1391.25
874.662	1384.75
875.262	1391.75
875.862	1399.37
876.462	1408.62
877.062	1412.37
877.662	1418.25
878.255	1504.62
878.855	1487.37
879.455	1407
880.055	1426.12
880.655	1465.75
881.255	1421.37
881.855	1435
882.455	1451.5
883.047	1469.12
883.647	1471.5
884.247	1464.87
884.847	1504.87
885.448	1458.75
886.048	1494.37
886.64	1529.5
887.24	1508.12
887.84	1501.25
888.44	1513.5
889.033	1519.62
889.633	1535.12
890.233	1554.25
890.825	1534.12
891.425	1554.62
892.025	1566.25
892.625	1583.12
893.218	1623.87
893.818	1578.37
894.418	1548.25
895.01	1549.37
895.61	1611
896.21	1609.75
896.803	1587.87
897.403	1648.37
898.003	1621.25
898.595	1630.87
899.195	1657.75
899.796	1621.62
900.388	1637.87
900.988	1687.37
901.581	1669.87
902.181	1661.5
902.781	1689.75
903.373	1681.25
903.973	1689.37
904.566	1666.5
905.166	1808.62
905.758	1836.25
906.358	1807.75
906.951	1715.75
907.551	1769.5
908.151	1731.37
908.743	1751.75
909.343	1786.12
909.936	1787.75
910.528	1795.62
911.128	1814.62
911.721	1786.87
912.321	1795.37
912.913	1810.75
913.513	1842.37
914.106	1825.37
914.706	1838.5
915.299	1878.87
915.891	1865.5
916.491	1859
917.084	1887.87
917.684	1974.37
918.276	1961.75
918.869	1911.62
919.469	1890.5
920.061	1907.62
920.654	1911.5
921.254	1953.75
921.846	1884
922.439	1936.87
923.039	1929.87
923.631	2045.87
924.224	1989.62
924.816	1981.12
925.416	1953.87
926.009	1989.75
926.609	2007
927.201	1986.12
927.794	1987.62
928.387	1991.12
928.979	2047.5
929.579	2086.87
930.172	2094
930.764	2103.12
931.357	2134.75
931.949	2164.62
932.549	2104.5
933.142	2151.5
933.734	2125.12
934.327	2067.62
934.919	2098.5
935.512	2111.87
936.104	2112.5
936.704	2080.75
937.297	2113.75
937.889	2120.12
938.482	2165.37
939.074	2153.87
939.667	2145.25
940.259	2196.37
940.859	2150
941.452	2118.62
942.044	2198.75
942.637	2183.87
943.23	2162.25
943.822	2177.87
944.415	2174.87
945.007	2204.37
945.6	2211.87
946.192	2228.5
946.785	2217.62
947.377	2204.25
947.97	2218.25
948.562	2244.25
949.155	2277.87
949.747	2346.12
950.34	2324.75
950.932	2365.12
951.525	2312.37
952.11	2295.75
952.702	2302.25
953.295	2302
953.887	2276.5
954.48	2300.87
955.072	2243.5
955.665	2302.37
956.258	2317
956.843	2352.75
957.435	2300.62
958.028	2289.25
958.62	2372.62
959.213	2400.87
959.805	2303.25
960.398	2355
960.983	2382.25
961.575	2361.62
962.168	2341.12
962.76	2437.87
963.353	2357
963.938	2384.5
964.53	2414.12
965.123	2383.75
965.715	2400.62
966.3	2381.62
966.893	2341.87
967.485	2346.87
968.078	2408.5
968.663	2408.5
969.255	2378.75
969.848	2426.12
970.433	2393.87
971.026	2411.12
971.618	2437.12
972.203	2402.75
972.796	2419.12
973.388	2381.37
973.973	2467.62
974.566	2439.37
975.158	2469.87
975.743	2478.75
976.336	2445.75
976.928	2449.75
977.513	2428
978.106	2433.25
978.691	2432.37
979.283	2407.87
979.868	2525.5
980.461	2549.12
981.046	2435.62
981.638	2454.5
982.231	2408.75
982.816	2439.37
983.401	2442
983.993	2470.12
984.586	2438.12
985.171	2483
985.764	2493.12
986.349	2493.5
986.934	2534.62
987.526	2469.87
988.111	2430.5
988.704	2453.75
989.289	2491.87
989.881	2471.62
990.466	2492.75
991.051	2432.37
991.644	2471.37
992.229	2454.87
992.821	2474.87
993.406	2464.25
993.991	2466.62
994.584	2503.75
995.169	2481.62
995.761	2482.62
996.346	2500.75
996.931	2470
997.516	2461.87
998.109	2465.62
998.694	2477.25
999.286	2490.12
999.872	2454.25
1000.46	2503.5
1001.04	2455
1001.63	2468.87
1002.22	2418.25
1002.8	2489.75
1003.39	2438.25
1003.98	2494.25
1004.57	2489
1005.15	2444.37
1005.74	2481.62
1006.33	2483.25
1006.91	2459.62
1007.5	2581.62
1008.08	2487.87
1008.67	2505.5
1009.26	2494.75
1009.85	2465.25
1010.43	2468
1011.02	2477
1011.6	2475.12
1012.19	2440.37
1012.78	2424.37
1013.36	2480.87
1013.95	2472.37
1014.53	2439.5
1015.12	2457.62
1015.7	2447.37
1016.29	2445.12
1016.87	2438.25
1017.46	2450.5
1018.04	2415.37
1018.63	2449.75
1019.21	2480.87
1019.8	2652.87
1020.38	2463.5
1020.97	2424.62
1021.56	2405.5
1022.14	2394.25
1022.72	2409.5
1023.32	2376.62
1023.89	2396.62
1024.48	2423.87
1025.06	2396.5
1025.65	2384.5
1026.23	2418.37
1026.82	2393.62
1027.41	2381.37
1027.99	2392.62
1028.58	2367.5
1029.16	2366.25
1029.75	2405.87
1030.33	2325.62
1030.92	2349.12
1031.5	2397.62
1032.08	2389.12
1032.66	2407.87
1033.25	2349.75
1033.83	2333.87
1034.42	2289.37
1035	2347
1035.58	2299.12
1036.17	2308.62
1036.75	2292
1037.34	2350.62
1037.92	2341
1038.5	2314.62
1039.08	2343.62
1039.67	2305.87
1040.25	2278.25
1040.84	2322.25
1041.42	2290.62
1042	2316.37
1042.59	2272.25
1043.17	2312.87
1043.75	2302.5
1044.33	2272.12
1044.92	2266.37
1045.5	2307.5
1046.08	2246.37
1046.67	2265.37
1047.24	2244.25
1047.83	2208.75
1048.41	2220.25
1048.99	2266.62
1049.58	2251.12
1050.16	2216.12
1050.74	2235
1051.32	2165.75
1051.91	2208.62
1052.49	2186.12
1053.07	2201.25
1053.65	2159.5
1054.23	2118.5
1054.82	2182
1055.4	2140.25
1055.98	2161.75
1056.56	2183.37
1057.14	2214.37
1057.72	2186.5
1058.31	2118.5
1058.88	2195
1059.47	2178.62
1060.05	2160.25
1060.63	2166
1061.21	2175.25
1061.79	2167
1062.37	2130.25
1062.96	2114.37
1063.53	2127.5
1064.12	2065.37
1064.7	2115.62
1065.28	2099.75
1065.86	2133.37
1066.44	2075.87
1067.02	2080.5
1067.6	2085.5
1068.18	2079.62
1068.76	2038.25
1069.34	2063.87
1069.92	2111.62
1070.5	2081.62
1071.08	1983.12
1071.66	2079.75
1072.24	2055.37
1072.82	2036
1073.4	2064.5
1073.98	2052.37
1074.56	1991.25
1075.14	2058.37
1075.72	2002.25
1076.3	2016.5
1076.88	2017.12
1077.46	1994.5
1078.04	2044.75
1078.62	2000.12
1079.2	1985.5
1079.78	2045.37
1080.36	1973.12
1080.93	2013.62
1081.52	1962.12
1082.1	2004
1082.67	1982.12
1083.25	1972.12
1083.53	2006.12
1084.11	1947.12
1084.7	1953.12
1085.28	1932.12
1085.87	1926.12
1086.45	1922.12
1087.04	1932.12
1087.63	1925.12
1088.22	1893.12
1088.8	1934.12
1089.39	1919.12
1089.97	1931.12
1090.56	1882.12
1091.14	1920.12
1091.73	1860.12
1092.31	1922.12
1092.9	1878.12
1093.48	1849.12
1094.07	1889.12
1094.65	1845.12
1095.24	1859.12
1095.81	1902.12
1096.41	1845.12
1096.98	1805.12
1097.57	1819.12
1098.16	1843.12
1098.74	1811.12
1099.33	1800.12
1099.91	1846.12
1100.5	1830.12
1101.08	1817.12
1101.67	1843.12
1102.25	1801.12
1102.83	1820.12
1103.41	1843.12
1104	1822.12
1104.58	1801.12
1105.17	1818.12
1105.75	1796.12
1106.33	1750.12
1106.92	1731.12
1107.5	1770.12
1108.09	1763.12
1108.67	1755.12
1109.26	1716.12
1109.83	1724.12
1110.42	1727.12
1111	1721.12
1111.59	1727.12
1112.17	1702.12
1112.75	1724.12
1113.34	1695.12
1113.91	1618.12
1114.5	1709.12
1115.08	1712.12
1115.67	1716.12
1116.25	1628.12
1116.83	1725.12
1117.42	1725.12
1117.99	1661.12
1118.58	1701.12
1119.16	1699.12
1119.74	1667.12
1120.33	1676.12
1120.91	1665.12
1121.49	1652.12
1122.07	1676.12
1122.65	1596.12
1123.24	1612.12
1123.82	1669.12
1124.4	1631.12
1124.98	1643.12
1125.56	1590.12
1126.15	1593.12
1126.72	1564.12
1127.31	1574.12
1127.89	1590.12
1128.47	1605.12
1129.06	1594.12
1129.63	1569.12
1130.22	1571.12
1130.8	1526.12
1131.38	1576.12
1131.96	1594.12
1132.54	1621.12
1133.12	1591.12
1133.71	1556.12
1134.28	1544.12
1134.87	1508.12
1135.45	1502.12
1136.02	1532.12
1136.61	1509.12
1137.19	1506.12
1137.77	1504.12
1138.35	1516.12
1138.93	1517.12
1139.51	1511.12
1140.09	1476.12
1140.67	1481.12
1141.25	1488.12
1141.83	1482.12
1142.41	1504.12
1142.99	1479.12
1143.57	1522.12
1144.15	1442.12
1144.73	1441.12
1145.31	1444.12
1145.89	1453.12
1146.47	1438.12
1147.05	1419.12
1147.63	1423.12
1148.21	1430.12
1148.79	1412.12
1149.37	1411.12
1149.95	1414.12
1150.53	1410.12
1151.11	1393.12
1151.68	1401.12
1152.27	1379.12
1152.85	1415.12
1153.42	1353.12
1154	1403.12
1154.58	1386.12
1155.16	1359.12
1155.74	1322.12
1156.32	1339.12
1156.9	1401.12
1157.47	1344.12
1158.05	1350.12
1158.64	1369.12
1159.21	1311.12
1159.79	1357.12
1160.37	1310.12
1160.95	1341.12
1161.52	1319.12
1162.1	1331.12
1162.68	1305.12
1163.26	1296.12
1163.83	1286.12
1164.41	1288.12
1165	1302.12
1165.57	1294.12
1166.15	1281.12
1166.73	1285.12
1167.31	1277.12
1167.88	1254.12
1168.46	1242.12
1169.04	1245.12
1169.62	1249.12
1170.2	1250.12
1170.77	1238.12
1171.35	1264.12
1171.93	1272.12
1172.51	1243.12
1173.08	1202.12
1173.66	1212.12
1174.23	1235.12
1174.81	1210.12
1175.39	1239.12
1175.96	1204.12
1176.54	1208.12
1177.12	1186.12
1177.7	1186.12
1178.27	1160.12
1178.85	1194.12
1179.43	1170.12
1180	1161.12
1180.58	1172.12
1181.15	1142.12
1181.73	1159.12
1182.31	1157.12
1182.89	1136.12
1183.46	1131.12
1184.03	1132.12
1184.61	1113.12
1185.19	1133.12
1185.77	1135.12
1186.34	1137.12
1186.91	1092.12
1187.49	1137.12
1188.07	1136.12
1188.65	1099.12
1189.22	1105.12
1189.79	1079.12
1190.37	1083.12
1190.94	1067.12
1191.52	1097.12
1192.1	1064.12
1192.67	1074.12
1193.24	1068.12
1193.82	1049.12
1194.4	1037.12
1194.97	1067.12
1195.55	1065.12
1196.12	1044.12
1196.69	1046.12
1197.27	1064.12
1197.85	1043.12
1198.42	1008.12
1199	1040.12
1199.57	1041.12
1200.14	1011.12
1200.72	974.12
1201.29	987.12
1201.87	985.12
1202.44	1044.12
1203.02	1030.12
1203.59	1007.12
1204.16	996.12
1204.74	987.12
1205.31	971.12
1205.89	998.12
1206.46	975.12
1207.04	950.12
1207.61	968.12
1208.18	965.12
1208.75	950.62
1209.33	957.745
1209.9	953.87
1210.48	948.12
1211.05	930.495
1211.63	964.12
1212.2	944.495
1212.77	956.12
1213.34	909.995
1213.91	915.87
1214.49	933.495
1215.06	906.495
1215.64	893.995
1216.21	881.995
1216.78	899.37
1217.36	923.12
1217.93	930.12
1218.5	911.495
1219.07	886.87
1219.64	914.37
1220.22	927.12
1220.79	917.745
1221.36	907.62
1221.93	898.495
1222.51	914.245
1223.08	879.87
1223.65	878.995
1224.23	882.12
1224.8	891.62
1225.37	882.495
1225.94	875.12
1226.51	872.37
1227.08	866.87
1227.65	869.12
1228.22	871.87
1228.8	876.995
1229.37	851.245
1229.94	867.12
1230.52	871.995
1231.09	856.12
1231.66	865.87
1232.23	858.62
1232.8	865.245
1233.37	853.745
1233.95	845.495
1234.52	840.37
1235.09	841.12
1235.66	845.12
1236.23	850.37
1236.8	848.62
1237.37	833.995
1237.94	850.87
1238.51	834.87
1239.08	848.245
1239.65	853.12
1240.22	846.495
1240.8	842.995
1241.36	835.87
1241.94	833.995
1242.51	829.37
1243.08	820.745
1243.65	818.995
1244.22	821.245
1244.79	839.12
1245.36	849.62
1245.93	820.87
1246.5	810.745
1247.07	816.87
1247.64	826.12
1248.21	821.62
1248.78	830.995
1249.35	807.62
1249.92	843.245
1250.49	839.62
1251.06	830.37
1251.63	824.37
1252.2	823.87
1252.77	817.245
1253.34	823.245
1253.9	820.495
1254.48	806.37
1255.04	831.37
1255.61	811.87
1256.18	802.37
1256.75	820.745
1257.32	833.495
1257.89	840.495
1258.45	818.245
1259.02	820.87
1259.59	824.745
1260.16	823.62
1260.73	818.495
1261.3	840.12
1261.87	809.745
1262.43	816.87
1263	824.62
1263.57	811.87
1264.14	808.245
1264.71	805.745
1265.28	810.745
1265.85	827.37
1266.42	812.37
1266.98	827.37
1267.55	813.995
1268.12	793.87
1268.68	814.62
1269.25	819.62
1269.82	793.495
1270.39	802.495
1270.95	815.495
1271.52	785.87
1272.09	808.37
1272.66	809.495
1273.23	833.245
1273.8	819.745
1274.36	807.745
1274.93	814.12
1275.49	801.495
1276.06	830.495
1276.63	806.62
1277.19	808.995
1277.76	797.87
1278.33	806.12
1278.9	821.62
1279.47	796.12
1280.03	819.62
1280.6	808.245
1281.16	807.245
1281.73	804.745
1282.29	806.995
1282.86	808.87
1283.43	797.87
1284	807.495
1284.57	802.62
1285.13	813.995
1285.69	781.995
1286.26	812.12
1286.82	813.495
1287.39	777.745
1287.96	803.995
1288.53	800.87
1289.09	820.995
1289.66	793.495
1290.22	802.62
1290.79	791.62
1291.35	826.12
1291.92	800.12
1292.49	807.495
1293.05	815.62
1293.61	804.495
1294.18	792.245
1294.74	815.62
1295.31	813.995
1295.88	810.495
1296.44	802.745
1297.01	799.995
1297.57	800.495
1298.13	807.12
1298.7	802.245
1299.27	793.995
1299.83	784.495
1300.4	819.62
1300.96	812.37
1301.52	794.495
1302.09	805.37
1302.66	801.495
1303.22	799.62
1303.78	805.245
1304.34	811.12
1304.91	801.87
1305.48	793.12
1306.04	796.245
1306.6	814.745
1307.17	814.745
1307.73	798.745
1308.3	798.12
1308.86	793.495
1309.42	800.37
1309.99	805.87
1310.55	798.12
1311.12	808.745
1311.68	796.245
1312.24	815.62
1312.81	792.245
1313.37	792.87
1313.94	811.12
1314.5	806.245
1315.06	798.995
1315.63	800.87
1316.19	798.12
1316.75	796.995
1317.31	792.37
1317.88	803.245
1318.44	812.87
1319	812.87
1319.56	806.37
1320.13	797.245
1320.69	807.745
1321.25	801.745
1321.81	816.245
1322.38	807.745
1322.94	800.245
1323.5	803.37
1324.07	794.37
1324.63	800.62
1325.19	792.12
1325.75	802.995
1326.31	808.62
1326.88	803.495
1327.44	812.245
1328	807.745
1328.56	802.495
1329.13	803.62
1329.69	796.245
1330.25	802.87
1330.81	822.87
1331.38	802.87
1331.94	813.12
1332.49	1105
1333.06	825.12
1333.62	801.245
1334.18	790.745
1334.74	798.745
1335.31	793.995
1335.87	809.12
1336.42	824.995
1336.99	819.37
1337.55	797.245
1338.11	804.245
1338.67	816.62
1339.23	793.87
1339.79	819.87
1340.35	799.37
1340.92	801.245
1341.48	813.495
1342.03	800.745
1342.6	798.495
1343.16	794.62
1343.71	793.745
1344.28	812.12
1344.84	809.995
1345.4	796.495
1345.96	807.245
1346.52	802.87
1347.08	803.495
1347.64	792.37
1348.2	807.87
1348.76	808.12
1349.32	805.12
1349.88	804.37
1350.44	819.37
1351	795.995
1351.56	805.745
1352.11	811.245
1352.68	805.37
1353.24	809.62
1353.79	817.12
1354.36	809.12
1354.91	828.87
1355.47	808.87
1356.04	801.37
1356.59	803.12
1357.15	807.995
1357.71	793.37
1358.27	813.37
1358.83	802.245
1359.39	816.995
1359.94	805.37
1360.51	795.245
1361.07	818.87
1361.62	808.995
1362.18	801.87
1362.74	822.37
1363.3	812.745
1363.86	792.87
1364.41	802.745
1364.98	800.995
1365.53	810.12
1366.09	818.995
1366.65	803.995
1367.21	805.87
1367.77	805.495
1368.32	804.745
1368.88	814.12
1369.44	812.245
1369.99	798.87
1370.56	815.745
1371.11	804.12
1371.67	816.37
1372.23	807.62
1372.79	797.37
1373.35	796.745
1373.9	810.245
1374.46	804.745
1375.02	802.62
1375.57	815.12
1376.13	813.87
1376.69	793.745
1377.25	796.745
1377.8	818.995
1378.36	801.995
1378.92	795.12
1379.47	814.62
1380.03	799.62
1380.59	797.745
1381.15	826.245
1381.7	808.62
1382.26	806.12
1382.82	803.37
1383.38	808.495
1383.93	823.495
1384.48	818.87
1385.04	807.995
1385.6	818.12
1386.16	825.87
1386.71	800.745
1387.27	833.745
1387.82	820.87
1388.38	809.745
1388.94	830.495
1389.5	808.62
1390.05	807.37
1390.61	792.37
1391.16	813.12
1391.72	814.495
1392.27	817.495
1392.83	813.495
1393.38	818.37
1393.94	812.245
1394.5	794.245
1395.05	815.495
1395.61	812.62
1396.16	814.62
1396.72	808.62
1397.27	815.995
1397.83	807.12
1398.38	808.37
1398.94	826.62
1399.49	835.37
1400.05	803.87
1400.6	805.37
1401.16	809.87
1401.71	820.62
1402.27	791.87
1402.82	807.995
1403.38	813.87
1403.93	813.995
1404.49	801.995
1405.04	791.745
1405.59	819.995
1406.15	816.12
1406.7	800.495
1407.26	827.62
1407.81	800.12
1408.37	815.37
1408.92	824.995
1409.48	815.37
1410.03	818.37
1410.58	823.495
1411.13	813.62
1411.69	833.745
1412.24	843.87
1412.8	813.245
1413.35	816.495
1413.9	786.245
1414.46	812.745
1415.01	825.245
1415.57	819.87
1416.12	800.995
1416.67	796.37
1417.22	823.745
1417.78	834.745
1418.33	819.245
1418.88	818.995
1419.44	806.995
1419.99	798.745
1420.55	828.87
1421.09	811.87
1421.65	815.495
1422.2	826.87
1422.75	798.37
1423.31	807.245
1423.86	825.245
1424.42	823.495
1424.96	808.995
1425.52	802.745
1426.07	821.12
1426.62	848.995
1427.18	817.495
1427.72	822.37
1428.28	806.37
1428.83	802.12
1429.38	807.245
1429.94	816.62
1430.48	813.37
1431.04	807.37
1431.2	806.37
1431.77	802.37
1432.32	809.37
1432.88	812.37
1433.44	823.37
1434	821.37
1434.56	816.37
1435.12	819.37
1435.67	814.37
1436.23	821.37
1436.79	813.37
1437.35	825.37
1437.91	822.37
1438.46	808.37
1439.02	822.37
1439.58	812.37
1440.14	788.37
1440.7	822.37
1441.25	833.37
1441.82	818.37
1442.37	830.37
1442.93	799.37
1443.49	815.37
1444.04	820.37
1444.6	812.37
1445.16	825.37
1445.72	837.37
1446.27	819.37
1446.83	842.37
1447.39	816.37
1447.94	822.37
1448.51	817.37
1449.06	834.37
1449.62	821.37
1450.17	813.37
1450.73	818.37
1451.29	848.37
1451.84	810.37
1452.4	825.37
1452.96	829.37
1453.52	829.37
1454.07	840.37
1454.63	837.37
1455.18	820.37
1455.74	817.37
1456.3	839.37
1456.86	819.37
1457.41	837.37
1457.97	824.37
1458.53	825.37
1459.08	805.37
1459.64	822.37
1460.19	835.37
1460.75	818.37
1461.3	834.37
1461.87	834.37
1462.42	847.37
1462.98	826.37
1463.53	820.37
1464.09	810.37
1464.64	844.37
1465.2	818.37
1465.75	809.37
1466.31	801.37
1466.86	824.37
1467.42	837.37
1467.98	846.37
1468.53	857.37
1469.08	816.37
1469.64	820.37
1470.2	832.37
1470.75	818.37
1471.31	838.37
1471.86	837.37
1472.41	849.37
1472.97	838.37
1473.53	833.37
1474.08	818.37
1474.63	833.37
1475.19	818.37
1475.74	819.37
1476.3	823.37
1476.85	846.37
1477.41	833.37
1477.96	825.37
1478.52	836.37
1479.07	799.37
1479.63	829.37
1480.18	834.37
1480.74	817.37
1481.28	848.37
1481.84	834.37
1482.39	826.37
1482.95	831.37
1483.5	826.37
1484.06	816.37
1484.61	829.37
1485.16	816.37
1485.72	834.37
1486.27	820.37
1486.83	831.37
1487.37	833.37
1487.93	828.37
1488.48	825.37
1489.04	805.37
1489.59	818.37
1490.14	840.37
1490.7	820.37
1491.25	857.37
1491.81	841.37
1492.35	1007.37
1492.91	835.37
1493.46	814.37
1494.02	813.37
1494.57	848.37
1495.12	839.37
1495.68	834.37
1496.22	837.37
1496.78	821.37
1497.33	846.37
1497.88	828.37
1498.44	808.37
1498.99	848.37
1499.54	827.37
1500.1	827.37
