17.6805	8446.13
18.3571	8178.13
19.0336	7636.13
19.7123	7749.13
20.3887	7872.13
21.0651	7798.13
21.7414	8132.13
22.4176	7972.13
23.0939	7989.13
23.77	7631.13
24.4462	7842.13
25.1222	7987.13
25.7983	7902.13
26.4742	7904.13
27.1502	8289.13
27.8261	8490.13
28.5019	8978.13
29.1777	9303.13
29.8534	9428.13
30.5291	9371.13
31.2048	8355.13
31.8804	8308.13
32.5559	8278.13
33.2314	8316.13
33.9069	8502.13
34.5823	8592.13
35.2577	8871.13
35.933	9126.13
36.6083	9586.13
37.2835	10046.1
37.9587	10402.1
38.6338	10214.1
39.3066	10061.1
39.9817	10123.1
40.6566	9884.13
41.3316	10037.1
42.0065	10134.1
42.6813	10309.1
43.3539	10652.1
44.0286	11340.1
44.7033	11370.1
45.378	11650.1
46.0526	11831.1
46.7249	11516.1
47.3994	11605.1
48.0739	11857.1
48.7483	12522.1
49.4204	13036.1
50.0947	13077.1
50.769	13136.1
51.4433	13161.1
52.1152	13154.1
52.7893	13343.1
53.4634	13525.1
54.1352	13631.1
54.8092	13356.1
55.4831	13439.1
56.1548	13518.1
56.8286	14046.1
57.5024	13885.1
58.1739	14128.1
58.8477	14459.1
59.5213	14940.1
60.1927	15645.1
60.8663	16050.1
61.5375	16120.1
62.211	15727.1
62.8845	15793.1
63.5556	15249.1
64.2289	15464.1
64.8999	15643.1
65.5732	16043.1
66.2441	16821.1
66.9173	16159.8
67.5881	16311.5
68.2612	16747.1
68.9319	16520.1
69.6049	16373.1
70.2755	16395.1
70.9484	16338.1
71.619	16628.1
72.2918	17039.1
72.9622	17100.1
73.6349	17093.1
74.3053	17052.1
74.9756	17035.1
75.6482	17437.1
76.3184	17754.1
76.9909	17317.5
77.661	17516.2
78.3311	17543.4
79.0034	17451.6
79.6734	17440.1
80.3433	17075.1
81.0155	17113.1
81.6854	17321.1
82.3552	16985.1
83.0272	17800.1
83.6969	18108.1
84.3666	18024.1
85.0385	18331.1
85.7081	18372.1
86.3776	17923.1
87.0471	17918.1
87.7188	17664.1
88.3882	17548.1
89.0575	17489.1
89.7268	17554.1
90.3961	17348.1
91.0676	17758.1
91.7367	18120.1
92.4059	18383.1
93.0749	18433.1
93.7439	17896.1
94.4152	17871.1
95.0841	18144.1
95.753	18094.1
96.4218	18128.1
97.0906	18129.1
97.7594	18258.1
98.4281	17828.1
99.0967	17873.1
99.7676	18304.1
100.436	18190.1
101.105	18106.4
101.773	18124.1
102.442	17929.1
103.11	17748.1
103.778	18080.1
104.447	18051.1
105.115	17970.7
105.783	17925.1
106.451	18264.1
107.119	18218.1
107.787	18185.1
108.455	18118.1
109.123	18038.1
109.791	17983.1
110.459	17674.1
111.127	17754.1
111.795	17417.1
112.462	17475.1
113.13	17506.1
113.795	17377.1
114.463	17584.1
115.13	17826.1
115.798	17976.1
116.465	18168.1
117.133	17594.4
117.8	17553.1
118.467	17758.1
119.132	17501.1
119.8	17404.1
120.467	17242.1
121.134	17366.1
121.801	17117.1
122.466	17149.1
123.133	17522.1
123.8	17286.1
124.467	17311.1
125.133	17230.1
125.798	17268.1
126.465	17076.1
127.131	16731.1
127.796	16971.1
128.462	17018.1
129.129	16913.1
129.796	16958.1
130.46	17032.1
131.126	17070.1
131.793	16807.1
132.457	17045.1
133.123	16989.1
133.789	16816.1
134.453	16601.1
135.119	16750.1
135.783	16763.1
136.449	16441.1
137.115	16678.1
137.779	16648.1
138.445	16508.1
139.108	16794.1
139.774	16937.1
140.438	16514.3
141.104	16742.1
141.769	16617.1
142.433	16360.1
143.098	16277.1
143.762	16142.1
144.427	16353.1
145.09	16366.1
145.756	16184.1
146.419	16008.1
147.084	16160.1
147.747	16139.1
148.41	16177.1
149.075	15963.1
149.738	16061.1
150.403	16249.1
151.066	15957.1
151.731	15972.1
152.394	15968.1
153.056	15880.1
153.721	15666.1
154.384	15805.1
155.046	15728.1
155.711	15719.1
156.374	15735.1
157.036	15576.1
157.701	15604.1
158.363	15378.1
159.025	15371.1
159.69	15457.1
160.352	15362.1
161.014	15353.1
161.676	15399.1
162.34	15437.1
163.002	15250.1
163.664	15399.1
164.326	15097.1
164.99	15277.1
165.652	15024.1
166.314	15103.1
166.975	14810.1
167.637	14926.1
168.301	15064.1
168.962	14906.1
169.624	15023.1
170.285	14686.1
170.947	14858.1
171.608	15066.1
172.272	14705.1
172.933	14670.1
173.594	14616.1
174.255	14686.1
174.917	14584.1
175.578	14551.1
176.239	14620.1
176.9	14525.1
177.561	14436.1
178.222	14547.1
178.882	14472.1
179.543	14272.1
180.204	14315.1
180.865	14344.1
181.526	14238.1
182.186	14196.1
182.847	14223.1
183.507	14203.1
184.168	14086.1
184.828	14264.1
185.489	14076.1
186.149	14159.1
186.809	13952.1
187.47	14018.1
188.13	14069.1
188.79	14107.1
189.45	13976.1
190.11	13988.1
190.768	13896.1
191.428	13632.1
192.088	13778.1
192.748	13720.1
193.408	13968.1
194.068	13777.1
194.728	14193.1
195.385	13723.5
196.045	13712.1
196.705	13452.1
197.364	13425.1
198.021	13662.1
198.681	13563.1
199.34	13542.1
200	13661.1
200.657	13311.1
201.316	13557.1
201.976	13453.1
202.635	13596.1
203.292	13347.1
203.951	13259.1
204.61	13481.1
205.267	13645.1
205.926	13250.1
206.585	13284.1
207.242	13224.1
207.9	13004.1
208.559	13223.1
209.216	13122.1
209.875	12879.1
210.533	13249.1
211.19	13185.1
211.848	13359.1
212.505	13254.1
213.163	12994.1
213.819	13011.1
214.478	12684.1
215.134	12788.1
215.792	12953.1
216.451	12762.1
217.107	12777.1
217.765	12678.1
218.421	12899.1
219.079	13017.1
219.735	12595.1
220.391	12804.1
221.049	12750.1
221.704	12712.1
222.362	12671.1
223.018	12552.1
223.675	12554.1
224.331	12567.1
224.989	12608.1
225.644	12694.1
226.3	12539.1
226.957	12525.1
227.612	12710.1
228.268	12364.1
228.925	12319.1
229.58	12494.1
230.235	12579.1
230.893	12388.1
231.548	12273.1
232.203	12469.1
232.86	12414.1
233.515	12458.1
234.17	12220.1
234.827	12209.1
235.481	12219.1
236.136	12352.1
236.791	12217.1
237.448	12273.1
238.102	12206.1
238.757	12116.1
239.411	12174.1
240.066	12092.1
240.722	12250.1
241.377	12304.1
242.031	12370.1
242.685	12111.1
243.339	11876.1
243.993	11968.1
244.648	12121.1
245.304	11976.1
245.958	12066.1
246.612	12046.1
247.266	11912.1
247.92	11878.1
248.574	11902.1
249.227	11821.1
249.881	11855.1
250.535	12040.1
251.189	11836.1
251.842	11756.1
252.496	11698.1
253.149	11844.1
253.803	11892.1
254.456	11873.1
255.11	12057.1
255.763	11666.1
256.416	11586.1
257.07	11637.1
257.723	11730.1
258.376	11688.1
259.029	11738.1
259.682	11573.1
260.335	11680.1
260.988	11645.1
261.641	11437.1
262.294	11701.1
262.947	11602.1
263.598	11679.1
264.251	11485.1
264.903	11806.1
265.556	11696.1
266.209	11349.1
266.861	11518.1
267.512	11345.1
268.164	11544.1
268.817	11377.1
269.469	11765.1
270.121	11645.1
270.772	11767.1
271.424	11514.1
272.076	11534.1
272.728	11443.1
273.378	11280.1
274.03	11258.1
274.682	11308.1
275.332	11830.1
275.984	11572.1
276.636	11320.1
277.288	11375.1
277.938	11251.1
278.59	11324.1
279.239	11422.1
279.891	11387.1
280.542	11226.1
281.192	11308.1
281.843	11183.1
282.495	11200.1
283.144	11139.1
283.796	11099.1
284.445	11116.1
285.096	11120.1
285.745	11213.1
286.397	11325.1
287.048	11236.1
287.697	11339.1
288.348	11190.1
288.997	11176.1
289.648	10875.1
290.297	11169.1
290.948	10975.1
291.596	10889.1
292.247	11333.1
292.896	11231.1
293.544	11347.1
294.195	10950.1
294.844	10956.1
295.494	11345.1
296.143	11304.1
296.793	11170.1
297.441	11226.1
298.09	10937.1
298.74	10682.1
299.388	10870.1
300.036	10763.1
300.687	10959.1
301.335	10949.1
301.983	11046.1
302.633	10784.1
303.281	10872.1
303.929	10926.1
304.579	11109.1
305.227	11038.1
305.874	10872.1
306.522	10886.1
307.172	10883.1
307.819	10880.1
308.467	10880.1
309.114	10915.1
309.764	10889.1
310.412	11060.1
311.059	10760.1
311.706	10787.1
312.354	10721.1
313.003	10677.1
313.65	10907.1
314.297	10839.1
314.944	10945.1
315.592	10697.1
316.239	10729.1
316.886	10604.1
317.535	10585.1
318.182	10727.1
318.828	10812.1
319.475	10800.1
320.122	10743.1
320.769	10682.1
321.415	10583.1
322.062	10794.1
322.709	10663.1
323.355	10812.1
324.002	10618.1
324.648	10689.1
325.294	10622.1
325.941	10773.1
326.587	10533.1
327.233	10600.1
327.88	10791.1
328.526	10671.1
329.172	10903.1
329.818	10579.1
330.464	10799.1
331.11	10868.1
331.754	10801.1
332.4	10616.1
333.046	10713.2
333.692	10780.2
334.337	10814
334.983	10799.6
335.629	10533.1
336.275	10448.1
336.918	10737.1
337.564	10746.1
338.209	10721.8
338.855	10743.1
339.5	10673.1
340.143	10624.1
340.789	10632.1
341.434	10639.1
342.079	10634.1
342.722	10854.1
343.367	10854.1
344.012	10738.1
344.658	10845.1
345.3	10345.1
345.945	10577.1
346.59	10632.1
347.233	10609.1
347.878	10685.1
348.523	10697.1
349.165	10597.1
349.81	10513.1
350.455	10739.1
351.097	10532.1
351.742	10806.1
352.384	10704.1
353.029	10703.1
353.673	10642.1
354.315	10595.1
354.96	10643.1
355.602	11043.1
356.246	10706.1
356.888	10742.1
357.533	10654.1
358.175	10545.1
358.819	10457.1
359.461	10948.1
360.105	10820.1
360.746	10785.1
361.39	10950.1
362.032	10872.1
362.676	11085.1
363.318	10725.1
363.961	10753.1
364.603	10678.1
365.247	10714.1
365.888	10598.1
366.529	10857.1
367.173	10524.1
367.814	10620.1
368.456	10554.1
369.099	10761.1
369.74	10710.1
370.381	10818.1
371.025	10823.1
371.666	10641.1
372.307	10750.1
372.95	10855.1
373.591	10854.1
374.232	10609.1
374.875	10770.1
375.516	10666.1
376.156	10712.1
376.797	10618.1
377.44	10660.1
378.081	10717.1
378.721	10705.1
379.362	10795.1
380.002	10664.1
380.645	10764.1
381.285	10748.1
381.926	10660.1
382.566	10464.1
383.206	10637.1
383.847	10705.1
384.489	10928.1
385.129	10911.1
385.769	10851.1
386.409	10984.1
387.049	10864.1
387.689	10807.1
388.329	10767.1
388.969	10816.1
389.609	11040.1
390.249	10773.1
390.889	10757.1
391.528	11233.1
392.168	10925.2
392.81	10998
393.449	11016.1
394.089	10882.1
394.726	10721.1
395.366	10919.1
396.005	11128.1
396.645	10771.1
397.284	11268.1
397.923	11259.1
398.562	10880.1
399.202	10888.1
399.841	10880.1
400.48	11117.6
401.119	11100.9
401.758	10935.1
402.397	10930.1
403.034	11018.1
403.673	11189.1
404.311	11233.1
404.95	11535.1
405.589	11019.1
406.228	11313.1
406.864	10937.1
407.503	11018.1
408.142	11313.1
408.78	10918.1
409.419	11172.1
410.055	11174.1
410.693	11136.1
411.332	11052.1
411.968	11345.1
412.606	11245.1
413.244	11314.1
413.883	11376.1
414.519	11181.1
415.157	11298.1
415.795	11377.1
416.431	11255.1
417.069	11419.1
417.707	11351.1
418.342	11311.1
418.98	11331.1
419.616	11476.1
420.254	11562.1
420.891	11565.1
421.527	11687.1
422.165	11495.1
422.8	11414.1
423.438	11398.1
424.075	11545.1
424.71	11486.1
425.348	11547.1
425.983	11635.1
426.62	11554.1
427.256	11586.1
427.893	11730.1
428.528	11697.1
429.165	11713.1
429.8	11648.1
430.435	11960.1
431.072	12111.1
431.707	11797.1
432.344	11723.1
432.979	11740.1
433.615	11880.1
434.25	11886.1
434.885	12057.1
435.521	12009.1
436.156	12140.1
436.79	11924.1
437.427	12475.1
438.061	11872.1
438.696	12178.1
439.332	11937.1
439.967	11866.1
440.601	11913.1
441.237	12195.1
441.871	12197.1
442.505	12054.1
443.142	12012.1
443.776	12174.1
444.41	12150.1
445.044	12147.1
445.678	12370.1
446.314	12288.1
446.947	12163.1
447.581	12201.1
448.215	12312.1
448.849	12358.1
449.484	12344.1
450.118	12271.1
450.752	12393.1
451.385	12445.1
452.018	12235.1
452.652	12268.1
453.285	12443.1
453.921	12698.1
454.554	12762.1
455.187	12785.1
455.821	12846.1
456.454	12373.1
457.087	12344.1
457.72	12552.1
458.353	12531.1
458.986	12683.1
459.619	12608.1
460.252	12477.4
460.885	12532.9
461.518	12627.7
462.15	12537.2
462.783	12685.8
463.416	12562.7
464.048	12694.4
464.681	12801.3
465.314	12785.8
465.946	12764.4
466.579	12818.7
467.209	12951.2
467.841	12863.2
468.474	12806.6
469.106	12816.7
469.738	12967.3
470.371	12917.6
471.003	12954.4
471.633	12957.9
472.265	13148.6
472.897	13057.9
473.529	13134.1
474.161	13147
474.791	13056.5
475.423	13148.4
476.054	13464.3
476.686	13394.7
477.318	13198.5
477.948	13272.5
478.579	13389.6
479.211	13439.3
479.84	13377.1
480.472	13599.8
481.103	13572.9
481.733	13762.5
482.364	13667.8
482.996	13541.9
483.625	13877.3
484.256	13940.1
484.887	13771.4
485.516	14023.1
486.148	14366.5
486.779	14216
487.408	14114.4
488.039	14184.4
488.668	14364.7
489.298	14737
489.927	14489.7
490.558	14494.6
491.187	14532.6
491.818	14745.6
492.446	14721.3
493.077	14890.7
493.705	14871.2
494.336	14974
494.964	15074
495.595	15139.2
496.223	15224.4
496.854	15513.1
497.482	15417.2
498.112	15639
498.741	15873.2
499.371	15619.9
499.999	15832.4
500.627	15943.1
501.257	15939.5
501.885	16360.1
502.513	16339
503.143	16240.1
503.771	16294.3
504.399	16442.2
505.029	16512.9
505.656	16722.5
506.284	16742.2
506.914	16878
507.541	16896.6
508.169	17043
508.796	17072
509.426	17121.9
510.054	17460.5
510.681	17401.2
511.308	17506.5
511.938	17407.2
512.565	17561.4
513.192	17620.8
513.819	18047
514.446	18038.2
515.076	18004.8
515.703	18197.3
516.33	18575.4
516.957	18506.4
517.584	18376
518.21	18651.6
518.837	18748.8
519.464	18786.1
520.093	18838.1
520.72	18856
521.346	19025.1
521.973	19257.6
522.6	19243.7
523.226	19322.9
523.853	19480.3
524.479	19822
525.105	19706.7
525.732	19791.7
526.358	19712.7
526.984	20022.4
527.611	20027.3
528.237	20029.7
528.863	20066.1
529.489	20207.6
530.115	20413.4
530.741	20652.1
531.365	20591.5
531.991	20762.3
532.617	20735.8
533.243	20767.2
533.869	21410
534.495	21097.3
535.12	21154.1
535.746	21125.6
536.369	21230.1
536.995	21319.7
537.621	21524
538.246	21799.3
538.872	22074
539.495	21437.8
540.12	21718
540.746	21898.5
541.371	22018.5
541.994	21754.3
542.62	21890.6
543.245	21964.4
543.87	21961.6
544.493	22190.4
545.118	22121.5
545.743	21847
546.366	22166.4
546.991	21887.1
547.616	22095.6
548.238	21953.2
548.863	22044.9
549.488	22120.8
550.111	21714.2
550.735	22088
551.36	22052.5
551.982	22323
552.607	22119.7
553.229	21739.2
553.854	21760.5
554.476	21694.4
555.101	21815.4
555.723	21717.7
556.347	21699.5
556.969	21503.4
557.594	22152.4
558.216	21566.8
558.84	21443.9
559.462	21155.6
560.086	21356.2
560.708	21313.6
561.332	21298.3
561.954	21000.6
562.578	20960
563.199	20911.1
563.821	20930.1
564.445	20638.5
565.066	20679
565.69	20680.9
566.312	20420.8
566.933	20469.1
567.557	20040.5
568.178	20121.9
568.799	20102.7
569.423	20136.6
570.044	19825.7
570.665	19739.3
571.289	19439.7
571.91	19499.7
572.531	19395.2
573.152	19122.6
573.775	19075.7
574.396	18908.4
575.017	18852.1
575.638	18588.4
576.261	18434.1
576.882	18415.1
577.503	18291.3
578.123	18157.9
578.744	18241.6
579.365	18089.4
579.987	17872.5
580.608	17748.1
581.229	17720.3
581.849	17419.6
582.47	17363.2
583.09	17243.5
583.71	16899.6
584.331	16776.4
584.951	16749.4
585.571	16726.9
586.194	16580.9
586.814	16545.6
587.434	16712.5
588.054	16192.9
588.674	16253.6
589.294	15940
589.914	15933.7
590.534	15737.7
591.154	15625.1
591.774	15491.3
592.391	15367.7
593.011	15182.3
593.631	14975.2
594.25	15006.3
594.87	14926.2
595.49	14791.9
596.109	14835.5
596.729	14692.2
597.348	14502.7
597.967	14599.7
598.585	14516.8
599.204	14231.8
599.823	14105.2
600.443	13914.8
601.062	13751
601.681	13850.9
602.298	13661.3
602.917	13699.2
603.536	13647
604.155	13519.8
604.772	13236.1
605.391	13227
606.01	13123.6
606.629	13009.8
607.245	13027
607.864	12871
608.483	12819.3
609.099	12802.7
609.718	12744.8
610.337	12694.5
610.953	12656.4
611.572	12474.1
612.19	12438.9
612.806	12298.2
613.425	12296.6
614.043	12076.2
614.659	12161.2
615.278	11995.6
615.894	11905.6
616.512	11895
617.128	12002.2
617.746	11772.1
618.364	11486.5
618.98	11651.6
619.598	11575.2
620.214	11741
620.832	11638.3
621.448	11478.2
622.065	11493
622.681	11427
623.297	11163.9
623.914	11422.5
624.53	11356.2
625.148	10929.4
625.763	10876
626.381	10879.4
626.996	10757.7
627.611	10855.6
628.229	10812.9
628.844	10840.4
629.459	10845.9
630.076	10508.2
630.692	10458.5
631.307	10379
631.924	10345.6
632.539	10438
633.154	10377.8
633.771	10375.6
634.386	10077.4
635.001	10060.7
635.615	10102.8
636.232	10059.9
636.847	10140.3
637.462	9999.93
638.076	9882.25
638.693	9795.01
639.308	9637.02
639.922	9714.5
640.537	9838.2
641.151	9765.77
641.768	9636.1
642.382	9347.19
642.996	9404.92
643.611	9447.19
644.225	9588.41
644.839	9257.51
645.453	9248.76
646.067	9065.27
646.681	9080.45
647.295	9016.56
647.912	9045.96
648.526	8888.3
649.139	9010.12
649.753	8764.79
650.367	8814.13
650.981	8754.92
651.595	8620.1
652.208	8691.84
652.822	8697.87
653.362	8537.87
653.983	8541.87
654.605	8543.87
655.225	8305.87
655.847	8341.87
656.467	8430.87
657.089	8275.87
657.708	8279.87
658.33	8402.87
658.952	8283.87
659.572	8122.87
660.194	8112.87
660.813	8217.87
661.435	8128.87
662.055	7933.87
662.674	7927.87
663.296	7873.87
663.915	7784.87
664.537	7770.87
665.156	7744.87
665.777	7717.87
666.397	7566.87
667.016	7731.87
667.637	7760.87
668.256	7501.87
668.877	7613.87
669.496	7643.87
670.115	7519.87
670.737	7366.87
671.355	7437.87
671.974	7273.87
672.595	7271.87
673.214	7245.87
673.833	7078.87
674.452	7162.87
675.072	7140.87
675.691	7039.87
676.31	7030.87
676.93	6947.87
677.549	6978.87
678.167	6912.87
678.786	6847.87
679.404	6795.87
680.025	6878.87
680.643	7018.87
681.261	7032.87
681.879	6874.87
682.497	6669.87
683.118	6648.87
683.736	6734.87
684.354	6577.87
684.972	6519.87
685.59	6661.87
686.208	6564.87
686.826	6469.87
687.444	6488.87
688.061	6394.87
688.681	6381.87
689.299	6386.87
689.917	6473.87
690.534	6359.87
691.152	6230.87
691.769	6332.87
692.387	6589.87
693.005	6533.87
693.622	6581.87
694.239	6641.87
694.857	6428.87
695.474	6275.87
696.091	6194.87
696.709	6078.87
697.326	6144.87
697.943	6337.87
698.558	6226.87
699.175	6343.87
699.792	6201.87
700.409	6027.87
701.026	6044.87
701.643	6057.87
702.26	6263.87
702.877	6166.87
703.493	5987.87
704.108	5933.87
704.725	5938.87
705.341	5710.87
705.958	5942.87
706.575	5827.87
707.189	5886.87
707.805	5938.87
708.422	5851.87
709.038	5952.87
709.653	5791.87
710.269	5785.87
710.885	5764.87
711.502	5917.87
712.116	5892.87
712.732	5795.87
713.348	5632.87
713.964	5891.87
714.578	5974.87
715.194	6073.87
715.81	6244.87
716.424	5767.87
717.04	5674.87
717.653	5726.87
718.269	5697.87
718.885	5731.87
719.499	5745.87
720.114	5658.87
720.73	5713.87
721.343	5663.87
721.959	5753.87
722.572	5890.87
723.188	5695.87
723.801	5636.87
724.417	5628.87
725.03	5626.87
725.645	5791.87
726.258	5699.87
726.874	5640.87
727.487	5682.87
728.102	5539.87
728.715	5687.87
729.33	5720.87
729.943	5782.87
730.558	5650.87
731.171	5680.87
731.786	5897.87
732.398	5800.87
733.011	5833.87
733.626	5741.87
734.239	5840.87
734.853	5779.87
735.466	5738.87
736.078	5903.87
736.693	5850.87
737.305	5766.87
737.918	5760.87
738.532	5794.87
739.145	5775.87
739.757	5801.87
740.369	5842.87
740.983	5930.87
741.596	5941.87
742.208	5929.87
742.822	5925.87
743.434	6018.87
744.046	5866.87
744.658	5886.87
745.27	5964.87
745.884	6046.87
746.496	6047.87
747.107	6107.87
747.719	6202.87
748.331	6075.87
748.945	6118.87
749.556	6172.87
750.168	6171.87
750.779	6033.87
751.391	6150.87
752.002	6167.87
752.614	6300.87
753.225	6215.87
753.837	6363.87
754.45	6229.87
755.061	6217.87
755.672	6276.87
756.284	6468.87
756.895	6414.87
757.506	6315.87
758.117	6423.87
758.728	6342.87
759.339	6497.87
759.95	6466.87
760.561	6370.87
761.172	6569.87
761.783	6430.87
762.393	6407.87
763.004	6308.87
763.613	6594.87
764.223	6547.87
764.834	6483.87
765.445	6449.87
766.055	6432.87
766.666	6408.87
767.276	6527.87
767.887	6508.87
768.497	6455.87
769.105	6500.87
769.716	6631.87
770.326	6507.87
770.936	6531.87
771.546	6458.87
772.156	6595.87
772.764	6585.87
773.374	6773.87
773.984	6528.87
774.594	6505.87
775.202	6371.87
775.812	6532.87
776.422	6627.87
777.032	6437.87
777.64	6493.87
778.249	6562.87
778.859	6390.87
779.467	6549.87
780.076	6551.87
780.686	6348.87
781.293	6320.87
781.903	6392.87
782.512	6446.87
783.12	6597.87
783.729	6599.87
784.338	6283.87
784.945	6312.87
785.555	6412.87
786.162	6466.87
786.771	6411.87
787.378	6307.87
787.987	6175.87
788.596	6257.87
789.203	6331.87
789.812	6168.87
790.419	6825.87
791.028	6277.87
791.635	6240.87
792.244	6331.87
792.85	6130.87
793.459	6095.87
794.066	5992.87
794.672	6081.87
795.281	6095.87
795.887	6166.87
796.496	6336.87
797.102	6126.87
797.711	5914.87
798.317	5807.87
798.923	5922.87
799.532	5887.87
800.138	5903.87
800.744	5883.87
801.352	5836.87
801.958	5878.87
802.564	5763.87
803.173	5562.87
803.779	5723.87
804.385	5667.87
804.992	5628.87
805.598	5623.87
806.204	5687.87
806.81	5842.87
807.418	5658.87
808.023	5629.87
808.629	5630.87
809.235	5526.87
809.842	5415.87
810.448	5520.87
811.053	5383.87
811.659	5176.87
812.264	5279.87
812.87	5281.87
813.477	5380.87
814.082	5247.87
814.688	5276.87
815.293	5094.87
815.898	5203.87
816.503	5082.87
817.108	5086.87
817.713	5020.87
818.318	5385.87
818.923	5040.87
819.53	4832.87
820.135	5001.87
820.74	4970.87
821.345	4916.87
821.95	4853.87
822.555	4972.87
823.159	4899.87
823.764	4833.87
824.369	4679.87
824.973	4758.87
825.578	4644.87
826.182	4758.87
826.785	4709.87
827.389	4572.87
827.993	4555.87
828.598	4585.87
829.202	4617.87
829.806	4570.87
830.411	4530.87
831.015	4518.87
831.619	4669.87
832.223	4571.87
832.825	4438.87
833.429	4392.87
834.033	4367.87
834.637	4369.87
835.241	4306.87
835.843	4403.87
836.447	4802.87
837.05	4378.46
837.654	4192.13
838.258	4177.64
838.859	4388.52
839.463	4282.27
840.067	4119.35
840.668	4135.27
841.272	4035.15
841.875	4108.61
842.479	4066.58
843.08	4098.29
843.683	4056.9
844.287	4076.5
844.888	4033.57
845.491	3977.86
846.092	4006.14
846.695	4087.75
847.299	4075.49
847.9	3971.71
848.503	3900.51
849.106	3938.76
849.706	3977.38
850.309	3912.55
850.91	3773.32
851.513	3822.96
852.114	4138.93
852.717	4157.45
853.317	3886.34
853.92	3843.21
854.521	3756.86
855.123	3815.91
855.724	3916.51
856.326	3727.79
856.927	3754.57
857.529	3598.54
858.129	3685.76
858.732	3643.1
859.332	3646.58
859.932	3544.6
860.535	3575.69
861.135	3624.66
861.737	3609.78
862.337	3597.8
862.937	3707.35
863.539	3614.68
864.139	3542.24
864.739	3545.61
865.341	3496.88
865.941	3444.3
866.541	3547.73
867.142	3435.26
867.742	3431.52
868.342	3495.36
868.941	3463.06
869.543	3408.41
870.143	3430.38
870.742	3391.53
871.342	3349.76
871.943	3338.55
872.543	3375.2
873.142	3425.51
873.741	3450.81
874.341	3421.79
874.94	3519.55
875.541	3405.45
876.14	3416.88
876.739	3271.76
877.338	3379.15
877.938	3804.11
878.536	3329.22
879.135	3273.78
879.734	3250.8
880.335	3195.72
880.934	3244.71
881.533	3209.11
882.132	3197.45
882.731	3218.44
883.329	3174.67
883.928	3172.38
884.527	3315.1
885.125	3292.46
885.724	3098.41
886.322	3156.87
886.921	3413.47
887.519	3201.73
888.118	3084.7
888.716	3140.92
889.314	3089.7
889.913	3022.08
890.509	3066.21
891.107	3005.27
891.705	3187.96
892.303	3153.26
892.901	3159.63
893.499	3084.41
894.097	3126.44
894.695	3119.02
895.291	3154.93
895.889	2993.27
896.487	2993.06
897.085	2906.46
897.682	2988.12
898.278	2830.8
898.876	2951.53
899.473	2951.83
900.071	2904.34
900.669	2898.6
901.264	2831.54
901.862	2873.79
902.459	2883.72
903.054	2837.38
903.652	2772.94
904.249	2824.71
904.844	2832.78
905.442	2852.36
906.039	2959.28
906.634	2786.02
907.231	2792.49
907.828	2723.57
908.423	2744
909.02	2796.25
909.617	2705.16
910.212	2682.72
910.809	2708.56
911.404	2659.38
912.001	2675.23
912.595	2671.28
913.192	2631.77
913.789	2602.26
914.384	2605.66
914.98	2630.16
915.575	2564.6
916.171	2588.32
916.766	2566.55
917.362	2565.93
917.957	2608.29
918.551	2640.27
919.147	2603.53
919.742	2660.07
920.338	2518.28
920.932	2578.69
921.528	2527.58
922.123	2429.87
922.717	2451.36
923.313	2482.22
923.907	2503.72
924.501	2491.08
925.097	2494.74
925.691	2470.43
926.284	2711.34
926.88	2406.46
927.474	2412.33
928.068	2693.9
928.664	2484.2
929.257	2574.34
929.851	2303.48
930.444	2298.68
931.04	2284.6
931.634	2690.23
932.227	2337.55
932.82	2304.59
933.416	2341.43
934.009	2318.08
934.603	2313.14
935.196	2260.72
935.789	2197.93
936.384	2202.74
936.978	2208.94
937.571	2184.78
938.164	2121.78
938.757	2143.71
939.35	2081.11
939.943	2104.37
940.536	2170.18
941.129	2229.86
941.724	2299.79
942.316	2101.74
942.909	2080.63
943.502	2042.94
944.095	2036.7
944.687	2053.39
945.28	2007.35
945.872	1991.92
946.465	1996.47
947.057	1975.49
947.65	1956.95
948.242	1998.09
948.835	2231.64
949.427	2035.61
950.019	1913.23
950.61	2448.02
951.202	2079.08
951.794	1916.52
952.386	1900.56
952.978	1890.78
953.57	1854.39
954.163	1865.2
954.755	1904.98
955.344	1841.7
955.936	1805.76
956.528	1823.81
957.12	1795.82
957.712	1836.92
958.304	1835.51
958.893	1808.76
959.485	1734.38
960.077	1734.59
960.669	1729.41
961.258	1715.87
961.85	1734.33
962.441	2016.64
963.033	1737.67
963.622	1854.11
964.213	1649.74
964.805	1657.23
965.394	1679.97
965.985	1668.37
966.577	1632.95
967.166	1636.57
967.757	1663.23
968.348	1666.36
968.937	1636.46
969.528	1670.32
970.117	1616.86
970.708	1621.93
971.299	1596.98
971.888	1695.38
972.479	1580.4
973.068	1804.15
973.658	1524.93
974.247	1513.15
974.838	1898.88
975.426	1556.09
976.017	1882.71
976.606	1486.31
977.196	1456.35
977.785	1474.33
978.375	1470.94
978.964	1866.59
979.554	1453.08
980.142	1463.93
980.73	1480.26
981.321	1444.91
981.909	1394.58
982.499	1418.43
983.087	1403.07
983.675	1385.69
984.266	1410.41
984.854	1414.94
985.442	1432.67
986.032	1402.34
986.62	1383.18
987.207	1377.41
987.797	1359.59
988.385	1341.16
988.973	1360.45
989.56	1400.71
990.15	1405.58
990.738	1363.32
991.326	1332.95
991.913	1346.08
992.503	1370.24
993.09	1346.45
993.678	1360.65
994.265	1319.41
994.852	1335.41
995.442	1284.58
996.029	1298.77
996.616	1332.27
997.204	1255.66
997.791	1902.76
998.378	1283.04
998.965	1285.23
999.552	1288.14
1000.14	1254.18
1000.73	1302.75
1001.32	1245.57
1001.9	1293.32
1002.49	1277.09
1003.08	1257.98
1003.66	1279.22
1004.25	1242.73
1004.84	1279.89
1005.42	1286.35
1006.01	1270.2
1006.6	1268.84
1007.18	1234.44
1007.77	1273.6
1008.36	1237.02
1008.94	1234.76
1009.53	1307.79
1010.12	1254.73
1010.7	1214.65
1011.29	1239.17
1011.87	1206.74
1012.46	1192.79
1013.04	1254
1013.63	1232.22
1014.22	1235.9
1014.8	1207.82
1015.39	1204.16
1015.97	1217.29
1016.56	1193.86
1017.14	1241.66
1017.73	1424.53
1018.31	1176.67
1018.9	1217.77
1019.49	1186.52
1020.07	1184.69
1020.66	1203.1
1021.24	1184.05
1021.83	1162.36
1022.41	1161.12
1023	1162.12
1023.58	1156.9
1024.17	1215.12
1024.75	1184.57
1025.34	1160.89
1025.92	1179.61
1026.5	1187
1027.09	1186.57
1027.67	1192.08
1028.26	1497.53
1028.84	1173.23
1029.43	1159.66
1030.01	1155.08
1030.6	1160.52
1031.18	1166.48
1031.76	1190.88
1032.35	1428.63
1032.93	1280.19
1033.52	1147.67
1034.1	1134.99
1034.68	1140.83
1035.27	1133.25
1035.85	1141.18
1036.43	1165.78
1037.02	1161.02
1037.6	1124.08
1038.19	1149
1038.77	1166.94
1039.35	1133.57
1039.94	1145.71
1040.52	1140.19
1041.1	1105.41
1041.68	1129.33
1042.27	1153.05
1042.85	1135.34
1043.43	1120.73
1044.02	1138.03
1044.6	1116.86
1045.18	1093.92
1045.77	1124.48
1046.35	1069.43
1046.93	1108.05
1047.51	1136.04
1048.1	1096.68
1048.68	1124.17
1049.26	1188.54
1049.84	1162.66
1050.43	1133.09
1051.01	1128.11
1051.59	1089.37
1052.17	1127.91
1052.75	1093.39
1053.34	1126.06
1053.92	1070.96
1054.5	1100.67
1055.08	1135.95
1055.66	1145.26
1056.24	1081.24
1056.82	1090.72
1057.41	1095.91
1057.99	1085.17
1058.57	1093.9
1059.15	1099.87
1059.73	1112.58
1060.31	1110.27
1060.9	1105.25
1061.48	1158.46
1062.06	1114.53
1062.64	1074.53
1063.22	1097.77
1063.8	1087.9
1064.38	1092.28
1064.96	1119.4
1065.54	1108.27
1066.12	1088.89
1066.7	1063.32
1067.28	1087.81
1067.87	1079.37
1068.44	1120.14
1069.02	1256.38
1069.61	1089.74
1070.19	1070.01
1070.77	1074.52
1071.35	1080.74
1071.93	1059.18
1072.51	1066.69
1073.09	1084.93
1073.67	1083.17
1074.25	1099.69
1074.83	1091.46
1075.41	1046.27
1075.98	1081.77
1076.57	1064.45
1077.15	1056.79
1077.73	1098.96
1078.3	1088.89
1078.88	1048.67
1079.46	1084.49
1080.04	1146.71
1080.62	1162.33
1081.2	1117.57
1081.78	1086.88
1082.36	1102.83
1082.63	1139.83
1083.22	1128.98
1083.8	1068.83
1084.39	1069.83
1084.97	1035.83
1085.56	1062.83
1086.14	1091.83
1086.73	1082.83
1087.32	1062.83
1087.9	1079.83
1088.49	1067.83
1089.07	1052.83
1089.66	1082.83
1090.24	1035.83
1090.83	1046.83
1091.41	1047.83
1092	1059.83
1092.58	1053.83
1093.17	1128.83
1093.75	1146.57
1094.34	1151.32
1094.92	1137.07
1095.51	1073.83
1096.09	1095.83
1096.68	1247.83
1097.26	1172.45
1097.85	1044.83
1098.43	1014.83
1099.01	1033.83
1099.6	1047.83
1100.18	1047.83
1100.77	1037.83
1101.35	1034.83
1101.94	1008.83
1102.52	1027.83
1103.1	1067.83
1103.69	1037.83
1104.27	1019.83
1104.85	978.829
1105.44	994.829
1106.02	1039.83
1106.61	1035.83
1107.19	1058.83
1107.77	1056.83
1108.36	1056.83
1108.94	1061.83
1109.52	1030.83
1110.11	1070.83
1110.69	1059.83
1111.27	1037.83
1111.86	1022.83
1112.44	999.829
1113.02	1024.83
1113.6	1026.83
1114.19	1027.83
1114.77	1025.83
1115.35	1052.33
1115.94	1029.83
1116.52	1036.83
1117.1	1223.83
1117.68	1249.83
1118.27	1020.83
1118.85	1047.83
1119.43	996.829
1120.01	1017.83
1120.6	1013.83
1121.18	1012.83
1121.76	1015.83
1122.34	1040.83
1122.92	1068.83
1123.51	1083.83
1124.09	1109.83
1124.67	1067.83
1125.25	1034.83
1125.83	985.829
1126.42	998.829
1127	1004.83
1127.58	1047.83
1128.16	1003.83
1128.74	982.829
1129.32	1003.83
1129.9	1009.83
1130.49	1005.83
1131.07	997.829
1131.65	1016.8
1132.23	1131.83
1132.81	985.829
1133.39	1016.83
1133.97	1004.83
1134.55	1023.83
1135.13	965.829
1135.72	1018.83
1136.3	1019.83
1136.88	1007.83
1137.46	998.829
1138.04	978.829
1138.62	978.829
1139.2	973.829
1139.78	980.829
1140.36	1001.83
1140.94	1001.83
1141.52	1003.83
1142.1	959.829
1142.68	1006.83
1143.26	1005.83
1143.84	1000.83
1144.42	982.829
1145	988.829
1145.58	1000.83
1146.16	1021.22
1146.74	1036.2
1147.32	1020.43
1147.9	1315.83
1148.48	1023.83
1149.06	1023.83
1149.64	980.829
1150.22	978.829
1150.8	980.829
1151.38	951.829
1151.96	977.829
1152.54	1003.83
1153.11	981.829
1153.69	1014.83
1154.27	1002.83
1154.85	989.829
1155.43	992.829
1156.01	1019.83
1156.59	1008.83
1157.17	992.829
1157.74	1008.83
1158.32	986.829
1158.9	993.829
1159.48	980.829
1160.06	991.829
1160.64	1381.83
1161.22	1228.83
1161.79	1083.83
1162.37	997.829
1162.95	1004.83
1163.53	1022.83
1164.11	980.829
1164.68	936.829
1165.26	984.829
1165.84	958.829
1166.42	980.829
1166.99	948.829
1167.57	949.829
1168.15	974.829
1168.73	962.829
1169.31	966.829
1169.88	958.829
1170.46	985.829
1171.04	971.829
1171.61	942.829
1172.19	950.829
1172.77	946.829
1173.35	986.829
1173.92	955.829
1174.5	959.829
1175.08	964.829
1175.66	976.829
1176.23	972.829
1176.81	969.11
1177.38	978.391
1177.96	993.829
1178.54	946.829
1179.12	960.829
1179.69	933.829
1180.27	939.829
1180.84	958.829
1181.42	974.829
1182	934.829
1182.57	963.829
1183.15	947.829
1183.73	930.829
1184.3	959.829
1184.88	945.829
1185.45	926.829
1186.03	952.829
1186.6	960.829
1187.18	976.829
1187.76	1286.83
1188.33	993.11
1188.91	1064.05
1189.48	1043.27
1190.06	1232.83
1190.63	928.829
1191.21	943.829
1191.79	947.829
1192.36	934.829
1192.94	947.829
1193.51	951.829
1194.09	951.829
1194.66	943.829
1195.24	927.829
1195.81	946.829
1196.39	941.829
1196.96	951.829
1197.54	955.829
1198.11	945.829
1198.69	921.829
1199.26	951.829
1199.84	916.829
1200.41	921.829
1200.98	940.829
1201.56	919.829
1202.13	944.829
1202.71	914.829
1203.28	973.829
1203.85	957.829
1204.43	907.829
1205	940.829
1205.58	955.829
1206.15	961.829
1206.73	931.829
1207.3	1125.86
1207.87	1168.02
1208.45	972.829
1209.02	1074.83
1209.59	1057.08
1210.17	953.593
1210.74	923.829
1211.31	896.829
1211.89	930.829
1212.46	951.829
1213.03	928.829
1213.61	948.829
1214.18	943.829
1214.75	901.829
1215.33	922.829
1215.9	928.829
1216.47	908.829
1217.05	912.829
1217.62	895.829
1218.19	926.829
1218.76	937.829
1219.34	905.829
1219.91	928.829
1220.48	928.829
1221.05	912.829
1221.63	917.829
1222.2	922.829
1222.77	899.829
1223.34	1112.02
1223.91	940.41
1224.49	1017.24
1225.06	1360.83
1225.63	936.829
1226.2	914.829
1226.78	909.829
1227.35	907.829
1227.92	928.829
1228.49	940.829
1229.06	918.829
1229.64	897.829
1230.21	899.829
1230.78	888.829
1231.35	917.829
1231.92	932.829
1232.49	931.829
1233.06	923.829
1233.63	904.829
1234.21	921.829
1234.78	921.829
1235.35	1263.83
1235.92	895.829
1236.49	904.829
1237.06	897.829
1237.63	907.829
1238.2	891.829
1238.77	892.829
1239.34	1212.83
1239.91	911.829
1240.49	882.829
1241.06	907.829
1241.63	872.829
1242.2	930.829
1242.77	921.829
1243.34	940.829
1243.91	895.829
1244.48	901.829
1245.05	926.829
1245.62	874.829
1246.19	899.829
1246.76	899.829
1247.33	915.829
1247.9	925.829
1248.47	917.829
1249.04	911.829
1249.61	893.829
1250.18	945.829
1250.75	1082.83
1251.32	1029.83
1251.89	971.829
1252.46	1100.83
1253.03	925.829
1253.59	891.829
1254.16	904.829
1254.73	913.829
1255.3	912.829
1255.87	879.829
1256.44	902.829
1257.01	942.829
1257.58	889.829
1258.15	878.829
1258.72	909.829
1259.28	928.829
1259.85	916.829
1260.42	915.829
1260.99	899.829
1261.56	898.829
1262.13	875.829
1262.7	921.829
1263.26	887.829
1263.83	864.829
1264.4	947.829
1264.97	937.829
1265.54	928.829
1266.1	927.829
1266.67	916.829
1267.24	900.829
1267.81	908.829
1268.38	1246.83
1268.95	934.829
1269.51	880.829
1270.08	902.829
1270.65	902.829
1271.22	888.829
1271.78	883.829
1272.35	907.829
1272.92	906.829
1273.48	918.829
1274.05	877.829
1274.62	902.829
1275.19	906.829
1275.75	891.829
1276.32	882.829
1276.89	895.829
1277.46	883.829
1278.02	919.829
1278.59	943.829
1279.16	965.672
1279.72	948.485
1280.29	870.829
1280.86	922.829
1281.42	1112.83
1281.99	880.829
1282.56	908.829
1283.12	909.829
1283.69	908.829
1284.25	904.829
1284.82	898.829
1285.39	892.829
1285.95	838.829
1286.52	864.829
1287.09	921.829
1287.65	899.829
1288.22	888.829
1288.78	888.829
1289.35	895.829
1289.92	896.829
1290.48	889.829
1291.05	877.829
1291.61	1165.83
1292.18	1296.83
1292.74	1140.83
1293.31	983.829
1293.87	889.829
1294.44	879.829
1295	888.829
1295.57	1107.83
1296.13	971.829
1296.7	898.829
1297.27	1100.83
1297.83	1189.83
1298.39	915.829
1298.96	889.829
1299.52	891.829
1300.09	874.829
1300.65	887.829
1301.22	901.829
1301.78	892.829
1302.35	871.829
1302.91	917.829
1303.48	911.829
1304.04	871.829
1304.61	894.829
1305.17	924.829
1305.73	885.829
1306.3	956.079
1306.86	967.422
1307.43	933.422
1307.99	909.829
1308.55	878.829
1309.12	915.829
1309.68	912.829
1310.25	872.829
1310.81	891.829
1311.37	875.829
1311.94	896.829
1312.5	887.829
1313.06	885.829
1313.63	923.829
1314.19	917.782
1314.75	935.829
1315.32	887.829
1315.88	897.829
1316.44	896.829
1317.01	859.829
1317.57	1105.83
1318.13	973.642
1318.7	965.048
1319.26	990.86
1319.82	1091.83
1320.38	897.829
1320.95	861.829
1321.51	853.829
1322.07	905.829
1322.63	861.829
1323.2	862.829
1323.76	907.829
1324.32	879.829
1324.88	871.829
1325.45	883.829
1326.01	963.829
1326.57	909.174
1327.13	989.829
1327.69	890.829
1328.26	881.829
1328.82	850.829
1329.38	901.829
1329.94	879.829
1330.5	866.829
1331.07	872.829
1331.63	855.829
1332.19	885.829
1332.75	876.829
1333.31	876.829
1333.87	888.829
1334.43	904.829
1335	881.829
1335.56	909.829
1336.12	866.829
1336.68	866.829
1337.24	871.829
1337.8	862.829
1338.36	857.829
1338.92	853.829
1339.49	871.829
1340.05	838.829
1340.61	893.829
1341.17	888.829
1341.73	864.829
1342.29	889.829
1342.85	839.829
1343.41	873.829
1343.97	863.829
1344.53	840.829
1345.09	1067.83
1345.65	944.829
1346.21	882.829
1346.77	1197.83
1347.33	1109.83
1347.89	898.829
1348.45	885.829
1349.01	870.829
1349.57	880.829
1350.13	852.829
1350.69	868.829
1351.25	828.829
1351.81	877.829
1352.37	846.829
1352.93	931.829
1353.49	1261.83
1354.05	947.829
1354.61	873.829
1355.17	887.829
1355.73	903.766
1356.29	1078.83
1356.85	848.829
1357.41	853.829
1357.96	829.829
1358.52	853.829
1359.08	849.829
1359.64	855.829
1360.2	843.829
1360.76	857.829
1361.32	873.829
1361.88	853.829
1362.44	838.829
1362.99	861.829
1363.55	876.829
1364.11	867.829
1364.67	852.829
1365.23	835.829
1365.79	839.829
1366.35	856.829
1366.9	836.829
1367.46	854.829
1368.02	846.829
1368.58	833.829
1369.14	862.829
1369.69	878.829
1370.25	844.829
1370.81	833.829
1371.37	857.829
1371.93	822.829
1372.48	826.829
1373.04	860.829
1373.6	841.829
1374.16	857.829
1374.71	873.829
1375.27	863.829
1375.83	833.829
1376.39	830.829
1376.94	859.829
1377.5	1189.83
1378.06	1367.83
1378.61	1205.83
1379.17	1413.83
1379.73	1253.83
1380.28	1284.83
1380.84	863.829
1381.4	877.829
1381.95	862.829
1382.51	1191.83
1383.07	1178.83
1383.62	857.829
1384.18	833.829
1384.74	851.829
1385.29	855.829
1385.85	826.829
1386.41	835.829
1386.96	830.829
1387.52	815.829
1388.08	812.829
1388.63	832.829
1389.19	853.829
1389.74	851.829
1390.3	844.829
1390.85	824.829
1391.41	840.829
1391.97	818.829
1392.52	829.829
1393.08	854.829
1393.63	1007.83
1394.19	1363.83
1394.74	1357.83
1395.3	1546.83
1395.86	1064.83
1396.41	826.829
1396.97	847.829
1397.52	812.829
1398.08	843.829
1398.63	1396.83
1399.19	856.829
1399.74	841.829
1400.3	835.829
1400.85	796.829
1401.41	811.829
1401.96	847.829
1402.52	813.829
1403.07	851.829
1403.63	835.829
1404.18	822.829
1404.73	864.829
1405.29	839.829
1405.84	842.829
1406.4	827.829
1406.95	827.829
1407.51	829.829
1408.06	814.829
1408.62	825.829
1409.17	864.829
1409.72	826.829
1410.28	836.829
1410.83	823.829
1411.38	811.829
1411.94	822.829
1412.49	825.829
1413.04	819.829
1413.6	837.829
1414.15	819.829
1414.71	844.829
1415.26	797.829
1415.81	805.829
1416.37	795.829
1416.92	853.829
1417.47	837.829
1418.03	820.829
1418.58	826.829
1419.13	820.829
1419.69	829.829
1420.24	815.829
1420.79	850.829
1421.34	837.829
1421.9	797.829
1422.45	783.829
1423	805.829
1423.56	846.829
1424.11	1256.83
1424.66	772.829
1425.21	691.829
1425.76	620.829
1426.32	537.829
1426.87	467.829
1427.42	382.829
1427.97	294.829
1428.53	189.829
1429.08	186.829
1429.63	3874.83
1430.18	302.829
