18.3571	3152.67
19.0246	2809.67
19.7071	2785.67
20.3821	2755.67
21.0572	2856.67
21.7322	2830.67
22.4072	2819.67
23.0897	2889.67
23.7648	2948.67
24.4398	3045.67
25.1148	3130.67
25.7898	3196.67
26.4648	3314.67
27.1399	3381.17
27.8149	3412.67
28.4974	3456.17
29.1724	3496.67
29.8475	3458.67
30.5225	3457.67
31.1975	3498.67
31.8725	3472.67
32.5476	3648.17
33.2226	3666.67
33.8976	3826.17
34.5726	3924.67
35.2477	4081.17
35.9227	4212.67
36.5977	4414.17
37.2727	4600.67
37.9478	4626.67
38.6228	4716.17
39.2978	4694.67
39.9728	4678.17
40.6478	4754.17
41.3229	4851.17
41.9979	4995.17
42.6729	5153.17
43.3479	5412.17
44.023	5536.17
44.698	5696.17
45.373	5777.67
46.048	5746.17
46.7156	5795.17
47.3906	6033.17
48.0656	6233.17
48.7406	6344.67
49.4157	6444.17
50.0907	6566.67
50.7582	6724.67
51.4332	6699.67
52.1082	6835.67
52.7833	6948.17
53.4583	7094.67
54.1258	7086.17
54.8008	7164.17
55.4759	7250.67
56.1509	7403.17
56.8184	7466.67
57.4934	7566.67
58.1685	7797.17
58.8435	8113.67
59.511	8480.67
60.186	8693.67
60.8611	8688.17
61.5286	8663.17
62.2036	8511.17
62.8786	8456.17
63.5462	8414.67
64.2212	8493.67
64.8962	8692.67
65.5637	8719.67
66.2387	8859.67
66.9063	9053.67
67.5813	8993.67
68.2563	9160.67
68.9238	9265.67
69.5989	9249.17
70.2664	9507.67
70.9414	9389.67
71.6089	9632.67
72.284	9749.17
72.9515	9644.67
73.6265	9858.17
74.3015	9849.17
74.9691	10034.2
75.6441	10103.7
76.3116	10135.7
76.9866	10210.7
77.6541	10035.7
78.3217	9923.17
78.9967	10058.2
79.6642	10177.7
80.3392	10180.2
81.0068	10218.2
81.6743	10210.2
82.3493	10595.7
83.0168	10639.7
83.6919	10604.7
84.3594	10829.2
85.0344	10729.7
85.7019	10384.7
86.3695	10555.7
87.037	10532.7
87.712	10657.7
88.3795	10616.7
89.0471	10651.2
89.7221	10700.2
90.3896	10920.7
91.0571	11016.7
91.7321	11090.7
92.3997	10979.7
93.0672	11038.7
93.7347	11010.2
94.4097	11154.2
95.0773	11263.7
95.7448	11218.7
96.4123	10925.2
97.0798	10924.7
97.7549	11074.4
98.4224	11118.9
99.0899	11220.2
99.7574	11177.2
100.432	11168.2
101.1	11098.7
101.767	11161.7
102.435	11085.7
103.103	11212.2
103.77	11071.2
104.438	11086.7
105.105	11279.2
105.773	11279.7
106.44	11388.7
107.115	11223.7
107.783	11442.2
108.45	11392.2
109.118	11239.2
109.785	11198.2
110.453	11181.7
111.12	11233.7
111.788	11359.7
112.455	11243.2
113.123	11130.2
113.79	11084.2
114.458	11281.7
115.125	11250.9
115.793	11305.2
116.461	11270.2
117.128	11213.7
117.796	11219.2
118.463	11102.2
119.123	11206.2
119.791	11152.7
120.458	11140.7
121.126	11213.7
121.793	11189.7
122.461	11311.7
123.128	11299.7
123.796	11210.2
124.456	11274.2
125.123	11172.2
125.791	11258.2
126.458	11300.2
127.126	11172.2
127.786	11141.7
128.453	11076.7
129.121	11098.7
129.788	11226.2
130.456	11137.7
131.116	11070.7
131.784	11226.2
132.451	11157.7
133.119	11202.2
133.779	11084.2
134.446	11216.2
135.114	11015.2
135.774	11078.2
136.441	11038.2
137.109	11075.7
137.769	11070.7
138.436	10966.7
139.104	11112.7
139.764	11103.2
140.431	11137.7
141.099	10968.7
141.759	10987.2
142.426	10984.7
143.094	10919.2
143.754	10857.2
144.421	10946.7
145.082	10936.7
145.749	11002.2
146.409	10932.2
147.077	10754.7
147.737	10837.7
148.404	10956.7
149.064	10820.7
149.732	10790.2
150.399	10834.9
151.059	10911.7
151.727	10897.7
152.387	10729.7
153.047	10767.2
153.714	10787.2
154.374	10796.2
155.042	10841.2
155.702	10726.7
156.369	10773.2
157.029	10743.2
157.689	10677.7
158.357	10669.7
159.017	10651.7
159.685	10710.2
160.345	10626.7
161.005	10505.7
161.672	10689.2
162.332	10634.7
162.992	10624.9
163.66	10624.2
164.32	10693.2
164.98	10564.2
165.647	10444.2
166.307	10541.7
166.967	10631.7
167.627	10508.2
168.295	10547.2
168.955	10550.7
169.615	10542.7
170.275	10521.2
170.942	10443.7
171.602	10596.2
172.262	10455.2
172.923	10317.7
173.59	10567.2
174.25	10580.2
174.91	10356.7
175.57	10374.7
176.23	10316.2
176.89	10234.7
177.55	10403.2
178.218	10337.2
178.878	10400.7
179.538	10383.7
180.198	10351.7
180.858	10373.7
181.518	10271.7
182.178	10251.2
182.838	10263.7
183.498	10321.2
184.158	10296.4
184.818	10307.7
185.478	10199.2
186.145	10225.2
186.805	10294.2
187.465	10320.2
188.126	10160.2
188.786	10191.7
189.446	10239.2
190.106	10103.7
190.758	10268.2
191.418	10177.2
192.078	10173.4
192.738	10145.7
193.398	10079.7
194.058	10052.2
194.718	10077.7
195.378	10065.7
196.038	10029.2
196.698	9999.67
197.358	10034.7
198.011	10062.2
198.671	10131.7
199.331	10064.2
199.991	9960.17
200.651	10059.2
201.311	10071.7
201.971	10129.7
202.631	10053.7
203.284	9952.17
203.944	9834.67
204.604	10065.7
205.256	9986.17
205.916	9988.17
206.576	9903.67
207.236	9915.17
207.896	10057.7
208.549	9919.67
209.209	9945.17
209.869	9882.17
210.529	9896.17
211.181	9866.17
211.841	9846.17
212.494	9886.67
213.154	9935.67
213.814	10080.7
214.474	9893.17
215.126	9874.67
215.786	9836.17
216.447	9837.17
217.099	9755.67
217.759	9982.67
218.412	10097.7
219.072	9789.67
219.724	9927.67
220.384	9977.67
221.044	9848.17
221.697	9889.92
222.357	9858.92
223.009	9821.67
223.669	9789.67
224.322	9860.67
224.982	9863.67
225.634	9857.67
226.294	9705.67
226.947	9786.67
227.607	9816.67
228.259	9838.67
228.919	9689.17
229.572	9726.67
230.225	9649.67
230.885	9701.67
231.537	9784.67
232.197	9736.67
232.85	9715.67
233.51	9749.67
234.162	9618.67
234.822	9627.67
235.475	9728.67
236.127	9782.67
236.78	9745.67
237.44	9865.67
238.092	9441.17
238.752	9511.17
239.405	9611.17
240.057	9634.17
240.717	9518.17
241.37	9601.67
242.022	9607.17
242.675	9710.67
243.335	9688.17
243.987	9476.17
244.64	9544.67
245.3	9524.67
245.953	9460.67
246.605	9527.17
247.258	9779.67
247.91	9600.67
248.563	9713.67
249.223	9700.67
249.875	9375.67
250.528	9423.67
251.18	9604.67
251.833	9592.67
252.485	9425.17
253.145	9466.67
253.798	9429.17
254.45	9507.67
255.103	9542.67
255.755	9376.67
256.408	9400.67
257.06	9428.17
257.713	9430.67
258.366	9481.67
259.026	9465.67
259.678	9518.67
260.331	9373.67
260.983	9329.67
261.636	9356.17
262.288	9383.67
262.941	9422.67
263.593	9300.17
264.246	9219.17
264.898	9320.17
265.551	9305.17
266.203	9437.17
266.856	9533.67
267.501	9344.67
268.153	9449.67
268.806	9257.67
269.458	9256.67
270.111	9292.67
270.763	9213.67
271.416	9179.17
272.068	9248.67
272.721	9467.67
273.374	9209.17
274.026	9286.67
274.679	9294.17
275.324	9238.17
275.976	9143.67
276.629	9245.67
277.281	9131.67
277.934	9166.17
278.579	9205.17
279.231	9133.17
279.884	9142.67
280.536	9226.67
281.181	9216.17
281.834	9230.17
282.486	9267.17
283.139	9235.67
283.791	9134.67
284.436	9121.17
285.089	9081.17
285.741	9149.17
286.386	9059.17
287.039	9163.67
287.692	9049.67
288.344	9046.17
288.989	9001.67
289.642	9129.17
290.287	9124.92
290.939	9113.67
291.592	9100.42
292.237	9092.42
292.889	9204.67
293.534	9097.17
294.187	9116.67
294.839	8989.67
295.484	9085.67
296.137	9061.17
296.789	9003.67
297.434	8997.67
298.079	9074.67
298.732	8983.17
299.384	8922.17
300.029	8892.17
300.682	8946.67
301.327	8977.17
301.972	9064.17
302.625	9094.17
303.277	9101.67
303.922	9153.17
304.575	8995.67
305.22	8965.67
305.865	8994.17
306.517	8950.17
307.162	8943.67
307.815	8895.67
308.46	9099.67
309.105	9139.67
309.757	8956.67
310.402	8915.17
311.055	8915.67
311.7	8870.17
312.345	8977.67
312.997	9000.67
313.642	8926.67
314.287	9040.67
314.94	8816.67
315.585	8931.67
316.23	8947.17
316.875	8952.17
317.528	8829.67
318.173	8748.17
318.818	8875.17
319.47	8734.17
320.115	8721.67
320.76	8871.17
321.405	8829.92
322.058	8820.67
322.703	8642.17
323.348	8882.17
323.993	8798.67
324.638	8761.67
325.29	8922.67
325.935	8798.17
326.58	8767.17
327.225	8692.67
327.87	8669.17
328.515	8671.17
329.168	8813.17
329.813	8789.17
330.458	8832.17
331.103	8793.67
331.748	8760.67
332.393	8771.17
333.038	8692.67
333.683	8733.17
334.328	8667.67
334.973	8556.67
335.618	8686.67
336.271	8646.67
336.908	8663.67
337.553	8746.67
338.198	8668.67
338.851	8695.17
339.496	8733.67
340.133	8696.67
340.778	8693.67
341.423	8748.67
342.068	8718.17
342.713	8741.67
343.358	8728.17
344.004	8694.67
344.649	8528.17
345.294	8678.67
345.939	8719.67
346.584	8563.67
347.229	8643.17
347.874	8547.17
348.519	8599.67
349.156	8632.67
349.801	8660.17
350.446	8697.67
351.091	8622.17
351.736	8577.67
352.374	8554.17
353.019	8580.67
353.664	8627.17
354.309	8633.67
354.954	8531.17
355.591	8630.67
356.236	8603.67
356.881	8502.67
357.526	8479.67
358.164	8529.67
358.809	8564.67
359.454	8469.17
360.099	8556.67
360.737	8544.67
361.382	8413.67
362.027	8494.17
362.672	8392.17
363.309	8531.67
363.954	8656.67
364.599	8650.67
365.237	8500.67
365.882	8430.67
366.519	8458.67
367.164	8352.67
367.809	8503.17
368.447	8469.67
369.092	8377.67
369.729	8527.67
370.374	8439.17
371.019	8399.67
371.657	8434.17
372.302	8308.17
372.94	8417.67
373.585	8426.67
374.222	8412.17
374.867	8329.17
375.505	8436.17
376.15	8293.17
376.787	8400.17
377.432	8414.17
378.07	8378.67
378.715	8457.67
379.352	8358.67
379.997	8359.67
380.635	8465.17
381.28	8383.17
381.917	8331.17
382.562	8352.67
383.2	8438.17
383.837	8361.67
384.482	8318.17
385.12	8264.17
385.765	8348.17
386.402	8464.67
387.04	8351.17
387.685	8457.67
388.323	8447.67
388.96	8424.67
389.605	8345.17
390.243	8282.17
390.88	8439.17
391.518	8271.17
392.163	8341.17
392.8	8342.17
393.445	8264.67
394.083	8242.67
394.72	8181.67
395.358	8191.17
395.995	8328.17
396.64	8343.42
397.278	8483.17
397.915	8398.17
398.553	8451.67
399.19	8457.67
399.835	8446.67
400.473	8243.17
401.111	8310.17
401.748	8324.42
402.393	8370.67
403.023	8389.67
403.668	8266.17
404.306	8266.17
404.943	8221.17
405.581	8293.67
406.218	8254.67
406.856	8212.67
407.493	8327.67
408.131	8314.17
408.776	8240.67
409.413	8276.17
410.051	8251.67
410.688	8310.67
411.326	8239.17
411.963	8109.17
412.601	8268.17
413.238	8338.17
413.876	8316.67
414.513	8285.17
415.151	8248.67
415.789	8260.17
416.426	8290.17
417.064	8241.67
417.701	8315.17
418.339	8190.17
418.976	8152.67
419.606	8061.67
420.244	8218.17
420.881	8190.17
421.519	8132.17
422.156	8230.17
422.794	8381.67
423.431	8262.17
424.069	8151.67
424.706	8338.67
425.344	8355.67
425.974	8111.67
426.611	8196.17
427.249	8113.67
427.886	8205.17
428.524	8172.17
429.154	8208.67
429.792	8233.17
430.429	8142.17
431.067	8287.17
431.697	8134.17
432.334	8268.67
432.972	8151.67
433.609	8171.17
434.239	8126.67
434.877	8135.17
435.514	8222.17
436.152	8218.67
436.782	8311.17
437.419	8297.17
438.057	8116.67
438.687	8177.17
439.324	8148.17
439.962	8167.17
440.592	8285.17
441.229	8233.67
441.867	8202.17
442.497	8238.67
443.134	8148.67
443.772	8164.92
444.402	8340.17
445.04	8185.17
445.67	8071.67
446.307	8066.17
446.937	8190.17
447.575	8157.17
448.205	8067.17
448.842	8079.17
449.48	8108.17
450.11	8057.67
450.747	8037.67
451.377	8130.17
452.015	8164.67
452.645	8118.17
453.275	8146.17
453.912	7992.67
454.55	8128.17
455.18	8124.67
455.81	8141.67
456.447	8132.67
457.077	8013.67
457.715	8120.17
458.345	8064.67
458.975	8082.17
459.613	8105.17
460.243	8007.17
460.88	8044.17
461.51	8115.92
462.14	8146.17
462.778	8205.92
463.408	8214.42
464.038	8206.92
464.675	8089.92
465.305	7964.42
465.935	8008.17
466.573	8094.42
467.203	8021.67
467.833	8100.67
468.463	8005.67
469.1	8185.92
469.73	8176.42
470.36	8099.67
470.998	8029.17
471.628	7926.42
472.258	8018.67
472.888	8054.67
473.518	8084.92
474.156	8068.42
474.786	8166.92
475.416	8072.92
476.046	7990.67
476.676	7964.42
477.313	8024.42
477.943	8133.17
478.573	7993.42
479.203	8003.42
479.833	8082.42
480.463	8016.92
481.093	8177.17
481.723	8011.42
482.353	8171.67
482.991	8169.42
483.621	8010.92
484.251	7969.17
484.881	7897.92
485.511	8037.67
486.141	7891.17
486.771	7955.92
487.401	7942.67
488.031	7920.42
488.661	8018.92
489.291	7892.17
489.921	8084.17
490.551	8119.17
491.181	8050.67
491.811	8017.42
492.441	8009.67
493.071	8040.92
493.701	8018.67
494.331	7886.92
494.954	7916.67
495.591	7956.17
496.214	7998.92
496.844	7918.92
497.474	7897.67
498.104	7910.67
498.734	7946.67
499.364	7930.92
499.994	8081.92
500.617	7967.67
501.247	7928.67
501.877	7891.67
502.507	7904.17
503.137	7968.42
503.767	7972.92
504.389	7908.67
505.019	7839.92
505.649	8044.17
506.279	7923.92
506.909	7925.92
507.532	7913.67
508.162	7928.17
508.792	7912.67
509.422	7967.67
510.044	7941.17
510.674	7910.92
511.304	7856.17
511.927	7926.67
512.557	7951.92
513.187	8061.17
513.809	7844.92
514.44	7854.67
515.07	7944.42
515.692	7895.92
516.322	7865.17
516.952	7872.42
517.575	7890.17
518.205	7912.92
518.827	7944.17
519.457	7927.92
520.087	7949.67
520.71	7945.17
521.34	7832.67
521.962	7896.17
522.592	7923.42
523.222	7933.92
523.845	7850.92
524.475	7930.17
525.097	8005.17
525.727	7946.42
526.35	7888.92
526.98	7934.92
527.602	7942.92
528.232	7930.67
528.855	7962.42
529.485	7917.67
530.108	7945.92
530.738	7877.67
531.36	7877.17
531.983	7926.67
532.613	7987.92
533.235	8082.67
533.858	8043.17
534.488	7961.17
535.11	7961.17
535.74	7937.67
536.363	7935.17
536.985	7880.42
537.615	7973.67
538.238	7928.17
538.868	7896.67
539.49	7854.67
540.113	7903.17
540.735	7879.92
541.365	8083.67
541.988	8083.17
542.61	8002.17
543.24	7987.42
543.863	7901.42
544.486	7909.42
545.108	8013.42
545.738	8215.17
546.361	7967.67
546.983	7934.92
547.606	7910.42
548.228	7815.67
548.858	7990.17
549.481	7924.17
550.103	7927.92
550.726	7974.42
551.356	7974.92
551.978	8176.67
552.601	8091.42
553.223	8007.67
553.846	7913.92
554.468	7932.67
555.091	7932.17
555.713	7987.92
556.343	8114.42
556.958	7953.42
557.589	8052.92
558.211	7939.92
558.834	8049.67
559.456	8052.92
560.079	7995.17
560.701	8013.42
561.324	8035.42
561.946	8035.42
562.569	8069.92
563.191	7989.67
563.814	7970.67
564.436	8001.17
565.059	8068.67
565.681	8017.67
566.304	8024.17
566.926	7974.67
567.549	8003.42
568.171	7979.17
568.794	8013.42
569.416	8111.42
570.039	8062.92
570.661	8002.92
571.284	8011.17
571.899	7997.67
572.522	8186.42
573.144	8042.92
573.767	8057.67
574.389	8055.42
575.012	8039.67
575.634	7937.42
576.257	8009.42
576.872	8029.42
577.494	8020.17
578.117	8028.67
578.739	8042.17
579.354	8027.67
579.977	7971.67
580.599	7950.92
581.222	7922.42
581.844	8012.17
582.459	7999.17
583.082	7927.67
583.704	7934.42
584.327	8014.67
584.942	7960.17
585.565	7936.67
586.187	8046.17
586.81	8049.42
587.425	7934.42
588.047	7926.92
588.67	7915.17
589.285	7962.17
589.907	7975.67
590.53	7986.17
591.145	7957.92
591.767	7985.92
592.382	7961.67
593.005	7956.67
593.62	7913.92
594.242	7806.42
594.865	7817.92
595.48	7855.67
596.102	7914.67
596.725	7852.42
597.34	7933.42
597.962	7957.17
598.577	7818.67
599.2	7805.17
599.815	7734.42
600.438	7791.67
601.053	7798.92
601.675	7748.92
602.29	7686.67
602.913	7748.42
603.528	7839.92
604.15	7826.67
604.765	7731.67
605.38	7698.17
606.003	7711.67
606.618	7657.17
607.24	7676.67
607.855	7692.92
608.478	7591.92
609.093	7623.92
609.708	7598.92
610.33	7583.92
610.945	7564.42
611.568	7563.17
612.183	7525.17
612.798	7568.92
613.42	7565.92
614.035	7538.42
614.651	7518.17
615.273	7589.92
615.888	7662.17
616.503	7530.17
617.118	7546.67
617.741	7482.92
618.356	7498.67
618.971	7483.67
619.593	7436.92
620.208	7576.42
620.823	7440.67
621.438	7418.17
622.061	7336.17
622.676	7403.42
623.291	7352.92
623.906	7369.92
624.521	7371.42
625.143	7403.42
625.758	7338.17
626.373	7257.17
626.988	7301.67
627.603	7249.17
628.219	7306.92
628.833	7329.17
629.449	7295.17
630.071	7218.42
630.686	7201.42
631.301	7078.17
631.916	7125.67
632.531	7216.92
633.146	7131.42
633.761	7133.67
634.376	7287.42
634.991	7214.17
635.606	7193.92
636.221	7226.67
636.836	7119.17
637.451	7108.92
638.066	7054.42
638.689	6987.92
639.304	7073.67
639.911	7025.92
640.526	7046.67
641.141	6992.92
641.764	6971.42
642.371	7034.42
642.987	6952.17
643.602	6917.92
644.217	6822.17
644.832	6936.17
645.447	6909.92
646.062	6815.67
646.677	6898.92
647.292	6869.17
647.907	6932.92
648.522	6865.42
649.129	6839.92
649.744	6846.42
650.359	6813.42
650.974	6855.42
651.589	6745.92
652.204	6853.92
652.812	6771.42
653.427	6678.17
653.689	6715.17
654.312	6720.17
654.927	6604.67
655.549	6806.67
656.172	6732.17
656.794	6644.17
657.417	6702.17
658.032	6608.17
658.655	6671.17
659.277	6603.17
659.9	6553.67
660.515	6638.67
661.137	6619.67
661.76	6529.17
662.382	6585.42
662.997	6555.17
663.62	6526.67
664.242	6515.17
664.865	6618.17
665.48	6532.17
666.102	6529.67
666.725	6478.17
667.34	6500.17
667.962	6455.67
668.585	6560.67
669.2	6388.17
669.822	6499.17
670.437	6535.17
671.06	6529.17
671.682	6463.67
672.298	6444.67
672.92	6441.67
673.543	6367.17
674.158	6347.17
674.78	6361.17
675.395	6290.67
676.018	6331.17
676.633	6320.67
677.255	6347.92
677.878	6332.42
678.493	6200.67
679.108	6247.17
679.73	6264.17
680.345	6315.17
680.968	6263.67
681.583	6357.67
682.205	6262.17
682.82	6364.17
683.443	6421.67
684.058	6149.17
684.68	6213.17
685.295	6097.17
685.918	6220.17
686.533	6061.17
687.148	6071.17
687.771	6120.17
688.386	6101.17
689.001	6126.17
689.623	6036.17
690.238	6078.17
690.861	6030.67
691.476	6053.17
692.091	6238.67
692.713	6073.92
693.328	6071.17
693.943	6047.17
694.566	5996.67
695.181	6008.67
695.796	5986.67
696.418	5999.17
697.033	5981.67
697.648	5931.42
698.263	5969.17
698.886	5833.17
699.501	5867.67
700.116	5963.67
700.731	5854.67
701.354	5847.67
701.969	5765.17
702.584	5776.17
703.199	5748.17
703.814	5742.67
704.436	5772.17
705.051	5774.17
705.666	5727.67
706.281	5775.17
706.896	5730.67
707.511	5705.17
708.126	5743.67
708.749	5654.67
709.364	5597.67
709.979	5535.67
710.594	5590.17
711.209	5552.17
711.824	5593.17
712.439	5547.17
713.054	5527.67
713.669	5541.67
714.292	5505.17
714.899	5602.17
715.522	5512.17
716.137	5429.17
716.744	5478.67
717.367	5429.67
717.982	5374.67
718.597	5454.67
719.212	5391.17
719.819	5387.17
720.442	5342.67
721.057	5364.67
721.664	5317.67
722.279	5366.67
722.894	5427.67
723.509	5245.17
724.124	5328.17
724.739	5310.67
725.354	5387.17
725.969	5250.67
726.584	5228.17
727.199	5209.67
727.807	5125.17
728.422	5219.67
729.037	5152.17
729.652	5218.17
730.267	5149.67
730.882	5101.67
731.497	5073.17
732.112	5046.67
732.72	5120.17
733.335	5009.67
733.95	5175.67
734.565	5143.17
735.18	5001.67
735.787	5063.17
736.402	4979.17
737.017	4939.67
737.632	4954.17
738.24	4950.67
738.855	4925.67
739.47	4921.17
740.077	4889.17
740.692	4864.17
741.307	4876.17
741.915	4873.17
742.53	4856.67
743.145	4824.67
743.76	4864.17
744.368	4802.17
744.983	4760.17
745.598	4775.17
746.205	4742.67
746.82	4825.17
747.428	4934.17
748.043	4671.17
748.658	4711.17
749.265	4633.67
749.88	4608.17
750.488	4602.17
751.103	4663.17
751.71	4618.67
752.325	4552.67
752.933	4673.17
753.548	4605.17
754.163	4552.17
754.77	4571.17
755.385	4463.67
755.993	4519.67
756.608	4498.67
757.216	4460.67
757.831	4385.17
758.438	4467.17
759.053	4455.67
759.661	4458.17
760.276	4400.17
760.883	4456.17
761.491	4387.67
762.106	4363.67
762.713	4284.67
763.328	4403.17
763.936	4338.67
764.551	4347.67
765.158	4284.17
765.766	4284.67
766.381	4223.17
766.988	4245.67
767.596	4287.17
768.211	4211.67
768.818	4161.17
769.426	4253.67
770.041	4188.67
770.648	4126.17
771.256	4199.17
771.871	4087.17
772.479	4145.17
773.086	4104.17
773.694	4095.67
774.309	4007.67
774.916	4068.17
775.524	4036.17
776.131	4010.17
776.746	4034.17
777.354	3974.17
777.961	4025.17
778.569	3933.67
779.184	3932.67
779.791	3928.17
780.399	3950.17
781.006	3921.67
781.614	3946.17
782.221	3958.17
782.836	3906.67
783.444	3825.67
784.051	3849.67
784.659	3826.17
785.266	3770.67
785.874	3736.17
786.489	3831.67
787.089	3760.67
787.704	3750.67
788.312	3767.17
788.919	3681.67
789.527	3711.67
790.134	3692.17
790.742	3707.67
791.349	3774.17
791.957	3699.67
792.564	3703.67
793.172	3684.17
793.779	3598.17
794.387	3526.17
794.994	3595.67
795.602	3558.67
796.209	3621.67
796.817	3641.17
797.424	3585.17
798.032	3508.17
798.639	3472.67
799.247	3615.67
799.854	3553.17
800.462	3478.17
801.07	3495.17
801.677	3515.67
802.277	3488.67
802.885	3409.67
803.492	3461.67
804.1	3496.17
804.707	3514.67
805.315	3432.17
805.922	3393.17
806.53	3372.17
807.13	3407.17
807.737	3269.67
808.345	3361.67
808.952	3447.17
809.56	3395.17
810.16	3371.17
810.767	3362.67
811.375	3387.17
811.982	3363.17
812.59	3330.67
813.19	3312.17
813.797	3302.17
814.405	3255.17
815.005	3313.67
815.613	3313.17
816.22	3408.67
816.828	3341.17
817.428	3311.17
818.035	3345.67
818.643	3316.67
819.243	3279.17
819.85	3274.67
820.458	3257.17
821.058	3207.17
821.665	3213.67
822.273	3260.17
822.873	3258.17
823.48	3214.67
824.088	3244.17
824.688	3213.67
825.295	3226.17
825.895	3187.67
826.503	3180.67
827.11	3200.17
827.711	3174.17
828.318	3176.17
828.918	3172.17
829.526	3174.17
830.126	3156.67
830.733	3157.67
831.333	3188.17
831.941	3128.67
832.541	3164.67
833.148	3154.67
833.748	3160.17
834.356	3095.67
834.956	3182.67
835.563	3224.17
836.163	3188.67
836.771	3172.17
837.371	3110.17
837.971	3158.92
838.578	3181.67
839.178	3105.17
839.786	3233.17
840.386	3209.92
840.993	3183.17
841.594	3159.67
842.193	3129.42
842.801	3251.92
843.401	3247.17
844.009	3123.17
844.609	3136.67
845.209	3250.67
845.809	3203.17
846.416	3239.67
847.016	3193.17
847.616	3116.17
848.224	3188.17
848.824	3152.67
849.424	3168.17
850.031	3179.67
850.631	3204.17
851.231	3164.67
851.831	3202.67
852.439	3209.42
853.039	3223.92
853.639	3216.92
854.239	3175.92
854.839	3174.42
855.446	3191.92
856.047	3215.42
856.646	3199.67
857.247	3220.17
857.847	3202.17
858.454	3189.67
859.054	3193.17
859.654	3244.67
860.254	3233.17
860.854	3191.67
861.454	3207.67
862.054	3300.92
862.662	3175.17
863.254	3319.42
863.854	3268.17
864.462	3243.17
865.062	3241.17
865.662	3323.42
866.262	3303.92
866.862	3256.17
867.462	3362.92
868.062	3310.17
868.662	3325.17
869.262	3304.17
869.862	3343.17
870.462	3298.42
871.062	3490.92
871.662	3328.67
872.262	3403.92
872.862	3350.17
873.462	3355.67
874.062	3363.67
874.662	3379.42
875.262	3375.42
875.862	3403.42
876.462	3364.17
877.062	3410.42
877.662	3420.17
878.255	3432.42
878.855	3430.42
879.455	3433.17
880.055	3414.17
880.655	3435.67
881.255	3460.42
881.855	3451.92
882.455	3499.17
883.047	3506.92
883.647	3493.17
884.247	3526.92
884.847	3487.17
885.448	3552.67
886.048	3573.92
886.64	3538.67
887.24	3514.92
887.84	3643.92
888.44	3753.92
889.033	3573.67
889.633	3599.92
890.233	3629.42
890.825	3637.92
891.425	3740.67
892.025	3716.92
892.625	3768.42
893.218	3680.92
893.818	3675.42
894.418	3673.92
895.01	3747.67
895.61	3754.17
896.21	3724.67
896.803	3815.92
897.403	3830.42
898.003	3778.67
898.595	3805.67
899.195	3782.17
899.796	3749.92
900.388	3808.92
900.988	3873.42
901.581	3876.42
902.181	3867.92
902.781	3910.42
903.373	3910.42
903.973	3868.67
904.566	3898.92
905.166	3874.42
905.758	3978.92
906.358	3969.92
906.951	3932.17
907.551	3953.92
908.151	4009.67
908.743	4006.92
909.343	4020.42
909.936	4061.42
910.528	4058.92
911.128	4049.67
911.721	4105.92
912.321	4139.17
912.913	4130.17
913.513	4138.42
914.106	4142.42
914.706	4324.67
915.299	4213.92
915.891	4169.42
916.491	4209.67
917.084	4199.67
917.684	4258.92
918.276	4289.67
918.869	4335.42
919.469	4288.42
920.061	4335.67
920.654	4318.92
921.254	4304.67
921.846	4339.42
922.439	4363.67
923.039	4407.17
923.631	4358.67
924.224	4347.92
924.816	4505.42
925.416	4443.92
926.009	4453.92
926.609	4482.17
927.201	4515.67
927.794	4470.67
928.387	4494.42
928.979	4480.67
929.579	4512.17
930.172	4517.92
930.764	4497.92
931.357	4543.17
931.949	4596.17
932.549	4581.17
933.142	4615.42
933.734	4603.92
934.327	4596.92
934.919	4700.92
935.512	4667.92
936.104	4648.92
936.704	4650.42
937.297	4666.17
937.889	4693.67
938.482	4699.67
939.074	4760.92
939.667	4917.92
940.259	4741.42
940.859	4727.67
941.452	4760.92
942.044	4726.92
942.637	4769.92
943.23	4777.67
943.822	4773.92
944.415	4780.17
945.007	4739.92
945.6	4796.92
946.192	4795.17
946.785	4856.42
947.377	4874.92
947.97	4830.17
948.562	4946.92
949.155	4883.42
949.747	4870.17
950.34	4884.17
950.932	4938.42
951.525	4934.92
952.11	4912.67
952.702	4931.42
953.295	4938.42
953.887	4919.92
954.48	4918.17
955.072	4942.17
955.665	4944.17
956.258	5009.42
956.843	4995.17
957.435	4970.92
958.028	4997.92
958.62	5006.17
959.213	5003.42
959.805	5047.92
960.398	5112.42
960.983	5113.17
961.575	5030.42
962.168	5011.92
962.76	5027.67
963.353	5004.17
963.938	5001.67
964.53	5077.17
965.123	5077.92
965.715	5136.67
966.3	5069.42
966.893	4979.17
967.485	5046.92
968.078	5062.92
968.663	5069.92
969.255	5014.42
969.848	5037.92
970.433	5025.42
971.026	5001.42
971.618	5043.67
972.203	5131.42
972.796	5127.17
973.388	5013.92
973.973	5032.17
974.566	5035.17
975.158	5038.17
975.743	5042.17
976.336	4963.42
976.928	4979.42
977.513	5163.67
978.106	5115.92
978.691	4991.42
979.283	5011.92
979.868	4983.67
980.461	4951.67
981.046	4933.42
981.638	4934.92
982.231	4980.42
982.816	4967.67
983.401	4929.67
983.993	4953.42
984.586	4940.92
985.171	4971.92
985.764	4967.92
986.349	4931.67
986.934	4905.42
987.526	4887.92
988.111	4979.17
988.704	4891.92
989.289	4916.92
989.881	4883.92
990.466	4854.67
991.051	4878.67
991.644	4872.42
992.229	4983.67
992.821	4845.42
993.406	4818.17
993.991	4899.92
994.584	4814.42
995.169	4763.67
995.761	4810.67
996.346	4822.17
996.931	4777.92
997.516	4748.67
998.109	4775.92
998.694	4833.42
999.286	4740.67
999.872	4718.67
1000.46	4699.17
1001.04	4701.92
1001.63	4725.42
1002.22	4654.17
1002.8	4693.92
1003.39	4652.92
1003.98	4664.42
1004.57	4628.42
1005.15	4680.67
1005.74	4597.67
1006.33	4598.42
1006.91	4605.42
1007.5	4576.67
1008.08	4559.67
1008.67	4560.17
1009.26	4591.42
1009.85	4528.17
1010.43	4549.67
1011.02	4563.92
1011.6	4506.92
1012.19	4504.42
1012.78	4522.17
1013.36	4507.17
1013.95	4471.67
1014.53	4468.67
1015.12	4480.42
1015.7	4401.17
1016.29	4447.17
1016.87	4395.17
1017.46	4394.92
1018.04	4393.42
1018.63	4441.42
1019.21	4408.42
1019.8	4361.42
1020.38	4343.92
1020.97	4347.92
1021.56	4282.42
1022.14	4357.67
1022.72	4273.42
1023.32	4298.42
1023.89	4213.17
1024.48	4246.67
1025.06	4222.92
1025.65	4282.67
1026.23	4161.17
1026.82	4159.17
1027.41	4140.67
1027.99	4167.42
1028.58	4107.67
1029.16	4056.67
1029.75	4130.67
1030.33	4129.42
1030.92	4095.17
1031.5	4109.92
1032.08	4061.67
1032.66	4041.92
1033.25	3981.42
1033.83	4064.67
1034.42	3982.67
1035	3999.67
1035.58	3990.92
1036.17	4062.67
1036.75	4044.42
1037.34	3912.67
1037.92	3965.92
1038.5	3916.67
1039.08	3877.17
1039.67	3903.92
1040.25	3861.92
1040.84	3866.42
1041.42	3852.92
1042	3823.42
1042.59	3774.17
1043.17	3832.92
1043.75	3898.67
1044.33	3870.17
1044.92	3793.42
1045.5	3756.67
1046.08	3782.42
1046.67	3686.92
1047.24	3695.42
1047.83	3695.92
1048.41	3748.42
1048.99	3681.92
1049.58	3634.17
1050.16	3667.17
1050.74	3638.42
1051.32	3657.42
1051.91	3599.42
1052.49	3653.17
1053.07	3593.92
1053.65	3623.42
1054.23	3619.67
1054.82	3564.67
1055.4	3555.67
1055.98	3441.42
1056.56	3561.67
1057.14	3598.92
1057.72	3503.17
1058.31	3505.42
1058.88	3482.42
1059.47	3430.67
1060.05	3476.67
1060.63	3493.67
1061.21	3453.92
1061.79	3451.92
1062.37	3398.42
1062.96	3399.67
1063.53	3615.92
1064.12	3403.67
1064.7	3419.17
1065.28	3433.42
1065.86	3355.92
1066.44	3379.92
1067.02	3289.42
1067.6	3391.17
1068.18	3321.67
1068.76	3284.42
1069.34	3305.67
1069.92	3345.67
1070.5	3313.42
1071.08	3262.42
1071.66	3280.42
1072.24	3215.92
1072.82	3203.17
1073.4	3236.42
1073.98	3168.17
1074.56	3232.17
1075.14	3188.67
1075.72	3263.17
1076.3	3239.17
1076.88	3146.67
1077.46	3171.42
1078.04	3171.17
1078.62	3148.67
1079.2	3132.67
1079.78	3138.92
1080.36	3137.92
1080.93	3137.17
1081.52	3173.92
1082.1	3072.67
1082.67	3100.67
1083.25	3054.92
1083.53	3050.92
1084.11	3026.92
1084.7	2994.92
1085.28	3019.92
1085.87	2919.92
1086.45	2959.92
1087.04	2947.92
1087.63	2977.92
1088.22	2982.92
1088.8	2991.92
1089.39	2973.42
1089.97	2984.92
1090.56	2991.92
1091.14	2968.92
1091.73	2980.92
1092.31	2972.92
1092.9	2891.92
1093.48	2940.92
1094.07	2903.92
1094.65	2869.92
1095.24	2826.92
1095.81	2860.92
1096.41	2838.92
1096.98	2903.92
1097.57	2736.92
1098.16	2871.92
1098.74	2855.92
1099.33	2847.92
1099.91	2859.92
1100.5	2828.42
1101.08	2778.42
1101.67	2791.92
1102.25	2793.92
1102.83	2783.92
1103.41	2757.92
1104	2755.42
1104.58	2750.92
1105.17	2717.92
1105.75	2734.42
1106.33	2703.92
1106.92	2737.92
1107.5	2699.92
1108.09	2705.92
1108.67	2711.42
1109.26	2734.42
1109.83	2696.42
1110.42	2767.92
1111	2616.92
1111.59	2623.92
1112.17	2670.92
1112.75	2624.42
1113.34	2704.42
1113.91	2667.92
1114.5	2635.92
1115.08	2615.92
1115.67	2659.92
1116.25	2595.42
1116.83	2605.92
1117.42	2597.42
1117.99	2629.92
1118.58	2607.92
1119.16	2599.42
1119.74	2586.42
1120.33	2574.17
1120.91	2597.92
1121.49	2585.92
1122.07	2585.42
1122.65	2547.92
1123.24	2547.42
1123.82	2498.42
1124.4	2530.92
1124.98	2530.17
1125.56	2453.92
1126.15	2484.42
1126.72	2496.42
1127.31	2499.42
1127.89	2491.42
1128.47	2485.42
1129.06	2479.42
1129.63	2517.92
1130.22	2523.42
1130.8	2468.92
1131.38	2406.92
1131.96	2433.92
1132.54	2433.92
1133.12	2411.92
1133.71	2392.92
1134.28	2373.92
1134.87	2415.92
1135.45	2409.92
1136.02	2391.92
1136.61	2394.92
1137.19	2379.92
1137.77	2406.92
1138.35	2403.92
1138.93	2402.42
1139.51	2397.42
1140.09	2386.42
1140.67	2355.42
1141.25	2360.92
1141.83	2294.92
1142.41	2339.92
1142.99	2281.92
1143.57	2334.92
1144.15	2301.92
1144.73	2323.92
1145.31	2291.42
1145.89	2318.42
1146.47	2317.92
1147.05	2311.42
1147.63	2303.42
1148.21	2329.42
1148.79	2261.92
1149.37	2261.92
1149.95	2260.92
1150.53	2275.92
1151.11	2263.92
1151.68	2250.42
1152.27	2195.92
1152.85	2254.92
1153.42	2254.42
1154	2211.92
1154.58	2256.42
1155.16	2225.92
1155.74	2248.92
1156.32	2247.92
1156.9	2191.92
1157.47	2215.92
1158.05	2151.92
1158.64	2160.92
1159.21	2208.92
1159.79	2115.92
1160.37	2164.92
1160.95	2153.92
1161.52	2131.92
1162.1	2142.92
1162.68	2179.42
1163.26	2310.42
1163.83	2189.42
1164.41	2177.92
1165	2181.92
1165.57	2117.42
1166.15	2118.92
1166.73	2076.42
1167.31	2136.92
1167.88	2120.92
1168.46	2051.92
1169.04	2063.92
1169.62	2071.92
1170.2	2126.92
1170.77	2084.42
1171.35	2049.92
1171.93	2071.42
1172.51	2080.42
1173.08	2094.92
1173.66	2074.92
1174.23	2051.92
1174.81	2073.92
1175.39	2062.42
1175.96	2013.42
1176.54	2055.92
1177.12	2055.92
1177.7	2021.92
1178.27	2009.92
1178.85	2021.42
1179.43	2002.92
1180	2046.92
1180.58	1998.92
1181.15	1987.92
1181.73	2037.92
1182.31	2010.42
1182.89	1979.92
1183.46	1975.92
1184.03	2013.92
1184.61	1960.92
1185.19	1947.92
1185.77	1950.92
1186.34	1953.42
1186.91	1934.92
1187.49	1964.92
1188.07	1972.92
1188.65	1930.92
1189.22	1928.42
1189.79	1981.42
1190.37	1918.92
1190.94	1923.92
1191.52	1955.92
1192.1	1902.92
1192.67	1938.92
1193.24	1909.92
1193.82	1929.42
1194.4	1918.92
1194.97	1954.92
1195.55	1954.42
1196.12	1870.42
1196.69	1913.42
1197.27	1920.92
1197.85	1902.42
1198.42	1891.92
1199	1901.92
1199.57	1883.42
1200.14	1858.92
1200.72	1882.92
1201.29	1829.92
1201.87	1857.92
1202.44	1899.92
1203.02	1903.92
1203.59	1879.92
1204.16	1882.42
1204.74	1881.42
1205.31	1885.42
1205.89	1872.92
1206.46	1905.92
1207.04	1972.92
1207.61	1888.42
1208.18	1846.92
1208.75	1860.17
1209.33	1879.17
1209.9	1853.42
1210.48	1865.67
1211.05	1812.67
1211.63	1833.42
1212.2	1826.17
1212.77	1835.42
1213.34	1863.67
1213.91	1840.92
1214.49	1828.42
1215.06	1871.17
1215.64	1848.92
1216.21	1823.42
1216.78	1812.42
1217.36	1855.67
1217.93	1867.92
1218.5	1837.92
1219.07	1812.42
1219.64	2049.42
1220.22	1856.42
1220.79	1841.17
1221.36	1815.17
1221.93	1873.17
1222.51	1827.67
1223.08	1846.42
1223.65	1832.17
1224.23	1822.17
1224.8	1871.92
1225.37	1813.17
1225.94	1824.42
1226.51	1855.17
1227.08	1859.67
1227.65	1884.42
1228.22	1888.17
1228.8	1831.42
1229.37	1808.92
1229.94	1789.42
1230.52	1800.92
1231.09	1845.67
1231.66	1846.17
1232.23	1817.42
1232.8	1843.67
1233.37	1847.17
1233.95	1827.42
1234.52	1831.92
1235.09	1842.92
1235.66	1854.42
1236.23	1826.92
1236.8	1811.67
1237.37	1800.42
1237.94	1803.92
1238.51	1824.67
1239.08	1823.17
1239.65	1814.17
1240.22	1805.92
1240.8	1814.17
1241.36	1822.42
1241.94	1823.17
1242.51	1852.42
1243.08	1814.42
1243.65	1784.42
1244.22	1825.17
1244.79	1864.92
1245.36	1788.67
1245.93	1809.17
1246.5	1803.42
1247.07	1810.92
1247.64	1796.17
1248.21	1800.17
1248.78	1767.17
1249.35	1969.92
1249.92	1819.17
1250.49	1801.67
1251.06	1826.42
1251.63	1820.92
1252.2	1809.42
1252.77	1825.42
1253.34	1789.17
1253.9	1832.42
1254.48	1825.42
1255.04	1795.17
1255.61	1820.42
1256.18	1780.92
1256.75	1784.92
1257.32	1875.67
1257.89	1820.67
1258.45	1825.17
1259.02	1805.42
1259.59	1820.42
1260.16	1778.17
1260.73	1796.92
1261.3	1789.17
1261.87	1802.92
1262.43	1804.92
1263	1790.67
1263.57	1797.67
1264.14	1841.92
1264.71	1854.92
1265.28	1827.67
1265.85	1814.17
1266.42	1805.17
1266.98	1821.42
1267.55	1819.42
1268.12	1801.67
1268.68	1808.17
1269.25	1799.17
1269.82	1817.67
1270.39	1807.67
1270.95	1807.42
1271.52	1802.42
1272.09	1833.17
1272.66	1784.42
1273.23	1783.67
1273.8	1798.67
1274.36	1805.67
1274.93	1790.92
1275.49	1766.92
1276.06	1797.67
1276.63	1809.92
1277.19	1773.67
1277.76	1775.92
1278.33	1781.67
1278.9	1793.67
1279.47	1753.42
1280.03	1816.67
1280.6	1805.92
1281.16	1795.42
1281.73	1815.67
1282.29	1801.67
1282.86	1806.42
1283.43	1797.92
1284	1795.42
1284.57	1799.42
1285.13	1790.92
1285.69	1787.42
1286.26	1795.42
1286.82	1813.92
1287.39	1806.17
1287.96	1791.17
1288.53	1778.42
1289.09	1798.17
1289.66	1851.67
1290.22	1883.92
1290.79	1861.67
1291.35	1801.67
1291.92	1806.42
1292.49	1796.92
1293.05	1757.67
1293.61	1809.17
1294.18	1841.42
1294.74	1808.17
1295.31	1777.67
1295.88	1788.17
1296.44	1828.42
1297.01	1805.42
1297.57	1792.17
1298.13	1808.42
1298.7	1796.92
1299.27	1790.67
1299.83	1797.42
1300.4	1794.17
1300.96	1779.17
1301.52	1802.92
1302.09	1799.17
1302.66	1770.17
1303.22	1899.42
1303.78	1811.42
1304.34	1822.92
1304.91	1845.92
1305.48	1794.17
1306.04	1791.92
1306.6	1796.67
1307.17	1812.67
1307.73	1800.92
1308.3	1799.17
1308.86	1817.17
1309.42	1800.92
1309.99	1834.17
1310.55	1805.42
1311.12	1774.42
1311.68	1936.42
1312.24	1780.92
1312.81	1801.92
1313.37	1815.92
1313.94	1798.92
1314.5	1812.17
1315.06	1815.42
1315.63	1947.17
1316.19	1799.67
1316.75	1815.17
1317.31	1818.17
1317.88	1785.17
1318.44	1812.67
1319	1809.17
1319.56	1811.67
1320.13	1829.92
1320.69	1889.67
1321.25	1931.17
1321.81	1817.67
1322.38	1779.42
1322.94	1810.17
1323.5	1793.42
1324.07	1820.67
1324.63	1836.92
1325.19	1918.92
1325.75	2018.17
1326.31	2007.67
1326.88	1804.67
1327.44	1846.17
1328	1835.92
1328.56	1799.17
1329.13	1827.92
1329.69	1793.92
1330.25	1818.92
1330.81	1831.42
1331.38	1832.67
1331.94	1805.67
1332.49	1788.67
1333.06	1825.42
1333.62	1838.92
1334.18	1819.17
1334.74	1809.67
1335.31	1798.17
1335.87	1813.67
1336.42	1835.92
1336.99	1795.42
1337.55	1850.92
1338.11	1832.42
1338.67	1811.67
1339.23	1844.17
1339.79	1824.17
1340.35	1835.17
1340.92	1800.42
1341.48	1811.67
1342.03	1818.17
1342.6	1793.67
1343.16	1785.67
1343.71	1786.42
1344.28	1812.92
1344.84	1816.42
1345.4	1798.17
1345.96	1835.17
1346.52	1815.92
1347.08	1815.92
1347.64	1811.42
1348.2	1810.92
1348.76	1825.17
1349.32	1831.42
1349.88	1817.67
1350.44	1817.17
1351	1796.17
1351.56	1880.92
1352.11	1923.17
1352.68	1794.17
1353.24	1811.17
1353.79	1805.92
1354.36	1805.42
1354.91	1805.42
1355.47	1802.17
1356.04	1812.42
1356.59	1824.42
1357.15	1834.42
1357.71	1825.17
1358.27	1833.92
1358.83	1801.92
1359.39	1827.42
1359.94	1816.67
1360.51	1833.67
1361.07	1816.67
1361.62	1808.17
1362.18	1840.92
1362.74	1822.67
1363.3	1826.67
1363.86	1818.17
1364.41	1827.42
1364.98	1816.42
1365.53	1804.42
1366.09	1795.17
1366.65	1829.92
1367.21	1810.42
1367.77	1815.67
1368.32	1821.92
1368.88	1831.67
1369.44	1803.17
1369.99	1818.42
1370.56	1802.92
1371.11	1861.67
1371.67	1802.17
1372.23	1803.92
1372.79	1805.42
1373.35	1811.42
1373.9	1792.42
1374.46	1837.67
1375.02	1815.92
1375.57	1847.17
1376.13	1830.17
1376.69	1801.17
1377.25	1836.42
1377.8	1825.92
1378.36	1825.42
1378.92	1811.42
1379.47	1810.42
1380.03	1828.42
1380.59	1812.67
1381.15	1843.67
1381.7	1816.92
1382.26	1834.42
1382.82	1801.42
1383.38	1838.42
1383.93	1815.17
1384.48	1836.42
1385.04	1820.42
1385.6	1804.17
1386.16	1803.17
1386.71	1823.67
1387.27	1777.42
1387.82	1820.17
1388.38	1820.17
1388.94	1819.67
1389.5	1827.17
1390.05	1818.17
1390.61	1802.67
1391.16	1822.92
1391.72	1822.17
1392.27	1851.92
1392.83	1837.92
1393.38	1824.67
1393.94	1834.17
1394.5	1824.17
1395.05	1841.42
1395.61	1824.42
1396.16	1816.17
1396.72	1826.92
1397.27	1820.92
1397.83	1827.92
1398.38	1806.42
1398.94	1874.42
1399.49	1814.17
1400.05	1856.67
1400.6	1856.67
1401.16	1798.17
1401.71	1828.42
1402.27	1831.42
1402.82	1836.17
1403.38	1831.17
1403.93	1845.67
1404.49	1884.42
1405.04	1989.92
1405.59	1843.67
1406.15	1833.67
1406.7	1884.67
1407.26	1918.17
1407.81	1877.42
1408.37	1842.42
1408.92	1808.67
1409.48	1823.92
1410.03	1828.67
1410.58	1831.67
1411.13	1815.92
1411.69	1833.67
1412.24	1823.42
1412.8	1863.17
1413.35	1795.67
1413.9	1819.67
1414.46	1859.92
1415.01	1877.42
1415.57	1844.92
1416.12	1861.17
1416.67	1864.67
1417.22	1833.92
1417.78	1846.17
1418.33	1825.42
1418.88	1827.42
1419.44	1841.17
1419.99	1904.42
1420.55	1872.42
1421.09	1852.17
1421.65	1915.17
1422.2	1833.17
1422.75	1862.17
1423.31	1846.67
1423.86	1826.67
1424.42	1846.92
1424.96	1870.67
1425.52	1838.67
1426.07	1855.42
1426.62	1810.92
1427.18	1836.92
1427.72	1822.92
1428.28	1817.67
1428.83	1804.17
1429.38	1830.42
1429.94	1855.42
1430.48	1852.42
1431.04	1825.42
1431.2	1843.42
1431.77	1842.42
1432.32	1863.92
1432.88	1862.42
1433.44	1830.42
1434	1861.42
1434.56	1816.42
1435.12	1852.92
1435.67	1811.92
1436.23	1836.92
1436.79	1848.92
1437.35	1841.42
1437.91	1850.42
1438.46	1861.42
1439.02	1838.42
1439.58	1846.92
1440.14	1864.42
1440.7	1869.92
1441.25	1885.42
1441.82	1846.42
1442.37	1847.42
1442.93	1870.42
1443.49	1889.92
1444.04	1839.42
1444.6	1874.92
1445.16	1839.42
1445.72	1847.92
1446.27	1878.42
1446.83	1856.42
1447.39	1820.92
1447.94	1843.92
1448.51	1875.92
1449.06	1839.92
1449.62	1830.42
1450.17	1847.42
1450.73	1858.42
1451.29	1840.92
1451.84	1876.42
1452.4	1860.92
1452.96	1884.42
1453.52	1830.42
1454.07	1858.42
1454.63	1898.92
1455.18	1829.92
1455.74	1859.92
1456.3	1877.92
1456.86	1885.42
1457.41	1843.42
1457.97	1820.42
1458.53	1895.92
1459.08	1849.92
1459.64	1837.92
1460.19	1884.42
1460.75	1881.92
1461.3	1852.92
1461.87	1887.42
1462.42	1924.42
1462.98	1848.92
1463.53	1846.42
1464.09	1871.42
1464.64	1890.92
1465.2	1858.42
1465.75	1863.42
1466.31	1854.42
1466.86	1859.92
1467.42	1855.42
1467.98	1863.92
1468.53	1890.42
1469.08	1835.42
1469.64	1863.42
1470.2	1852.42
1470.75	1852.92
1471.31	1817.42
1471.86	1911.92
1472.41	1881.42
1472.97	1877.42
1473.53	2006.42
1474.08	1995.42
1474.63	1867.92
1475.19	1855.42
1475.74	1868.42
1476.3	1849.42
1476.85	1907.42
1477.41	1883.42
1477.96	1857.42
1478.52	1857.92
1479.07	1833.92
1479.63	1875.42
1480.18	2072.42
1480.74	2037.92
1481.28	1923.17
1481.84	1910.42
1482.39	1906.67
1482.95	1945.92
1483.5	1926.42
1484.06	1872.42
1484.61	1849.92
1485.16	1858.42
1485.72	1871.42
1486.27	1871.42
1486.83	1924.42
1487.37	1919.42
1487.93	1928.42
1488.48	1866.92
1489.04	1934.42
1489.59	1847.42
1490.14	1832.42
1490.7	1855.92
1491.25	1840.42
1491.81	1829.92
1492.35	1887.42
1492.91	1884.92
1493.46	1868.92
1494.02	1887.92
1494.57	1868.42
1495.12	1872.42
1495.68	1878.42
1496.22	1872.42
1496.78	1861.92
1497.33	1867.92
1497.88	1880.92
1498.44	1836.42
1498.99	1870.92
1499.54	1885.92
1500.1	1904.42
