15.6506	1994.47
16.3111	2127.66
16.993	2189.78
17.6677	2331.78
18.3424	2411.72
19.0171	2500.47
19.699	2535.97
20.3737	2624.72
21.0484	2695.78
21.7302	2722.41
22.405	2731.28
23.0797	2753.47
23.7544	2757.91
24.4291	2766.78
25.111	2784.53
25.7857	2820.03
26.4604	2891.09
27.1352	2917.72
27.8099	2953.22
28.4846	3006.47
29.1664	3041.97
29.8412	3068.59
30.5159	3095.22
31.1906	3139.66
31.8653	3219.53
32.5401	3044.59
33.2148	3137.22
33.8895	3070.22
34.5714	2987.22
35.2461	3141.22
35.9208	3140.72
36.5955	3154.03
37.2703	3143.47
37.945	3150.78
38.6197	3157.72
39.2944	3168.34
39.9692	3210.22
40.6439	3077.22
41.3186	3025.22
41.9933	2994.22
42.6681	3067.22
43.3428	3202.22
44.0175	3235.66
44.6923	3252.09
45.367	3256.28
46.0417	3251.22
46.7093	3240.22
47.3841	3143.22
48.0588	3183.22
48.7335	3320.22
49.4082	3253.03
50.083	3269.53
50.7577	3278.47
51.4324	3391.22
52.1	3403.22
52.7748	3323.16
53.4495	3394.22
54.1242	3398.22
54.7918	3288.22
55.4666	3229.22
56.1413	3137.22
56.816	3226.22
57.4907	3198.22
58.1584	3242.22
58.8331	3325.22
59.5078	3395.97
60.1755	3401.84
60.8502	3401.47
61.5249	3399.22
62.1996	3395.53
62.8673	3398.22
63.542	3405.28
64.2167	3405.22
64.8843	3502.97
65.5591	3408.28
66.2267	3421.47
66.9014	3430.53
67.5761	3440.72
68.2438	3482.72
68.9185	3499.22
69.5932	3434.22
70.2608	3367.22
70.9356	3327.22
71.6032	3340.22
72.2779	3424.22
72.9455	3414.97
73.6203	3412.72
74.2879	3406.22
74.9626	3475.22
75.6373	3407.66
76.305	3410.03
76.9797	3431.53
77.6473	3471.84
78.3149	3453.97
78.9897	3406.03
79.6573	3367.22
80.332	3250.22
80.9996	3304.22
81.6744	3254.22
82.342	3291.22
83.0096	3426.22
83.6843	3380.59
84.352	3400.97
85.0267	3396.97
85.6943	3341.47
86.3619	3291.22
87.0296	3146.22
87.7043	3233.22
88.3719	3257.22
89.0466	3167.22
89.7143	3210.22
90.3819	3274.22
91.0566	3345.22
91.7242	3291.97
92.3919	3291.09
93.0595	3278.16
93.7271	3255.34
94.4018	3245.84
95.0695	3237.91
95.7371	3229.84
96.4047	3278.22
97.0794	3246.22
97.7471	3179.22
98.4147	3177.22
99.0823	3177.22
99.7499	3259.22
100.425	3228.22
101.092	3238.22
101.76	3183.22
102.428	3103.22
103.095	3093.22
103.763	3163.22
104.43	3095.22
105.098	3127.22
105.766	3186.22
106.44	3219.22
107.108	3129.97
107.776	3124.09
108.443	3139.97
109.111	3138.97
109.779	3155.22
110.446	2984.22
111.114	3053.22
111.781	2983.22
112.449	3085.22
113.117	3045.22
113.784	3020.22
114.452	3025.22
115.12	3061.72
115.787	3069.84
116.455	3091.47
117.115	3069.47
117.783	3005.91
118.451	2999.22
119.118	2972.22
119.786	2890.22
120.453	2895.22
121.121	2953.22
121.789	2964.22
122.449	2927.22
123.117	3005.22
123.784	2988.22
124.452	2976.22
125.12	2953.22
125.787	2887.22
126.448	2855.22
127.115	2837.22
127.783	2915.22
128.451	2783.22
129.118	2872.22
129.779	2865.22
130.446	2868.22
131.114	2862.22
131.782	2734.22
132.442	2773.22
133.11	2703.22
133.777	2844.22
134.438	2780.22
135.106	2679.22
135.766	2692.22
136.434	2694.22
137.101	2771.22
137.762	2692.22
138.43	2771.22
139.097	2733.22
139.758	2749.22
140.425	2688.78
141.093	2676.09
141.753	2709.22
142.421	2719.22
143.082	2679.22
143.749	2565.22
144.41	2622.22
145.077	2608.22
145.745	2623.22
146.406	2581.22
147.073	2549.22
147.734	2573.22
148.394	2543.22
149.062	2500.22
149.722	2634.22
150.39	2542.22
151.05	2514.22
151.718	2531.22
152.379	2541.22
153.039	2562.22
153.707	2533.22
154.367	2561.22
155.035	2537.22
155.695	2536.22
156.356	2508.22
157.024	2430.22
157.684	2401.22
158.352	2462.22
159.012	2477.22
159.673	2439.22
160.34	2333.22
161.001	2465.22
161.661	2371.22
162.329	2422.22
162.99	2410.22
163.65	2383.22
164.311	2462.22
164.978	2324.22
165.639	2391.22
166.299	2291.22
166.96	2392.22
167.62	2393.22
168.288	2315.22
168.948	2300.22
169.609	2342.22
170.27	2331.22
170.93	2321.22
171.591	2383.22
172.258	2375.22
172.919	2347.22
173.579	2294.22
174.24	2306.22
174.9	2286.22
175.561	2340.22
176.221	2223.22
176.889	2294.22
177.549	2251.22
178.21	2252.22
178.871	2293.22
179.531	2262.22
180.192	2279.22
180.852	2265.22
181.513	2239.22
182.173	2204.22
182.834	2319.22
183.494	2255.22
184.155	2211.22
184.815	2175.22
185.476	2271.22
186.136	2209.22
186.797	2186.22
187.457	2211.22
188.118	2192.22
188.778	2245.22
189.439	2188.22
190.099	2139.22
190.753	2133.22
191.413	2156.22
192.074	2157.22
192.734	2145.22
193.395	2169.22
194.055	2115.22
194.716	2155.22
195.369	2260.22
196.03	2177.22
196.69	2169.22
197.351	2147.22
198.004	2101.22
198.665	2086.22
199.325	2098.22
199.986	2133.22
200.646	2108.22
201.3	2110.22
201.96	2143.22
202.621	2099.22
203.274	2072.22
203.935	2084.22
204.595	2122.22
205.256	2086.22
205.909	2119.22
206.57	2082.22
207.23	2057.22
207.884	2021.22
208.544	2079.22
209.205	2028.22
209.858	2039.22
210.519	2050.22
211.172	2070.22
211.833	2056.22
212.493	2050.22
213.147	2012.22
213.807	2076.22
214.461	2083.22
215.121	2056.22
215.782	2055.22
216.435	2059.22
217.096	2035.22
217.749	1996.22
218.409	2043.22
219.063	2049.22
219.723	2118.22
220.377	2033.22
221.037	2046.22
221.691	2012.22
222.351	2088.22
223.005	2047.22
223.658	2039.22
224.319	2074.22
224.972	2002.22
225.633	2040.22
226.286	1969.22
226.939	2011.22
227.6	1973.22
228.253	2025.22
228.914	1961.22
229.567	1994.22
230.221	2016.22
230.881	1978.22
231.535	2008.22
232.188	1957.22
232.849	1960.22
233.502	2007.22
234.155	1960.22
234.816	1969.22
235.469	1946.22
236.123	1928.22
236.776	1962.22
237.437	1966.22
238.09	1995.22
238.744	2040.22
239.397	1965.22
240.05	2002.22
240.711	1939.22
241.364	1960.22
242.018	1949.22
242.671	1943.22
243.325	1897.22
243.978	1962.22
244.632	1960.22
245.292	1952.22
245.945	1938.22
246.599	1941.22
247.252	1985.22
247.906	1966.22
248.559	1938.22
249.213	1922.22
249.866	1895.22
250.519	1915.22
251.173	1967.22
251.826	1988.22
252.48	1965.22
253.133	1949.22
253.786	1937.22
254.44	1935.22
255.093	1909.22
255.747	2014.22
256.4	1922.22
257.054	1960.22
257.707	1941.22
258.36	1932.22
259.014	1947.22
259.667	1911.22
260.321	1934.22
260.974	1986.22
261.628	1900.22
262.281	1910.22
262.934	1973.22
263.581	1939.22
264.234	1943.22
264.888	1937.22
265.541	1946.22
266.194	1962.22
266.848	1887.22
267.494	1967.22
268.147	1912.22
268.801	1931.22
269.454	1936.22
270.108	1925.22
270.754	1913.22
271.408	1923.22
272.061	1929.22
272.714	1944.22
273.361	1891.22
274.014	1928.22
274.667	1939.22
275.321	1911.22
275.967	1935.22
276.621	1900.22
277.274	1891.22
277.92	1923.22
278.574	1938.22
279.227	1964.22
279.874	1918.22
280.527	1905.22
281.18	1878.22
281.827	1911.22
282.48	1917.22
283.134	1879.22
283.78	1906.22
284.433	1910.22
285.08	1937.22
285.733	1922.22
286.379	1922.22
287.033	1882.22
287.686	1923.22
288.332	1940.22
288.986	1938.22
289.632	1928.22
290.286	1856.22
290.932	1928.22
291.585	1925.22
292.232	1858.22
292.885	1944.22
293.531	1918.22
294.178	1885.22
294.831	1887.22
295.477	1964.22
296.131	1943.22
296.777	1887.22
297.431	1913.22
298.077	1921.22
298.723	1984.22
299.377	1849.22
300.023	1922.22
300.669	1921.22
301.323	1905.22
301.969	1932.22
302.615	1948.22
303.269	1914.22
303.915	1935.22
304.561	1943.22
305.215	1923.22
305.861	1903.22
306.507	1926.22
307.161	1926.22
307.807	1857.22
308.454	1891.22
309.1	1897.22
309.753	1913.22
310.4	1886.22
311.046	1903.22
311.692	1903.22
312.339	1942.22
312.992	1897.22
313.638	1894.22
314.285	1879.22
314.931	1916.22
315.577	1897.22
316.224	1846.22
316.87	1905.22
317.523	1886.22
318.17	1871.22
318.816	1969.22
319.462	1905.22
320.109	1860.22
320.755	1918.22
321.401	1899.22
322.047	1815.22
322.694	1893.22
323.34	1925.22
323.986	1898.22
324.633	1911.22
325.279	1944.22
325.925	1912.22
326.572	1896.22
327.218	1860.22
327.864	1842.22
328.511	1896.22
329.157	1902.22
329.803	1850.22
330.45	1829.22
331.096	1902.22
331.742	1854.22
332.389	1882.22
333.035	1866.22
333.674	1851.22
334.32	1835.22
334.967	1881.22
335.613	1887.22
336.259	1864.22
336.906	1914.22
337.552	1868.22
338.198	1910.22
338.838	1809.22
339.484	1880.22
340.13	1832.22
340.776	1855.22
341.423	1898.22
342.062	1882.22
342.708	1828.22
343.355	1877.22
344.001	1897.22
344.64	1860.22
345.286	1853.22
345.933	1824.22
346.579	1828.22
347.218	1836.22
347.865	1784.22
348.511	1822.22
349.15	1849.22
349.797	1839.22
350.443	1830.22
351.082	1902.22
351.728	1870.22
352.368	1838.22
353.014	1847.22
353.66	1806.22
354.299	1824.22
354.946	1847.22
355.585	1817.22
356.231	1835.22
356.878	1843.22
357.517	1818.22
358.163	1805.22
358.802	1845.22
359.449	1819.22
360.088	1746.22
360.734	1808.22
361.373	1783.22
362.02	1802.22
362.659	1810.22
363.305	1815.22
363.944	1811.22
364.591	1854.22
365.23	1762.22
365.876	1793.22
366.516	1751.22
367.162	1796.22
367.801	1756.22
368.44	1778.22
369.087	1731.22
369.726	1752.22
370.365	1722.22
371.011	1778.22
371.651	1774.22
372.29	1720.22
372.936	1725.22
373.575	1791.22
374.215	1746.22
374.861	1772.22
375.5	1793.22
376.139	1787.22
376.786	1727.22
377.425	1728.22
378.064	1740.22
378.71	1768.22
379.35	1712.22
379.989	1757.22
380.628	1724.22
381.274	1699.22
381.914	1729.22
382.553	1694.22
383.192	1745.22
383.831	1714.22
384.477	1693.22
385.117	1702.22
385.756	1755.22
386.395	1752.22
387.034	1692.22
387.674	1736.22
388.313	1746.22
388.952	1722.22
389.598	1668.22
390.237	1738.22
390.877	1779.22
391.516	1737.22
392.155	1729.22
392.794	1732.22
393.434	1719.22
394.073	1750.22
394.712	1695.22
395.351	1691.22
395.99	1677.22
396.63	1693.22
397.269	1718.22
397.908	1724.22
398.547	1688.22
399.186	1657.22
399.826	1654.22
400.465	1697.22
401.104	1684.22
401.743	1717.22
402.383	1682.22
403.022	1676.22
403.661	1688.22
404.3	1685.22
404.939	1634.22
405.572	1689.22
406.211	1660.22
406.85	1661.22
407.489	1691.22
408.128	1701.22
408.768	1714.22
409.407	1601.22
410.039	1651.22
410.678	1683.22
411.317	1644.22
411.957	1684.22
412.589	1663.22
413.228	1639.22
413.867	1634.22
414.506	1664.22
415.146	1666.22
415.778	1642.22
416.417	1684.22
417.056	1660.22
417.695	1686.22
418.327	1622.22
418.967	1682.22
419.599	1592.22
420.238	1635.22
420.877	1669.22
421.509	1640.22
422.148	1682.22
422.788	1687.22
423.427	1645.22
424.059	1639.22
424.698	1691.22
425.33	1605.22
425.97	1643.22
426.609	1621.22
427.241	1710.22
427.88	1623.22
428.512	1616.22
429.151	1687.22
429.784	1636.22
430.423	1602.22
431.055	1654.22
431.694	1633.22
432.326	1621.22
432.965	1580.22
433.605	1614.22
434.237	1602.22
434.869	1623.22
435.508	1623.22
436.14	1620.22
436.779	1576.22
437.412	1585.22
438.051	1647.22
438.683	1643.22
439.315	1601.22
439.954	1602.22
440.586	1631.22
441.226	1607.22
441.858	1607.22
442.49	1591.22
443.129	1585.22
443.761	1603.22
444.393	1675.22
445.032	1628.22
445.665	1582.22
446.297	1645.22
446.936	1642.22
447.568	1650.22
448.2	1615.22
448.832	1628.22
449.471	1612.22
450.103	1639.22
450.736	1621.22
451.368	1642.22
452.007	1644.22
452.639	1653.22
453.271	1558.22
453.903	1642.22
454.542	1576.22
455.175	1586.22
455.807	1608.22
456.439	1566.22
457.071	1604.22
457.703	1632.22
458.342	1663.59
458.974	1625.09
459.607	1674.72
460.239	1598.34
460.871	1594.09
461.503	1603.34
462.135	1586.97
462.767	1638.72
463.399	1576.59
464.031	1632.47
464.671	1665.59
465.303	1618.72
465.935	1599.09
466.567	1604.97
467.192	1574.97
467.824	1607.09
468.463	1574.09
469.095	1620.47
469.727	1632.97
470.359	1663.22
470.992	1640.09
471.617	1646.22
472.249	1631.22
472.881	1631.59
473.513	1583.47
474.145	1636.09
474.777	1586.84
475.409	1671.47
476.041	1597.59
476.674	1598.09
477.306	1566.97
477.931	1611.22
478.563	1629.72
479.195	1567.22
479.827	1611.59
480.459	1627.47
481.091	1629.22
481.716	1593.47
482.348	1607.22
482.98	1638.34
483.613	1612.09
484.245	1596.59
484.87	1605.84
485.502	1587.84
486.134	1627.84
486.766	1575.47
487.391	1614.91
488.023	1682.97
488.655	1615.59
489.287	1618.47
489.912	1629.59
490.544	1592.09
491.169	1612.34
491.802	1628.34
492.434	1585.59
493.066	1599.34
493.691	1618.59
494.323	1640.34
494.948	1645.34
495.58	1627.09
496.212	1641.22
496.837	1588.34
497.469	1643.72
498.101	1622.47
498.726	1616.22
499.359	1669.97
499.984	1618.97
500.616	1610.97
501.241	1612.72
501.873	1634.34
502.498	1621.72
503.13	1640.34
503.755	1639.72
504.387	1656.97
505.012	1690.34
505.644	1696.97
506.269	1640.84
506.901	1652.97
507.526	1657.72
508.151	1695.72
508.783	1671.34
509.416	1706.97
510.041	1678.59
510.666	1665.34
511.291	1708.72
511.923	1710.09
512.548	1615.22
513.18	1694.09
513.805	1720.59
514.43	1738.09
515.062	1740.09
515.687	1755.22
516.319	1769.09
516.944	1761.09
517.569	1785.84
518.194	1788.47
518.826	1817.22
519.451	1844.59
520.076	1811.97
520.708	1851.84
521.333	1782.34
521.958	1892.47
522.583	1877.09
523.215	1899.97
523.84	1921.47
524.465	1890.22
525.09	1985.22
525.716	1939.72
526.341	1939.59
526.973	1945.97
527.598	1996.97
528.223	1976.09
528.848	2005.34
529.473	2023.59
530.098	2050.59
530.73	2062.47
531.348	2043.47
531.98	2068.72
532.605	2113.34
533.23	2097.97
533.855	2135.59
534.48	2174.84
535.105	2143.84
535.73	2188.59
536.355	2164.84
536.98	2197.34
537.605	2229.47
538.23	2208.59
538.855	2207.84
539.48	2264.47
540.105	2199.84
540.73	2215.97
541.355	2267.09
541.98	2280.97
542.605	2285.84
543.23	2314.59
543.855	2296.59
544.48	2298.97
545.105	2338.22
545.73	2309.97
546.355	2318.97
546.98	2282.34
547.605	2314.09
548.223	2305.09
548.848	2331.34
549.473	2333.09
550.098	2326.34
550.723	2340.47
551.348	2355.09
551.966	2333.84
552.591	2327.72
553.216	2358.72
553.841	2357.84
554.459	2337.72
555.084	2321.97
555.709	2295.59
556.334	2337.34
556.952	2376.84
557.577	2310.47
558.202	2295.22
558.827	2321.34
559.445	2293.22
560.07	2299.09
560.695	2301.09
561.32	2305.47
561.938	2304.59
562.563	2307.84
563.188	2250.97
563.806	2260.97
564.431	2249.09
565.056	2289.47
565.674	2265.97
566.299	2275.72
566.916	2239.72
567.541	2211.84
568.166	2210.84
568.784	2272.84
569.409	2221.72
570.027	2221.22
570.652	2216.84
571.277	2177.09
571.895	2201.47
572.52	2202.22
573.138	2192.97
573.763	2207.47
574.381	2149.72
575.006	2164.72
575.624	2152.22
576.249	2144.47
576.867	2117.34
577.492	2102.84
578.11	2075.22
578.728	2130.59
579.353	2083.34
579.971	2071.47
580.596	2071.09
581.214	2025.22
581.831	1999.34
582.456	2042.72
583.074	2011.97
583.699	2023.22
584.317	1998.72
584.935	2017.47
585.56	2005.34
586.178	1997.09
586.803	1981.47
587.421	1944.97
588.039	1949.84
588.657	1950.72
589.282	1893.34
589.9	1981.97
590.518	1925.34
591.143	1900.72
591.761	1897.34
592.378	1887.47
592.996	1874.72
593.614	1849.84
594.239	1874.97
594.857	1866.09
595.475	1868.34
596.093	1851.84
596.711	1857.34
597.336	1814.97
597.954	1810.97
598.572	1837.97
599.19	1807.09
599.808	1788.72
600.425	1759.84
601.05	1745.34
601.668	1752.72
602.286	1729.59
602.904	1781.34
603.522	1752.72
604.14	1735.59
604.758	1722.34
605.376	1674.72
605.994	1702.72
606.612	1735.72
607.23	1728.47
607.847	1719.34
608.465	1686.97
609.083	1657.47
609.701	1691.22
610.319	1655.09
610.937	1635.97
611.555	1663.22
612.173	1661.97
612.791	1668.72
613.409	1625.97
614.027	1646.22
614.644	1640.97
615.262	1639.09
615.88	1594.84
616.498	1609.97
617.116	1615.09
617.734	1592.22
618.352	1607.09
618.963	1602.72
619.581	1602.09
620.199	1575.59
620.816	1542.59
621.434	1569.09
622.052	1583.97
622.67	1489.72
623.281	1534.09
623.899	1569.59
624.517	1611.59
625.135	1546.34
625.745	1508.59
626.363	1548.09
626.981	1504.22
627.599	1493.09
628.217	1518.84
628.828	1488.72
629.446	1523.72
630.064	1453.47
630.675	1450.47
631.292	1537.72
631.91	1496.72
632.521	1464.97
633.139	1464.09
633.757	1486.84
634.375	1462.72
634.986	1500.34
635.604	1461.59
636.221	1489.59
636.832	1453.22
637.45	1444.22
638.061	1437.84
638.679	1454.22
639.297	1473.34
639.908	1433.84
640.526	1503.84
641.136	1456.84
641.754	1440.34
642.365	1408.84
642.983	1399.22
643.594	1462.97
644.212	1423.84
644.823	1474.22
645.44	1431.22
646.051	1459.09
646.669	1425.72
647.28	1412.47
647.898	1475.22
648.509	1451.47
649.127	1459.34
649.737	1408.47
650.355	1423.59
650.966	1433.72
651.435	1424.72
652.06	1451.72
652.678	1402.72
653.303	1450.72
653.921	1391.72
654.546	1440.72
655.164	1445.72
655.789	1465.72
656.406	1459.72
657.024	1456.72
657.649	1454.72
658.267	1450.72
658.892	1511.72
659.51	1497.72
660.128	1440.72
660.753	1486.72
661.371	1498.72
661.996	1522.72
662.614	1490.72
663.232	1522.72
663.857	1497.72
664.475	1564.72
665.093	1536.72
665.711	1554.72
666.336	1549.72
666.954	1517.72
667.579	1595.72
668.196	1603.72
668.814	1601.72
669.432	1616.72
670.057	1634.72
670.675	1610.72
671.293	1582.72
671.911	1616.72
672.529	1669.72
673.154	1695.72
673.772	1678.72
674.39	1703.72
675.008	1704.72
675.633	1698.72
676.251	1723.72
676.868	1761.72
677.486	1783.72
678.104	1738.72
678.722	1777.72
679.34	1805.72
679.958	1778.72
680.576	1817.72
681.201	1829.72
681.819	1848.72
682.437	1806.72
683.055	1951.72
683.673	1936.72
684.29	1928.72
684.908	1936.72
685.526	1946.72
686.144	2018.72
686.762	1975.72
687.38	2057.84
687.998	2056.84
688.616	2042.72
689.234	2119.84
689.852	2040.72
690.47	2110.84
691.087	2138.84
691.705	2198.84
692.323	2142.84
692.941	2155.84
693.559	2162.84
694.177	2188.84
694.795	2225.84
695.413	2230.84
696.031	2310.84
696.649	2245.84
697.259	2306.84
697.877	2379.84
698.495	2290.84
699.113	2379.84
699.731	2408.84
700.349	2324.84
700.96	2380.84
701.578	2399.84
702.196	2414.84
702.813	2506.84
703.424	2399.84
704.042	2498.84
704.66	2477.84
705.278	2498.84
705.896	2525.84
706.507	2540.84
707.125	2562.84
707.742	2615.84
708.36	2582.84
708.978	2693.84
709.589	2676.84
710.207	2756.84
710.825	2601.84
711.436	2654.84
712.054	2676.84
712.672	2688.84
713.282	2719.84
713.9	2790.84
714.511	2786.84
715.129	2731.84
715.747	2765.84
716.358	2842.84
716.976	2709.84
717.594	2732.84
718.204	2805.84
718.822	2891.84
719.433	2812.84
720.051	2815.84
720.662	2823.84
721.28	2891.84
721.891	2891.84
722.508	2887.84
723.119	3045.84
723.737	2907.84
724.348	2992.84
724.966	3017.84
725.577	3022.84
726.195	2974.84
726.805	2960.84
727.423	3118.84
728.034	3034.84
728.652	2977.84
729.263	3030.84
729.881	3085.84
730.491	3027.84
731.102	3055.84
731.72	3087.84
732.331	3088.84
732.949	3043.84
733.56	3031.84
734.17	3011.84
734.788	2987.84
735.399	3027.84
736.01	3205.84
736.628	3090.84
737.239	3161.84
737.85	3123.84
738.467	3121.84
739.078	3063.84
739.689	3191.84
740.307	3141.84
740.918	3138.84
741.529	3113.84
742.139	3116.84
742.757	3217.84
743.368	3198.84
743.979	3146.84
744.59	3225.84
745.208	3149.84
745.818	3175.84
746.429	3162.84
747.04	3198.84
747.651	3117.84
748.269	3218.84
748.88	3183.84
749.49	3194.84
750.101	3172.59
750.712	3206.84
751.323	3145.84
751.941	3092.84
752.551	3176.84
753.162	3199.84
753.773	3156.84
754.384	3186.84
754.995	3173.84
755.605	3168.84
756.216	3155.84
756.827	3125.84
757.438	3151.84
758.049	3166.84
758.66	3172.84
759.27	3156.09
759.881	3161.84
760.492	3195.84
761.103	3217.84
761.714	3150.91
762.324	3206.84
762.935	3198.84
763.546	3097.84
764.157	3182.84
764.768	3124.03
765.378	3164.84
765.989	3071.84
766.6	3115.84
767.211	3143.84
767.822	3076.84
768.432	3002.84
769.043	3121.84
769.647	3082.84
770.258	3049.84
770.869	3119.84
771.479	3083.84
772.09	3017.84
772.701	2978.84
773.305	3053.84
773.915	3042.84
774.526	2980.84
775.137	2954.84
775.748	3042.84
776.352	2944.84
776.962	2976.84
777.573	2940.84
778.184	2868.84
778.795	2941.84
779.398	2920.84
780.009	2954.84
780.62	2877.84
781.224	2873.84
781.835	2861.84
782.445	2859.84
783.049	2761.84
783.66	2831.84
784.271	2817.84
784.882	2790.84
785.485	2774.84
786.096	2777.84
786.707	2713.84
787.311	2791.84
787.921	2744.84
788.525	2777.84
789.136	2727.84
789.74	2689.84
790.35	2655.84
790.961	2655.84
791.565	2638.84
792.176	2600.84
792.786	2551.84
793.39	2619.84
794.001	2572.84
794.605	2543.84
795.216	2518.84
795.819	2445.84
796.43	2525.84
797.034	2435.84
797.645	2514.84
798.248	2481.84
798.859	2469.84
799.463	2426.84
800.074	2426.84
800.677	2415.84
801.281	2338.84
801.892	2400.84
802.495	2349.84
803.106	2293.84
803.71	2278.84
804.321	2225.84
804.924	2265.84
805.528	2246.84
806.139	2276.84
806.743	2208.84
807.346	2192.84
807.957	2185.84
808.561	2192.84
809.165	2223.84
809.775	2167.84
810.379	2204.84
810.983	2172.84
811.586	2207.84
812.197	2158.84
812.801	2113.84
813.405	2045.72
814.016	2050.84
814.619	2110.84
815.223	2003.72
815.827	2069.84
816.437	1983.72
817.041	1996.72
817.645	1931.72
818.249	1922.72
818.859	1965.72
819.463	1899.72
820.067	1914.72
820.67	1831.72
821.274	1870.72
821.878	1823.72
822.489	1871.72
823.092	1876.72
823.696	1799.72
824.3	1814.72
824.903	1778.72
825.507	1762.72
826.111	1778.72
826.715	1817.72
827.318	1745.72
827.922	1805.72
828.526	1761.72
829.136	1731.72
829.74	1693.72
830.344	1654.72
830.948	1750.72
831.551	1735.72
832.155	1639.72
832.759	1667.72
833.362	1615.72
833.966	1620.72
834.563	1616.72
835.166	1655.59
835.777	1611.59
836.381	1534.84
836.985	1587.97
837.581	1547.09
838.185	1550.84
838.789	1546.34
839.392	1506.34
839.996	1495.47
840.6	1474.59
841.203	1465.72
841.807	1478.97
842.411	1513.59
843.015	1413.47
843.611	1431.34
844.215	1397.47
844.819	1384.97
845.422	1335.47
846.026	1366.09
846.623	1374.22
847.226	1385.59
847.83	1370.97
848.434	1335.47
849.037	1315.84
849.634	1315.59
850.238	1318.84
850.841	1376.34
851.445	1282.22
852.042	1275.22
852.645	1265.09
853.249	1304.22
853.846	1251.97
854.449	1242.22
855.053	1230.59
855.65	1231.84
856.253	1160.97
856.857	1207.47
857.461	1208.22
858.057	1216.72
858.661	1193.59
859.258	1193.34
859.861	1165.59
860.465	1159.84
861.062	1124.22
861.665	1077.84
862.269	1123.22
862.866	1115.84
863.469	1100.34
864.066	1094.34
864.67	1105.09
865.273	1059.09
865.87	1069.22
866.467	1070.84
867.07	1054.34
867.674	1037.09
868.271	1042.84
868.867	1053.09
869.471	1046.22
870.075	1053.22
870.671	1016.09
871.268	997.967
871.872	973.092
872.468	963.967
873.072	1045.34
873.668	1077.84
874.272	982.092
874.869	976.03
875.465	966.655
876.069	955.592
876.666	913.592
877.269	926.592
877.866	950.717
878.463	930.592
879.066	915.092
879.663	884.967
880.259	887.467
880.863	897.467
881.46	878.842
882.056	851.092
882.66	828.217
883.257	855.842
883.853	860.592
884.457	835.217
885.054	831.467
885.65	837.592
886.247	841.092
886.85	811.342
887.447	840.967
888.044	848.53
888.64	883.967
889.244	821.655
889.841	819.905
890.437	813.905
891.034	868.967
891.63	769.467
892.227	784.592
892.831	761.467
893.427	788.592
894.024	805.842
894.62	847.28
895.217	807.092
895.814	743.842
896.417	742.467
897.014	733.717
897.611	742.967
898.207	727.092
898.804	777.217
899.4	782.03
899.997	709.092
900.594	713.092
901.19	738.092
901.787	748.967
902.383	711.592
902.98	710.592
903.577	688.092
904.173	697.967
904.77	713.967
905.366	720.155
905.963	689.467
906.56	679.467
907.156	680.592
907.753	667.092
908.349	680.717
908.946	685.342
909.543	684.467
910.139	698.092
910.736	681.342
911.332	688.217
911.929	702.217
912.526	692.967
913.122	666.217
913.712	658.717
914.308	661.967
914.905	637.717
915.501	671.092
916.098	654.842
916.695	658.967
917.284	660.592
917.881	644.967
918.477	663.467
919.074	627.342
919.671	649.467
920.26	644.717
920.857	646.842
921.453	631.717
922.05	640.092
922.646	635.592
923.236	640.717
923.833	631.592
924.429	665.592
925.019	630.467
925.615	610.217
926.212	626.842
926.808	641.53
927.398	631.155
927.995	630.217
928.591	626.092
929.181	640.03
929.777	624.03
930.374	674.155
930.963	628.78
931.56	604.342
932.149	618.092
932.746	610.092
933.343	606.217
933.932	596.967
934.529	589.467
935.118	607.967
935.715	623.717
936.311	596.967
936.901	580.342
937.498	601.592
938.087	595.717
938.684	603.717
939.273	593.467
939.87	576.592
940.459	590.467
941.056	615.592
941.645	595.092
942.242	600.217
942.831	572.467
943.428	591.842
944.018	583.092
944.607	586.092
945.204	564.842
945.793	609.092
946.39	580.217
946.979	576.342
947.576	589.342
948.165	587.467
948.755	587.342
949.351	565.342
949.941	601.467
950.538	588.405
951.127	586.342
951.717	570.967
952.313	589.967
952.903	566.467
953.492	571.842
954.089	584.342
954.678	589.967
955.268	575.717
955.864	590.717
956.454	607.53
957.043	606.155
957.633	570.717
958.229	557.592
958.819	584.217
959.408	570.842
959.998	565.092
960.595	546.717
961.184	558.717
961.774	557.592
962.363	565.092
962.953	560.092
963.542	546.592
964.139	564.592
964.728	558.592
965.318	563.092
965.907	546.467
966.497	568.842
967.086	539.342
967.683	546.342
968.272	537.592
968.862	546.592
969.451	551.717
970.041	552.717
970.63	564.217
971.22	544.967
971.809	545.842
972.399	536.092
972.988	545.592
973.585	535.467
974.167	545.967
974.764	538.467
975.353	545.592
975.943	537.592
976.532	541.405
977.122	577.717
977.711	551.217
978.294	539.842
978.89	535.592
979.473	539.467
980.062	534.717
980.652	555.092
981.241	536.717
981.831	537.967
982.42	536.842
983.01	520.342
983.599	533.842
984.189	524.717
984.778	523.217
985.368	520.717
985.95	528.217
986.54	532.842
987.129	527.092
987.719	538.342
988.308	527.842
988.898	529.092
989.487	502.592
990.069	518.217
990.659	532.592
991.248	527.467
991.838	519.717
992.427	534.092
993.01	513.717
993.599	524.342
994.189	497.592
994.778	518.842
995.361	529.217
995.95	511.717
996.54	504.217
997.122	514.342
997.712	509.842
998.301	491.467
998.891	511.217
999.473	523.217
1000.06	511.967
1000.65	508.342
1001.23	502.717
1001.82	512.467
1002.41	523.342
1003	506.717
1003.59	519.092
1004.17	486.342
1004.76	500.967
1005.35	508.342
1005.93	503.717
1006.52	510.092
1007.1	494.967
1007.69	503.592
1008.28	504.842
1008.86	499.967
1009.45	494.092
1010.03	498.217
1010.62	501.967
1011.21	490.592
1011.8	500.842
1012.38	498.967
1012.97	529.592
1013.55	504.092
1014.14	500.03
1014.72	483.967
1015.31	491.217
1015.89	467.342
1016.48	488.467
1017.07	478.217
1017.65	498.467
1018.24	489.342
1018.82	468.217
1019.41	486.342
1019.99	488.592
1020.57	481.592
1021.16	482.342
1021.75	502.592
1022.34	486.467
1022.92	489.842
1023.5	488.217
1024.09	485.092
1024.67	500.217
1025.25	501.842
1025.84	497.842
1026.43	512.467
1027.01	502.967
1027.6	466.342
1028.18	481.592
1028.76	517.467
1029.35	499.217
1029.94	494.967
1030.52	460.217
1031.1	489.342
1031.68	469.467
1032.26	458.342
1032.85	471.342
1033.44	470.217
1034.02	469.092
1034.6	477.092
1035.19	474.967
1035.77	462.717
1036.36	458.092
1036.94	447.092
1037.52	460.092
1038.1	460.342
1038.69	447.467
1039.27	432.217
1039.86	463.467
1040.44	441.217
1041.02	470.342
1041.6	448.592
1042.19	466.717
1042.77	466.967
1043.35	443.842
1043.93	439.092
1044.52	475.592
1045.1	463.467
1045.68	473.717
1046.27	432.217
1046.85	443.717
1047.43	462.842
1048.01	461.842
1048.6	441.217
1049.18	446.467
1049.76	467.717
1050.34	458.717
1050.93	437.842
1051.51	434.592
1052.09	443.967
1052.67	444.342
1053.25	457.342
1053.83	458.717
1054.42	451.092
1055	457.967
1055.58	457.717
1056.16	470.467
1056.75	428.717
1057.33	428.842
1057.9	464.467
1058.49	457.717
1059.07	449.217
1059.65	419.842
1060.23	419.342
1060.82	422.592
1061.39	430.717
1061.97	445.967
1062.56	464.842
1063.14	448.842
1063.72	441.842
1064.3	410.592
1064.88	442.967
1065.46	435.592
1066.04	446.967
1066.62	444.342
1067.2	413.842
1067.78	436.967
1068.37	432.78
1068.94	434.28
1069.52	432.03
1070.11	418.967
1070.68	442.467
1071.26	405.717
1071.85	426.092
1072.43	428.842
1073	438.092
1073.59	413.092
1074.16	410.717
1074.74	459.342
1075.33	418.467
1075.9	407.967
1076.48	404.342
1077.07	429.717
1077.64	415.217
1078.22	421.967
1078.8	431.967
1079.38	452.217
1079.96	431.717
1080.54	419.467
1080.79	413.467
1081.38	420.467
1081.97	422.467
1082.55	468.717
1083.13	440.967
1083.72	480.217
1084.3	403.467
1084.89	418.467
1085.48	430.467
1086.07	391.467
1086.65	409.467
1087.24	479.53
1087.82	479.467
1088.41	433.467
1088.99	393.467
1089.58	412.467
1090.16	417.467
1090.75	423.467
1091.34	432.467
1091.92	410.467
1092.5	418.467
1093.09	440.467
1093.67	399.467
1094.25	404.467
1094.84	437.467
1095.43	404.467
1096.01	406.467
1096.6	421.467
1097.18	428.467
1097.76	419.467
1098.35	408.467
1098.93	417.467
1099.52	422.467
1100.1	407.467
1100.69	415.467
1101.27	426.467
1101.85	439.467
1102.44	425.467
1103.03	403.467
1103.61	408.467
1104.19	417.467
1104.77	405.467
1105.36	419.467
1105.94	435.467
1106.52	446.467
1107.11	439.467
1107.69	410.467
1108.27	434.467
1108.86	438.467
1109.44	393.467
1110.02	409.467
1110.61	399.467
1111.19	450.155
1111.78	448.155
1112.36	436.467
1112.94	421.467
1113.52	462.405
1114.11	456.342
1114.69	433.467
1115.27	414.467
1115.85	426.467
1116.44	414.467
1117.02	407.467
1117.6	411.467
1118.18	411.467
1118.76	401.467
1119.35	405.467
1119.93	429.467
1120.51	422.467
1121.09	413.467
1121.68	417.467
1122.26	451.467
1122.84	429.467
1123.42	452.467
1124.01	411.467
1124.59	433.467
1125.17	409.467
1125.75	418.467
1126.34	437.467
1126.91	421.717
1127.5	430.342
1128.08	411.467
1128.66	426.467
1129.24	411.467
1129.82	402.467
1130.41	410.467
1130.99	447.467
1131.56	395.467
1132.15	431.467
1132.73	413.467
1133.31	417.467
1133.89	413.467
1134.47	410.467
1135.05	435.467
1135.63	407.467
1136.22	392.467
1136.8	395.467
1137.37	409.467
1137.96	428.467
1138.54	415.467
1139.11	421.467
1139.7	410.467
1140.28	434.467
1140.85	399.467
1141.44	423.467
1142.02	415.467
1142.59	420.467
1143.18	439.467
1143.76	432.467
1144.33	399.467
1144.92	398.467
1145.5	412.467
1146.07	413.467
1146.66	398.467
1147.24	415.467
1147.81	406.467
1148.4	409.467
1148.98	407.467
1149.55	402.467
1150.14	425.467
1150.71	425.467
1151.29	425.467
1151.87	414.467
1152.45	393.467
1153.03	396.467
1153.61	390.467
1154.18	401.467
1154.77	443.467
1155.35	396.467
1155.92	402.467
1156.5	403.467
1157.08	432.467
1157.66	416.467
1158.24	415.467
1158.82	408.467
1159.4	397.467
1159.97	381.467
1160.56	435.467
1161.13	413.03
1161.71	414.78
1162.29	402.467
1162.86	413.467
1163.45	395.467
1164.02	418.467
1164.6	404.467
1165.18	403.467
1165.75	421.467
1166.33	406.467
1166.91	399.467
1167.49	402.467
1168.06	431.467
1168.64	418.467
1169.22	421.467
1169.8	390.467
1170.38	411.467
1170.95	409.467
1171.53	425.467
1172.11	402.467
1172.69	379.467
1173.26	420.467
1173.84	407.467
1174.42	414.467
1174.99	377.467
1175.57	384.467
1176.14	385.467
1176.72	403.467
1177.3	416.467
1177.88	411.467
1178.45	398.467
1179.03	401.467
1179.6	401.467
1180.19	405.467
1180.76	400.467
1181.34	404.467
1181.91	419.467
1182.49	385.467
1183.06	408.467
1183.64	435.467
1184.21	415.467
1184.79	399.467
1185.37	411.467
1185.95	392.467
1186.52	390.467
1187.1	432.467
1187.67	417.467
1188.25	392.467
1188.82	401.467
1189.4	402.467
1189.97	432.467
1190.55	429.467
1191.12	403.467
1191.7	408.467
1192.27	410.467
1192.85	400.467
1193.42	410.467
1194	425.467
1194.58	402.467
1195.15	407.467
1195.73	418.467
1196.3	419.78
1196.88	434.905
1197.45	406.467
1198.03	387.467
1198.6	402.467
1199.17	401.467
1199.75	420.467
1200.32	416.467
1200.9	389.467
1201.47	420.467
1202.05	400.467
1202.62	422.467
1203.2	401.467
1203.77	389.467
1204.34	411.467
1204.92	408.467
1205.49	441.78
1206.07	426.342
1206.64	454.467
1207.21	415.467
1207.79	422.842
1208.36	420.467
1208.94	410.467
1209.5	426.467
1210.08	407.467
1210.66	402.467
1211.23	416.467
1211.8	410.467
1212.37	397.467
1212.95	364.467
1213.52	418.467
1214.09	369.467
1214.67	388.467
1215.24	410.467
1215.81	415.467
1216.39	398.467
1216.96	387.467
1217.53	431.467
1218.11	398.467
1218.67	383.467
1219.25	416.467
1219.82	394.467
1220.39	402.467
1220.97	435.467
1221.54	424.467
1222.11	411.467
1222.69	432.467
1223.26	409.467
1223.83	399.467
1224.4	365.467
1224.97	405.467
1225.54	415.467
1226.12	383.467
1226.69	399.467
1227.26	408.467
1227.84	391.467
1228.4	388.467
1228.98	377.467
1229.55	366.467
1230.12	402.467
1230.69	374.467
1231.26	369.467
1231.83	398.467
1232.4	395.467
1232.98	364.467
1233.55	382.467
1234.12	393.467
1234.69	403.467
1235.27	400.467
1235.83	390.467
1236.4	386.467
1236.98	367.467
1237.54	405.467
1238.11	389.467
1238.69	418.467
1239.26	393.467
1239.82	396.467
1240.4	395.467
1240.97	393.467
1241.54	395.467
1242.11	421.467
1242.68	405.467
1243.25	391.467
1243.82	385.467
1244.39	398.467
1244.96	419.467
1245.53	399.467
1246.1	426.467
1246.67	398.467
1247.24	396.467
1247.81	422.467
1248.38	385.467
1248.95	418.467
1249.52	409.78
1250.09	408.78
1250.66	403.467
1251.22	410.467
1251.8	383.467
1252.37	400.467
1252.94	398.467
1253.5	369.467
1254.07	408.467
1254.64	404.967
1255.21	404.905
1255.78	402.905
1256.35	387.467
1256.92	419.467
1257.49	399.467
1258.06	404.467
1258.62	403.467
1259.19	383.467
1259.76	385.467
1260.33	379.467
1260.9	415.467
1261.47	377.467
1262.04	388.467
1262.61	373.467
1263.18	373.467
1263.75	387.467
1264.31	390.467
1264.88	374.467
1265.45	372.467
1266.02	387.467
1266.59	379.467
1267.15	389.467
1267.72	390.467
1268.28	385.467
1268.85	401.467
1269.42	372.467
1269.99	371.467
1270.56	397.467
1271.12	375.467
1271.69	379.467
1272.26	375.467
1272.83	376.467
1273.4	394.467
1273.97	383.467
1274.53	398.467
1275.1	373.467
1275.66	371.467
1276.23	400.467
1276.8	380.467
1277.37	390.467
1277.93	412.467
1278.5	382.467
1279.07	380.467
1279.63	383.467
1280.2	383.467
1280.76	375.467
1281.33	395.467
1281.9	358.467
1282.47	372.467
1283.03	377.467
1283.6	380.467
1284.17	398.467
1284.73	382.467
1285.29	404.467
1285.86	401.467
1286.43	392.467
1286.99	388.467
1287.56	393.467
1288.13	391.78
1288.7	388.842
1289.26	364.467
1289.83	380.467
1290.39	374.467
1290.95	364.467
1291.52	373.467
1292.08	415.467
1292.65	400.467
1293.22	363.467
1293.78	417.467
1294.35	383.467
1294.91	385.467
1295.48	365.467
1296.05	386.467
1296.61	408.467
1297.17	367.467
1297.74	367.467
1298.31	381.467
1298.87	399.467
1299.44	359.467
1300	358.467
1300.56	371.467
1301.13	378.467
1301.69	378.467
1302.25	393.467
1302.82	391.467
1303.38	364.467
1303.95	386.467
1304.51	374.467
1305.08	399.467
1305.64	390.467
1306.2	384.467
1306.77	397.467
1307.33	399.467
1307.9	393.467
1308.46	383.467
1309.02	376.467
1309.59	392.467
1310.15	396.467
1310.72	369.467
1311.28	393.467
1311.84	387.467
1312.41	366.467
1312.97	372.467
1313.53	409.467
1314.1	388.467
1314.66	397.467
1315.22	383.467
1315.78	402.467
1316.35	376.467
1316.91	397.467
1317.48	383.467
1318.04	372.467
1318.6	367.467
1319.17	386.467
1319.73	385.467
1320.29	397.467
1320.86	391.467
1321.42	425.467
1321.98	385.467
1322.54	392.467
1323.11	377.467
1323.67	386.467
1324.23	359.467
1324.79	387.467
1325.35	358.467
1325.91	376.467
1326.48	373.467
1327.04	345.467
1327.6	369.467
1328.16	377.467
1328.73	412.78
1329.29	377.467
1329.85	362.467
1330.41	388.467
1330.98	376.467
1331.54	367.467
1332.1	376.467
1332.66	361.467
1333.22	383.467
1333.78	399.28
1334.34	419.717
1334.9	373.467
1335.47	387.467
1336.03	386.467
1336.59	380.467
1337.15	387.467
1337.71	363.467
1338.27	354.467
1338.83	375.467
1339.39	364.467
1339.95	357.467
1340.52	406.155
1341.08	372.217
1341.64	372.467
1342.2	375.467
1342.76	360.467
1343.31	375.467
1343.87	363.467
1344.44	364.467
1345	356.467
1345.56	360.467
1346.12	363.467
1346.68	355.467
1347.24	369.467
1347.8	347.467
1348.36	367.467
1348.92	377.467
1349.48	351.467
1350.04	373.467
1350.6	353.467
1351.16	359.467
1351.72	359.467
1352.28	359.467
1352.84	359.467
1353.4	363.467
1353.96	369.467
1354.51	338.467
1355.08	368.467
1355.64	372.467
1356.19	341.467
1356.75	367.467
1357.31	371.467
1357.87	359.467
1358.43	336.467
1358.99	348.467
1359.55	341.467
1360.1	340.467
1360.66	361.467
1361.23	352.467
1361.78	343.467
1362.34	349.467
1362.9	352.467
1363.46	350.467
1364.02	344.467
1364.58	346.592
1365.13	344.155
1365.69	337.467
1366.25	345.467
1366.81	311.467
1367.37	339.467
1367.92	331.467
1368.48	330.467
1369.04	343.467
1369.6	348.467
1370.15	341.467
1370.71	324.467
1371.28	343.467
1371.83	340.467
1372.39	309.467
1372.94	356.467
1373.51	345.467
1374.06	356.467
1374.62	334.467
1375.17	347.467
1375.73	353.467
1376.29	337.467
1376.84	319.467
1377.41	345.467
1377.96	345.467
1378.52	334.467
1379.07	347.467
1379.64	338.467
1380.19	327.467
1380.74	329.467
1381.3	335.467
1381.86	335.467
1382.42	335.467
1382.97	347.467
1383.53	325.467
1384.09	323.467
1384.64	333.467
1385.2	327.467
1385.76	325.467
1386.31	309.467
1386.87	327.467
1387.43	339.467
1387.98	312.467
1388.53	321.467
1389.09	331.467
1389.65	336.467
1390.2	297.467
1390.76	345.467
1391.32	304.467
1391.87	342.467
1392.43	331.467
1392.98	324.467
1393.54	319.467
1394.1	310.467
1394.65	315.467
1395.2	313.467
1395.76	310.467
1396.32	317.467
1396.87	330.467
1397.43	313.467
1397.98	322.467
1398.53	342.467
1399.09	311.467
1399.64	326.467
1400.2	314.467
1400.76	337.467
1401.31	298.467
1401.87	317.467
1402.42	318.467
1402.97	338.467
1403.53	299.467
1404.08	304.467
1404.64	320.467
1405.19	310.467
1405.74	279.467
1406.3	320.467
1406.86	305.467
1407.41	297.467
1407.97	326.467
1408.52	307.467
1409.07	309.467
1409.63	285.467
1410.18	289.467
1410.73	306.467
1411.29	322.467
1411.84	311.467
1412.39	324.467
1412.95	301.467
1413.5	309.467
1414.05	319.467
1414.61	313.467
1415.16	301.467
1415.72	314.467
1416.27	291.467
1416.82	300.467
1417.38	314.467
1417.93	315.467
1418.49	336.467
1419.03	290.467
1419.59	319.467
1420.14	331.467
1420.69	292.467
1421.25	307.467
1421.8	308.467
1422.36	298.467
1422.9	361.467
1423.46	247.655
1424.01	244.467
1424.56	171.467
1425.11	132.467
1425.67	125.467
1426.22	187.467
1426.77	243.905
1427.33	83.4675
1427.87	-31.5325
1428.44	-34.5325
