34.6581	13605.3
35.3335	13870.3
36.0088	14250.3
36.6841	14664.3
37.3593	15060.3
38.0345	15850.3
38.7096	16181.3
39.3847	16329.3
40.0597	16784.3
40.7347	17079.3
41.4096	17076.3
42.0845	17174.3
42.7594	17280.3
43.4342	17592.3
44.1089	17780.3
44.7836	17884.3
45.4583	18250.3
46.1329	18431.3
46.8075	18598.3
47.482	19005.3
48.1542	19310.3
48.8286	19450.2
49.503	19967.3
50.1773	19809.3
50.8516	20209.3
51.5258	20360.3
52.2	20868.3
52.8719	20824.3
53.5459	21004.3
54.22	21437.3
54.894	21342.3
55.568	21608.3
56.2396	21848.3
56.9134	22062.3
57.5872	22070.3
58.261	22496.3
58.9324	22460.3
59.6061	22623.3
60.2797	23243.3
60.9533	23538.3
61.6246	24092.3
62.2981	24080.3
62.9715	24418.3
63.6449	24145.3
64.3159	24357.3
64.9892	24580.3
65.6625	24671.3
66.3334	24892.3
67.0066	25192.3
67.6774	25161.3
68.3505	25537.3
69.0235	25430.3
69.6942	25828.3
70.3671	25962.3
71.04	25814.3
71.7105	26171.3
72.3833	25918.3
73.0537	26364.3
73.7264	26329.3
74.3968	26436.3
75.0694	26875.3
75.7397	27010.3
76.4122	26914.3
77.0823	27197.3
77.7548	26781.3
78.4248	27180.3
79.0972	27290.3
79.7671	27486.3
80.4394	27556.3
81.1093	27698.3
81.7814	27297.3
82.4512	27445.3
83.1232	27590.3
83.7929	27704.3
84.4649	27809.3
85.1345	28132.3
85.8041	28203.3
86.4759	28093.3
87.1453	27878.3
87.8171	27632.3
88.4864	28270.3
89.1558	27892.3
89.8274	28123.3
90.4966	27902.3
91.1658	28020.3
91.8372	27682.3
92.5063	27869.3
93.1754	27888.3
93.8467	28150.3
94.5156	28336.3
95.1846	28219.3
95.8534	28423.3
96.5246	28393.3
97.1933	27995.3
97.8621	28290.3
98.5308	28268.3
99.2017	28287.3
99.8703	28113.3
100.539	28157.3
101.207	28049.3
101.876	27847.3
102.546	27652.3
103.215	27942.3
103.883	27781.3
104.551	27726.3
105.22	27960.3
105.888	28042.3
106.558	28133.3
107.226	28469.3
107.894	28336.3
108.562	28241.3
109.23	28469.3
109.898	28376.3
110.566	28350.3
111.234	28070.3
111.902	27844.3
112.569	27590.3
113.237	28252.3
113.905	28164.3
114.572	27981.3
115.24	27884.3
115.907	28058.3
116.575	27758.3
117.242	28088.3
117.909	28188.3
118.577	28154.3
119.244	27618.3
119.911	27972.3
120.578	27620.3
121.245	28012.3
121.913	27951.3
122.58	27502.3
123.247	27628.3
123.913	27440.3
124.58	27160.3
125.247	27232.3
125.914	27158.3
126.578	27092.3
127.245	27146.3
127.912	27161.3
128.578	27131.3
129.245	27357.3
129.912	27277.3
130.576	27590.3
131.242	27456.3
131.909	27252.3
132.575	27412.3
133.241	27219.8
133.905	27219.8
134.571	27022
135.237	26989.1
135.904	26956.1
136.567	26956.1
137.233	26956.1
137.899	26956.1
138.563	26956.1
139.229	26956.1
139.895	26989.1
140.56	26758.4
141.224	26758.4
141.89	26692.4
142.555	26692.4
143.219	26692.4
143.884	26692.4
144.547	26692.4
145.213	26692.4
145.878	26692.4
146.541	26692.4
147.207	26670.5
147.872	26648.5
148.535	26213.3
149.2	26470.3
149.863	26564.3
150.528	26680.3
151.191	26353.3
151.856	26156.3
152.519	26105.3
153.184	26126.3
153.846	26135.3
154.511	26174.3
155.173	26052.3
155.838	26042.3
156.501	25998.3
157.165	25726.3
157.828	25463.3
158.492	25822.3
159.154	25476.3
159.819	25551.3
160.481	25556.3
161.143	25692.3
161.807	25497.3
162.469	25413.3
163.134	25669.3
163.795	25524.3
164.457	25808.3
165.121	25623.3
165.783	25705.3
166.445	25577.3
167.109	25265.3
167.771	25360.3
168.432	25423.3
169.096	25227.3
169.757	25190.3
170.419	25237.3
171.08	24990.3
171.744	24998.3
172.405	25052.3
173.067	25113.3
173.728	24973.3
174.391	25148.3
175.052	24782.3
175.713	25046.3
176.375	24667.3
177.036	24777.3
177.699	24813.3
178.36	24909.3
179.021	25019.3
179.681	24918.3
180.342	24824.3
181.003	24477.3
181.666	24587.3
182.326	24456.3
182.987	24594.3
183.648	24755.3
184.308	24418.3
184.969	24213.3
185.629	24454.3
186.289	24260.3
186.95	24216.3
187.61	24083.3
188.27	24488.3
188.93	24373.3
189.593	24136.3
190.253	24233.3
190.913	24134.3
191.573	24209.3
192.233	24207.3
192.891	24246.3
193.55	24205.3
194.21	23835.3
194.87	24106.3
195.53	23932.3
196.189	23898.3
196.849	24157.3
197.509	24269.3
198.168	23902.3
198.828	23750.3
199.487	23818.3
200.147	23810.3
200.806	23893.3
201.463	23926.3
202.122	23664.3
202.782	23672.3
203.441	23467.3
204.1	23570.3
204.759	23307.3
205.416	23389.3
206.075	23560.3
206.734	23342.3
207.393	23403.3
208.052	23524.3
208.708	23504.3
209.367	23348.3
210.026	23291.3
210.684	23499.3
211.341	23436.3
211.999	23552.3
212.658	23120.3
213.314	23221.3
213.973	23362.3
214.631	23475.3
215.29	23358.3
215.946	23477.3
216.604	23382.3
217.26	23108.3
217.918	23084.3
218.576	23358.3
219.232	23213.3
219.89	23203.3
220.548	23210.3
221.204	22695.3
221.862	22806.3
222.518	22678.3
223.175	22453.3
223.831	22716.3
224.489	22888.3
225.146	23061.3
225.802	22761.3
226.459	22707.3
227.115	22844.3
227.772	22778.3
228.427	22908.3
229.085	22732.3
229.74	23074.3
230.397	22764.3
231.052	22682.3
231.707	22425.3
232.365	22494.3
233.02	22597.3
233.677	22692.3
234.332	22951.3
234.989	22820.3
235.643	22664.3
236.298	22412.3
236.955	22744.3
237.61	22212.3
238.264	22476.3
238.921	22569.3
239.575	22443.3
240.23	22508.3
240.886	22429.3
241.541	22100.3
242.195	22365.3
242.851	22224.3
243.506	22309.3
244.16	22300.3
244.816	22337.3
245.47	22098.3
246.124	21991.3
246.778	21892.3
247.434	21932.3
248.088	22055.3
248.742	22184.3
249.396	22154.3
250.05	21813.3
250.706	21650.3
251.359	21670.3
252.013	21828.3
252.667	22021.3
253.32	21946.3
253.974	22176.3
254.629	21934.3
255.283	21903.3
255.936	21849.3
256.589	21930.3
257.243	21766.3
257.896	21996.3
258.549	21935.3
259.202	21824.3
259.855	21729.3
260.508	21646.3
261.161	21610.3
261.814	21678.3
262.467	21844.3
263.12	21773.3
263.773	21604.3
264.426	21736.3
265.078	21685.3
265.731	21959.3
266.384	21864.3
267.036	21950.3
267.689	21715.3
268.341	21648.3
268.994	21564.3
269.646	21231.3
270.299	21561.3
270.951	21409.3
271.603	21540.3
272.255	21417.3
272.908	21742.3
273.558	21349.3
274.21	21220.3
274.862	21342.3
275.514	21322.3
276.166	21406.3
276.818	21377.3
277.467	21381.3
278.119	21504.3
278.771	21365.3
279.423	21198.3
280.074	21389.3
280.724	21484.3
281.375	21264.3
282.027	21282.3
282.679	21196.3
283.328	21198.3
283.979	21214.3
284.631	21197.3
285.28	21419.3
285.931	21321.3
286.582	21112.3
287.234	21172.3
287.883	21194.3
288.534	21065.3
289.185	20964.3
289.834	21124.3
290.485	21145.3
291.133	21085.3
291.784	20932.3
292.435	20993.3
293.084	20870.3
293.734	20934.3
294.383	20918.3
295.034	20830.3
295.684	20989.3
296.333	20993.3
296.983	20705.3
297.632	20888.3
298.282	20972.3
298.93	20913.3
299.581	21168.3
300.229	21033.3
300.879	20895.3
301.527	20878.3
302.177	20769.3
302.825	20666.3
303.473	21066.3
304.123	20817.3
304.771	20857.3
305.421	20964.3
306.069	20824.3
306.718	20916.3
307.366	20761.3
308.014	20626.3
308.663	21024.3
309.311	20792.3
309.958	20753.3
310.608	20696.3
311.255	20362.3
311.903	20442.3
312.552	20463.3
313.199	20460.3
313.847	20057.3
314.496	19974.3
315.143	20235.3
315.79	20009.3
316.437	20183.3
317.086	20222.3
317.733	20676.3
318.38	20494.3
319.027	20742.3
319.676	20497.3
320.323	20461.3
320.969	20605.3
321.616	20746.3
322.263	20568.3
322.911	20664.3
323.558	20628.3
324.204	20428.3
324.851	20476.3
325.497	20590.3
326.144	20431.3
326.79	20494.3
327.438	20553.3
328.085	20434.3
328.731	20329.3
329.377	20344.3
330.023	20198.3
330.669	20260.3
331.315	20041.3
331.961	20481.3
332.607	20383.3
333.253	20339.3
333.899	20280.3
334.544	20133.3
335.19	20190.3
335.836	20244.3
336.482	20313.3
337.127	20288.3
337.773	20542.3
338.418	20269.3
339.064	20221.3
339.709	20160.3
340.355	20237.3
341	20370.3
341.645	20232.3
342.288	20351.3
342.933	19943.3
343.579	20208.3
344.224	20231.3
344.869	20263.3
345.514	20338.3
346.159	20304.3
346.802	20294.3
347.447	20076.3
348.091	20077.3
348.736	19809.3
349.381	20009.3
350.024	20050.3
350.668	19826.3
351.313	20036.3
351.957	20068.3
352.6	19999.3
353.244	20064.3
353.889	20045.3
354.533	19903.3
355.175	20095.3
355.82	20039.3
356.464	20336.3
357.106	20134.3
357.75	19995.3
358.394	19694.3
359.036	19983.3
359.68	20008.3
360.324	20300.3
360.966	20270.3
361.61	19998.3
362.254	20089.3
362.896	19822.3
363.54	19926.3
364.181	20153.3
364.825	19879.3
365.466	19853.3
366.11	19829.3
366.751	19686.3
367.395	19967.3
368.039	19868.3
368.68	19883.3
369.323	20282.3
369.964	20144.3
370.608	20114.3
371.249	19530.3
371.89	19904.3
372.533	19882.3
373.174	19897.3
373.817	20126.3
374.458	20041.3
375.101	20021.3
375.742	19795.3
376.383	19700.3
377.025	19724.3
377.666	19938.3
378.309	20171.3
378.95	20087.3
379.59	19956.3
380.233	19852.3
380.873	19683.3
381.514	19864.3
382.156	19716.3
382.796	19897.3
383.437	20000.3
384.079	19878.3
384.719	19924.3
385.359	19760.3
386	19804.3
386.642	19711.3
387.282	19959.3
387.922	19844.3
388.562	19716.3
389.202	19925.3
389.844	19652.3
390.483	19724.3
391.123	19626.3
391.763	19936.3
392.403	19725.3
393.044	19930.3
393.684	19918.3
394.324	20065.3
394.963	19673.3
395.602	19919.3
396.242	19967.3
396.881	19958.3
397.521	20076.3
398.16	19842.3
398.801	19819.3
399.44	19782.3
400.08	19660.3
400.719	19752.3
401.358	19957.3
401.997	19962.3
402.636	19972.3
403.275	20206.3
403.914	19989.3
404.552	19846.3
405.191	20004.3
405.83	19845.3
406.469	19924.3
407.107	20044.3
407.746	19937.3
408.382	19835.3
409.021	19926.3
409.659	20027.3
410.298	20068.3
410.936	19932.3
411.575	20258.3
412.213	20100.3
412.851	20015.3
413.49	19990.3
414.126	19982.3
414.764	19845.3
415.402	19961.3
416.04	20102.3
416.678	19916.3
417.314	20110.3
417.952	20052.3
418.59	19919.3
419.227	19890.3
419.865	19823.3
420.501	19921.3
421.139	20100.3
421.776	19924.3
422.414	20066.3
423.049	20124.3
423.687	20016.3
424.324	20061.3
424.96	19963.3
425.597	20240.3
426.234	20048.3
426.87	20118.3
427.507	20060.3
428.144	20056.3
428.779	20205.3
429.416	20316.3
430.051	20364.3
430.688	20334.3
431.325	20425.3
431.96	20190.3
432.597	19973.3
433.232	20056.3
433.869	19960.3
434.503	20218.3
435.14	20304.3
435.775	20495.3
436.412	20064.3
437.046	20168.3
437.683	20119.3
438.317	20288.3
438.954	20397.3
439.588	20304.3
440.224	20420.3
440.858	20266.3
441.495	20122.3
442.129	20262.3
442.765	20120.3
443.399	20093.3
444.033	20207.3
444.669	20108.3
445.303	20440.3
445.939	20186.3
446.573	20072.3
447.207	20190.3
447.843	20431.3
448.477	20470.3
449.11	20429.3
449.746	20356.3
450.38	20776.3
451.013	20389.3
451.647	20386.3
452.282	20606.3
452.916	20469.3
453.549	20890.3
454.182	20711.3
454.818	20581.3
455.451	20631.3
456.084	20584.3
456.718	20402.3
457.353	20505.3
457.986	20552.3
458.619	20541.3
459.252	20540.3
459.885	20718.3
460.518	20232.3
461.153	20512.3
461.786	20452.3
462.418	20698.3
463.051	20676.3
463.684	20585.3
464.316	20787.3
464.949	20764.3
465.582	20586.3
466.214	20436.3
466.847	20416.3
467.479	20657.3
468.111	20749.3
468.746	20416.3
469.378	20615.3
470.011	20688.3
470.643	20811.3
471.275	20734.3
471.907	20733.3
472.537	20831.3
473.169	20918.3
473.801	20868.3
474.433	20656.3
475.065	20892.3
475.697	20775.3
476.329	21010.3
476.961	20875.3
477.592	20714.3
478.224	20851.3
478.856	20769.3
479.487	20868.3
480.117	20996.3
480.748	20842.3
481.38	21135.3
482.011	20750.3
482.643	21006.3
483.274	20895.3
483.903	20671.3
484.534	20759.3
485.166	20886.3
485.797	21133.3
486.426	20834.3
487.057	21031.3
487.688	21231.3
488.319	20768.3
488.948	20747.3
489.579	20800.3
490.21	20962.3
490.839	21088.3
491.469	21190.3
492.1	21138.3
492.729	21174.3
493.359	21081.3
493.99	21024.3
494.618	21268.3
495.249	21211.3
495.88	21166.3
496.508	21056.3
497.138	21103.3
497.767	21046.3
498.397	21022.3
499.027	20940.3
499.655	21204.3
500.286	21354.3
500.914	21398.3
501.544	21144.3
502.172	21579.3
502.802	21396.3
503.43	21342.3
504.06	21284.3
504.687	21399.3
505.317	21244.3
505.945	21504.3
506.575	21214.3
507.203	21160.3
507.83	21186.3
508.46	21257.3
509.087	21320.3
509.717	21593.3
510.344	21432.3
510.972	21538.3
511.601	21413.3
512.228	21449.3
512.858	21380.3
513.485	21564.3
514.112	21444.3
514.741	21773.3
515.368	21547.3
515.995	21710.3
516.622	21670.3
517.252	21452.3
517.878	21559.3
518.505	21661.3
519.134	21708.3
519.761	21703.3
520.388	21500.3
521.014	21406.3
521.643	21336.3
522.27	21257.3
522.896	21329.3
523.523	21480.3
524.149	21661.3
524.776	21777.3
525.404	21620.3
526.031	21770.3
526.657	21590.3
527.283	21685.3
527.91	21946.3
528.536	21969.3
529.162	21919.3
529.788	21718.3
530.416	21858.3
531.042	21580.3
531.668	21851.7
532.294	21980.1
532.92	21758.8
533.546	21877.3
534.172	21870.8
534.798	21938.7
535.423	21625.6
536.049	21876.5
536.675	21949.1
537.3	22037.5
537.926	22154.5
538.551	21941.8
539.177	21983.9
539.802	22001.5
540.428	22165.6
541.051	22010.9
541.676	22008.1
542.301	22026.8
542.927	22230
543.552	22032.5
544.177	22101.9
544.802	22070.5
545.427	21862.1
546.05	22042.6
546.675	22267.4
547.3	22220.5
547.925	21969.5
548.55	22023.8
549.174	21832
549.797	22023.5
550.422	22060.7
551.047	22167.6
551.671	22243
552.294	21894.6
552.918	22012.5
553.543	21967.8
554.167	21902.5
554.789	21784.4
555.414	21930.5
556.038	21789.8
556.66	21866.5
557.285	21728.8
557.909	21800.8
558.531	21781.6
559.155	21801.7
559.777	21682.3
560.401	21692.8
561.025	21727.7
561.647	21844.7
562.271	21705.4
562.893	21909.7
563.517	21623.2
564.14	21622.2
564.762	21548.4
565.386	21573.4
566.007	21702.9
566.631	21282.3
567.252	21369.8
567.876	21107.8
568.497	21374
569.121	21266
569.742	21381.2
570.366	21296.2
570.987	21557
571.61	21257.2
572.231	21211.3
572.852	21309.8
573.476	21091.9
574.097	21046.6
574.72	21249.5
575.341	21389.6
575.961	21306.8
576.584	21242.6
577.205	21093.5
577.826	21112.4
578.449	21015.4
579.07	20948.8
579.69	21246.9
580.313	21270.3
580.934	21105.8
581.554	20866.3
582.174	21000.7
582.797	20831.3
583.417	20654.1
584.038	20958.8
584.658	20891.4
585.281	20937.5
585.901	20746
586.521	20837.8
587.141	20658.3
587.763	20551.7
588.383	20594.1
589.003	20523.7
589.623	20494.7
590.243	20603.9
590.863	20401.5
591.483	20389
592.105	20212.2
592.725	20275.7
593.345	20191.6
593.964	20282.1
594.584	20211.2
595.204	20195.9
595.823	20009.2
596.443	20055
597.062	19982.3
597.682	19940.1
598.301	19927.4
598.92	19987.4
599.54	19770.6
600.159	19854
600.778	19635.7
601.397	19586.9
602.017	19488.8
602.636	19482.5
603.255	19776.6
603.874	19501.8
604.493	19444.7
605.112	19451.8
605.731	19229
606.347	19319.7
606.966	19251.2
607.585	19255.4
608.204	19285.7
608.823	19133.6
609.441	18967.6
610.06	18864.5
610.676	18664.8
611.295	18778.1
611.913	18594
612.532	18491.1
613.15	18440.2
613.766	18490.8
614.385	18172.4
615.003	18251.3
615.621	18184.7
616.237	17980.8
616.856	18101.3
617.474	18127.6
618.09	18171.4
618.708	18023
619.326	18043.5
619.944	17852
620.56	17845.9
621.177	17725.8
621.793	17797.7
622.411	17730.9
623.029	17531.1
623.644	17386.4
624.262	17228.8
624.88	16928.1
625.495	16823.4
626.113	16871.6
626.728	16614.4
627.346	16593.8
627.961	16524.2
628.578	16466.6
629.194	16702.8
629.811	16675.4
630.426	16711.6
631.043	16795.1
631.658	16896.3
632.276	16839.7
632.891	16649.5
633.508	16590.3
634.123	16510.2
634.74	16430.6
635.354	16584.6
635.971	16457.6
636.586	16424.5
637.201	16224.9
637.818	16329.2
638.432	16203
639.047	16161.9
639.663	16179.8
640.278	16104.7
640.892	15982.3
641.509	15972.1
642.123	15978.7
642.738	15793.3
643.354	15660.7
643.968	15586.2
644.583	15611.1
645.199	15586.8
645.813	15564.2
646.427	15485.3
647.041	15543.1
647.655	15474.3
648.271	15245.9
648.885	15449.5
649.499	15480.7
650.113	15472.7
650.727	15279.4
651.343	15406.5
651.956	15360.6
652.57	15326.9
653.184	15341.8
653.797	15161.7
654.411	15025.8
655.024	15246.7
655.638	15113.1
656.254	15110.3
656.867	15079.8
657.48	15047.2
658.094	14883.4
658.707	15068
659.32	15025.9
659.933	15062.2
660.547	14985.2
661.16	14999.1
661.773	14748.2
662.386	14633.6
662.999	14620.8
663.612	14683.8
664.225	14727
664.838	14721.6
665.451	14669.7
666.063	14666.6
666.674	14602
667.287	14474.8
667.899	14428.7
668.512	14465.4
669.125	14574.7
669.404	14331.7
670.023	14369.7
670.644	14384.7
671.265	14075.7
671.886	14170.7
672.507	14320.7
673.128	14002.7
673.749	14171.7
674.368	14399.7
674.989	14456.7
675.609	14325.7
676.23	14059.7
676.851	13891.7
677.469	14114.7
678.09	14103.7
678.711	13960.7
679.331	13991.7
679.949	13978.7
680.57	14124.7
681.19	13960.7
681.811	14003.7
682.429	13987.7
683.049	13837.7
683.669	13934.7
684.287	13969.7
684.908	13872.7
685.528	13569.7
686.146	13503.7
686.766	13729.7
687.386	13604.7
688.003	13685.7
688.623	13583.7
689.241	13393.7
689.861	13445.7
690.481	13371.7
691.098	13518.7
691.718	13457.7
692.336	13597.7
692.955	13502.7
693.573	13505.7
694.192	13581.7
694.81	13369.7
695.429	13212.7
696.046	13381.7
696.666	13378.7
697.283	13381.7
697.902	13400.7
698.519	13354.7
699.139	13020.7
699.756	12968.7
700.375	13228.7
700.992	13136.7
701.611	13037.7
702.228	13332.7
702.844	12875.7
703.463	12931.7
704.08	12929.7
704.699	12833.7
705.316	12808.7
705.932	12767.7
706.551	12796.7
707.168	12791.7
707.784	12869.7
708.403	13013.7
709.019	12762.6
709.635	12753.7
710.254	12891.7
710.87	12773.7
711.487	12683.7
712.103	12787.7
712.721	12544.7
713.337	12551.7
713.953	12565.7
714.569	12363.7
715.188	12491.7
715.804	12494.7
716.419	12412.7
717.035	12369.7
717.651	12313.7
718.269	12214.7
718.885	12251.7
719.501	12163.7
720.116	12313.7
720.732	12325.7
721.348	12120.7
721.963	12220.7
722.579	12033.7
723.196	11960.7
723.812	11827.7
724.427	12111.7
725.043	12083.7
725.658	11928.7
726.273	11729.7
726.889	11801.7
727.504	11809.7
728.119	11771.7
728.734	11535.7
729.349	11715.7
729.964	11785.7
730.579	11741.7
731.194	11691.7
731.809	11525.7
732.424	11355.7
733.039	11476.7
733.654	11484.7
734.268	11515.7
734.883	11520.7
735.498	11415.7
736.112	11313.7
736.725	11366.7
737.34	11464.7
737.954	11399.7
738.569	11294.7
739.183	11284.7
739.797	10983.7
740.412	11157.7
741.024	11186.7
741.638	10980.7
742.252	10914.7
742.867	11083.7
743.481	11129.7
744.093	11030.7
744.707	11145.7
745.321	10891.7
745.935	10799.7
746.549	10965.7
747.161	10827.7
747.775	10865.7
748.388	10776.7
749	10838.7
749.614	10811.7
750.228	10801.7
750.841	10669.7
751.453	10595.7
752.066	10476.7
752.68	10582.7
753.291	10685.7
753.905	10587.7
754.516	10444.7
755.129	10486.7
755.743	10504.7
756.354	10315.7
756.967	10431.7
757.578	10346.7
758.192	10509.7
758.805	10454.7
759.416	10239.7
760.029	10242.7
760.64	10409.7
761.253	10233.7
761.863	10276.7
762.476	10130.7
763.087	10111.7
763.7	10136.7
764.311	10067.7
764.923	9898.69
765.534	9935.69
766.147	9737.69
766.757	9813.69
767.368	9868.69
767.98	9878.69
768.591	9910.69
769.203	9924.69
769.813	9734.69
770.424	9633.69
771.036	9652.69
771.646	9731.69
772.258	9563.69
772.869	9543.69
773.479	9687.69
774.091	9583.69
774.701	9395.69
775.311	9495.69
775.923	9443.69
776.533	9512.69
777.142	9492.69
777.752	9294.69
778.364	9345.69
778.974	9388.69
779.583	9300.69
780.193	9312.69
780.805	9259.69
781.414	9270.69
782.024	9304.69
782.633	9203.69
783.243	9106.69
783.854	8904.69
784.464	8900.69
785.073	8948.69
785.682	8966.69
786.291	8862.69
786.901	8870.69
787.51	8712.69
788.121	8531.69
788.73	8481.69
789.339	8501.69
789.948	8435.69
790.557	8369.69
791.166	8367.69
791.775	8304.69
792.384	8330.69
792.992	8249.69
793.601	8120.69
794.21	8279.69
794.819	8297.69
795.427	8238.69
796.036	8115.69
796.644	8181.69
797.253	8008.69
797.861	7979.69
798.47	7862.69
799.078	8004.69
799.686	7904.69
800.295	7908.69
800.903	7787.69
801.511	7795.69
802.12	7600.69
802.726	7448.69
803.334	7531.69
803.942	7569.69
804.55	7595.69
805.158	7641.69
805.766	7403.69
806.374	7282.69
806.979	7303.69
807.587	7190.69
808.195	7171.69
808.803	7128.69
809.41	7037.69
810.016	7003.69
810.624	6985.69
811.231	6928.69
811.839	6723.69
812.444	6650.69
813.052	6773.69
813.659	6765.69
814.267	6810.69
814.872	6830.69
815.479	6565.69
816.086	6577.69
816.692	6433.69
817.299	6500.69
817.906	6421.69
818.511	6478.69
819.118	6415.69
819.725	6367.69
820.33	6442.69
820.937	6241.69
821.542	6240.69
822.149	6176.69
822.755	6166.69
823.36	6157.69
823.967	6125.69
824.572	6037.69
825.178	5930.69
825.783	6031.69
826.389	6066.69
826.994	6021.69
827.6	5980.69
828.205	5911.69
828.811	5878.69
829.416	5906.69
830.022	6104.69
830.626	5966.69
831.232	5867.69
831.837	5952.69
832.441	6027.69
833.047	5940.69
833.651	6045.69
834.257	6023.69
834.861	6065.69
835.465	5951.69
836.071	5953.69
836.675	6086.69
837.281	6125.69
837.884	6258.69
838.488	6220.69
839.094	6009.69
839.697	6112.69
840.301	6186.69
840.905	6276.69
841.51	6350.69
842.114	6310.69
842.717	6345.69
843.323	6443.69
843.926	6378.69
844.529	6433.69
845.133	6410.69
845.736	6516.69
846.341	6480.69
846.944	6784.69
847.547	6717.69
848.15	6804.69
848.754	6847.69
849.359	6859.69
849.962	6966.69
850.565	6909.69
851.167	7114.69
851.77	7156.69
852.373	7153.69
852.976	7265.69
853.579	7208.69
854.181	7343.69
854.786	7406.69
855.389	7531.69
855.991	7656.69
856.594	7727.69
857.196	7749.69
857.799	7823.69
858.401	7911.69
859.004	7896.69
859.606	7926.69
860.208	8136.69
860.81	8292.69
861.413	8318.69
862.015	8443.69
862.617	8418.69
863.219	8571.69
863.821	8567.69
864.421	8841.69
865.023	8963.69
865.625	9199.69
866.227	8945.69
866.829	9167.69
867.431	9356.69
868.032	9302.69
868.634	9415.69
869.234	9660.69
869.836	9925.69
870.437	9776.69
871.039	9897.69
871.64	9987.69
872.242	10107.7
872.841	10175.7
873.443	10317.7
874.044	10378.7
874.645	10577.7
875.245	10707.7
875.846	10790.7
876.447	10986.7
877.048	10902.7
877.647	11070.7
878.249	11091.7
878.85	11248.7
879.449	11448.7
880.05	11611.7
880.651	11786.7
881.249	11756.7
881.85	11711.7
882.451	11925.7
883.05	12092.7
883.651	12132.7
884.249	12578.7
884.85	12703.7
885.451	12596.7
886.049	12871.7
886.65	12945.7
887.248	13051.7
887.849	12853.7
888.447	13320.7
889.048	13301.7
889.646	13467.7
890.246	13455.7
890.844	13514.7
891.445	13683.7
892.043	13752.7
892.643	13841.7
893.241	14051.7
893.841	14171.7
894.439	14478.7
895.039	14478.7
895.637	14639.7
896.237	14600.7
896.835	14539.7
897.433	14983.7
898.033	14927.7
898.63	15293.7
899.228	15216.7
899.828	15069.7
900.425	15303.7
901.025	15537.7
901.623	15445.7
902.22	15527.7
902.818	15740.7
903.417	15926.7
904.014	15960.7
904.612	16033.7
905.211	15981.7
905.808	16108.7
906.406	16373.7
907.003	16221.7
907.602	16682.7
908.199	16819.7
908.796	16702.7
909.393	16796.7
909.99	16849.7
910.589	16805.7
911.186	17008.7
911.783	17038.7
912.38	17232.7
912.977	17169.7
913.573	17337.7
914.17	17527.7
914.769	17498.7
915.365	17620.7
915.962	17879.7
916.559	18089.7
917.155	18163.7
917.752	18343.7
918.348	18015.7
918.944	18206.7
919.541	18083.7
920.137	18340.7
920.733	18446.7
921.33	18676.7
921.926	18792.7
922.522	18813.7
923.118	18939.7
923.714	18825.7
924.31	18843.7
924.906	19048.7
925.502	18991.7
926.098	19197.7
926.694	19349.7
927.29	19459.7
927.886	19395.7
928.48	19292.7
929.075	19285.7
929.671	19617.7
930.267	19790.7
930.862	19724.7
931.458	19740.7
932.054	19919.7
932.647	19826.7
933.243	19616.7
933.838	19865.7
934.433	20040.7
935.029	20168.7
935.622	20340.7
936.217	20379.7
936.813	20263.7
937.408	20308.7
938.001	20206.7
938.596	20238.7
939.191	20318.7
939.786	20540.7
940.379	20463.7
940.974	20674.7
941.569	20557.7
942.162	20507.7
942.757	20382.7
943.352	20609.7
943.944	20646.7
944.539	20878.7
945.132	21221.7
945.726	20893.7
946.321	20957.7
946.914	20741.7
947.508	21095.7
948.101	20957.7
948.695	20955.7
949.289	21079.7
949.882	21333.7
950.476	21291.7
951.068	21343.7
951.663	21173.7
952.255	21311.7
952.849	21137.7
953.441	21268.7
954.035	21217.7
954.627	21448.7
955.219	21583.7
955.813	21367.7
956.405	21345.7
956.999	21232.7
957.591	21465.7
958.185	21494.7
958.777	21427.7
959.369	21492.7
959.962	21708.7
960.554	21681.7
961.146	21473.7
961.739	21451.7
962.331	21513.7
962.922	21361.7
963.516	21732.7
964.107	21709.7
964.699	21481.7
965.292	21649.7
965.883	21652.7
966.475	21559.7
967.066	21625.7
967.659	21703.7
968.25	21863.7
968.841	21884.7
969.432	21942.9
970.026	21612
970.617	21491.1
971.207	21187.7
971.798	21471
972.389	21809.1
972.982	21717.2
973.573	21737.8
974.164	21741.2
974.755	21584.3
975.345	21644.8
975.936	21451
976.526	21540.8
977.117	21757.9
977.708	21935.4
978.3	22019.5
978.891	21789.2
979.481	21666.8
980.072	21453.7
980.662	21399
981.252	21467
981.843	21673.7
982.433	21722.1
983.023	21727.2
983.613	21662.7
984.203	21524.3
984.793	21270.2
985.383	21126.9
985.973	21143.6
986.561	21317.5
987.151	21113.4
987.741	21360.1
988.331	21191.3
988.921	21112.3
989.511	20945.6
990.1	21065.8
990.69	21198
991.28	21125.6
991.867	21208.6
992.457	21143.4
993.047	21236
993.636	20961.9
994.226	21108.4
994.813	20848.8
995.402	20994.4
995.992	21047.6
996.581	21073
997.17	21112.5
997.758	20971
998.347	20871.5
998.936	20782.1
999.523	20602.1
1000.11	20683.1
1000.7	20889.5
1001.29	20835.5
1001.88	20919
1002.47	20888.7
1003.06	20766.6
1003.64	20500
1004.23	20355.7
1004.82	20655.1
1005.41	20691.1
1006	20456.8
1006.58	20713.1
1007.17	20556.7
1007.76	20304.1
1008.35	20248.3
1008.93	20172.9
1009.52	20130.8
1010.11	20281.7
1010.7	20237.8
1011.28	20452.8
1011.87	20236.5
1012.46	20144.6
1013.04	19984.4
1013.63	19893.7
1014.22	19765.3
1014.81	20026.8
1015.39	19967.3
1015.98	19815.5
1016.57	19809.6
1017.15	19582.4
1017.74	19335.9
1018.33	19349.1
1018.92	19345.7
1019.5	19423.1
1020.09	19327.4
1020.67	19542.8
1021.26	19503.2
1021.85	19146.7
1022.43	19188
1023.02	19016.5
1023.6	19013.9
1024.19	18969.4
1024.78	18881.7
1025.36	19011.3
1025.95	18835.3
1026.54	18529.1
1027.12	18307.6
1027.71	18317.7
1028.29	18216.7
1028.88	18324.9
1029.46	18086.8
1030.05	18204.4
1030.63	18249.2
1031.22	18034.5
1031.81	17994
1032.39	17616.7
1032.98	17767.5
1033.56	17800.3
1034.15	17990.7
1034.73	17751.3
1035.32	17616.1
1035.9	17574.4
1036.49	17399.6
1037.07	17205.9
1037.66	17428.5
1038.24	17322.3
1038.83	17279.3
1039.41	17321.9
1039.99	17043.7
1040.58	17083.2
1041.16	16874.3
1041.75	16776.7
1042.33	16748.7
1042.92	16829.6
1043.5	16847.8
1044.09	16628.7
1044.67	16660.4
1045.25	16212.8
1045.84	16378.7
1046.42	16177.5
1047.01	16192.1
1047.59	16120.4
1048.17	16003.6
1048.76	16124.7
1049.34	16045.2
1049.92	15735.1
1050.51	15696
1051.09	15675.3
1051.67	15515.8
1052.26	15479
1052.84	15614.7
1053.42	15370.7
1054.01	15334.4
1054.59	15366.7
1055.17	15046.3
1055.76	14867.7
1056.34	14799.1
1056.92	14654.7
1057.5	14577.9
1058.09	14521.8
1058.67	14457.2
1059.25	14151.1
1059.84	14004.2
1060.42	13835
1061	13882.3
1061.58	13988.9
1062.17	13982.6
1062.75	14064.9
1063.33	13915.8
1063.91	13803.5
1064.49	13844.6
1065.08	13720.8
1065.66	13562.8
1066.24	13508.6
1066.82	13613.2
1067.4	13527.2
1067.99	13334
1068.57	13333.9
1069.15	13074.2
1069.73	13126.4
1070.31	12763.4
1070.89	12871.2
1071.48	12770.4
1072.06	12935.2
1072.64	12921.2
1073.22	12643
1073.8	12553.1
1074.38	12490.8
1074.96	12349.7
1075.54	12331.7
1076.12	12334
1076.71	12087.4
1077.29	12016.4
1077.87	11903.2
1078.45	11614.5
1079.03	11692.1
1079.61	11618.3
1080.19	11544.5
1080.77	11605.8
1081.35	11479
1081.93	11514.6
1082.51	11445.3
1083.09	11261.3
1083.67	11226.6
1084.25	11124.9
1084.83	11214.9
1085.41	11136.2
1085.99	11049.8
1086.57	11018.8
1087.15	10919.8
1087.73	10823.3
1088.31	10650.3
1088.89	10537.5
1089.47	10565.7
1090.05	10522.3
1090.63	10555.8
1091.21	10479.7
1091.79	10436.9
1092.37	10279.3
1092.95	10202.7
1093.53	10156.6
1094.11	9975.6
1094.69	9998.44
1095.27	10009
1095.84	9996.52
1096.42	9795.11
1097	9792.39
1097.58	9600.76
1098.16	9528.49
1098.74	9522.59
1099.32	9404.32
1099.9	9383.46
1100.47	9371.03
1101.05	9354.66
1101.63	9246.01
1102.21	9087.82
1102.79	9075.64
1103.37	8981.4
1103.95	9009.31
1104.52	8966.1
1105.1	8932.5
1105.68	8923.02
1106.26	8772.8
1106.84	8595.32
1107.42	8621.85
1107.99	8561.79
1108.57	8514.94
1109.15	8627.33
1109.73	8355.56
1110.3	8352.63
1110.88	8477.55
1111.46	8232.62
1112.04	8165.74
1112.61	8117.06
1113.19	8068.07
1113.77	8060.82
1114.34	8155.87
1114.92	8044.33
1115.5	7914.18
1116.08	7863.17
1116.65	7725.78
1117.23	7756.52
1117.81	7722.06
1118.38	7620.95
1118.96	7618.45
1119.54	7703.95
1120.11	7468.16
1120.69	7481.91
1121.27	7395.17
1121.84	7284
1122.42	7376.58
1123	7329.35
1123.57	7248.94
1124.15	7176.97
1124.72	7210.02
1125.3	7081.02
1125.88	7042.28
1126.45	7035.32
1127.03	7026.93
1127.6	6922.58
1128.18	6923.81
1128.76	6982.05
1129.33	6758.93
1129.91	6660.97
1130.48	6750.38
1131.06	6651.08
1131.63	6470.47
1132.21	6463.87
1132.79	6558.72
1133.36	6431.44
1133.93	6470.9
1134.51	6493.73
1135.09	6391.34
1135.66	6452.04
1136.24	6280.07
1136.81	6335.97
1137.39	6348.44
1137.96	6345.34
1138.54	6305.1
1139.11	6177.15
1139.69	6077.84
1140.26	6176.62
1140.83	6056.61
1141.41	6066.28
1141.98	6030.38
1142.56	6026.3
1143.13	5910.08
1143.71	6077.84
1144.28	5888.74
1144.86	5800.76
1145.43	5787.74
1146	5794.86
1146.2	5660.86
1146.79	5784.86
1147.37	5742.86
1147.95	5659.86
1148.53	5625.86
1149.12	5486.86
1149.7	5537.86
1150.28	5558.86
1150.86	5472.86
1151.44	5468.86
1152.02	5389.86
1152.6	5390.86
1153.19	5280.86
1153.77	5338.86
1154.35	5234.86
1154.93	5145.86
1155.51	5135.86
1156.09	5220.86
1156.67	5172.86
1157.25	5153.86
1157.83	5088.86
1158.42	5132.86
1159	4846.86
1159.58	4943.86
1160.16	4961.86
1160.74	5057.86
1161.32	4877.86
1161.9	4970.86
1162.48	4946.86
1163.06	4746.86
1163.64	4794.86
1164.22	4828.86
1164.8	4806.86
1165.38	4764.86
1165.96	4738.86
1166.54	4787.86
1167.12	4673.86
1167.7	4594.86
1168.28	4550.86
1168.86	4499.86
1169.44	4581.86
1170.02	4526.86
1170.6	4501.86
1171.18	4505.86
1171.76	4457.86
1172.34	4357.86
1172.92	4460.86
1173.5	4303.86
1174.08	4344.86
1174.66	4394.86
1175.24	4210.86
1175.82	4309.86
1176.4	4270.86
1176.97	4153.86
1177.55	4087.86
1178.13	4224.86
1178.71	4182.86
1179.29	4168.86
1179.87	4164.86
1180.45	4051.86
1181.03	3942.86
1181.61	4086.86
1182.18	3950.86
1182.76	4050.86
1183.34	4011.86
1183.92	3942.86
1184.5	3961.86
1185.08	3934.86
1185.65	3885.86
1186.23	3876.86
1186.81	3748.86
1187.39	3762.86
1187.97	3759.86
1188.55	3770.86
1189.12	3831.86
1189.7	3646.86
1190.28	3645.86
1190.86	3566.86
1191.43	3573.86
1192.01	3567.86
1192.59	3457.86
1193.17	3506.86
1193.74	3612.86
1194.32	3528.86
1194.9	3626.86
1195.48	3420.86
1196.05	3375.86
1196.63	3422.86
1197.21	3400.86
1197.79	3300.86
1198.36	3301.86
1198.94	3359.86
1199.52	3332.86
1200.09	3333.86
1200.67	3333.86
1201.25	3293.86
1201.82	3174.86
1202.4	3185.86
1202.98	3239.86
1203.55	3216.86
1204.13	3144.86
1204.7	3203.86
1205.28	3054.86
1205.86	3095.86
1206.44	3077.86
1207.01	2994.86
1207.59	3037.86
1208.16	3022.86
1208.74	3041.86
1209.31	3011.86
1209.89	2975.86
1210.47	2882.86
1211.04	2913.86
1211.62	2901.86
1212.19	2878.86
1212.77	2842.86
1213.34	2853.86
1213.92	2804.86
1214.5	2736.86
1215.07	2671.86
1215.65	2693.86
1216.22	2798.86
1216.8	2673.86
1217.37	2683.86
1217.95	2708.86
1218.52	2730.86
1219.1	2719.86
1219.67	2676.86
1220.25	2678.86
1220.82	2557.86
1221.4	2641.86
1221.97	2697.86
1222.55	2609.86
1223.12	2671.86
1223.7	2586.86
1224.27	2589.86
1224.85	2626.86
1225.42	2543.86
1225.99	2605.86
1226.57	2557.86
1227.14	2550.86
1227.72	2433.86
1228.29	2424.86
1228.86	2455.86
1229.44	2449.86
1230.01	2531.86
1230.59	2508.86
1231.16	2509.86
1231.73	2445.86
1232.31	2513.86
1232.88	2373.86
1233.46	2405.86
1234.03	2443.86
1234.6	2371.86
1235.18	2403.86
1235.75	2429.86
1236.32	2362.86
1236.9	2401.86
1237.47	2473.86
1238.04	2371.86
1238.61	2348.86
1239.19	2317.86
1239.76	2387.86
1240.33	2373.86
1240.91	2378.86
1241.48	2383.86
1242.05	2373.86
1242.63	2301.86
1243.2	2293.86
1243.77	2306.86
1244.34	2225.86
1244.92	2231.86
1245.49	2350.86
1246.06	2260.86
1246.63	2252.86
1247.21	2178.86
1247.78	2265.86
1248.35	2304.86
1248.92	2252.86
1249.5	2264.86
1250.07	2257.86
1250.64	2259.86
1251.21	2324.86
1251.78	2259.86
1252.36	2229.86
1252.93	2297.86
1253.5	2222.86
1254.07	2196.86
1254.64	2330.86
1255.21	2363.86
1255.78	2258.86
1256.36	2208.86
1256.93	2284.86
1257.5	2227.86
1258.07	2175.86
1258.64	2226.86
1259.21	2213.86
1259.78	2223.86
1260.35	2256.86
1260.93	2231.86
1261.5	2265.86
1262.07	2181.86
1262.64	2170.86
1263.21	2273.86
1263.78	2248.86
1264.35	2177.86
1264.92	2232.86
1265.49	2213.86
1266.06	2141.86
1266.63	2213.86
1267.2	2167.86
1267.77	2158.86
1268.34	2181.86
1268.91	2183.86
1269.48	2239.86
1270.05	2186.86
1270.62	2283.86
1271.19	2165.86
1271.76	2200.86
1272.33	2254.86
1272.9	2274.86
1273.47	2158.86
1274.04	2292.86
1274.61	2196.86
1275.18	2210.86
1275.75	2104.86
1276.32	2094.86
1276.89	2193.86
1277.46	2201.86
1278.03	2244.86
1278.6	2154.86
1279.17	2247.86
1279.74	2179.86
1280.3	2137.86
1280.87	2125.86
1281.44	2130.86
1282.01	2159.86
1282.58	2193.86
1283.15	2192.86
1283.72	2256.86
1284.29	2136.86
1284.86	2129.86
1285.42	2104.86
1285.99	2217.86
1286.56	2142.86
1287.13	2133.86
1287.7	2195.86
1288.27	2205.86
1288.83	2222.86
1289.4	2183.86
1289.97	2130.86
1290.54	2171.86
1291.11	2163.86
1291.68	2085.86
1292.24	2245.86
1292.81	2192.86
1293.38	2202.86
1293.95	2085.86
1294.51	2085.86
1295.08	2211.86
1295.65	2109.86
1296.22	2170.86
1296.79	2212.86
1297.35	2200.86
1297.92	2176.86
1298.49	2142.86
1299.05	2064.86
1299.62	2145.86
1300.19	2135.86
1300.76	2189.86
1301.32	2268.86
1301.89	2154.86
1302.46	2073.86
1303.02	2221.86
1303.59	2199.86
1304.16	2154.86
1304.72	2194.86
1305.29	2122.86
1305.86	2040.86
1306.42	2252.86
1306.99	2176.86
1307.56	2130.86
1308.12	2158.86
1308.69	2189.86
1309.26	2168.86
1309.82	2175.86
1310.39	2225.86
1310.95	2152.86
1311.52	2165.86
1312.09	2204.86
1312.65	2153.86
1313.22	2117.86
1313.78	2194.86
1314.35	2192.86
1314.92	2211.86
1315.48	2143.86
1316.05	2208.86
1316.61	2172.86
1317.18	2161.86
1317.74	2090.86
1318.31	2154.86
1318.87	2080.86
1319.44	2166.86
1320.01	2212.86
1320.57	2174.86
1321.13	2207.86
1321.7	2209.86
1322.27	2194.86
1322.83	2140.86
1323.4	2147.86
1323.96	2138.86
1324.52	2208.86
1325.09	2202.86
1325.65	2222.86
1326.22	2127.86
1326.78	2140.86
1327.35	2107.86
1327.91	2171.86
1328.48	2101.86
1329.04	2186.86
1329.61	2154.86
1330.17	2164.86
1330.73	2132.86
1331.3	2181.86
1331.86	2164.86
1332.43	2159.86
1332.99	2164.86
1333.55	2242.86
1334.12	2149.86
1334.68	2210.86
1335.25	2157.86
1335.81	2155.86
1336.37	2188.86
1336.94	2226.86
1337.5	2129.86
1338.06	2099.86
1338.63	2185.86
1339.19	2254.86
1339.75	2159.86
1340.32	2180.86
1340.88	2117.86
1341.44	2132.86
1342.01	2200.86
1342.57	2082.86
1343.13	2224.86
1343.69	2117.86
1344.26	2148.86
1344.82	2177.86
1345.38	2176.86
1345.95	2196.86
1346.51	2205.86
1347.07	2158.86
1347.64	2207.86
1348.2	2229.86
1348.76	2184.86
1349.32	2201.86
1349.88	2187.86
1350.45	2238.86
1351.01	2147.86
1351.57	2134.86
1352.13	2187.86
1352.7	2151.86
1353.26	2184.86
1353.82	2223.86
1354.38	2201.86
1354.94	2134.86
1355.51	2162.86
1356.07	2218.86
1356.63	2168.86
1357.19	2187.86
1357.75	2189.86
1358.31	2170.86
1358.87	2190.86
1359.43	2139.86
1360	2199.86
1360.56	2273.86
1361.12	2226.86
1361.68	2175.86
1362.24	2231.86
1362.8	2201.86
1363.36	2201.86
1363.92	2179.86
1364.49	2115.86
1365.05	2208.86
1365.61	2200.86
1366.17	2210.86
1366.73	2232.86
1367.29	2231.86
1367.85	2268.86
1368.41	2238.86
1368.97	2194.86
1369.53	2189.86
1370.09	2139.86
1370.65	2237.86
1371.21	2179.86
1371.77	2259.86
1372.33	2245.86
1372.89	2198.86
1373.45	2148.86
1374.01	2248.86
1374.57	2235.86
1375.13	2181.86
1375.69	2256.86
1376.25	2276.86
1376.81	2239.86
1377.37	2250.86
1377.93	2238.86
1378.49	2252.86
1379.05	2196.86
1379.61	2204.86
1380.17	2209.86
1380.73	2293.86
1381.29	2218.86
1381.85	2162.86
1382.41	2193.86
1382.97	2187.86
1383.52	2197.86
1384.08	2137.86
1384.64	2134.86
1385.2	2241.86
1385.76	2197.86
1386.32	2201.86
1386.88	2171.86
1387.44	2215.86
1387.99	2246.86
1388.55	2178.86
1389.11	2193.86
1389.67	2279.86
1390.23	2272.86
1390.79	2189.86
1391.35	2247.86
1391.9	2229.86
1392.46	2213.86
1393.02	2255.86
1393.58	2228.86
1394.14	2233.86
1394.7	2284.86
1395.25	2265.86
1395.81	2246.86
1396.37	2300.86
1396.93	2169.86
1397.48	2229.86
1398.04	2185.86
1398.6	2159.86
1399.16	2187.86
1399.71	2181.86
1400.27	2179.86
