39.7543	33271.6
40.4294	33324.6
41.1043	33380.6
41.7792	33516.6
42.4541	33314.6
43.1289	33402.6
43.8037	33570.6
44.4784	33651.6
45.1531	33818.6
45.8277	34177.6
46.5023	34666.6
47.1746	34410.6
47.8491	34570.6
48.5235	34606.6
49.1979	34804.6
49.8722	34912.6
50.5466	34708.6
51.2208	35030.6
51.8927	35254.6
52.5669	35618.6
53.241	35539.6
53.9151	35520.6
54.5891	35724.6
55.2631	35554.6
55.9347	35442.6
56.6086	35504.6
57.2824	36055.6
57.9562	35870.6
58.6277	35934.6
59.3014	35892.6
59.975	36040.6
60.6486	36299.6
61.3199	36458.6
61.9934	36791.6
62.6668	36796.6
63.338	36498.6
64.0113	36303.6
64.6847	36428.6
65.3556	36762.6
66.0289	36394.6
66.702	36298.6
67.3729	36383.6
68.046	36696.6
68.719	36658.6
69.3897	36510.6
70.0627	36666.6
70.7333	36490.6
71.4061	36602.6
72.0767	36891.6
72.7494	36674.6
73.4221	36494.6
74.0925	36438.6
74.7651	36569.6
75.4354	36538.6
76.1079	36890.6
76.7781	36330.6
77.4506	36634.6
78.1207	36274.6
78.793	36266.6
79.463	36504.6
80.1353	36558.6
80.8052	36282.6
81.4773	35701.6
82.1472	35917.6
82.8169	35782.6
83.4889	35744.6
84.1586	35971.6
84.8305	35988.6
85.5001	36023.6
86.1697	35660.6
86.8415	35870.6
87.5109	35426.6
88.1826	35634.6
88.852	35299.6
89.5213	35283.6
90.1928	35282.6
90.862	34975.6
91.5312	34553.6
92.2026	34733.6
92.8717	34860.6
93.5407	35298.6
94.212	34876.6
94.8809	35029.6
95.5498	34523.6
96.2187	34521.6
96.8898	34750.6
97.5585	34460.6
98.2272	34468.6
98.8959	34250.6
99.5645	33889.6
100.235	33668.6
100.904	33382.6
101.572	33605.6
102.241	33714.6
102.909	33474.6
103.58	33464.6
104.248	33477.6
104.916	33417.6
105.585	33245.6
106.253	33648.6
106.921	33243.6
107.589	33408.6
108.257	33511.6
108.927	33369.6
109.595	33285.6
110.263	33103.6
110.931	32946.6
111.599	32856.6
112.266	32473.6
112.934	32508.6
113.602	32608.6
114.269	32130.6
114.937	32165.6
115.604	32318.6
116.272	32322.6
116.939	32235.6
117.607	32323.6
118.274	32103.6
118.941	31932.6
119.608	32031.6
120.276	31282.6
120.943	31517.6
121.61	31359.6
122.277	31550.6
122.944	31233.6
123.608	31202.6
124.275	30848.6
124.942	30935.6
125.609	30778.6
126.276	30807.6
126.943	30971.6
127.609	30904.6
128.274	30711.6
128.94	30879.6
129.607	30665.6
130.273	30782.6
130.94	30571.6
131.606	30489.6
132.27	30704.6
132.936	30495.6
133.603	29818.6
134.269	29997.6
134.933	29660.6
135.599	29550.6
136.265	29255.6
136.931	29618.6
137.595	29292.6
138.261	28924.6
138.927	28516.6
139.59	28437.6
140.256	28715.6
140.922	29133.6
141.585	29207.6
142.251	28962.6
142.917	29152.6
143.58	29226.6
144.245	29456.6
144.911	29290.6
145.574	29392.6
146.239	29096.6
146.902	29260.6
147.568	28858.6
148.233	28830.6
148.896	28561.6
149.561	28864.6
150.224	28825.6
150.889	28901.6
151.552	28735.6
152.217	28115.6
152.879	28532.6
153.544	28450.6
154.207	28202.6
154.872	28337.6
155.534	28214.6
156.199	28029.6
156.861	27985.6
157.526	27568.6
158.188	27588.6
158.853	27418.6
159.515	27640.6
160.177	27474.6
160.841	27350.6
161.504	27487.6
162.168	27354.6
162.83	27092.6
163.492	27472.6
164.156	27341.6
164.818	27448.6
165.48	27596.6
166.144	27165.6
166.805	27080.6
167.467	27308.6
168.131	27228.6
168.792	27103.6
169.454	27186.6
170.118	26998.6
170.779	26583.6
171.44	26779.6
172.102	26827.6
172.765	26817.6
173.427	27024.6
174.088	26586.6
174.749	26595.6
175.41	26589.6
176.073	26450.6
176.734	26465.6
177.395	26682.6
178.056	26566.6
178.717	26565.6
179.38	26551.6
180.041	26268.6
180.702	26210.6
181.363	26103.6
182.023	26109.6
182.684	25976.6
183.344	26087.6
184.005	25869.6
184.666	26090.6
185.328	25895.6
185.989	25486.6
186.649	25770.6
187.309	25863.6
187.969	26139.6
188.63	26120.6
189.29	25607.6
189.95	25518.6
190.61	25470.6
191.27	25434.6
191.93	25395.6
192.59	25294.6
193.25	25292.6
193.91	25426.6
194.57	25186.6
195.229	25198.6
195.889	25260.6
196.546	25557.6
197.206	25548.6
197.866	25240.6
198.525	25333.6
199.185	25149.6
199.844	25192.6
200.503	24656.6
201.163	24935.6
201.822	24981.6
202.479	24796.6
203.138	24723.6
203.798	24378.6
204.457	24522.6
205.116	24806.6
205.772	24706.6
206.431	24605.6
207.09	24620.6
207.749	24877.6
208.408	24696.6
209.065	24530.6
209.723	24618.6
210.382	24703.6
211.041	24688.6
211.697	24694.6
212.356	24402.6
213.014	24363.6
213.671	24500.6
214.329	24427.6
214.987	24498.6
215.644	24455.6
216.302	24222.6
216.96	24359.6
217.616	24157.6
218.274	24009.6
218.932	23930.6
219.588	24027.6
220.246	24103.6
220.902	23947.6
221.56	23802.6
222.218	23741.6
222.874	23698.6
223.531	23597.6
224.187	23954.6
224.845	23975.6
225.5	23997.6
226.158	23804.6
226.813	24106.6
227.471	23990.6
228.126	23854.6
228.783	23958.6
229.438	23868.6
230.096	23826.6
230.751	23797.6
231.408	23659.6
232.063	23314.6
232.718	23631.6
233.375	23618.6
234.03	23434.6
234.687	23614.6
235.342	23627.6
235.997	23416.6
236.653	23361.6
237.308	23408.6
237.965	23327.6
238.619	23269.6
239.274	23174.6
239.931	23428.6
240.585	23270.6
241.239	23202.6
241.896	23179.6
242.55	23384.6
243.204	23327.6
243.859	23577.6
244.515	23360.6
245.169	23261.6
245.823	23063.6
246.477	23238.6
247.133	23068.6
247.787	23011.6
248.441	23173.6
249.095	23329.6
249.749	22878.6
250.405	22590.6
251.058	22890.6
251.712	23034.6
252.366	23068.6
253.019	22903.6
253.673	22992.6
254.328	22949.6
254.982	22987.6
255.635	22735.6
256.289	22967.6
256.942	22986.6
257.595	23139.6
258.248	22739.6
258.901	22774.6
259.555	22714.6
260.208	22438.6
260.861	22244.6
261.514	22458.6
262.166	22524.6
262.819	22830.6
263.472	22586.6
264.125	22617.6
264.778	22796.6
265.43	22469.6
266.083	22226.6
266.736	22589.6
267.388	22815.6
268.041	22558.6
268.693	22463.6
269.346	22758.6
269.998	22368.6
270.651	22393.6
271.303	22483.6
271.955	22674.6
272.605	22444.6
273.257	22263.6
273.909	22427.6
274.561	22280.6
275.214	22523.6
275.866	22580.6
276.517	22746.6
277.167	22547.6
277.819	22545.6
278.471	22317.6
279.123	22274.6
279.772	22338.6
280.424	22221.6
281.075	22442.6
281.727	22375.6
282.379	22209.6
283.028	22178.6
283.679	22255.6
284.331	22374.6
284.98	22096.6
285.631	22206.6
286.282	22272.6
286.931	21932.6
287.583	21898.6
288.234	21816.6
288.883	22212.6
289.534	22289.6
290.185	22160.6
290.834	22323.6
291.484	22247.6
292.133	21946.6
292.784	22302.6
293.435	22145.6
294.083	22105.6
294.734	22244.6
295.382	22218.6
296.033	22208.6
296.681	22034.6
297.332	22073.6
297.98	22021.6
298.631	22281.6
299.279	22248.6
299.929	22164.6
300.577	22352.6
301.228	22088.6
301.876	21834.6
302.526	21997.6
303.174	22122.6
303.824	22033.6
304.472	22171.6
305.122	22142.6
305.769	22105.6
306.417	22068.6
307.067	22222.6
307.714	21962.6
308.364	21968.6
309.012	21851.6
309.659	21851.6
310.309	21793.6
310.956	21776.6
311.604	21536.6
312.253	21275.6
312.9	21643.6
313.548	21331.6
314.195	21774.6
314.844	21552.6
315.491	21688.6
316.138	21493.6
316.785	21807.6
317.434	21869.6
318.081	22120.6
318.728	22069.6
319.375	21951.6
320.024	21666.6
320.671	21829.6
321.317	21840.6
321.964	21845.6
322.611	21998.6
323.257	21933.6
323.906	21936.6
324.552	21650.6
325.199	21706.6
325.845	21668.6
326.491	22235.6
327.138	21870.6
327.784	21953.6
328.43	21949.6
329.076	21868.6
329.725	21331.6
330.371	21740.6
331.017	21823.6
331.663	22032.6
332.309	21893.6
332.954	21891.6
333.6	21679.6
334.246	21781.6
334.892	21777.6
335.538	21622.6
336.183	21862.6
336.829	21868.6
337.474	21656.6
338.12	21862.6
338.766	21628.6
339.409	21722.6
340.054	21572.6
340.699	21755.6
341.345	21886.6
341.99	21746.6
342.635	21608.6
343.281	21646.6
343.926	21547.6
344.571	21494.6
345.214	21964.6
345.859	21688.6
346.504	21931.6
347.149	21688.6
347.793	21773.6
348.436	21510.6
349.081	21521.6
349.726	21164.6
350.37	21209.6
351.015	21612.6
351.657	21823.6
352.302	21578.6
352.947	21635.6
353.589	21845.6
354.233	21841.6
354.878	21880.6
355.522	21898.6
356.164	21847.6
356.808	21839.6
357.453	21426.6
358.095	21581.6
358.739	21713.6
359.383	21709.6
360.025	21900.6
360.669	21738.6
361.31	21881.6
361.954	21805.6
362.598	21736.6
363.24	21613.6
363.884	21847.6
364.525	21870.6
365.169	21714.6
365.81	21710.6
366.454	21634.6
367.098	21649.6
367.739	21591.6
368.382	21944.6
369.024	21914.6
369.667	21493.6
370.308	21846.6
370.949	21805.6
371.593	21761.6
372.234	21575.6
372.877	21802.6
373.518	21764.6
374.161	21986.6
374.802	22052.6
375.445	21747.6
376.085	21628.6
376.726	21815.6
377.369	21696.6
378.01	21691.6
378.65	21966.6
379.293	21869.6
379.934	21990.6
380.574	21982.6
381.217	21730.6
381.857	21681.6
382.497	21956.6
383.14	21940.6
383.78	22197.6
384.42	21870.6
385.06	21831.6
385.703	22112.6
386.343	21779.6
386.983	21846.6
387.623	22148.6
388.265	21917.6
388.905	22090.6
389.545	21987.6
390.185	21934.6
390.824	21871.6
391.466	21552.6
392.106	22081.6
392.746	22083.6
393.385	22037.6
394.025	22037.6
394.664	21885.6
395.304	22130.6
395.945	21635.6
396.585	22017.6
397.224	22094.6
397.863	22067.6
398.503	22253.6
399.142	22087.6
399.781	21951.6
400.42	22243.6
401.059	22119.6
401.698	22227.6
402.337	22326.6
402.976	22419.6
403.615	22224.6
404.254	22099.6
404.893	22234.6
405.532	22418.6
406.17	22348.6
406.809	22214.6
407.448	22330.6
408.086	22215.6
408.725	22384.6
409.363	22314.6
410	22302.6
410.638	22267.6
411.276	22415.6
411.915	22356.6
412.553	22442.6
413.191	22353.6
413.83	22449.6
414.466	22367.6
415.104	22539.6
415.742	22530.6
416.38	22558.6
417.018	22442.6
417.654	22574.6
418.292	22548.6
418.93	22405.6
419.567	22603.6
420.205	22826.6
420.841	22691.6
421.478	23020.6
422.116	22704.6
422.751	22716.6
423.389	22650.6
424.027	22734.6
424.662	22599.6
425.299	22875.6
425.937	23020.6
426.572	22868.6
427.209	22870.6
427.847	22928.6
428.482	22673.6
429.119	22892.6
429.756	22986.6
430.391	23013.6
431.028	23123.6
431.663	23042.6
432.3	22879.6
432.934	22917.6
433.571	22876.6
434.208	22851.6
434.843	23087.6
435.48	23255.6
436.114	23058.6
436.751	22800.6
437.385	23118.6
438.022	23107.6
438.656	23329.6
439.293	23119.6
439.927	23415.6
440.561	23363.6
441.198	23329.6
441.832	22990.6
442.468	23164.6
443.102	23132.6
443.736	23130.6
444.372	23560.6
445.006	23486.6
445.642	23183.6
446.276	23327.6
446.91	23468.6
447.546	23282.6
448.18	23800.6
448.813	23680.6
449.449	23780.6
450.083	23722.6
450.716	23504.6
451.352	23363.6
451.986	23691.6
452.619	23548.6
453.252	23733.6
453.888	23668.6
454.521	23978.6
455.154	23607.6
455.788	23757.6
456.421	23671.6
457.056	23660.6
457.689	23645.6
458.322	23756.6
458.955	23833.6
459.588	23853.6
460.221	23811.6
460.856	23927.6
461.489	23755.6
462.122	24071.6
462.755	24136.6
463.387	24275.6
464.02	23812.6
464.653	23717.6
465.285	23725.6
465.918	23869.6
466.55	23888.6
467.183	23998.6
467.815	24000.6
468.45	24234.6
469.082	23951.6
469.714	23951.6
470.346	23945.6
470.979	23859.6
471.609	24198.6
472.241	24209.6
472.873	24099.6
473.505	24056.6
474.137	24106.6
474.769	23885.6
475.401	24218.6
476.033	24042.6
476.664	24472.6
477.296	24502.6
477.928	24125.6
478.56	24106.6
479.189	23804.6
479.821	24070.6
480.452	24173.6
481.084	24176.6
481.715	24362.6
482.347	24235.6
482.976	24311.6
483.607	24175.6
484.239	24114.6
484.87	24368.6
485.501	24208.6
486.13	24248.6
486.761	24378.6
487.392	24183.6
488.021	23940.6
488.652	23857.6
489.283	24031.6
489.914	24162.6
490.543	24273.6
491.174	24291.6
491.804	24386.6
492.433	24165.6
493.064	24020.6
493.694	24222.6
494.323	24198.6
494.954	24279.6
495.582	24422.6
496.212	24346.6
496.843	24291.6
497.471	24255.6
498.102	24020.6
498.73	24214.6
499.36	24271.6
499.988	24386.6
500.618	24391.6
501.248	24421.6
501.876	24367.6
502.507	24234.6
503.134	24143.6
503.764	24179.6
504.392	24223.6
505.02	24466.6
505.65	24426.6
506.277	24137.6
506.907	24073.6
507.535	23959.6
508.165	24103.6
508.792	24215.6
509.42	24326.6
510.049	24341.6
510.677	24435.6
511.306	24499.6
511.933	24090.6
512.561	24162.6
513.19	24093.6
513.817	24202.6
514.444	24482.6
515.073	24248.6
515.701	24354.6
516.328	24338.6
516.954	24048.6
517.584	23708.6
518.21	23947.6
518.837	24182.6
519.466	24209.6
520.093	23748.6
520.72	23605.6
521.346	23406.6
521.973	23612.6
522.602	23811.6
523.228	24238.6
523.855	24129.6
524.481	23905.6
525.108	23716.6
525.734	23730.6
526.363	23788.6
526.989	23534.6
527.615	23748.6
528.241	23862.6
528.867	24010.6
529.494	23842.6
530.12	23501.6
530.746	23558.6
531.372	23706.6
531.998	23728.6
532.624	23814.6
533.249	23478.6
533.875	23767.6
534.501	23591.6
535.127	23566.6
535.753	23640.6
536.378	23163.6
537.004	23650.6
537.629	23600.6
538.255	23484.6
538.88	23435.6
539.506	23421.6
540.131	23136.6
540.757	22972.6
541.382	23178.6
542.007	23211.6
542.633	23363.6
543.258	23317.6
543.883	23142.6
544.506	22997.6
545.131	22811.6
545.756	22852.6
546.381	22809.6
547.006	22777.6
547.629	22811.6
548.254	22475.6
548.878	22669.6
549.503	22627.6
550.128	22358.6
550.751	22602.6
551.375	22491
552	22452.3
552.624	22429.9
553.247	22222.7
553.871	21942.3
554.496	22160.2
555.118	21932.7
555.742	22092.3
556.367	22078.6
556.989	22096
557.613	21882.2
558.237	21637.6
558.859	21688.6
559.484	21651.4
560.108	21732.9
560.729	21610.4
561.354	21549.9
561.975	21757.6
562.599	21391.8
563.223	21349.2
563.845	21280.3
564.469	21288.6
565.09	21344.5
565.714	21050.7
566.335	21029.8
566.959	21125.5
567.581	20933.5
568.204	20907.3
568.825	20904.4
569.449	20816.3
570.07	20988.1
570.694	20969.2
571.315	20669.4
571.936	20682.7
572.559	20461.9
573.18	20495.1
573.803	20527.8
574.424	20495.8
575.045	20632.9
575.668	20548.6
576.289	20531.3
576.91	20317.3
577.533	20221.1
578.154	20348.7
578.774	20334.2
579.397	20499.5
580.018	20423
580.638	20354.2
581.261	20179.5
581.882	20039.9
582.502	19905.9
583.122	19962.5
583.745	19790.5
584.365	20045.5
584.986	19994.1
585.606	20010.5
586.226	19780
586.848	19778.4
587.469	19619.1
588.089	19804
588.709	19557.7
589.329	19740.4
589.949	19681.8
590.571	19462.8
591.191	19381
591.81	19289.3
592.43	19220.9
593.05	19174.4
593.67	19207.4
594.289	19201.9
594.909	19193.2
595.529	19101
596.148	18911.2
596.768	18833.6
597.387	18829.5
598.006	18837.8
598.626	18764.9
599.245	18872.6
599.865	18728.7
600.484	18590.2
601.103	18482.4
601.722	18297.7
602.341	18436.6
602.96	18378.1
603.579	18519.9
604.198	18405.3
604.818	18259.6
605.436	18055.3
606.055	17987.5
606.674	17970.1
607.291	17877.7
607.91	17860.6
608.528	17808.7
609.147	17767.4
609.766	17636.2
610.384	17404.7
611.001	17424.2
611.619	17264.3
612.238	17456.2
612.856	17154
613.475	17192.7
614.091	17223.5
614.709	17034.3
615.327	16953.5
615.946	17055.4
616.562	16963
617.18	16768.7
617.798	16977.8
618.414	16623.7
619.032	16638.5
619.65	16471.9
620.266	16428.5
620.884	16500.8
621.502	16377.9
622.117	16261.8
622.735	16260.4
623.351	16282.6
623.968	15989.6
624.586	15956.8
625.202	15853.7
625.819	15782.8
626.435	15953.1
627.052	15742.8
627.667	15847.6
628.285	15840.3
628.9	15628.1
629.517	15396.8
630.135	15391.6
630.75	15442.4
631.365	15467
631.982	15310.9
632.597	15041.9
633.214	14967.8
633.829	14948.6
634.446	14871.4
635.061	14892
635.678	14892.6
636.293	14913.4
636.907	14907
637.524	14870.5
638.139	14829.6
638.753	14846.8
639.37	14528.4
639.985	14720.9
640.599	14656.4
641.216	14805.7
641.83	14579.8
642.445	14469.9
643.061	14096.9
643.675	14048.6
644.289	14010.3
644.906	13881.4
645.52	14018.3
646.134	13771
646.748	13759.9
647.362	13668.6
647.978	13595.2
648.592	13707
649.206	13694.1
649.82	13795.6
650.434	14012.6
651.05	14029.9
651.664	13918.3
652.277	13770.4
652.891	13714.9
653.505	13679.9
654.118	13540.3
654.732	13627.1
655.345	13578.4
655.961	13659.5
656.574	13521.8
657.188	13488.5
657.801	13469.4
658.414	13376.4
659.028	13442.1
659.641	13505.7
660.254	13392.8
660.867	13234.5
661.48	13176.1
662.093	13254.6
662.706	13080.1
663.319	13120.1
663.932	12759.5
664.545	12774.1
665.158	13008.2
665.769	12992.5
666.382	13001.3
666.994	12772.5
667.607	12876.2
668.22	12797.8
668.832	12904.8
669.445	12928.7
670.057	13026.1
670.668	12747.4
671.28	12847.8
671.893	12879.8
672.505	12659.2
673.117	12700.9
673.73	12655.1
674.34	12758.4
674.875	12749.4
675.496	12635.4
676.116	12505.4
676.737	12518.4
677.358	12489.4
677.978	12645.4
678.599	12417.4
679.219	12602.4
679.84	12461.4
680.46	12388.4
681.079	12248.4
681.699	12265.4
682.319	12198.4
682.94	12387.4
683.56	12337.4
684.18	12137.4
684.8	12050.4
685.418	12073.4
686.038	11995.4
686.658	11867.4
687.278	12069.4
687.898	11985.4
688.516	12103.4
689.136	12035.4
689.756	11950.4
690.376	11962.4
690.993	11666.4
691.613	11874.4
692.233	11836.4
692.85	11928.4
693.47	11798.4
694.089	11892.4
694.707	11737.4
695.326	11717.4
695.946	11602.4
696.563	11653.4
697.182	11381.4
697.801	11582.4
698.419	11512.4
699.038	11436.4
699.655	11507.4
700.274	11527.4
700.893	11415.4
701.51	11416.4
702.129	11443.4
702.746	11346.4
703.365	11297.4
703.982	11258.4
704.6	11192.4
705.219	11119.4
705.836	11152.4
706.455	11131.4
707.071	10923.4
707.688	11020.4
708.306	10927.4
708.923	10935.4
709.541	10789.4
710.158	10865.4
710.776	10965.4
711.392	10976.4
712.011	10861.4
712.627	10833.4
713.243	10774.4
713.861	10698.4
714.477	10819.4
715.096	10656.4
715.712	10621.4
716.328	10698.4
716.946	10869.4
717.561	10531.4
718.177	10534.4
718.795	10368.4
719.411	10629.4
720.027	10451.4
720.644	10461.4
721.26	10407.4
721.876	10440.4
722.491	10334.4
723.109	10186.4
723.724	10144.4
724.34	10117.4
724.955	10225.4
725.573	10117.4
726.188	10162.4
726.803	10090.4
727.418	9999.42
728.034	10170.4
728.649	10050.4
729.266	10112.4
729.881	9954.42
730.496	10219.4
731.111	10188.4
731.726	9815.42
732.341	9994.42
732.956	9990.42
733.573	9833.42
734.187	9980.42
734.802	10033.4
735.417	9886.42
736.031	9801.42
736.646	9725.42
737.261	9567.42
737.875	9591.42
738.49	9707.42
739.104	9743.42
739.718	9685.42
740.333	9579.42
740.947	9503.42
741.561	9549.42
742.176	9500.42
742.79	9552.42
743.404	9441.42
744.018	9639.42
744.632	9542.42
745.246	9478.42
745.86	9354.42
746.472	9362.42
747.086	9101.42
747.7	9338.42
748.314	9518.42
748.928	9290.42
749.541	9365.42
750.155	9196.42
750.767	9201.42
751.38	9129.42
751.994	9289.42
752.607	9178.42
753.221	9364.42
753.834	9293.42
754.446	9263.42
755.059	9303.42
755.672	9095.42
756.286	9234.42
756.897	9124.42
757.51	9117.42
758.123	9223.42
758.737	9238.42
759.348	9101.42
759.961	9070.42
760.574	9059.42
761.185	8917.42
761.798	9040.42
762.41	8903.42
763.021	8953.42
763.634	9001.42
764.247	8969.42
764.857	8928.42
765.47	8826.42
766.081	8941.42
766.693	8847.42
767.306	9079.42
767.916	9023.42
768.529	8955.42
769.139	8709.42
769.752	8822.42
770.362	8829.42
770.974	8681.42
771.587	8821.42
772.197	8759.42
772.809	8771.42
773.419	8823.42
774.031	8775.42
774.641	8708.42
775.251	8616.42
775.863	8654.42
776.473	8869.42
777.085	8722.42
777.695	8686.42
778.307	8543.42
778.916	8603.42
779.526	8669.42
780.138	8694.42
780.747	8600.42
781.359	8669.42
781.969	8649.42
782.578	8747.42
783.19	8407.42
783.799	8375.42
784.408	8547.42
785.02	8504.42
785.629	8557.42
786.238	8547.42
786.85	8495.42
787.459	8376.42
788.068	8336.42
788.677	8298.42
789.288	8345.42
789.897	8173.42
790.506	8277.42
791.115	8319.42
791.726	8239.42
792.335	8223.42
792.944	8268.42
793.552	8071.42
794.161	8158.42
794.77	8045.42
795.38	8153.42
795.989	8098.42
796.598	8098.42
797.206	8215.42
797.815	7901.42
798.423	7916.42
799.031	7943.42
799.642	7879.42
800.25	8007.42
800.859	8126.42
801.467	8085.42
802.075	7941.42
802.683	7741.42
803.291	7644.42
803.899	7674.42
804.507	7650.42
805.115	7609.42
805.723	7559.42
806.331	7560.42
806.939	7472.42
807.547	7183.42
808.155	7273.42
808.763	7272.42
809.37	7391.42
809.978	7186.42
810.586	7140.42
811.193	7017.42
811.799	7160.42
812.406	6999.42
813.014	7062.42
813.621	7069.42
814.228	7135.42
814.836	7079.42
815.443	6837.42
816.05	6908.42
816.656	6823.42
817.263	6649.42
817.87	6720.42
818.477	6790.42
819.084	6648.42
819.689	6661.42
820.296	6515.42
820.903	6555.42
821.51	6468.42
822.115	6445.42
822.722	6372.42
823.328	6461.42
823.935	6283.42
824.54	6344.42
825.147	6242.42
825.753	6214.42
826.358	6002.42
826.964	6130.42
827.571	6104.42
828.175	6025.42
828.782	6095.42
829.388	6001.42
829.992	5973.42
830.599	5807.42
831.203	5692.42
831.809	5769.42
832.415	5830.42
833.019	5879.42
833.625	5765.42
834.229	5724.42
834.836	5566.42
835.439	5603.42
836.045	5578.42
836.649	5518.42
837.255	5528.42
837.861	5599.42
838.465	5533.42
839.068	5498.42
839.674	5452.42
840.278	5449.42
840.883	5477.42
841.487	5343.42
842.093	5404.42
842.696	5459.42
843.302	5437.42
843.905	5365.42
844.508	5271.42
845.114	5225.42
845.717	5278.42
846.322	5491.42
846.925	5449.42
847.528	5525.42
848.134	5485.42
848.737	5522.42
849.34	5523.42
849.945	5594.42
850.548	5514.42
851.151	5492.42
851.753	5591.42
852.358	5721.42
852.961	5668.42
853.564	5745.42
854.167	5672.42
854.771	5625.42
855.374	5772.42
855.977	5991.42
856.579	5846.42
857.184	5909.42
857.786	5971.42
858.388	5925.42
858.991	5946.42
859.593	6027.42
860.196	6109.42
860.8	6087.42
861.402	6342.42
862.004	6256.42
862.606	6300.42
863.209	6299.42
863.811	6307.42
864.413	6407.42
865.015	6473.42
865.617	6706.42
866.219	6619.42
866.82	6621.42
867.422	6682.42
868.024	6855.42
868.626	6860.42
869.23	6909.42
869.831	7046.42
870.431	7092.42
871.032	7147.42
871.634	7228.42
872.235	7156.42
872.837	7343.42
873.438	7336.42
874.04	7458.42
874.641	7496.42
875.243	7625.42
875.844	7739.42
876.445	7756.42
877.046	7873.42
877.647	7786.42
878.246	8211.42
878.848	8015.42
879.449	8187.42
880.05	8220.42
880.651	8289.42
881.252	8210.42
881.85	8352.42
882.451	8370.42
883.052	8609.42
883.653	8582.42
884.254	8826.42
884.852	8956.42
885.453	8886.42
886.053	8956.42
886.654	8988.42
887.253	8965.42
887.853	9115.42
888.453	9293.42
889.052	9398.42
889.652	9375.42
890.253	9381.42
890.851	9430.42
891.451	9530.42
892.051	9510.42
892.649	9606.42
893.25	9808.42
893.85	9810.42
894.448	10000.4
895.048	10055.4
895.646	10115.4
896.246	10231.4
896.846	10140.4
897.443	10297.4
898.043	10507.4
898.641	10350.4
899.241	10665.4
899.838	10827.4
900.438	10654.4
901.036	10761.4
901.635	10817.4
902.233	10811.4
902.832	11082.4
903.43	11125.4
904.029	11232.4
904.626	11189.4
905.224	11227.4
905.823	11491.4
906.42	11493.4
907.02	11700.4
907.617	11759.4
908.214	11836.4
908.813	11723.4
909.41	11923.4
910.009	12009.4
910.606	12004.4
911.203	12119.4
911.802	11999.4
912.399	12158.4
912.995	12241.4
913.594	12387.4
914.191	12347.4
914.788	12424.4
915.384	12507.4
915.983	12545.4
916.58	12456.4
917.176	12934.4
917.773	13071.4
918.371	12739.4
918.967	12794.4
919.564	12818.4
920.16	13127.4
920.756	13006.4
921.355	13093.4
921.951	13227.4
922.547	13271.4
923.143	13228.4
923.739	13428.4
924.336	13216.4
924.932	13440.4
925.528	13589.4
926.126	13866.4
926.721	13784.4
927.317	13757.4
927.913	13614.4
928.509	13793.4
929.105	13645.4
929.7	13787.4
930.296	14049.4
930.892	13910.4
931.487	13995.4
932.083	13998.4
932.678	14092.4
933.274	14101.4
933.869	13921.4
934.465	14246.4
935.06	14577.4
935.655	14393.4
936.251	14701.4
936.846	14669.4
937.441	14667.4
938.034	14471.4
938.629	14619.4
939.224	14691.4
939.82	14871.4
940.415	14954.4
941.01	14752.4
941.605	14929.4
942.197	14903.4
942.792	14970.4
943.387	15050.4
943.982	14907.4
944.577	15063.4
945.171	15151.4
945.764	15258.4
946.359	15309.4
946.953	15246.4
947.548	15299.4
948.14	15321.4
948.735	15321.4
949.329	15497.4
949.921	15486.4
950.516	15541.4
951.11	15310.4
951.704	15539.4
952.297	15461.4
952.891	15620.4
953.485	15701.4
954.077	15816.4
954.671	15983.4
955.263	15875.4
955.857	15802.4
956.451	15767.4
957.043	15704.4
957.637	15754.4
958.229	15870.4
958.823	15971.4
959.414	16007.4
960.008	16099.4
960.602	16085.4
961.193	16203.4
961.787	16105.4
962.379	16064.4
962.972	15957.4
963.564	16245.4
964.157	16401.4
964.749	16366.4
965.34	16230.4
965.933	16403.4
966.524	16354.4
967.118	16345.4
967.709	16441.4
968.302	16425.4
968.893	16541.4
969.484	16571.4
970.078	16354.4
970.669	16303.4
971.259	16268.4
971.852	16452.4
972.443	16586.4
973.034	16765.4
973.627	16714.4
974.218	16501.4
974.809	16582.4
975.401	16566.4
975.992	16545.4
976.583	16612.4
977.173	16766.4
977.766	16712.4
978.356	16742.4
978.947	16920.4
979.537	16583.4
980.13	16577.4
980.72	16586.4
981.31	16618.4
981.901	16821.4
982.491	16882.4
983.083	16751.4
983.673	17053.4
984.263	16949.4
984.854	16871.4
985.444	16701.4
986.034	16822.4
986.624	16906.4
987.214	16899.4
987.803	17047.1
988.395	16945.4
988.985	16976.8
989.575	16682.5
990.165	16787.8
990.755	16576.6
991.344	16756.1
991.934	17052.6
992.523	16913.2
993.113	16901.7
993.703	16997.5
994.292	16900.9
994.881	16920.7
995.471	16893.4
996.06	17334.3
996.65	17142.7
997.237	16988.1
997.826	16941.8
998.415	16861.3
999.004	16701.3
999.594	16559.2
1000.18	16847.6
1000.77	16946.4
1001.36	17037
1001.95	16922.7
1002.54	16867
1003.13	16791.4
1003.71	16663.9
1004.3	16505.9
1004.89	16644.8
1005.48	16401.5
1006.07	16867.1
1006.66	16676.2
1007.24	16716.4
1007.83	16538
1008.42	16574.6
1009.01	16519.7
1009.6	16717.3
1010.18	16795.4
1010.77	16693.9
1011.36	16757.3
1011.95	16670.5
1012.53	16664.1
1013.12	16663.1
1013.71	16597.2
1014.3	16653.1
1014.89	16588.1
1015.47	16514
1016.06	16619
1016.65	16779.8
1017.23	16351.2
1017.82	16640.5
1018.41	16482.4
1019	16587.1
1019.58	16575
1020.17	16425
1020.76	16666
1021.34	16493.3
1021.93	16467.2
1022.52	16158.5
1023.1	16327.1
1023.69	16418.9
1024.27	16337.7
1024.86	16412.9
1025.45	16390
1026.04	16249.9
1026.62	16173.2
1027.21	16056.4
1027.79	15936.6
1028.38	16155.1
1028.97	16290.1
1029.55	16210.2
1030.14	16092.5
1030.72	15963.7
1031.31	15999.2
1031.9	15996.3
1032.48	15834.1
1033.07	15794.9
1033.65	15820.2
1034.24	16077.5
1034.82	15985.7
1035.41	15791.6
1035.99	15520.7
1036.58	15450.5
1037.16	15527.3
1037.75	15486.2
1038.33	15670.7
1038.92	15521.5
1039.5	15495.6
1040.09	15397.2
1040.67	15450.1
1041.26	15174.8
1041.84	15015.3
1042.43	15218.5
1043.01	15186
1043.6	15147
1044.18	15076.2
1044.77	14942.7
1045.35	14926
1045.94	14785
1046.52	14640.3
1047.1	14680.6
1047.69	14705.3
1048.27	14697.2
1048.86	14673.6
1049.44	14643
1050.02	14551.2
1050.61	14436.7
1051.19	14331.1
1051.77	14405.2
1052.36	14356.1
1052.94	14228.9
1053.53	14362.3
1054.11	14299.6
1054.69	14020.2
1055.28	13908
1055.86	13984.9
1056.44	13973.5
1057.03	13934.2
1057.61	13849.8
1058.19	13680.6
1058.78	13840.8
1059.36	13845.8
1059.94	13688.4
1060.52	13552.6
1061.11	13373.6
1061.69	13443.6
1062.27	13357.2
1062.86	13470.4
1063.44	13272.5
1064.02	13183.1
1064.6	13118.7
1065.19	12881.5
1065.77	12941.2
1066.35	12837.1
1066.93	12725.6
1067.52	12825.8
1068.1	12656.6
1068.68	12791.4
1069.26	12657.7
1069.84	12529.5
1070.42	12490.5
1071.01	12588.7
1071.59	12449.6
1072.17	12411.5
1072.75	12365.7
1073.33	12237.5
1073.92	11988.9
1074.5	11886.9
1075.08	11864.4
1075.66	11725.9
1076.24	11767.7
1076.82	11571.1
1077.4	11530.3
1077.98	11291
1078.57	11147.7
1079.15	11224.4
1079.73	11307.3
1080.31	11167.2
1080.89	11287.1
1081.47	11269.7
1082.05	11199.8
1082.63	11207.3
1083.21	11026.8
1083.79	11027.1
1084.37	10964.2
1084.95	10975.5
1085.54	10953.7
1086.12	10975.2
1086.7	10785.9
1087.28	10797.9
1087.86	10583.5
1088.44	10383.5
1089.02	10479.5
1089.6	10640.1
1090.18	10504.9
1090.76	10555
1091.34	10377.6
1091.92	10311.6
1092.5	10195.8
1093.07	10150.2
1093.66	10013.5
1094.23	9960.6
1094.81	9909.3
1095.39	9974.64
1095.97	9820.17
1096.55	9777.87
1097.13	9663.52
1097.71	9620.99
1098.29	9602.24
1098.87	9544.96
1099.45	9481.66
1100.03	9598.15
1100.61	9443.46
1101.18	9524.21
1101.77	9386.54
1102.34	9314.16
1102.92	9180.09
1103.5	9268.72
1104.08	9231.1
1104.66	9197.04
1105.24	9117.78
1105.81	9108.02
1106.39	8994
1106.97	8964.66
1107.55	8789.42
1108.13	8699.83
1108.7	8735.08
1109.28	8797.04
1109.86	8672.43
1110.44	8654.86
1111.02	8557.06
1111.59	8533.67
1112.17	8557.91
1112.75	8364.59
1113.33	8394.51
1113.91	8326.35
1114.48	8283.44
1115.06	8308.87
1115.64	8201.28
1116.22	8125.59
1116.79	8060.99
1117.37	8049.35
1117.95	8038.75
1118.52	8076.62
1119.1	7992.36
1119.68	7912.92
1120.26	7772.91
1120.83	7865.22
1121.41	7789.96
1121.99	7740.92
1122.56	7832.76
1123.14	7831.58
1123.72	7821.94
1124.29	7626.53
1124.87	7522.04
1125.45	7480.17
1126.02	7414.4
1126.6	7332.42
1127.18	7399.96
1127.75	7455.44
1128.33	7231.73
1128.9	7359.76
1129.48	7295.1
1130.06	7242.55
1130.63	7270.19
1131.21	7189.69
1131.78	7195.66
1132.36	6988.89
1132.94	7166.15
1133.51	7125.66
1134.09	7087.35
1134.66	6944.46
1135.24	6791.48
1135.81	6820.71
1136.39	6783.94
1136.96	6795.89
1137.54	6756.59
1138.11	6857.83
1138.69	6796.76
1139.26	6706.7
1139.84	6601.51
1140.42	6508.57
1140.99	6507.98
1141.57	6528.05
1142.14	6467.27
1142.71	6636.62
1143.29	6480.28
1143.86	6480.96
1144.44	6480.29
1145.01	6399.78
1145.59	6325.66
1146.16	6329.81
1146.74	6291.29
1147.31	6297.01
1147.88	6272.83
1148.46	6170.69
1149.03	6073.82
1149.61	6013.34
1150.18	6038.26
1150.76	6050.75
1151.33	5894.77
1151.9	5895.39
1152.48	6034.4
1153.05	5911.75
1153.62	5830.36
1154.2	5778.64
1154.77	5749.33
1155.35	5808.73
1155.92	5756.42
1156.49	5775.1
1157.07	5761.65
1157.64	5746.51
1158.21	5662.11
1158.79	5616.07
1159.36	5516.83
1159.93	5587.9
1160.5	5574.45
1161.08	5560.81
1161.65	5495.33
1162.22	5487.57
1162.8	5426.21
1163.37	5226.01
1163.94	5340.07
1164.39	5271.07
1164.98	5343.07
1165.56	5364.07
1166.14	5400.07
1166.72	5243.07
1167.3	5096.07
1167.88	5147.07
1168.46	5124.07
1169.04	5045.07
1169.62	5053.07
1170.2	5017.07
1170.78	5055.07
1171.36	5037.07
1171.94	4909.07
1172.52	4890.07
1173.1	4777.07
1173.68	4843.07
1174.26	4827.07
1174.84	4854.07
1175.42	4845.07
1176	4778.07
1176.58	4708.07
1177.15	4619.07
1177.73	4618.07
1178.31	4684.07
1178.89	4596.07
1179.47	4609.07
1180.05	4601.07
1180.63	4494.07
1181.21	4418.07
1181.79	4495.07
1182.37	4387.07
1182.95	4412.07
1183.53	4422.07
1184.1	4426.07
1184.68	4281.07
1185.26	4327.07
1185.84	4242.07
1186.42	4195.07
1187	4134.07
1187.57	4233.07
1188.15	4253.07
1188.73	4240.07
1189.31	4187.07
1189.89	4130.07
1190.47	4132.07
1191.04	4113.07
1191.62	4012.07
1192.2	3911.07
1192.78	4057.07
1193.36	4014.07
1193.93	3997.07
1194.51	3924.07
1195.09	3891.07
1195.67	3800.07
1196.24	3697.07
1196.82	3750.07
1197.4	3742.07
1197.98	3707.07
1198.55	3736.07
1199.13	3724.07
1199.71	3679.07
1200.29	3746.07
1200.86	3654.07
1201.44	3569.07
1202.02	3614.07
1202.59	3477.07
1203.17	3620.07
1203.75	3502.07
1204.32	3527.07
1204.9	3456.07
1205.48	3408.07
1206.05	3397.07
1206.63	3360.07
1207.21	3332.07
1207.78	3350.07
1208.36	3270.07
1208.94	3232.07
1209.51	3256.07
1210.09	3224.07
1210.66	3126.07
1211.24	3143.07
1211.82	3142.07
1212.39	3175.07
1212.97	3181.07
1213.54	3067.07
1214.12	3039.07
1214.7	2966.07
1215.27	3041.07
1215.85	3010.07
1216.42	3062.07
1217	2956.07
1217.57	2943.07
1218.15	2892.07
1218.73	2905.07
1219.3	2819.07
1219.88	2780.07
1220.45	2760.07
1221.03	2733.07
1221.6	2856.07
1222.18	2756.07
1222.75	2734.07
1223.33	2701.07
1223.9	2681.07
1224.48	2692.07
1225.05	2614.07
1225.63	2551.07
1226.2	2599.07
1226.78	2607.07
1227.35	2571.07
1227.92	2495.07
1228.5	2447.07
1229.07	2441.07
1229.65	2433.07
1230.22	2414.07
1230.8	2353.07
1231.37	2448.07
1231.95	2346.07
1232.52	2364.07
1233.09	2338.07
1233.67	2313.07
1234.24	2308.07
1234.81	2245.07
1235.39	2307.07
1235.96	2314.07
1236.54	2267.07
1237.11	2302.07
1237.68	2281.07
1238.26	2236.07
1238.83	2285.07
1239.4	2184.07
1239.98	2234.07
1240.55	2184.07
1241.12	2154.07
1241.7	2135.07
1242.27	2158.07
1242.84	2174.07
1243.42	2122.07
1243.99	2131.07
1244.56	2081.07
1245.13	2113.07
1245.71	2086.07
1246.28	2101.07
1246.85	2056.07
1247.42	2058.07
1248	2086.07
1248.57	2030.07
1249.14	2068.07
1249.72	2044.07
1250.29	2019.07
1250.86	2028.07
1251.43	1991.07
1252	1950.07
1252.58	2011.07
1253.15	2033.07
1253.72	1994.07
1254.29	1953.07
1254.86	1943.07
1255.44	1998.07
1256.01	1971.07
1256.58	1902.07
1257.15	1952.07
1257.72	1923.07
1258.29	1955.07
1258.86	1926.07
1259.44	2018.07
1260.01	1944.07
1260.58	1905.07
1261.15	1908.07
1261.72	1895.07
1262.29	1918.07
1262.86	1907.07
1263.43	1890.07
1264.01	1902.07
1264.58	1905.07
1265.15	1875.07
1265.72	1892.07
1266.29	1823.07
1266.86	1836.07
1267.43	1867.07
1268	1903.07
1268.57	1928.07
1269.14	1886.07
1269.71	1935.07
1270.28	1809.07
1270.85	1818.07
1271.42	1884.07
1271.99	1911.07
1272.56	1884.07
1273.14	1857.07
1273.71	1841.07
1274.28	1803.07
1274.85	1843.07
1275.41	1852.07
1275.98	1831.07
1276.55	1840.07
1277.12	1747.07
1277.69	1799.07
1278.26	1788.07
1278.83	1790.07
1279.4	1804.07
1279.97	1792.07
1280.54	1846.07
1281.11	1890.07
1281.68	1769.07
1282.25	1793.07
1282.82	1865.07
1283.39	1849.07
1283.96	1858.07
1284.53	1824.07
1285.1	1795.07
1285.66	1799.07
1286.23	1825.07
1286.8	1770.07
1287.37	1806.07
1287.94	1852.07
1288.51	1836.07
1289.08	1793.07
1289.64	1801.07
1290.21	1811.07
1290.78	1756.07
1291.35	1804.07
1291.92	1815.07
1292.49	1868.07
1293.05	1821.07
1293.62	1780.07
1294.19	1760.07
1294.76	1840.07
1295.33	1786.07
1295.9	1786.07
1296.46	1836.07
1297.03	1848.07
1297.6	1796.07
1298.17	1767.07
1298.73	1848.07
1299.3	1754.07
1299.87	1740.07
1300.44	1838.07
1301	1800.07
1301.57	1796.07
1302.14	1841.07
1302.71	1747.07
1303.27	1795.07
1303.84	1795.07
1304.41	1791.07
1304.97	1810.07
1305.54	1786.07
1306.11	1780.07
1306.68	1821.07
1307.24	1779.07
1307.81	1744.07
1308.37	1742.07
1308.94	1761.07
1309.51	1779.07
1310.08	1780.07
1310.64	1772.07
1311.21	1838.07
1311.78	1876.07
1312.34	1768.07
1312.91	1724.07
1313.47	1763.07
1314.04	1856.07
1314.61	1735.07
1315.17	1817.07
1315.74	1841.07
1316.3	1737.07
1316.87	1773.07
1317.43	1791.07
1318	1777.07
1318.57	1759.07
1319.13	1785.07
1319.7	1808.07
1320.26	1772.07
1320.83	1767.07
1321.39	1807.07
1321.96	1777.07
1322.52	1748.07
1323.09	1824.07
1323.66	1780.07
1324.22	1769.07
1324.79	1804.07
1325.35	1755.07
1325.92	1813.07
1326.48	1811.07
1327.05	1825.07
1327.61	1755.07
1328.18	1776.07
1328.74	1759.07
1329.31	1825.07
1329.87	1758.07
1330.43	1780.07
1331	1788.07
1331.56	1778.07
1332.13	1809.07
1332.69	1787.07
1333.26	1793.07
1333.82	1780.07
1334.38	1788.07
1334.95	1757.07
1335.51	1755.07
1336.08	1772.07
1336.64	1779.07
1337.21	1767.07
1337.77	1827.07
1338.33	1709.07
1338.9	1740.07
1339.46	1774.07
1340.02	1804.07
1340.59	1755.07
1341.15	1738.07
1341.71	1690.07
1342.28	1795.07
1342.84	1682.07
1343.4	1756.07
1343.97	1783.07
1344.53	1752.07
1345.09	1767.07
1345.66	1753.07
1346.22	1744.07
1346.78	1665.07
1347.35	1702.07
1347.91	1699.07
1348.47	1769.07
1349.03	1741.07
1349.6	1793.07
1350.16	1750.07
1350.72	1756.07
1351.28	1784.07
1351.85	1833.07
1352.41	1769.07
1352.97	1759.07
1353.53	1793.07
1354.1	1732.07
1354.66	1739.07
1355.22	1727.07
1355.78	1775.07
1356.34	1767.07
1356.91	1808.07
1357.47	1779.07
1358.03	1764.07
1358.59	1769.07
1359.16	1788.07
1359.72	1739.07
1360.28	1788.07
1360.84	1724.07
1361.4	1724.07
1361.96	1764.07
1362.53	1788.07
1363.09	1777.07
1363.65	1717.07
1364.21	1697.07
1364.77	1776.07
1365.33	1725.07
1365.89	1750.07
1366.45	1779.07
1367.01	1742.07
1367.58	1748.07
1368.14	1791.07
1368.7	1733.07
1369.26	1763.07
1369.82	1737.07
1370.38	1728.07
1370.94	1748.07
1371.5	1740.07
1372.06	1837.07
1372.62	1735.07
1373.18	1755.07
1373.74	1775.07
1374.3	1761.07
1374.86	1753.07
1375.42	1788.07
1375.98	1785.07
1376.54	1742.07
1377.1	1770.07
1377.66	1740.07
1378.22	1770.07
1378.78	1734.07
1379.34	1743.07
1379.9	1801.07
1380.46	1748.07
1381.02	1788.07
1381.58	1760.07
1382.14	1772.07
1382.7	1787.07
1383.26	1760.07
1383.82	1799.07
1384.38	1750.07
1384.94	1796.07
1385.5	1779.07
1386.06	1801.07
1386.61	1786.07
1387.18	1788.07
1387.73	1849.07
1388.29	1788.07
1388.85	1769.07
1389.41	1777.07
1389.97	1769.07
1390.53	1740.07
1391.09	1780.07
1391.65	1751.07
1392.2	1732.07
1392.76	1694.07
1393.32	1748.07
1393.88	1783.07
1394.44	1764.07
1394.99	1767.07
1395.55	1816.07
1396.11	1766.07
1396.67	1720.07
1397.23	1657.07
1397.79	1756.07
1398.34	1758.07
1398.9	1778.07
1399.46	1760.07
1400.02	1793.07
