33.6772	7947.31
34.3526	8251.31
35.028	8667.31
35.7033	9081.31
36.3786	9874.31
37.0538	10321.3
37.729	10967.3
38.4042	11329.3
39.0793	11564.3
39.7543	11895.3
40.4294	11943.3
41.1043	12231.3
41.7792	12439.3
42.4541	12577.3
43.1289	12683.3
43.8037	12801.3
44.4784	13153.3
45.1531	13168.3
45.8277	13391.3
46.5023	13553.3
47.1746	13743.3
47.8491	13873.3
48.5235	14096.3
49.1979	14207.3
49.8722	14441.3
50.5466	14636.3
51.2208	14769.3
51.8927	14811.3
52.5669	15127.3
53.241	15050.3
53.9151	15132.3
54.5891	15229.3
55.2631	15431.3
55.9347	15577.3
56.6086	15516.3
57.2824	15509.3
57.9562	15471.3
58.6277	15764.3
59.3014	15821.3
59.975	16053.3
60.6486	16322.3
61.3199	16674.3
61.9934	16547.3
62.6668	16327.3
63.338	16448.3
64.0113	16471.3
64.6847	16274.3
65.3556	16404.3
66.0289	16295.3
66.702	16552.3
67.3729	16421.3
68.046	16603.3
68.719	16840.3
69.3897	16910.3
70.0627	16718.3
70.7333	16739.3
71.4061	16824.3
72.0767	16675.3
72.7494	16761.3
73.4221	17127.3
74.0925	17209.3
74.7651	17221.3
75.4354	17268.3
76.1079	17150.3
76.7781	17036.3
77.4506	17187.3
78.1207	17280.3
78.793	17342.3
79.463	17228.3
80.1353	17055.3
80.8052	17195.3
81.4773	17096.3
82.1472	17133.3
82.8169	17293.3
83.4889	17242.3
84.1586	17320.3
84.8305	17270.3
85.5001	17389.3
86.1697	17324.3
86.8415	17235.3
87.5109	17241.3
88.1826	17221.3
88.852	17142.3
89.5213	17089.3
90.1928	16867.3
90.862	17148.3
91.5312	17251.3
92.2026	17155.3
92.8717	17311.3
93.5407	17465.3
94.212	17065.3
94.8809	17380.3
95.5498	16930.3
96.2187	17139.3
96.8898	17251.3
97.5585	17435.3
98.2272	17119.3
98.8959	17227.3
99.5645	17020.3
100.235	17089.3
100.904	16967.3
101.572	17119.3
102.241	16983.3
102.909	16951.3
103.58	16613.3
104.248	16868.3
104.916	16788.3
105.585	17026.3
106.253	16852.3
106.921	17057.3
107.589	16968.3
108.257	16994.3
108.927	16987.3
109.595	16894.3
110.263	17073.3
110.931	16932.3
111.599	16896.3
112.266	16811.3
112.934	16744.3
113.602	16475.3
114.269	16631.3
114.937	16806.3
115.604	16659.3
116.272	16762.3
116.939	16792.3
117.607	16807.3
118.274	16858.3
118.941	16928.3
119.608	16905.3
120.276	16687.3
120.943	16812.3
121.61	16625.3
122.277	16681.3
122.944	16216.3
123.608	16233.3
124.275	16255.3
124.942	16430.3
125.609	16384.3
126.276	16332.3
126.943	16519.3
127.609	16290.3
128.274	15937.3
128.94	16295.3
129.607	16256.3
130.273	16355.3
130.94	16526.3
131.606	16475.3
132.27	16379.3
132.936	16479.3
133.603	16262.3
134.269	16183.3
134.933	16263.3
135.599	15965.3
136.265	15739.3
136.931	15682.3
137.595	15581.3
138.261	15591.3
138.927	15513.3
139.59	15609.3
140.256	15746.3
140.922	15756.3
141.585	15922.3
142.251	15829.3
142.917	15864.3
143.58	16053.3
144.245	16212.3
144.911	16070.3
145.574	16101.3
146.239	15871.3
146.902	15799.3
147.568	15664.3
148.233	16012.3
148.896	15898.3
149.561	16049.3
150.224	15804.3
150.889	16131.3
151.552	15861.3
152.217	15820.3
152.879	15710.3
153.544	15818.3
154.207	15992.3
154.872	16081.3
155.534	15713.3
156.199	15600.3
156.861	15577.3
157.526	15577.3
158.188	15359.3
158.853	15466.3
159.515	15132.3
160.177	15208.3
160.841	15115.3
161.504	15094.3
162.168	15531.3
162.83	15291.3
163.492	15508.3
164.156	15476.3
164.818	15450.3
165.48	15550.3
166.144	15436.3
166.805	15493.3
167.467	15619.3
168.131	15560.3
168.792	15604.3
169.454	15703.3
170.118	15292.3
170.779	15329.3
171.44	15397.3
172.102	15524.3
172.765	15588.3
173.427	15481.3
174.088	15265.3
174.749	15211.3
175.41	15059.3
176.073	15230.3
176.734	15330.3
177.395	15334.3
178.056	15333.3
178.717	15121.3
179.38	15054.3
180.041	15008.3
180.702	15338.3
181.363	15258.3
182.023	15407.3
182.684	15223.3
183.344	15003.3
184.005	15027.3
184.666	15055.3
185.328	15099.3
185.989	15122.3
186.649	15057.3
187.309	15319.3
187.969	15228.3
188.63	15150.3
189.29	15314.3
189.95	15170.3
190.61	15320.3
191.27	15238.3
191.93	15095.3
192.59	15097.3
193.25	15019.3
193.91	14969.3
194.57	15110.3
195.229	15106.3
195.889	15248.3
196.546	15211.3
197.206	15077.3
197.866	14975.3
198.525	15224.3
199.185	15111.3
199.844	15357.3
200.503	15172.3
201.163	15195.3
201.822	14929.3
202.479	14899.3
203.138	14922.3
203.798	14815.3
204.457	14913.3
205.116	14851.3
205.772	14844.3
206.431	14912.3
207.09	15125.3
207.749	14989.3
208.408	15114.3
209.065	15256.3
209.723	15225.3
210.382	15222.3
211.041	15090.3
211.697	15287.3
212.356	15103.3
213.014	15263.3
213.671	15264.3
214.329	15246.3
214.987	15071.3
215.644	15214.3
216.302	14955.3
216.96	15131.3
217.616	15271.3
218.274	15217.3
218.932	15209.3
219.588	15216.3
220.246	14928.3
220.902	15052.3
221.56	14903.3
222.218	14940.3
222.874	14981.3
223.531	14977.3
224.187	15239.3
224.845	15156.3
225.5	14968.3
226.158	14997.3
226.813	15230.3
227.471	15301.3
228.126	15385.3
228.783	15423.3
229.438	15411.3
230.096	15313.3
230.751	14970.3
231.408	15335.3
232.063	15171.3
232.718	15193.3
233.375	15267.3
234.03	15167.3
234.687	15010.3
235.342	15105.3
235.997	15262.3
236.653	15133.3
237.308	15255.3
237.965	15470.3
238.619	15410.3
239.274	15202.3
239.931	15325.3
240.585	15171.3
241.239	15272.3
241.896	15267.3
242.55	15559.3
243.204	15324.3
243.859	15258.3
244.515	15283.3
245.169	15395.3
245.823	15193.3
246.477	15409.3
247.133	15292.3
247.787	15439.3
248.441	15447.3
249.095	15420.3
249.749	15632.3
250.405	15287.3
251.058	15567.3
251.712	15533.3
252.366	15549.3
253.019	15902.3
253.673	15738.3
254.328	15400.3
254.982	15636.3
255.635	15643.3
256.289	15589.3
256.942	15808.3
257.595	15785.3
258.248	15618.3
258.901	15775.3
259.555	15508.3
260.208	15616.3
260.861	15610.3
261.514	15554.3
262.166	15567.3
262.819	15507.3
263.472	15549.3
264.125	15676.3
264.778	15686.3
265.43	15818.3
266.083	15769.3
266.736	15960.3
267.388	15837.3
268.041	15779.3
268.693	15679.3
269.346	16008.3
269.998	15833.3
270.651	15967.3
271.303	16129.3
271.955	15951.3
272.605	15740.3
273.257	15775.3
273.909	15847.3
274.561	15934.3
275.214	16177.3
275.866	16116.3
276.517	16148.3
277.167	16165.3
277.819	16057.3
278.471	16043.3
279.123	16336.3
279.772	16255.3
280.424	16199.3
281.075	16253.3
281.727	16184.3
282.379	15977.3
283.028	16348.3
283.679	16265.3
284.331	16391.3
284.98	16359.3
285.631	16365.3
286.282	16407.3
286.931	16078.3
287.583	16132.3
288.234	16399.3
288.883	16390.3
289.534	16163.3
290.185	16233.3
290.834	16370.3
291.484	16483.3
292.133	16439.3
292.784	16579.3
293.435	16423.3
294.083	16703.3
294.734	16532.3
295.382	16469.3
296.033	16522.3
296.681	16535.3
297.332	16882.3
297.98	16681.3
298.631	16960.3
299.279	16782.3
299.929	16568.3
300.577	16777.3
301.228	16735.3
301.876	16780.3
302.526	16895.3
303.174	16895.3
303.824	16923.3
304.472	16922.3
305.122	16739.3
305.769	16793.3
306.417	16846.3
307.067	16965.3
307.714	16997.3
308.364	17218.3
309.012	17094.3
309.659	16910.3
310.309	16799.3
310.956	16713.3
311.604	16906.3
312.253	16849.3
312.9	17061.3
313.548	16805.3
314.195	16855.3
314.844	16909.3
315.491	16955.3
316.138	17088.3
316.785	17342.3
317.434	17378.3
318.081	17192.3
318.728	17367.3
319.375	17220.3
320.024	17541.3
320.671	17393.3
321.317	17215.3
321.964	17359.3
322.611	17492.3
323.257	17491.3
323.906	17431.3
324.552	17225.3
325.199	17452.3
325.845	17724.3
326.491	17683.3
327.138	17553.3
327.784	17654.3
328.43	17684.3
329.076	17664.3
329.725	17610.3
330.371	17443.3
331.017	17731.3
331.663	17861.3
332.309	17695.3
332.954	17664.3
333.6	17698.3
334.246	17646.3
334.892	17747.3
335.538	17945.3
336.183	17813.3
336.829	17978.3
337.474	17927.3
338.12	17911.3
338.766	17827.3
339.409	17986.3
340.054	18099.3
340.699	18057.3
341.345	18215.3
341.99	18072.3
342.635	17840.3
343.281	18155.3
343.926	18085.3
344.571	18337.3
345.214	18503.3
345.859	18445.3
346.504	18264.3
347.149	18345.3
347.793	18411.3
348.436	18243.3
349.081	18318.3
349.726	18345.3
350.37	18358.3
351.015	18388.3
351.657	18106.3
352.302	18361.3
352.947	18299.3
353.589	18542.3
354.233	18491.3
354.878	18423.3
355.522	18611.3
356.164	18601.3
356.808	18515.3
357.453	18752.3
358.095	18636.3
358.739	18747.3
359.383	18789.3
360.025	18816.3
360.669	18666.3
361.31	18648.3
361.954	18388.3
362.598	18717.3
363.24	18805.3
363.884	19064.3
364.525	19001.3
365.169	19095.3
365.81	18958.3
366.454	18984.3
367.098	19025.3
367.739	18988.3
368.382	19240.3
369.024	19046.3
369.667	19074.3
370.308	19060.3
370.949	18924.3
371.593	18974.3
372.234	18981.3
372.877	19264.3
373.518	19198.3
374.161	19164.3
374.802	19191.3
375.445	19142.3
376.085	19175.3
376.726	19256.3
377.369	19449.3
378.01	19355.3
378.65	19484.3
379.293	19402.3
379.934	19324.3
380.574	19371.3
381.217	19283.3
381.857	19598.3
382.497	19424.3
383.14	19495.3
383.78	19395.3
384.42	19265.3
385.06	19353.3
385.703	19405.3
386.343	19623.3
386.983	19869.3
387.623	19740.3
388.265	19735.3
388.905	19721.3
389.545	19458.3
390.185	19789.3
390.824	19817.3
391.466	19992.3
392.106	19983.3
392.746	19848.3
393.385	19829.3
394.025	19475.3
394.664	19901.3
395.304	19859.3
395.945	20063.3
396.585	20279.3
397.224	20264.3
397.863	19837.3
398.503	20009.3
399.142	20006.3
399.781	20119.3
400.42	20354.3
401.059	20271.3
401.698	20247.3
402.337	20125.3
402.976	20229.3
403.615	20034.3
404.254	20152.3
404.893	20368.3
405.532	20339.3
406.17	20611.3
406.809	20307.3
407.448	20249.3
408.086	20189.3
408.725	20273.3
409.363	20369.3
410	20610.3
410.638	20503.3
411.276	20497.3
411.915	20591.3
412.553	20609.3
413.191	20613.3
413.83	20697.3
414.466	20787.3
415.104	20684.3
415.742	20675.3
416.38	20457.3
417.018	20659.3
417.654	20678.3
418.292	20740.3
418.93	20799.3
419.567	21021.3
420.205	20863.3
420.841	20888.3
421.478	20941.3
422.116	20921.3
422.751	20747.3
423.389	21165.3
424.027	21117.3
424.662	21375.3
425.299	21215.3
425.937	21360.3
426.572	21027.3
427.209	21200.3
427.847	21316.3
428.482	21456.3
429.119	21694.3
429.756	21375.3
430.391	21463.3
431.028	21543.3
431.663	21456.3
432.3	21505.3
432.934	21536.3
433.571	21592.3
434.208	21576.3
434.843	21338.3
435.48	21246.3
436.114	20935.3
436.751	21410.3
437.385	21812.3
438.022	22009.3
438.656	21783.3
439.293	21702.3
439.927	21583.3
440.561	21669.3
441.198	21783.3
441.832	21607.3
442.468	21939.3
443.102	21881.3
443.736	21650.3
444.372	21916.3
445.006	21765.3
445.642	21711.3
446.276	21687.3
446.91	21927.3
447.546	22079.3
448.18	22444.3
448.813	21952.3
449.449	21924.3
450.083	21944.3
450.716	21959.3
451.352	22179.3
451.986	22070.3
452.619	22519.3
453.252	21936.3
453.888	22295.3
454.521	22060.3
455.154	21885.3
455.788	22024.3
456.421	22147.3
457.056	21880.3
457.689	22087.3
458.322	21952.3
458.955	21811.3
459.588	21989.3
460.221	21911.3
460.856	21936.3
461.489	22191.3
462.122	22401.3
462.755	22024.3
463.387	21956.3
464.02	21807.3
464.653	21757.3
465.285	21925.3
465.918	22243.3
466.55	21971.3
467.183	21703.3
467.815	21959.3
468.45	21915.3
469.082	21571.3
469.714	21773.3
470.346	22010.3
470.979	21919.3
471.609	21843.3
472.241	21986.3
472.873	21796.3
473.505	21655.3
474.137	21426.3
474.769	21743.3
475.401	21628.3
476.033	21559.3
476.664	21575.3
477.296	21533.3
477.928	21503.3
478.56	21463.3
479.189	21335.3
479.821	21602.3
480.452	21335.3
481.084	21480.3
481.715	21372.3
482.347	21381.3
482.976	21457.3
483.607	21377.3
484.239	21344.1
484.87	21464.3
485.501	21572.3
486.13	21574.3
486.761	21265.3
487.392	21298.3
488.021	21188.3
488.652	21181.3
489.283	20951.3
489.914	21329.3
490.543	21069.3
491.174	21076.3
491.804	21024.3
492.433	20981.3
493.064	21055.3
493.694	21121.3
494.323	21170.3
494.954	20863.3
495.582	21029.3
496.212	20686.3
496.843	20579.3
497.471	20823.3
498.102	20588.3
498.73	20775.3
499.36	20792.3
499.988	20265.3
500.618	20115.3
501.248	20210.3
501.876	20155.3
502.507	20159.3
503.134	20010.3
503.764	19997.3
504.392	19751.3
505.02	19639.3
505.65	19492.3
506.277	19700.3
506.907	19200.3
507.535	19307.3
508.165	19223.3
508.792	19087.3
509.42	18890.3
510.049	18764.3
510.677	18567.3
511.306	18700.3
511.933	18459.3
512.561	18580.3
513.19	18504.3
513.817	18225.3
514.444	18007.3
515.073	17839.3
515.701	17605.3
516.328	17816.3
516.954	17677.3
517.584	17646.3
518.21	17567.3
518.837	17249.3
519.466	16919.3
520.093	17015.3
520.72	16747.3
521.346	16934.3
521.973	16628.3
522.602	16711.3
523.228	16432.3
523.855	16485.3
524.481	16215.3
525.108	16206.3
525.734	16163.3
526.363	16174.3
526.989	16247.3
527.615	15867.3
528.241	15756.3
528.867	15777.3
529.494	15710.3
530.12	15772.3
530.746	15660.3
531.372	15626.3
531.998	15557.3
532.624	15473.3
533.249	15329.3
533.875	15267.3
534.501	15080.3
535.127	15133.3
535.753	15204.3
536.378	15041.3
537.004	14771.3
537.629	14755.3
538.255	14633.3
538.88	14647.3
539.506	14515.3
540.131	14445.3
540.757	14248.3
541.382	14447.3
542.007	14393.3
542.633	14148.3
543.258	14187.3
543.883	14017.3
544.506	14081.6
545.131	13886.4
545.756	14137.2
546.381	13784.2
547.006	13747.7
547.629	13603.5
548.254	13439.4
548.878	13458.8
549.503	13511.7
550.128	13329.1
550.751	13329.8
551.375	13420.2
552	13225.4
552.624	13174.9
553.247	13025.9
553.871	12731.9
554.496	13107
555.118	12924.6
555.742	12789
556.367	12694
556.989	12675.8
557.613	12533.4
558.237	12456.1
558.859	12594.4
559.484	12446.9
560.108	12542.8
560.729	12487.4
561.354	12275
561.975	12238.3
562.599	12099.7
563.223	12060
563.845	12148.5
564.469	12063.3
565.09	11952.1
565.714	11875.1
566.335	11755.6
566.959	11756.6
567.581	11737.3
568.204	11700.8
568.825	11798.4
569.449	11665.4
570.07	11493.2
570.694	11434.5
571.315	11423.5
571.936	11408.1
572.559	11478.7
573.18	11374.4
573.803	11455.9
574.424	11308.7
575.045	11287.2
575.668	11153.1
576.289	11162.7
576.91	11085.4
577.533	11084.4
578.154	11134.1
578.774	11140.8
579.397	11112.8
580.018	11027.1
580.638	11063
581.261	10979.6
581.882	11052
582.502	11026.7
583.122	10892.9
583.745	10927.5
584.365	10789
584.986	10814
585.606	10855.7
586.226	10746.6
586.848	10744
587.469	10722.9
588.089	10850.9
588.709	10657.4
589.329	10707.9
589.949	10700.6
590.571	10621.3
591.191	10627.2
591.81	10616
592.43	10621.5
593.05	10664.4
593.67	10527.1
594.289	10635.1
594.909	10352.5
595.529	10420.9
596.148	10362.7
596.768	10443.8
597.387	10314.7
598.006	10423.7
598.626	10263.6
599.245	10233.5
599.865	10283.9
600.484	10286.1
601.103	10255.6
601.722	10195.7
602.341	10238.3
602.96	10044.3
603.579	10184.4
604.198	10054.6
604.818	9905.92
605.436	9888.34
606.055	9863.93
606.674	9907.65
607.291	9865.47
607.91	9761.89
608.528	9845.8
609.147	9741.9
609.766	9654.12
610.384	9683.94
611.001	9632.38
611.619	9532.42
612.238	9552.92
612.856	9424.27
613.475	9375.21
614.091	9271.46
614.709	9216.72
615.327	9260.4
615.946	9266.91
616.562	9181.14
617.18	9107.23
617.798	9047.75
618.414	8936.99
619.032	9046.25
619.65	8900.41
620.266	8861.19
620.884	8936.23
621.502	8779.39
622.117	8745.34
622.735	8642.13
623.351	8667.26
623.968	8496.52
624.586	8469.72
625.202	8500.79
625.819	8303.95
626.435	8360.79
627.052	8305.58
627.667	8125.32
628.285	8159.53
628.9	8125.23
629.517	8128.51
630.135	8162.29
630.75	8179.55
631.365	8096.17
631.982	8163.88
632.597	8093.12
633.214	7970.39
633.829	7848.54
634.446	7885.16
635.061	7781.21
635.678	7818.14
636.293	7838.51
636.907	7623.79
637.524	7609.34
638.139	7639.9
638.753	7529.8
639.37	7369.31
639.985	7313.37
640.599	7336.15
641.216	7370.62
641.83	7413.93
642.445	7552.16
643.061	7393.54
643.675	7311.01
644.289	7334.38
644.906	7298.68
645.52	7380.52
646.134	7389.78
646.748	7174.2
647.362	7238.6
647.978	7207.8
648.592	7147.67
649.206	7136.4
649.82	7228.08
650.434	7106.06
651.05	6964.89
651.664	7040.38
652.277	7013.47
652.891	7072.89
653.505	7003.48
654.118	7003.75
654.732	7049.95
655.345	6922.03
655.961	6703.25
656.574	6833.82
657.188	6805.05
657.801	6729.12
658.414	6660.74
659.028	6691.41
659.641	6644.15
660.254	6531.5
660.867	6525.58
661.48	6646.73
662.093	6573.42
662.706	6662.5
663.319	6628.35
663.932	6588.63
664.545	6610.13
665.158	6641.4
665.769	6692.82
666.382	6665.23
666.994	6508.59
667.607	6579.96
668.22	6539.69
668.772	6548.69
669.393	6502.69
670.014	6546.69
670.636	6466.69
671.257	6481.69
671.878	6546.69
672.499	6548.69
673.12	6571.69
673.74	6389.69
674.361	6402.69
674.982	6420.69
675.601	6410.69
676.221	6358.69
676.842	6250.69
677.463	6492.69
678.083	6348.69
678.704	6364.69
679.325	6330.69
679.945	6299.69
680.563	6365.69
681.184	6233.69
681.804	6248.69
682.424	6452.69
683.045	6184.69
683.663	6181.69
684.283	6220.69
684.903	6138.69
685.523	6273.69
686.141	6270.69
686.761	6322.69
687.381	6233.69
688.001	6270.69
688.619	6090.69
689.239	6231.69
689.859	6180.69
690.476	6094.69
691.096	6157.69
691.716	6191.69
692.333	6154.69
692.953	6269.69
693.573	6060.69
694.19	6130.69
694.81	6246.69
695.429	6180.69
696.046	6067.69
696.666	6116.69
697.283	6080.69
697.902	6048.69
698.519	5979.69
699.139	5875.69
699.758	6036.69
700.375	5923.69
700.994	5999.69
701.611	5999.69
702.23	6034.69
702.847	5951.69
703.466	5962.69
704.082	5994.69
704.701	6019.69
705.318	6020.69
705.937	6013.69
706.553	5894.69
707.17	5993.69
707.788	6016.69
708.405	5885.69
709.023	5974.69
709.64	6105.69
710.256	6000.69
710.875	6020.69
711.491	5847.69
712.109	5922.69
712.725	6005.69
713.341	5931.69
713.96	5928.69
714.576	5943.69
715.192	5847.69
715.81	5907.69
716.426	5772.69
717.042	5824.69
717.658	5793.69
718.276	5822.69
718.891	5938.69
719.507	5859.69
720.125	5808.69
720.741	5872.69
721.356	5889.69
721.972	5829.69
722.587	5907.69
723.205	5772.69
723.82	5930.69
724.436	5930.69
725.051	5926.69
725.667	5812.69
726.282	5800.69
726.899	5806.69
727.514	5809.69
728.13	5839.69
728.745	5788.69
729.36	5838.69
729.975	5898.69
730.59	5802.69
731.205	5779.69
731.82	5786.69
732.435	5770.69
733.052	5853.69
733.666	5761.69
734.281	5953.69
734.896	5804.69
735.511	5716.69
736.125	5730.69
736.74	5679.69
737.354	5870.69
737.969	5731.69
738.583	5834.69
739.198	5684.69
739.81	5788.69
740.425	5728.69
741.039	5732.69
741.653	5866.69
742.267	5741.69
742.882	5765.69
743.496	5766.69
744.11	5725.69
744.724	5823.69
745.338	5784.69
745.95	5904.69
746.564	5847.69
747.178	5933.69
747.792	5936.69
748.405	5824.69
749.019	5854.69
749.631	5857.69
750.245	5876.69
750.858	5847.69
751.472	5959.69
752.086	5837.69
752.697	5793.69
753.31	5835.69
753.924	5734.69
754.537	5876.69
755.149	5883.69
755.762	5896.69
756.375	5892.69
756.986	5878.69
757.6	5858.69
758.213	5973.69
758.824	5969.69
759.437	6020.69
760.05	5920.69
760.661	6083.69
761.274	6010.69
761.887	6013.69
762.498	6050.69
763.111	5857.69
763.721	6036.69
764.334	6100.69
764.945	6025.69
765.557	6074.69
766.17	6058.69
766.781	5992.69
767.393	6156.69
768.004	6081.69
768.616	6087.69
769.226	6145.69
769.839	6117.69
770.449	6219.69
771.061	6214.69
771.672	6210.69
772.284	6191.69
772.894	6248.69
773.504	6168.69
774.116	6306.69
774.726	6196.69
775.338	6215.69
775.948	6450.69
776.56	6421.69
777.17	6256.69
777.78	6274.69
778.392	6337.69
779.001	6354.69
779.611	6476.69
780.223	6377.69
780.832	6404.69
781.442	6507.69
782.054	6592.69
782.663	6440.69
783.272	6498.69
783.884	6601.69
784.493	6668.69
785.103	6449.69
785.712	6549.69
786.323	6584.69
786.932	6537.69
787.542	6536.69
788.151	6760.69
788.76	6690.69
789.371	6653.69
789.98	6726.69
790.589	6682.69
791.198	6673.69
791.807	6674.69
792.415	6576.69
793.026	6760.69
793.635	6654.69
794.244	6577.69
794.852	6739.69
795.461	6679.69
796.07	6757.69
796.678	6685.69
797.287	6698.69
797.895	6710.69
798.504	6644.69
799.114	6709.69
799.722	6752.69
800.331	6665.69
800.939	6598.69
801.547	6584.69
802.156	6659.69
802.764	6510.69
803.372	6622.69
803.98	6554.69
804.588	6510.69
805.194	6571.69
805.802	6635.69
806.41	6498.69
807.018	6532.69
807.625	6766.69
808.233	6702.69
808.841	6696.69
809.449	6623.69
810.056	6575.69
810.664	6558.69
811.269	6634.69
811.877	6623.69
812.484	6616.69
813.092	6599.69
813.699	6576.69
814.307	6488.69
814.912	6515.69
815.519	6421.69
816.127	6427.69
816.734	6452.69
817.341	6482.69
817.946	6463.69
818.553	6312.69
819.16	6363.69
819.767	6444.69
820.372	6382.69
820.979	6280.69
821.586	6333.69
822.191	6351.69
822.798	6241.69
823.405	6223.69
824.009	6154.69
824.616	6082.69
825.223	6080.69
825.827	6152.69
826.434	6146.69
827.04	6128.69
827.645	6078.69
828.251	5975.69
828.856	5928.69
829.462	5882.69
830.066	5936.69
830.673	5823.69
831.279	5883.69
831.883	5945.69
832.489	5814.69
833.093	5773.69
833.699	5675.69
834.303	5776.69
834.909	5623.69
835.513	5643.69
836.119	5662.69
836.723	5558.69
837.329	5499.69
837.933	5555.69
838.536	5469.69
839.142	5398.69
839.746	5378.69
840.352	5463.69
840.955	5368.69
841.559	5339.69
842.164	5376.69
842.768	5306.69
843.373	5212.69
843.977	5234.69
844.58	5235.69
845.185	5085.69
845.789	5157.69
846.392	5012.69
846.995	5076.69
847.6	5078.69
848.203	4994.69
848.806	5033.69
849.411	4848.69
850.014	4870.69
850.617	4987.69
851.22	4784.69
851.825	4806.69
852.428	4638.69
853.031	4719.69
853.633	4697.69
854.236	4658.69
854.841	4732.69
855.443	4618.69
856.046	4782.69
856.649	4476.69
857.251	4625.69
857.854	4616.69
858.456	4599.69
859.06	4577.69
859.663	4489.69
860.265	4532.69
860.867	4580.69
861.469	4579.69
862.072	4500.69
862.674	4518.69
863.276	4522.69
863.878	4581.69
864.48	4577.69
865.082	4524.69
865.684	4436.69
866.286	4368.69
866.888	4385.69
867.49	4484.69
868.091	4443.69
868.693	4520.69
869.295	4507.69
869.896	4503.69
870.498	4504.69
871.1	4464.69
871.701	4393.69
872.303	4479.69
872.902	4575.69
873.504	4578.69
874.105	4525.69
874.706	4662.69
875.308	4557.69
875.909	4547.69
876.51	4516.69
877.109	4647.69
877.711	4652.69
878.312	4602.69
878.913	4720.69
879.514	4734.69
880.113	4546.69
880.714	4602.69
881.315	4595.69
881.915	4748.69
882.514	4602.69
883.115	4668.69
883.716	4754.69
884.317	4717.69
884.915	4758.69
885.516	4649.69
886.116	4695.69
886.715	4776.69
887.315	4844.69
887.916	4853.69
888.514	4830.69
889.115	4813.69
889.715	4737.69
890.313	4826.69
890.914	4754.69
891.512	4869.69
892.112	4998.69
892.712	4954.69
893.31	4896.69
893.911	4881.69
894.509	4796.69
895.109	4987.69
895.706	5023.69
896.306	4938.69
896.904	5020.69
897.504	4993.69
898.102	5008.69
898.702	4951.69
899.299	4897.69
899.899	4995.69
900.497	4995.69
901.096	5070.69
901.694	5065.69
902.291	5051.69
902.891	5058.69
903.488	5085.69
904.088	5050.69
904.685	5139.69
905.282	5128.69
905.882	5197.69
906.479	5197.69
907.076	5183.69
907.675	5102.69
908.272	5192.69
908.869	5256.69
909.469	5276.69
910.066	5282.69
910.662	5288.69
911.261	5222.69
911.858	5255.69
912.455	5291.69
913.052	5272.69
913.651	5259.69
914.247	5436.69
914.844	5407.69
915.441	5337.69
916.037	5379.69
916.636	5381.69
917.233	5385.69
917.829	5440.69
918.425	5388.69
919.022	5399.69
919.618	5455.69
920.217	5393.69
920.813	5489.69
921.409	5458.82
922.005	5516.69
922.602	5455.69
923.198	5455.69
923.794	5480.69
924.39	5500.69
924.986	5637.69
925.582	5439.69
926.178	5491.69
926.774	5626.69
927.37	5514.69
927.965	5450.69
928.561	5566.69
929.157	5620.69
929.753	5576.69
930.348	5708.69
930.944	5596.69
931.54	5599.69
932.135	5631.69
932.731	5686.69
933.326	5672.69
933.922	5617.69
934.517	5763.69
935.112	5759.69
935.708	5689.69
936.303	5750.69
936.896	5778.69
937.491	5784.69
938.086	5762.69
938.682	5825.69
939.277	5709.69
939.872	5819.69
940.465	5786.69
941.06	5829.69
941.655	5824.69
942.25	5761.69
942.844	5974.69
943.437	5877.69
944.032	5809.69
944.627	5960.69
945.219	5818.69
945.814	5900.69
946.409	5871.69
947.003	5917.69
947.596	5954.69
948.19	6049.69
948.785	5956.69
949.377	6047.69
949.971	5994.69
950.566	5921.69
951.158	6039.69
951.752	5917.69
952.345	6033.69
952.939	6004.69
953.533	6100.69
954.125	6037.69
954.719	6161.69
955.311	5946.69
955.905	5982.69
956.497	6008.69
957.091	6080.69
957.683	5968.69
958.277	6122.69
958.868	5983.69
959.462	6147.69
960.054	6149.69
960.648	6035.69
961.239	6059.69
961.833	6065.69
962.424	6081.69
963.018	6168.69
963.609	6200.69
964.203	6177.69
964.794	6181.69
965.386	6132.69
965.979	6284.69
966.57	6343.69
967.161	6439.69
967.755	6214.69
968.346	6344.69
968.939	6199.69
969.53	6225.69
970.121	6239.69
970.712	6239.69
971.305	6246.69
971.896	6475.69
972.487	6221.69
973.08	6322.69
973.671	6311.69
974.262	6286.69
974.852	6312.69
975.445	6460.69
976.036	6355.69
976.626	6474.69
977.217	6548.69
977.807	6484.69
978.4	6358.69
978.99	6447.69
979.581	6427.69
980.171	6441.69
980.762	6442.69
981.352	6486.17
981.942	6491.97
982.535	6489.39
983.125	6529.41
983.715	6456.64
984.305	6458.57
984.895	6552.93
985.485	6565.41
986.075	6551.76
986.665	6474.97
987.255	6443.79
987.845	6547.49
988.435	6613.96
989.025	6578.19
989.615	6564
990.204	6569.07
990.794	6553.07
991.384	6681.94
991.973	6606.58
992.563	6579.36
993.152	6528.01
993.742	6685.61
994.331	6589.77
994.921	6713.91
995.508	6748.9
996.098	6621.31
996.687	6599.88
997.276	6575.36
997.865	6535.64
998.455	6599.48
999.044	6615.08
999.631	6686.65
1000.22	6734.97
1000.81	6775.71
1001.4	6733.92
1001.99	6669.06
1002.57	6685.17
1003.16	6757.18
1003.75	6700.51
1004.34	6860.25
1004.93	6757.48
1005.52	6864.42
1006.1	6858.9
1006.69	6738.47
1007.28	6774
1007.87	6774.7
1008.46	6846.95
1009.04	6864.5
1009.63	6857.95
1010.22	7022.97
1010.81	6958.5
1011.4	6753.67
1011.98	6901.39
1012.57	6895.65
1013.16	7002.88
1013.74	7025.5
1014.33	6966.3
1014.92	6800.69
1015.51	6923.02
1016.1	6880.4
1016.68	6980.94
1017.27	6873.54
1017.86	6925.23
1018.44	6991.18
1019.03	7038.78
1019.62	6992.8
1020.2	6970.6
1020.79	6943.96
1021.38	6826.42
1021.96	7001.48
1022.55	6977.17
1023.13	7208.03
1023.72	7010.92
1024.31	7018.71
1024.9	7063.61
1025.48	6983.76
1026.07	6990.02
1026.65	6979.26
1027.24	7012.28
1027.83	7131.29
1028.41	7137.7
1029	7089.1
1029.58	7059.38
1030.17	7050.14
1030.75	6984.72
1031.34	7006.58
1031.93	7144.93
1032.51	7137.9
1033.1	7224.54
1033.68	7071.07
1034.27	7088.6
1034.85	7037.43
1035.44	7036.2
1036.02	7150.46
1036.61	7038.57
1037.19	6992.94
1037.78	7117.75
1038.36	7088.06
1038.95	7028.41
1039.53	7023.61
1040.12	7019.55
1040.7	7029.29
1041.29	7158.47
1041.87	7129.46
1042.46	7173.74
1043.04	7173.82
1043.63	7082.68
1044.21	6971.57
1044.79	7091.78
1045.38	7064.97
1045.96	7152.09
1046.55	7155.87
1047.13	7211.56
1047.72	7193.35
1048.3	7145.24
1048.88	7061.08
1049.47	7080.93
1050.05	7062.82
1050.63	7099.86
1051.22	7186.61
1051.8	7203.94
1052.38	7046.25
1052.97	7216.72
1053.55	7146.56
1054.14	7072.17
1054.72	7147.59
1055.3	7146.97
1055.89	7129.74
1056.47	7082.97
1057.05	7096.94
1057.63	7089.69
1058.22	7020.54
1058.8	6940.98
1059.38	6977.93
1059.97	7035.27
1060.55	7077.72
1061.13	7039.87
1061.72	7173.89
1062.3	7121.3
1062.88	7045.57
1063.46	7058.97
1064.05	6997.03
1064.63	7130.96
1065.21	7186.87
1065.79	6996.58
1066.37	7149.89
1066.96	7076.38
1067.54	7071.33
1068.12	6944.36
1068.7	7005.24
1069.28	6889.54
1069.87	6958.83
1070.45	6826.71
1071.03	6936.14
1071.61	6867.45
1072.19	6733.38
1072.78	6848.27
1073.36	6912.71
1073.94	6938.75
1074.52	6991.87
1075.1	7102.19
1075.68	7101.27
1076.26	7135.6
1076.84	7001.72
1077.42	6965.19
1078	7050.31
1078.59	6996.07
1079.17	7016.61
1079.75	7026.65
1080.33	7028.96
1080.91	6969.46
1081.49	7015.62
1082.07	6980.44
1082.65	6983.25
1083.23	6936.75
1083.81	7056.65
1084.39	6973.41
1084.97	7044.89
1085.55	7062.89
1086.13	7107.46
1086.72	6937.97
1087.29	6878.29
1087.87	6967.31
1088.46	6913.16
1089.04	6925.42
1089.61	6849.14
1090.2	6803.57
1090.77	6885.41
1091.35	6885.36
1091.93	6878.3
1092.51	6950.61
1093.09	6943.87
1093.67	6997.08
1094.25	6890.91
1094.83	6954.2
1095.41	7012.98
1095.99	6968.81
1096.57	6903.53
1097.15	6867.12
1097.73	6917.11
1098.31	6947.63
1098.89	6898.41
1099.46	6945.62
1100.04	6826.85
1100.62	6886.38
1101.2	6793.74
1101.78	6869.07
1102.36	6908.57
1102.94	6826.3
1103.51	6826.03
1104.09	6829.7
1104.67	6804.98
1105.25	6916.96
1105.83	6865.86
1106.41	6828.17
1106.98	6918.15
1107.56	6915.88
1108.14	6879.5
1108.72	6826.86
1109.3	6729.4
1109.87	6864.34
1110.45	6762.49
1111.03	6809.18
1111.61	6721.13
1112.19	6866.75
1112.76	6850.25
1113.34	6784.17
1113.92	6729.41
1114.5	6749.59
1115.07	6757.39
1115.65	6705.84
1116.23	6738.18
1116.81	6850.66
1117.38	6770.43
1117.96	6830.03
1118.54	6787.1
1119.11	6682.18
1119.69	6736.98
1120.27	6565.71
1120.84	6683.83
1121.42	6697.74
1122	6762.09
1122.57	6649.97
1123.15	6796.85
1123.73	6802.11
1124.3	6782.43
1124.88	6622.42
1125.46	6757.93
1126.03	6742.42
1126.61	6693.2
1127.19	6597.29
1127.76	6558.47
1128.34	6570.94
1128.91	6616
1129.49	6470.64
1130.07	6480.64
1130.64	6637.29
1131.22	6538.92
1131.79	6553.28
1132.37	6530.57
1132.94	6585.7
1133.52	6564.34
1134.09	6436.34
1134.67	6450.15
1135.25	6514.58
1135.82	6582.55
1136.4	6390.13
1136.97	6610.72
1137.55	6586.56
1138.12	6478.55
1138.7	6606.5
1139.27	6441.2
1139.85	6478.07
1140.42	6457.73
1141	6447.37
1141.57	6464.6
1142.15	6342.32
1142.72	6452.35
1143.29	6191.24
1143.87	6223.23
1144.44	6309.82
1145.02	6344.27
1145.59	6324.49
1146.17	6322.75
1146.74	6204.29
1147.32	6279.94
1147.89	6263.63
1148.46	6232.5
1149.04	6292.98
1149.61	6294.67
1150.19	6333.11
1150.76	6283.82
1151.33	6158.21
1151.91	6277.82
1152.48	6184.78
1153.06	6065.16
1153.63	6249.56
1154.2	6153.35
1154.78	6231.36
1155.35	6213.33
1155.92	6121.78
1156.5	6137.87
1157.07	6148.14
1157.64	6083.98
1158.04	6041.98
1158.62	6152.98
1159.2	6018.98
1159.78	6216.98
1160.36	6069.98
1160.94	5915.98
1161.52	6069.98
1162.1	6182.98
1162.68	5962.98
1163.26	5852.98
1163.84	5958.98
1164.42	5881.98
1165	5938.98
1165.58	5901.98
1166.17	5781.98
1166.75	5864.98
1167.32	5970.98
1167.9	6009.98
1168.49	6089.98
1169.07	5918.98
1169.65	5912.98
1170.23	5923.98
1170.81	5797.98
1171.38	5846.98
1171.97	5816.98
1172.55	5770.98
1173.13	5807.98
1173.7	5911.98
1174.28	5831.98
1174.86	5855.98
1175.44	5756.98
1176.02	5805.98
1176.6	5811.98
1177.18	5740.98
1177.76	5761.98
1178.34	5746.98
1178.92	5693.98
1179.5	5692.98
1180.08	5621.98
1180.66	5707.98
1181.23	5671.98
1181.81	5705.98
1182.39	5542.98
1182.97	5599.98
1183.55	5671.98
1184.13	5665.98
1184.71	5480.98
1185.29	5630.98
1185.86	5626.98
1186.44	5614.98
1187.02	5571.98
1187.6	5648.98
1188.18	5599.98
1188.76	5517.98
1189.33	5553.98
1189.91	5486.98
1190.49	5488.98
1191.07	5488.98
1191.64	5526.98
1192.22	5504.98
1192.8	5474.98
1193.38	5619.98
1193.96	5450.98
1194.53	5401.98
1195.11	5494.98
1195.69	5356.98
1196.27	5472.98
1196.84	5480.98
1197.42	5514.98
1198	5338.98
1198.57	5315.98
1199.15	5367.98
1199.73	5284.98
1200.31	5215.98
1200.88	5371.98
1201.46	5266.98
1202.04	5274.98
1202.62	5337.98
1203.19	5264.98
1203.77	5231.98
1204.34	5161.98
1204.92	5238.98
1205.5	5189.98
1206.07	5082.98
1206.65	5227.98
1207.23	5213.98
1207.8	5235.98
1208.38	5087.98
1208.96	5105.98
1209.53	5174.98
1210.11	5179.98
1210.68	5197.98
1211.26	5184.98
1211.84	5137.98
1212.41	5199.98
1212.99	5071.98
1213.56	5059.98
1214.14	4977.98
1214.71	5042.98
1215.29	5064.98
1215.87	5140.98
1216.44	5124.98
1217.02	5059.98
1217.59	4992.98
1218.17	4964.98
1218.74	4973.98
1219.32	4982.98
1219.89	4916.98
1220.47	5011.98
1221.04	4876.98
1221.62	4876.98
1222.19	4896.98
1222.77	4858.98
1223.34	4884.98
1223.92	4859.98
1224.49	4774.98
1225.07	4812.98
1225.64	4631.98
1226.22	4713.98
1226.79	4522.98
1227.37	4722.98
1227.94	4670.98
1228.51	4629.98
1229.09	4788.98
1229.66	4730.98
1230.24	4764.98
1230.81	4678.98
1231.39	4754.98
1231.96	4688.98
1232.53	4677.98
1233.11	4544.98
1233.68	4594.98
1234.25	4598.98
1234.83	4698.98
1235.4	4618.98
1235.98	4632.98
1236.55	4586.98
1237.12	4592.98
1237.7	4588.98
1238.27	4567.98
1238.84	4544.98
1239.42	4472.98
1239.99	4500.98
1240.56	4616.98
1241.13	4564.98
1241.71	4455.98
1242.28	4480.98
1242.85	4401.98
1243.43	4429.98
1244	4440.98
1244.57	4451.98
1245.15	4441.98
1245.72	4399.98
1246.29	4300.98
1246.86	4372.98
1247.44	4395.98
1248.01	4336.98
1248.58	4492.98
1249.15	4267.98
1249.73	4396.98
1250.3	4239.98
1250.87	4447.98
1251.44	4213.98
1252.01	4286.98
1252.59	4364.98
1253.16	4283.98
1253.73	4332.98
1254.3	4295.98
1254.87	4174.98
1255.45	4288.98
1256.02	4063.98
1256.59	4241.98
1257.16	4235.98
1257.73	4236.98
1258.3	4167.98
1258.87	4153.98
1259.45	4056.98
1260.02	4032.98
1260.59	4174.98
1261.16	4048.98
1261.73	4185.98
1262.3	4155.98
1262.87	4175.98
1263.44	4147.98
1264.02	4118.98
1264.59	4171.98
1265.16	4048.98
1265.73	4151.98
1266.3	4202.98
1266.87	4064.98
1267.44	4166.98
1268.01	4187.98
1268.58	4090.98
1269.15	4066.98
1269.72	4122.98
1270.29	4071.98
1270.86	4057.98
1271.43	4262.98
1272	4121.98
1272.57	4118.98
1273.14	4195.98
1273.71	4071.98
1274.28	4106.98
1274.85	4067.98
1275.42	4042.98
1275.99	4102.98
1276.56	4164.98
1277.13	4067.98
1277.7	4133.98
1278.27	4025.98
1278.84	4149.98
1279.41	4211.98
1279.98	4098.98
1280.55	4151.98
1281.12	4122.98
1281.68	4198.98
1282.25	4106.98
1282.82	4119.98
1283.39	4084.98
1283.96	4122.98
1284.53	4156.98
1285.1	4045.98
1285.67	4150.98
1286.24	4113.98
1286.8	4082.98
1287.37	4058.98
1287.94	4236.98
1288.51	4158.98
1289.08	4081.98
1289.65	4167.98
1290.21	4102.98
1290.78	4108.98
1291.35	4158.98
1291.92	4124.98
1292.49	4150.98
1293.06	4140.98
1293.62	4121.98
1294.19	4059.98
1294.76	4066.98
1295.33	4175.98
1295.9	4311.98
1296.46	4238.98
1297.03	4132.98
1297.6	4047.98
1298.17	4185.98
1298.74	4022.98
1299.3	4139.98
1299.87	4162.98
1300.44	4188.98
1301	4126.98
1301.57	4187.98
1302.14	4225.98
1302.71	4122.98
1303.27	4183.98
1303.84	4117.98
1304.41	4134.98
1304.97	4183.98
1305.54	4171.98
1306.11	4098.98
1306.67	4040.98
1307.24	4136.98
1307.81	4197.98
1308.37	4154.98
1308.94	4189.98
1309.51	4311.98
1310.07	4144.98
1310.64	4243.98
1311.21	4164.98
1311.77	4164.98
1312.34	4142.98
1312.9	4192.98
1313.47	4290.98
1314.04	4212.98
1314.6	4145.98
1315.17	4173.98
1315.73	4236.98
1316.3	4200.98
1316.87	4112.98
1317.43	4135.98
1318	4172.98
1318.56	4170.98
1319.13	4186.98
1319.69	4273.98
1320.26	4299.98
1320.82	4206.98
1321.39	4160.98
1321.96	4133.98
1322.52	4206.98
1323.09	4200.98
1323.65	4170.98
1324.22	4183.98
1324.78	4091.98
1325.35	4158.98
1325.91	4196.98
1326.48	4332.98
1327.04	4226.98
1327.6	4170.98
1328.17	4211.98
1328.74	4177.98
1329.3	4357.98
1329.86	4158.98
1330.43	4204.98
1330.99	4251.98
1331.56	4175.98
1332.12	4234.98
1332.68	4295.98
1333.25	4148.98
1333.81	4192.98
1334.38	4246.98
1334.94	4185.98
1335.51	4139.98
1336.07	4199.98
1336.63	4147.98
1337.2	4287.98
1337.76	4316.98
1338.33	4218.98
1338.89	4151.98
1339.45	4233.98
1340.02	4148.98
1340.58	4068.98
1341.14	4228.98
1341.71	4226.98
1342.27	4219.98
1342.83	4294.98
1343.39	4295.98
1343.96	4244.98
1344.52	4258.98
1345.08	4202.98
1345.65	4254.98
1346.21	4363.98
1346.77	4273.98
1347.34	4296.98
1347.9	4263.98
1348.46	4276.98
1349.02	4239.98
1349.59	4257.98
1350.15	4229.98
1350.71	4258.98
1351.27	4264.98
1351.84	4282.98
1352.4	4240.98
1352.96	4329.98
1353.52	4321.98
1354.09	4260.98
1354.65	4230.98
1355.21	4254.98
1355.77	4279.98
1356.33	4316.98
1356.9	4388.98
1357.46	4175.98
1358.02	4283.98
1358.58	4196.98
1359.14	4158.98
1359.7	4208.98
1360.27	4359.98
1360.83	4275.98
1361.39	4261.98
1361.95	4412.98
1362.51	4321.98
1363.07	4391.98
1363.63	4348.98
1364.2	4284.98
1364.76	4342.98
1365.32	4362.98
1365.88	4258.98
1366.44	4311.98
1367	4324.98
1367.56	4295.98
1368.12	4270.98
1368.68	4256.98
1369.24	4273.98
1369.8	4362.98
1370.36	4433.98
1370.93	4383.98
1371.49	4358.98
1372.05	4327.98
1372.61	4314.98
1373.17	4243.98
1373.73	4373.98
1374.29	4336.98
1374.85	4267.98
1375.41	4348.98
1375.97	4347.98
1376.53	4371.98
1377.09	4416.98
1377.65	4336.98
1378.21	4316.98
1378.77	4292.98
1379.33	4451.98
1379.89	4383.98
1380.45	4393.98
1381	4352.98
1381.57	4506.98
1382.12	4352.98
1382.68	4477.98
1383.24	4468.98
1383.8	4358.98
1384.36	4315.98
1384.92	4380.98
1385.48	4437.98
1386.04	4280.98
1386.6	4366.98
1387.16	4385.98
1387.72	4343.98
1388.27	4289.98
1388.83	4532.98
1389.39	4338.98
1389.95	4416.98
1390.51	4424.98
1391.07	4372.98
1391.63	4369.98
1392.18	4437.98
1392.74	4506.98
1393.3	4447.98
1393.86	4445.98
1394.42	4375.98
1394.98	4386.98
1395.53	4399.98
1396.09	4368.98
1396.65	4452.98
1397.21	4417.98
1397.77	4424.98
1398.32	4443.98
1398.88	4423.98
1399.44	4431.98
1400	4509.98
