34.6581	9926.45
35.3335	10204.5
36.0088	10613.5
36.6841	11037.5
37.3593	11839.5
38.0345	12081.5
38.7096	12915.5
39.3847	12945.5
40.0597	13525.5
40.7347	13640.5
41.4096	13865.5
42.0845	14064.5
42.7594	14257.5
43.4342	14544.5
44.1089	14721.5
44.7836	14963.5
45.4583	15445.5
46.1329	15684.5
46.8075	16063.5
47.482	16286.5
48.1542	16638.5
48.8286	16635.5
49.503	17045.5
50.1773	17193.5
50.8516	17651.5
51.5258	17961.5
52.2	18295.5
52.8719	18547.5
53.5459	18435.5
54.22	18826.5
54.894	18995.5
55.568	19434.5
56.2396	19639.5
56.9134	20123.5
57.5872	20091.5
58.261	20220.5
58.9324	20345.5
59.6061	20841.5
60.2797	20980.5
60.9533	21449.5
61.6246	21559.5
62.2981	22105.5
62.9715	22241.5
63.6449	22295.5
64.3159	22524.5
64.9892	22624.5
65.6625	22654.5
66.3334	22979.5
67.0066	22907.5
67.6774	23033.5
68.3505	23359.5
69.0235	23653.5
69.6942	24052.5
70.3671	24007.5
71.04	24035.5
71.7105	24267.5
72.3833	24348.5
73.0537	24549.5
73.7264	24717.5
74.3968	24741.5
75.0694	25207.5
75.7397	25327.5
76.4122	25217.5
77.0823	25466.5
77.7548	25489.5
78.4248	25517.5
79.0972	25629.5
79.7671	25737.5
80.4394	25794.5
81.1093	25763.5
81.7814	25883.5
82.4512	25688.5
83.1232	25835.5
83.7929	25992.5
84.4649	26490.5
85.1345	26391.5
85.8041	26545.5
86.4759	26718.5
87.1453	26487.5
87.8171	26379.5
88.4864	26736.5
89.1558	26588.5
89.8274	26581.5
90.4966	26480.5
91.1658	26487.5
91.8372	26604.5
92.5063	26369.5
93.1754	26808.5
93.8467	26813.5
94.5156	27021.5
95.1846	27173.5
95.8534	26737.5
96.5246	26849.5
97.1933	26979.5
97.8621	27062.5
98.5308	27141.5
99.2017	27100.5
99.8703	26820.5
100.539	26525.5
101.207	26755.5
101.876	26611.5
102.546	26704.5
103.215	26855.5
103.883	26756.5
104.551	26663.5
105.22	26781.5
105.888	26656.5
106.558	26875.5
107.226	27462.5
107.894	27432.5
108.562	27291.5
109.23	27183.5
109.898	27264.5
110.566	27256.5
111.234	27085.5
111.902	26919.5
112.569	27099.5
113.237	26587.5
113.905	26872.5
114.572	26769.5
115.24	26840.5
115.907	26515.5
116.575	26931.5
117.242	27003.5
117.909	27199.5
118.577	27263.5
119.244	27083.5
119.911	26936.5
120.578	26869.5
121.245	26845.5
121.913	27031.5
122.58	26815.5
123.247	26696.5
123.913	26230.5
124.58	26256.5
125.247	26461.5
125.914	26563.5
126.578	26192.5
127.245	26324.5
127.912	26495.5
128.578	26360.5
129.245	26545.5
129.912	26331.5
130.576	26791.5
131.242	27059.5
131.909	26799.5
132.575	26671.5
133.241	26511.5
133.905	26376.5
134.571	26268.5
135.237	25895.5
135.904	25906.5
136.567	26125.5
137.233	25302.5
137.899	25215.5
138.563	25528.5
139.229	24860.5
139.895	24929.5
140.56	25051.5
141.224	25296.5
141.89	25360.5
142.555	25499.5
143.219	25549.5
143.884	25571.5
144.547	25894.5
145.213	26080.5
145.878	26247.5
146.541	26125.5
147.207	25728.5
147.872	25953.5
148.535	25884.5
149.2	25918.5
149.863	25884.5
150.528	26023.5
151.191	26015.5
151.856	25966.5
152.519	25571.5
153.184	25593.5
153.846	25675.5
154.511	25868.5
155.173	25961.5
155.838	25611.5
156.501	25563.5
157.165	25136.5
157.828	25371.5
158.492	25145.5
159.154	25350.5
159.819	25226.5
160.481	24995.5
161.143	25088.5
161.807	25022.5
162.469	24864.5
163.134	25255.5
163.795	25431.5
164.457	25276.5
165.121	25301.5
165.783	25218.5
166.445	25111.5
167.109	25159.5
167.771	25274.5
168.432	25358.5
169.096	25099.5
169.757	25219.5
170.419	25125.5
171.08	24923.5
171.744	24774.5
172.405	24978.5
173.067	25116.5
173.728	24941.5
174.391	25036.5
175.052	24720.5
175.713	24769.5
176.375	24791.5
177.036	24928.5
177.699	24653.5
178.36	24855.5
179.021	24895.5
179.681	24498.5
180.342	24325.5
181.003	24489.5
181.666	24441.5
182.326	24505.5
182.987	24716.5
183.648	24496.5
184.308	24173.5
184.969	24103.5
185.629	24315.5
186.289	24192.5
186.95	24312.5
187.61	24351.5
188.27	24381.5
188.93	24434.5
189.593	24145.5
190.253	24139.5
190.913	24262.5
191.573	24355.5
192.233	24369.5
192.891	24305.5
193.55	24064.5
194.21	23795.5
194.87	23979.5
195.53	24228.5
196.189	24239.5
196.849	24225.5
197.509	23896.5
198.168	23808.5
198.828	23857.5
199.487	23963.5
200.147	23941.5
200.806	24021.5
201.463	24124.5
202.122	23867.5
202.782	23971.5
203.441	23542.5
204.1	23465.5
204.759	23589.5
205.416	23489.5
206.075	23869.5
206.734	23788.5
207.393	23653.5
208.052	23233.5
208.708	23746.5
209.367	23585.5
210.026	23638.5
210.684	23881.5
211.341	23767.5
211.999	23659.5
212.658	23543.5
213.314	23640.5
213.973	23741.5
214.631	23796.5
215.29	23604.5
215.946	23767.5
216.604	23783.5
217.26	23288.5
217.918	23339.5
218.576	23376.5
219.232	23611.5
219.89	23361.5
220.548	23291.5
221.204	23169.5
221.862	22741.5
222.518	22967.5
223.175	23053.5
223.831	23099.5
224.489	23294.5
225.146	23269.5
225.802	23415.5
226.459	23112.5
227.115	23005.5
227.772	23237.5
228.427	23517.5
229.085	23259.5
229.74	23311.5
230.397	23375.5
231.052	23095.5
231.707	22932.5
232.365	23249.5
233.02	23059.5
233.677	23126.5
234.332	23104.5
234.989	22987.5
235.643	23148.5
236.298	22776.5
236.955	22738.5
237.61	23149.5
238.264	23003.5
238.921	22914.5
239.575	22975.5
240.23	22793.5
240.886	22674.5
241.541	22749.5
242.195	22864.5
242.851	22739.5
243.506	23183.5
244.16	23055.5
244.816	23059.5
245.47	22494.5
246.124	22544.5
246.778	22527.5
247.434	22734.5
248.088	22596.5
248.742	22943.5
249.396	22563.5
250.05	22727.5
250.706	22441.5
251.359	22254.5
252.013	22504.5
252.667	22948.5
253.32	22655.5
253.974	22875.5
254.629	22588.5
255.283	22710.5
255.936	22619.5
256.589	22928.5
257.243	22646.5
257.896	22757.5
258.549	22548.5
259.202	22267.5
259.855	22434.5
260.508	22619.5
261.161	22509.5
261.814	22493.5
262.467	22418.5
263.12	22439.5
263.773	22268.5
264.426	22241.5
265.078	22241.5
265.731	22593.5
266.384	22427.5
267.036	22184.5
267.689	22565.5
268.341	22524.5
268.994	22282.5
269.646	22195.5
270.299	22289.5
270.951	22377.5
271.603	22445.5
272.255	22420.5
272.908	22398.5
273.558	22417.5
274.21	22093.5
274.862	22148.5
275.514	22623.5
276.166	22608.5
276.818	22517.5
277.467	22443.5
278.119	22415.5
278.771	22335.5
279.423	22199.5
280.074	22307.5
280.724	22290.5
281.375	22346.5
282.027	22355.5
282.679	22215.5
283.328	22095.5
283.979	22325.5
284.631	22271.5
285.28	22307.5
285.931	22351.5
286.582	22075.5
287.234	22033.5
287.883	21862.5
288.534	21982.5
289.185	22335.5
289.834	22318.5
290.485	22078.5
291.133	22171.5
291.784	22068.5
292.435	21867.5
293.084	22071.5
293.734	22002.5
294.383	22359.5
295.034	22201.5
295.684	22133.5
296.333	21888.5
296.983	21746.5
297.632	22101.5
298.282	22290.5
298.93	22146.5
299.581	22367.5
300.229	22142.5
300.879	22182.5
301.527	21991.5
302.177	21969.5
302.825	21944.5
303.473	22072.5
304.123	21945.5
304.771	22118.5
305.421	22162.5
306.069	22082.5
306.718	21793.5
307.366	22105.5
308.014	21827.5
308.663	22167.5
309.311	22127.5
309.958	22094.5
310.608	21817.5
311.255	21754.5
311.903	21699.5
312.552	21763.5
313.199	21596.5
313.847	21597.5
314.496	21440.5
315.143	21647.5
315.79	21382.5
316.437	21642.5
317.086	21723.5
317.733	22123.5
318.38	21979.5
319.027	22168.5
319.676	21918.5
320.323	21712.5
320.969	21670.5
321.616	21953.5
322.263	22029.5
322.911	22181.5
323.558	21886.5
324.204	22068.5
324.851	21839.5
325.497	21805.5
326.144	22011.5
326.79	22187.5
327.438	22296.5
328.085	21891.5
328.731	21861.5
329.377	21668.5
330.023	21599.5
330.669	21941.5
331.315	21855.5
331.961	21935.5
332.607	22187.5
333.253	21753.5
333.899	22046.5
334.544	21801.5
335.19	21711.5
335.836	21825.5
336.482	22018.5
337.127	22007.5
337.773	21949.5
338.418	21701.5
339.064	21579.5
339.709	21731.5
340.355	21577.5
341	22089.5
341.645	21781.5
342.288	21915.5
342.933	21685.5
343.579	21898.5
344.224	21942.5
344.869	21731.5
345.514	22027.5
346.159	22139.5
346.802	21707.5
347.447	21661.5
348.091	21654.5
348.736	21725.5
349.381	21842.5
350.024	21667.5
350.668	21651.5
351.313	21436.5
351.957	21719.5
352.6	21521.5
353.244	21617.5
353.889	21545.5
354.533	21960.5
355.175	21711.5
355.82	21886.5
356.464	21829.5
357.106	21853.5
357.75	21616.5
358.394	21698.5
359.036	21749.5
359.68	21892.5
360.324	22005.5
360.966	21931.5
361.61	21687.5
362.254	21595.5
362.896	21774.5
363.54	21951.5
364.181	21959.5
364.825	22039.5
365.466	21878.5
366.11	21731.5
366.751	21627.5
367.395	21625.5
368.039	21851.5
368.68	21725.5
369.323	22120.5
369.964	22009.5
370.608	21915.5
371.249	21612.5
371.89	22010.5
372.533	21625.5
373.174	21846.5
373.817	21972.5
374.458	21929.5
375.101	22008.5
375.742	21817.5
376.383	21767.5
377.025	21684.5
377.666	22066.5
378.309	21927.5
378.95	22057.5
379.59	21858.5
380.233	21869.5
380.873	21655.5
381.514	21845.5
382.156	21924.5
382.796	21944.5
383.437	22228.5
384.079	21742.5
384.719	22025.5
385.359	21908.5
386	22006.5
386.642	21903.5
387.282	22159.5
387.922	22266.5
388.562	21988.5
389.202	21980.5
389.844	21934.5
390.483	21764.5
391.123	22038.5
391.763	22051.5
392.403	22315.5
393.044	22108.5
393.684	22352.5
394.324	22047.5
394.963	21768.5
395.602	22117.5
396.242	22171.5
396.881	22190.5
397.521	22310.5
398.16	22368.5
398.801	22010.5
399.44	22065.5
400.08	21906.5
400.719	21951.5
401.358	22579.5
401.997	22200.5
402.636	22281.5
403.275	22403.5
403.914	22139.5
404.552	22251.5
405.191	22188.5
405.83	22302.5
406.469	22555.5
407.107	22508.5
407.746	22173.5
408.382	22215.5
409.021	22235.5
409.659	22325.5
410.298	22304.5
410.936	22422.5
411.575	22683.5
412.213	22271.5
412.851	22468.5
413.49	22188.5
414.126	22343.5
414.764	22481.5
415.402	22566.5
416.04	22449.5
416.678	22413.5
417.314	22443.5
417.952	22531.5
418.59	22091.5
419.227	22356.5
419.865	22496.5
420.501	22631.5
421.139	22799.5
421.776	22595.5
422.414	22770.5
423.049	22754.5
423.687	22551.5
424.324	22979.5
424.96	22631.5
425.597	22886.5
426.234	22943.5
426.87	22792.5
427.507	22774.5
428.144	22794.5
428.779	22893.5
429.416	23053.5
430.051	22913.5
430.688	22943.5
431.325	23076.5
431.96	22660.5
432.597	22797.5
433.232	22764.5
433.869	22975.5
434.503	22955.5
435.14	22837.5
435.775	23007.5
436.412	23038.5
437.046	22747.5
437.683	22998.5
438.317	23158.5
438.954	23367.5
439.588	23051.5
440.224	23328.5
440.858	23175.5
441.495	23017.5
442.129	23107.5
442.765	22985.5
443.399	23093.5
444.033	23011.5
444.669	23274.5
445.303	23363.5
445.939	23295.5
446.573	23157.5
447.207	23369.5
447.843	23253.5
448.477	23593.5
449.11	23600.5
449.746	23361.5
450.38	23172.5
451.013	23533.5
451.647	23502.5
452.282	23771.5
452.916	23720.5
453.549	23927.5
454.182	23673.5
454.818	23701.5
455.451	23595.5
456.084	23632.5
456.718	23678.5
457.353	23662.5
457.986	23798.5
458.619	23885.5
459.252	23474.5
459.885	23571.5
460.518	23689.5
461.153	23690.5
461.786	23903.5
462.418	23845.5
463.051	24066.5
463.684	23902.5
464.316	23845.5
464.949	23606.5
465.582	23836.5
466.214	23868.5
466.847	23771.5
467.479	24141.5
468.111	23973.5
468.746	24200.5
469.378	23562.5
470.011	23605.5
470.643	24155.5
471.275	24094.5
471.907	23843.5
472.537	24298.5
473.169	24205.5
473.801	24171.5
474.433	23567.5
475.065	23741.5
475.697	24017.5
476.329	24202.5
476.961	24238.5
477.592	24130.5
478.224	24037.5
478.856	23911.5
479.487	23963.5
480.117	23967.5
480.748	24153.5
481.38	24475.5
482.011	24507.5
482.643	24421.5
483.274	24150.5
483.903	24000.5
484.534	24203.5
485.166	24451.5
485.797	24617.5
486.426	24321.5
487.057	24475.5
487.688	24482.5
488.319	24179.5
488.948	24233.5
489.579	24345.5
490.21	24195.5
490.839	24534.5
491.469	24638.5
492.1	24302.5
492.729	24172.5
493.359	24397.5
493.99	24385.5
494.618	24703.5
495.249	24670.5
495.88	24531.5
496.508	24461.5
497.138	24112.5
497.767	24257.5
498.397	24364.5
499.027	24574.5
499.655	24507.5
500.286	24832.5
500.914	24743.5
501.544	24754.5
502.172	24429.5
502.802	24470.5
503.43	24520.5
504.06	24861.5
504.687	24959.5
505.317	24718.5
505.945	24695.5
506.575	24444.5
507.203	24323.5
507.83	24780.5
508.46	24750.5
509.087	24962.5
509.717	24909.5
510.344	24972.5
510.972	24971.5
511.601	24667.5
512.228	24773.5
512.858	24792.5
513.485	24930.5
514.112	24913.5
514.741	24994.5
515.368	24944.5
515.995	24877.5
516.622	24706.5
517.252	24726.5
517.878	25112.5
518.505	25067.5
519.134	25165.5
519.761	24844.5
520.388	24680.5
521.014	24611.5
521.643	24547.5
522.27	24677.5
522.896	24609.5
523.523	24632.5
524.149	24676.5
524.776	24859.5
525.404	24876.5
526.031	25021.5
526.657	24676.5
527.283	24987.5
527.91	25032.5
528.536	25233.5
529.162	25142.5
529.788	24956.5
530.416	24983.5
531.042	24920.5
531.668	24692.8
532.294	25107.3
532.92	25033.8
533.546	25414.6
534.172	25003.3
534.798	24760.7
535.423	24887.7
536.049	24907.5
536.675	25097.4
537.3	25054.2
537.926	25150.6
538.551	25185.9
539.177	24990.1
539.802	24941.3
540.428	25016.4
541.051	24878.4
541.676	25095.5
542.301	24850.5
542.927	24722
543.552	24861.4
544.177	24783.6
544.802	24685.7
545.427	24808
546.05	24903
546.675	24982.3
547.3	25023
547.925	24828.1
548.55	24403.9
549.174	24461.7
549.797	24598
550.422	24996.7
551.047	24940.6
551.671	24694.1
552.294	24653.4
552.918	24660.9
553.543	24129.2
554.167	24348.3
554.789	24372.6
555.414	24294.7
556.038	24383.9
556.66	24646.8
557.285	24264.4
557.909	24042.2
558.531	24200.9
559.155	23880.8
559.777	24018.9
560.401	23931.6
561.025	24188.8
561.647	24080.5
562.271	23919.6
562.893	23694.6
563.517	23651.5
564.14	23577.5
564.762	23663.5
565.386	23848.4
566.007	23880.7
566.631	23722.7
567.252	23669.4
567.876	23530.2
568.497	23585.1
569.121	23511.4
569.742	23537
570.366	23542
570.987	23565
571.61	23271.8
572.231	23110.4
572.852	23324.6
573.476	23222.5
574.097	23332.6
574.72	23315.4
575.341	23320.2
575.961	23030.3
576.584	23109.5
577.205	22963.1
577.826	22955.1
578.449	22850.9
579.07	22894.3
579.69	23035
580.313	23188.8
580.934	23179.7
581.554	22986
582.174	22773.6
582.797	22759.9
583.417	22705.5
584.038	22594.4
584.658	22640.9
585.281	22672.7
585.901	22548
586.521	22574.9
587.141	22553
587.763	22532.9
588.383	22348.6
589.003	22380.1
589.623	22338.7
590.243	22405.3
590.863	22090.7
591.483	21981.1
592.105	21917.8
592.725	22015.3
593.345	21881.7
593.964	22030.5
594.584	21938.7
595.204	21786.3
595.823	21630.2
596.443	21751
597.062	21751.8
597.682	21830.7
598.301	21596
598.92	21533.7
599.54	21571.3
600.159	21208.1
600.778	21224.7
601.397	21129
602.017	21297.5
602.636	21281.9
603.255	21270.1
603.874	21079.8
604.493	21005.3
605.112	20956
605.731	20926.2
606.347	20844.2
606.966	20846.5
607.585	20909.6
608.204	20865.8
608.823	20805.8
609.441	20597.4
610.06	20514.5
610.676	20501.1
611.295	20240.3
611.913	20230.4
612.532	20283.3
613.15	20128
613.766	20012.1
614.385	19911.6
615.003	19804.4
615.621	19551.6
616.237	19526.5
616.856	19691.6
617.474	19714.3
618.09	19502.5
618.708	19647.8
619.326	19494.4
619.944	19453.6
620.56	19549.8
621.177	19389.8
621.793	19409.1
622.411	19257.1
623.029	18951.8
623.644	18889.7
624.262	18743.8
624.88	18406.2
625.495	18329.8
626.113	18294.2
626.728	18335.4
627.346	18099.7
627.961	18092.5
628.578	18005.7
629.194	18186.4
629.811	18063.4
630.426	18233.4
631.043	18349
631.658	18612.3
632.276	18451.1
632.891	18194.3
633.508	18186.4
634.123	18129.1
634.74	17762
635.354	17901.2
635.971	17831.1
636.586	18008.7
637.201	17837.8
637.818	17860.1
638.432	17768.3
639.047	17750.1
639.663	17545.1
640.278	17650.8
640.892	17889.7
641.509	17655.7
642.123	17684.2
642.738	17224.9
643.354	17224.8
643.968	17119.2
644.583	17160.4
645.199	17107.9
645.813	17240.7
646.427	16967.5
647.041	17014
647.655	17037
648.271	16983.4
648.885	16843.4
649.499	17080.5
650.113	17078.8
650.727	16930.2
651.343	16906.2
651.956	17075.2
652.57	16860.6
653.184	16926.8
653.797	16838.2
654.411	16849.9
655.024	16782.5
655.638	16780.5
656.254	16785.3
656.867	16642.3
657.48	16598
658.094	16389.1
658.707	16482.9
659.32	16622.1
659.933	16435.9
660.547	16608.2
661.16	16597.2
661.773	16226.4
662.386	16259.6
662.999	16207.5
663.612	16230.5
664.225	16440.6
664.838	16367.8
665.451	16321.8
666.063	16355.2
666.674	16057.4
667.287	15816.7
667.899	16060.6
668.512	16065.4
669.125	16326.5
669.404	16170.5
670.023	15916.5
670.644	15915.5
671.265	15705.5
671.886	15813.5
672.507	16065.5
673.128	15948.5
673.749	16010.5
674.368	15944.5
674.989	15900.5
675.609	15706.5
676.23	15804.5
676.851	15668.5
677.469	15829.5
678.09	15582.5
678.711	15564.5
679.331	15830.5
679.949	15787.5
680.57	15429.5
681.19	15606.5
681.811	15591.5
682.429	15593.5
683.049	15590.5
683.669	15487.5
684.287	15602.5
684.908	15454.5
685.528	15302.5
686.146	15128.5
686.766	15150.5
687.386	15388.5
688.003	15412.5
688.623	15210.5
689.241	15068.5
689.861	14972.5
690.481	15133.5
691.098	15094.5
691.718	15087.5
692.336	15172.5
692.955	15211.5
693.573	15256.5
694.192	15001.5
694.81	14907.5
695.429	14850.5
696.046	15076.5
696.666	14823.5
697.283	14918.5
697.902	15036.5
698.519	14865.5
699.139	14938.5
699.756	14749.5
700.375	14913.5
700.992	14960.5
701.611	14676.5
702.228	14812.5
702.844	14698.5
703.463	14695.5
704.08	14414.5
704.699	14387.5
705.316	14654.5
705.932	14285.5
706.551	14386.5
707.168	14519.5
707.784	14448.5
708.403	14519.5
709.019	14468.5
709.635	14377.5
710.254	14505.5
710.87	14532.5
711.487	14650.5
712.103	14414.5
712.721	14321.5
713.337	14316.5
713.953	14340.5
714.569	14259.5
715.188	14348.5
715.804	14193.5
716.419	14258.5
717.035	14270.5
717.651	14163.5
718.269	14126.5
718.885	13922.5
719.501	14066.5
720.116	14096.5
720.732	14134.5
721.348	13968.5
721.963	13912.5
722.579	13838.5
723.196	13878.5
723.812	13454.5
724.427	13957.5
725.043	14001.5
725.658	13828.5
726.273	13741.5
726.889	13620.5
727.504	13649.5
728.119	13396.5
728.734	13415.5
729.349	13653.5
729.964	13585.5
730.579	13594.5
731.194	13479.5
731.809	13513.5
732.424	13285.5
733.039	13350.5
733.654	13424.5
734.268	13565.5
734.883	13596.5
735.498	13357.5
736.112	13305.5
736.725	13242.5
737.34	13404.5
737.954	13214.5
738.569	13519.5
739.183	13388.5
739.797	13396.5
740.412	13181.5
741.024	13040.5
741.638	13220.5
742.252	12887.5
742.867	13062.5
743.481	13073.5
744.093	12986.5
744.707	13074.5
745.321	12934.5
745.935	12876.5
746.549	12938.5
747.161	12897.5
747.775	13077.5
748.388	13079.5
749	13006.5
749.614	12876.5
750.228	12810.5
750.841	12843.5
751.453	12876.5
752.066	12782.5
752.68	13057.5
753.291	12817.5
753.905	12831.5
754.516	12737.5
755.129	12680.5
755.743	12702.5
756.354	12621.5
756.967	12535.5
757.578	12764.5
758.192	12813.5
758.805	12731.5
759.416	12480.5
760.029	12540.5
760.64	12678.5
761.253	12461.5
761.863	12524.5
762.476	12508.5
763.087	12597.5
763.7	12516.5
764.311	12422.5
764.923	12175.5
765.534	12360.5
766.147	12247.5
766.757	12397.5
767.368	12400.5
767.98	12389.5
768.591	12453.5
769.203	12370.5
769.813	12137.5
770.424	12340.5
771.036	12206.5
771.646	12284.5
772.258	12134.5
772.869	12051.5
773.479	12229.5
774.091	12201.5
774.701	12026.5
775.311	12084.5
775.923	12045.5
776.533	11956.5
777.142	12406.5
777.752	12148.5
778.364	12100.5
778.974	11970.5
779.583	11976.5
780.193	11877.5
780.805	12029.5
781.414	11928.5
782.024	11965.5
782.633	11884.5
783.243	11772.5
783.854	11744.5
784.464	11730.5
785.073	11751.5
785.682	11729.5
786.291	11705.5
786.901	11579.5
787.51	11606.5
788.121	11507.5
788.73	11286.5
789.339	11345.5
789.948	11553.5
790.557	11344.5
791.166	11278.5
791.775	11077.5
792.384	10938.5
792.992	11045.5
793.601	11076.5
794.21	11245.5
794.819	11326.5
795.427	11332.5
796.036	11364.5
796.644	11446.5
797.253	11269.5
797.861	11013.5
798.47	11002.5
799.078	11063.5
799.686	11062.5
800.295	11088.5
800.903	10916.5
801.511	10771.5
802.12	10802.5
802.726	10725.5
803.334	10795.5
803.942	10566.5
804.55	10872.5
805.158	10917.5
805.766	10637.5
806.374	10606.5
806.979	10393.5
807.587	10469.5
808.195	10537.5
808.803	10329.5
809.41	10453.5
810.016	10388.5
810.624	10133.5
811.231	10202.5
811.839	10038.5
812.444	9916.55
813.052	10118.5
813.659	10167.5
814.267	10082.5
814.872	10010.5
815.479	10013.5
816.086	9852.55
816.692	9886.55
817.299	9851.55
817.906	9840.55
818.511	9637.55
819.118	9722.55
819.725	9638.55
820.33	9706.55
820.937	9517.55
821.542	9421.55
822.149	9384.55
822.755	9332.55
823.36	9338.55
823.967	9342.55
824.572	9299.55
825.178	9370.55
825.783	9149.55
826.389	9190.55
826.994	9366.55
827.6	9248.55
828.205	9252.55
828.811	9317.55
829.416	9173.55
830.022	9071.55
830.626	9095.55
831.232	9052.55
831.837	9177.55
832.441	9084.55
833.047	9141.55
833.651	9043.55
834.257	9058.55
834.861	8974.55
835.465	8916.55
836.071	9036.55
836.675	9040.55
837.281	9136.55
837.884	9095.55
838.488	9241.55
839.094	8833.55
839.697	9085.55
840.301	9101.55
840.905	9177.55
841.51	9040.55
842.114	9047.55
842.717	9265.55
843.323	9156.55
843.926	9243.55
844.529	9147.55
845.133	9251.55
845.736	9129.55
846.341	9381.55
846.944	9392.55
847.547	9265.55
848.15	9371.55
848.754	9431.55
849.359	9359.55
849.962	9349.55
850.565	9393.55
851.167	9598.55
851.77	9640.55
852.373	9738.55
852.976	9694.55
853.579	9672.55
854.181	9631.55
854.786	9750.55
855.389	9925.55
855.991	10052.5
856.594	10074.5
857.196	10012.5
857.799	9936.55
858.401	9989.55
859.004	10163.5
859.606	10521.5
860.208	10382.5
860.81	10460.5
861.413	10528.5
862.015	10418.5
862.617	10608.5
863.219	10605.5
863.821	10665.5
864.421	10816.5
865.023	10924.5
865.625	11094.5
866.227	11187.5
866.829	11148.5
867.431	11110.5
868.032	11137.5
868.634	11338.5
869.234	11522.5
869.836	11588.5
870.437	11490.5
871.039	11722.5
871.64	11638.5
872.242	11830.5
872.841	11920.5
873.443	11984.5
874.044	12020.5
874.645	12441.5
875.245	12273.5
875.846	12303.5
876.447	12424.5
877.048	12586.5
877.647	12498.5
878.249	12782.5
878.85	12837.5
879.449	12995.5
880.05	13184.5
880.651	13036.5
881.249	13089.5
881.85	13073.5
882.451	13205.5
883.05	13559.5
883.651	13728.5
884.249	13790.5
884.85	14011.5
885.451	13743.5
886.049	13706.5
886.65	13972.5
887.248	14037.5
887.849	14353.5
888.447	14529.5
889.048	14540.5
889.646	14720.5
890.246	14476.5
890.844	14720.5
891.445	14849.5
892.043	14972.5
892.643	15108.5
893.241	15128.5
893.841	15026.5
894.439	15362.5
895.039	15300.5
895.637	15348.5
896.237	15404.5
896.835	15682.5
897.433	15736.5
898.033	15957.5
898.63	16020.5
899.228	16016.5
899.828	16134.5
900.425	16149.5
901.025	16218.5
901.623	16240.5
902.22	16501.5
902.818	16693.5
903.417	16727.5
904.014	16832.5
904.612	16650.5
905.211	16831.5
905.808	16521.5
906.406	16893.5
907.003	17270.5
907.602	17406.5
908.199	17401.5
908.796	17302.5
909.393	17293.5
909.99	17242.5
910.589	17473.5
911.186	17374.5
911.783	17936.5
912.38	17756.5
912.977	17890.5
913.573	17850.5
914.17	17888.5
914.769	17956.5
915.365	18177.5
915.962	18471.5
916.559	18532.5
917.155	18797.5
917.752	19079.5
918.348	18737.5
918.944	18608.5
919.541	18976.5
920.137	19044.5
920.733	19071.5
921.33	19164.5
921.926	19362.5
922.522	19438.5
923.118	19400.5
923.714	19165.5
924.31	19403.5
924.906	19063.5
925.502	19484.5
926.098	19529.5
926.694	19892.5
927.29	19743.5
927.886	19886.5
928.48	19785.5
929.075	20020.5
929.671	19976.5
930.267	20312.5
930.862	20422.5
931.458	20495.5
932.054	20596.5
932.647	20312.5
933.243	20374.5
933.838	20134.5
934.433	20540.5
935.029	20805.5
935.622	20629.5
936.217	20841.5
936.813	20973.5
937.408	20817.5
938.001	20855.5
938.596	20753.5
939.191	20860.5
939.786	21299.5
940.379	21222.5
940.974	21244.5
941.569	21318.5
942.162	20993.5
942.757	21146.5
943.352	21349.5
943.944	21295.5
944.539	21469.5
945.132	21685.5
945.726	21552.5
946.321	21409.5
946.914	21543.5
947.508	21601.5
948.101	21770.5
948.695	22001.5
949.289	22005.5
949.882	21999.5
950.476	21690.5
951.068	21802.5
951.663	21871.5
952.255	21860.5
952.849	21940.5
953.441	22035.5
954.035	22184.5
954.627	22264.5
955.219	22221.5
955.813	22251.5
956.405	21906.5
956.999	22220.5
957.591	22601.5
958.185	22489.5
958.777	22552.5
959.369	22397.5
959.962	22436.5
960.554	22376.5
961.146	22200.5
961.739	22227.5
962.331	22590.5
962.922	22466.5
963.516	22669.5
964.107	22709.5
964.699	22658.5
965.292	22590.5
965.883	22244.5
966.475	22581.5
967.066	22695.5
967.659	22924.5
968.25	22682.5
968.841	22852.5
969.432	23193.6
970.026	22708.9
970.617	22502.6
971.207	22528.9
971.798	22761.9
972.389	22785.2
972.982	22744.2
973.573	22967.8
974.164	22779.8
974.755	22827.6
975.345	22754.8
975.936	22654.6
976.526	22755.9
977.117	23163.3
977.708	23143.8
978.3	22905.7
978.891	23179.4
979.481	22855.9
980.072	22881.4
980.662	22817.1
981.252	22794.4
981.843	23118.2
982.433	23174.2
983.023	22923.4
983.613	23020.9
984.203	22792
984.793	22461.4
985.383	22435.2
985.973	22608.7
986.561	22693.6
987.151	22827.3
987.741	22892
988.331	22711.4
988.921	22684.8
989.511	22628.2
990.1	22635.8
990.69	22741.5
991.28	22746.2
991.867	22991.1
992.457	22946.4
993.047	22705.5
993.636	22825.5
994.226	22786.5
994.813	22611.7
995.402	22743.1
995.992	22914.8
996.581	22851.5
997.17	22915.5
997.758	22697.1
998.347	22778.8
998.936	22458.4
999.523	22598.1
1000.11	22807.1
1000.7	22825.6
1001.29	22937.5
1001.88	22923.6
1002.47	22784.7
1003.06	22637.1
1003.64	22450.7
1004.23	22485.8
1004.82	22588.9
1005.41	22769.8
1006	22663.4
1006.58	22679.3
1007.17	22597.8
1007.76	22392.1
1008.35	22301.8
1008.93	22399.8
1009.52	22533.8
1010.11	22662.2
1010.7	22472.4
1011.28	22420.8
1011.87	22476.8
1012.46	22429.8
1013.04	22219.8
1013.63	22308.7
1014.22	22225.9
1014.81	22250.4
1015.39	22398.4
1015.98	22520.9
1016.57	22252.6
1017.15	22186.4
1017.74	21909.3
1018.33	21921.7
1018.92	21921.9
1019.5	21990.1
1020.09	21969.9
1020.67	22184.1
1021.26	21966.3
1021.85	21706.5
1022.43	21676.5
1023.02	21631.8
1023.6	21521.3
1024.19	21688.3
1024.78	21822
1025.36	21666.6
1025.95	21567.9
1026.54	21303.8
1027.12	21186.7
1027.71	21074.2
1028.29	21122.8
1028.88	21277.8
1029.46	21137.5
1030.05	21362.1
1030.63	21163.9
1031.22	20848.5
1031.81	20753.3
1032.39	20829.9
1032.98	20861.4
1033.56	20796.7
1034.15	20918.2
1034.73	20844.6
1035.32	20693.7
1035.9	20584.6
1036.49	20593.9
1037.07	20378.8
1037.66	20549.9
1038.24	20545.1
1038.83	20571
1039.41	20449.4
1039.99	20400.3
1040.58	20230.5
1041.16	20041.2
1041.75	20091.4
1042.33	20044.1
1042.92	20081.4
1043.5	20069.9
1044.09	19977.3
1044.67	20026.3
1045.25	19687.7
1045.84	19694.3
1046.42	19605
1047.01	19491.7
1047.59	19584.1
1048.17	19410.1
1048.76	19470.5
1049.34	19326.9
1049.92	19177.4
1050.51	19024.5
1051.09	19134.6
1051.67	19165.7
1052.26	19155.7
1052.84	19296.6
1053.42	19256.1
1054.01	19108
1054.59	19060.4
1055.17	18690.8
1055.76	18550.8
1056.34	18439.3
1056.92	18427.6
1057.5	18358.1
1058.09	18349.4
1058.67	18155.8
1059.25	17838.6
1059.84	17510.7
1060.42	17431.5
1061	17569.3
1061.58	17814.8
1062.17	17865.7
1062.75	17890.6
1063.33	17738.8
1063.91	17861.1
1064.49	17664.8
1065.08	17754.3
1065.66	17578.4
1066.24	17501
1066.82	17783.5
1067.4	17616.5
1067.99	17519.2
1068.57	17368.5
1069.15	17149.4
1069.73	17196.5
1070.31	17130.2
1070.89	17040.2
1071.48	17230.5
1072.06	17056
1072.64	16921.2
1073.22	16881.8
1073.8	16606.1
1074.38	16573.4
1074.96	16489.4
1075.54	16366.7
1076.12	16618.2
1076.71	16425.7
1077.29	16220.6
1077.87	16058.8
1078.45	15972.1
1079.03	15887.5
1079.61	15874.9
1080.19	15951.1
1080.77	16105.2
1081.35	15967.4
1081.93	15929.2
1082.51	15762.6
1083.09	15719.2
1083.67	15539.4
1084.25	15472.2
1084.83	15424.4
1085.41	15734.6
1085.99	15692.9
1086.57	15550.6
1087.15	15278.2
1087.73	15074.9
1088.31	15072.9
1088.89	14951.2
1089.47	15024
1090.05	15088.7
1090.63	15185.3
1091.21	14991.6
1091.79	14853.9
1092.37	14818.9
1092.95	14661.4
1093.53	14588.2
1094.11	14581.8
1094.69	14713.1
1095.27	14501.4
1095.84	14669.2
1096.42	14503.9
1097	14338.6
1097.58	14207.8
1098.16	14102.9
1098.74	14007.6
1099.32	14197.1
1099.9	14057.6
1100.47	14143.5
1101.05	13994.3
1101.63	13784.1
1102.21	13756.5
1102.79	13568.2
1103.37	13793.4
1103.95	13678.3
1104.52	13749.9
1105.1	13634.8
1105.68	13697
1106.26	13561.5
1106.84	13376.5
1107.42	13428.4
1107.99	13357.4
1108.57	13454
1109.15	13368.4
1109.73	13114.5
1110.3	13152.8
1110.88	12981.9
1111.46	13155.4
1112.04	12940.9
1112.61	12890.5
1113.19	13066.7
1113.77	13019.1
1114.34	12940.2
1114.92	12868.3
1115.5	12771.2
1116.08	12501.5
1116.65	12643.7
1117.23	12449
1117.81	12646.6
1118.38	12653.4
1118.96	12651.3
1119.54	12683.4
1120.11	12321.9
1120.69	12528.9
1121.27	12417.3
1121.84	12421.1
1122.42	12360.1
1123	12388.8
1123.57	12387.7
1124.15	12275.3
1124.72	12157.4
1125.3	12174.8
1125.88	12042.1
1126.45	12166
1127.03	12301.5
1127.6	12151.2
1128.18	11994.1
1128.76	12063.8
1129.33	11895.9
1129.91	11724.4
1130.48	11752.9
1131.06	11799.7
1131.63	11606.3
1132.21	11596.3
1132.79	11755.6
1133.36	11591.4
1133.93	11636
1134.51	11555.3
1135.09	11517.4
1135.66	11541.5
1136.24	11539.2
1136.81	11595.2
1137.39	11499.6
1137.96	11607.2
1138.54	11454.5
1139.11	11452.1
1139.69	11428.9
1140.26	11331.1
1140.83	11425.1
1141.41	11317.2
1141.98	11439.3
1142.56	11286.9
1143.13	11370.3
1143.71	11144.4
1144.28	11016.2
1144.86	10999.9
1145.43	11124.6
1146	11074.2
1146.2	11016.2
1146.79	11057.2
1147.37	10989.2
1147.95	10847.2
1148.53	10938.2
1149.12	10956.2
1149.7	10743.2
1150.28	10880.2
1150.86	10848.2
1151.44	10872.2
1152.02	10872.2
1152.6	10745.2
1153.19	10560.2
1153.77	10701.2
1154.35	10616.2
1154.93	10518.2
1155.51	10677.2
1156.09	10521.2
1156.67	10557.2
1157.25	10456.2
1157.83	10445.2
1158.42	10334.2
1159	10212.2
1159.58	10369.2
1160.16	10432.2
1160.74	10409.2
1161.32	10274.2
1161.9	10263.2
1162.48	10293.2
1163.06	10248.2
1163.64	10251.2
1164.22	10470.2
1164.8	10338.2
1165.38	10229.2
1165.96	10292.2
1166.54	10043.2
1167.12	9978.18
1167.7	9865.18
1168.28	9934.18
1168.86	9893.18
1169.44	10056.2
1170.02	10074.2
1170.6	9928.18
1171.18	9815.18
1171.76	9903.18
1172.34	9778.18
1172.92	9700.18
1173.5	9724.18
1174.08	9980.18
1174.66	9844.18
1175.24	9797.18
1175.82	9682.18
1176.4	9731.18
1176.97	9523.18
1177.55	9657.18
1178.13	9508.18
1178.71	9624.18
1179.29	9790.18
1179.87	9763.18
1180.45	9755.18
1181.03	9510.18
1181.61	9362.18
1182.18	9448.18
1182.76	9550.18
1183.34	9511.18
1183.92	9508.18
1184.5	9488.18
1185.08	9466.18
1185.65	9331.18
1186.23	9314.18
1186.81	9231.18
1187.39	9346.18
1187.97	9357.18
1188.55	9357.18
1189.12	9392.18
1189.7	9300.18
1190.28	9153.18
1190.86	9341.18
1191.43	9214.18
1192.01	9235.18
1192.59	9182.18
1193.17	9144.18
1193.74	9046.18
1194.32	9106.18
1194.9	9044.18
1195.48	8988.18
1196.05	8968.18
1196.63	8924.18
1197.21	8886.18
1197.79	8941.18
1198.36	8926.18
1198.94	8986.18
1199.52	9008.18
1200.09	9051.18
1200.67	8798.18
1201.25	8708.18
1201.82	8912.18
1202.4	8948.18
1202.98	8858.18
1203.55	9026.18
1204.13	8640.18
1204.7	8753.18
1205.28	8474.18
1205.86	8626.18
1206.44	8616.18
1207.01	8776.18
1207.59	8832.18
1208.16	8676.18
1208.74	8649.18
1209.31	8440.18
1209.89	8435.18
1210.47	8410.18
1211.04	8536.18
1211.62	8571.18
1212.19	8538.18
1212.77	8548.18
1213.34	8268.18
1213.92	8090.18
1214.5	8095.18
1215.07	8127.18
1215.65	8236.18
1216.22	8283.18
1216.8	8234.18
1217.37	8227.18
1217.95	8305.18
1218.52	8323.18
1219.1	8277.18
1219.67	8359.18
1220.25	8273.18
1220.82	8304.18
1221.4	8290.18
1221.97	8247.18
1222.55	8231.18
1223.12	8284.18
1223.7	8152.18
1224.27	8231.18
1224.85	8265.18
1225.42	8102.18
1225.99	8166.18
1226.57	8143.18
1227.14	8091.18
1227.72	8139.18
1228.29	8070.18
1228.86	8049.18
1229.44	7983.18
1230.01	7985.18
1230.59	8040.18
1231.16	8017.18
1231.73	8100.18
1232.31	7917.18
1232.88	7976.18
1233.46	7993.18
1234.03	7957.18
1234.6	7902.18
1235.18	8060.18
1235.75	8075.18
1236.32	8015.18
1236.9	7933.18
1237.47	8060.18
1238.04	7981.18
1238.61	8001.18
1239.19	8004.18
1239.76	7941.18
1240.33	7996.18
1240.91	7950.18
1241.48	7866.18
1242.05	7893.18
1242.63	7791.18
1243.2	7880.18
1243.77	7809.18
1244.34	7959.18
1244.92	7888.18
1245.49	7773.18
1246.06	7913.18
1246.63	7711.18
1247.21	7733.18
1247.78	7764.18
1248.35	7799.18
1248.92	7912.18
1249.5	7912.18
1250.07	7924.18
1250.64	7864.18
1251.21	7764.18
1251.78	7953.18
1252.36	7766.18
1252.93	7776.18
1253.5	7875.18
1254.07	8048.18
1254.64	8036.18
1255.21	7885.18
1255.78	7868.18
1256.36	7925.18
1256.93	7759.18
1257.5	7808.18
1258.07	7908.18
1258.64	8026.18
1259.21	7983.18
1259.78	7887.18
1260.35	7988.18
1260.93	7851.18
1261.5	7942.18
1262.07	7919.18
1262.64	7944.18
1263.21	8014.18
1263.78	8001.18
1264.35	7998.18
1264.92	7755.18
1265.49	7770.18
1266.06	7748.18
1266.63	7803.18
1267.2	7872.18
1267.77	7800.18
1268.34	7917.18
1268.91	7910.18
1269.48	7912.18
1270.05	7898.18
1270.62	7790.18
1271.19	7923.18
1271.76	7996.18
1272.33	7954.18
1272.9	8036.18
1273.47	7886.18
1274.04	8044.18
1274.61	7936.18
1275.18	7933.18
1275.75	7709.18
1276.32	7861.18
1276.89	7876.18
1277.46	8010.18
1278.03	7952.18
1278.6	8024.18
1279.17	7941.18
1279.74	8038.18
1280.3	7756.18
1280.87	7956.18
1281.44	7970.18
1282.01	7993.18
1282.58	7960.18
1283.15	7922.18
1283.72	8128.18
1284.29	7912.18
1284.86	7947.18
1285.42	7980.18
1285.99	8036.18
1286.56	8026.18
1287.13	8153.18
1287.7	8023.18
1288.27	7982.18
1288.83	8114.18
1289.4	7776.18
1289.97	7932.18
1290.54	8080.18
1291.11	8014.18
1291.68	8070.18
1292.24	8103.18
1292.81	7872.18
1293.38	8000.18
1293.95	7973.18
1294.51	7754.18
1295.08	7929.18
1295.65	8035.18
1296.22	8124.18
1296.79	8064.18
1297.35	7948.18
1297.92	8133.18
1298.49	7953.18
1299.05	7892.18
1299.62	7955.18
1300.19	8043.18
1300.76	8144.18
1301.32	8161.18
1301.89	8018.18
1302.46	8024.18
1303.02	7977.18
1303.59	7916.18
1304.16	8087.18
1304.72	7930.18
1305.29	8054.18
1305.86	8293.18
1306.42	8204.18
1306.99	8119.18
1307.56	8034.18
1308.12	8056.18
1308.69	8008.18
1309.26	8082.18
1309.82	8170.18
1310.39	8095.18
1310.95	8192.18
1311.52	8021.18
1312.09	8207.18
1312.65	8118.18
1313.22	8045.18
1313.78	7936.18
1314.35	8178.18
1314.92	8055.18
1315.48	8265.18
1316.05	8238.18
1316.61	8064.18
1317.18	7967.18
1317.74	8024.18
1318.31	8058.18
1318.87	8107.18
1319.44	8265.18
1320.01	8174.18
1320.57	8164.18
1321.13	8253.18
1321.7	8141.18
1322.27	7980.18
1322.83	8188.18
1323.4	8111.18
1323.96	8220.18
1324.52	8482.18
1325.09	8267.18
1325.65	8278.18
1326.22	8115.18
1326.78	7992.18
1327.35	7958.18
1327.91	8079.18
1328.48	8165.18
1329.04	8217.18
1329.61	8152.18
1330.17	8230.18
1330.73	8180.18
1331.3	8028.18
1331.86	8072.18
1332.43	8135.18
1332.99	8140.18
1333.55	8378.18
1334.12	8403.18
1334.68	8351.18
1335.25	8236.18
1335.81	8222.18
1336.37	8109.18
1336.94	8259.18
1337.5	8193.18
1338.06	8308.18
1338.63	8301.18
1339.19	8231.18
1339.75	8252.18
1340.32	8233.18
1340.88	8160.18
1341.44	8188.18
1342.01	8273.18
1342.57	8099.18
1343.13	8401.18
1343.69	8434.18
1344.26	8264.18
1344.82	8132.18
1345.38	8209.18
1345.95	8262.18
1346.51	8167.18
1347.07	8300.18
1347.64	8334.18
1348.2	8326.18
1348.76	8446.18
1349.32	8350.18
1349.88	8310.18
1350.45	8259.18
1351.01	8223.18
1351.57	8304.18
1352.13	8552.18
1352.7	8441.18
1353.26	8520.18
1353.82	8376.18
1354.38	8356.18
1354.94	8241.18
1355.51	8166.18
1356.07	8263.18
1356.63	8240.18
1357.19	8391.18
1357.75	8364.18
1358.31	8440.18
1358.87	8433.18
1359.43	8254.18
1360	8351.18
1360.56	8370.18
1361.12	8409.18
1361.68	8396.18
1362.24	8576.18
1362.8	8345.18
1363.36	8340.18
1363.92	8297.18
1364.49	8392.18
1365.05	8370.18
1365.61	8311.18
1366.17	8422.18
1366.73	8536.18
1367.29	8562.18
1367.85	8480.18
1368.41	8644.18
1368.97	8327.18
1369.53	8454.18
1370.09	8377.18
1370.65	8408.18
1371.21	8542.18
1371.77	8565.18
1372.33	8384.18
1372.89	8589.18
1373.45	8506.18
1374.01	8418.18
1374.57	8418.18
1375.13	8335.18
1375.69	8500.18
1376.25	8479.18
1376.81	8431.18
1377.37	8522.18
1377.93	8588.18
1378.49	8554.18
1379.05	8447.18
1379.61	8454.18
1380.17	8440.18
1380.73	8555.18
1381.29	8574.18
1381.85	8488.18
1382.41	8538.18
1382.97	8480.18
1383.52	8477.18
1384.08	8452.18
1384.64	8450.18
1385.2	8478.18
1385.76	8644.18
1386.32	8454.18
1386.88	8626.18
1387.44	8439.18
1387.99	8523.18
1388.55	8537.18
1389.11	8674.18
1389.67	8574.18
1390.23	8518.18
1390.79	8640.18
1391.35	8677.18
1391.9	8491.18
1392.46	8489.18
1393.02	8620.18
1393.58	8690.18
1394.14	8588.18
1394.7	8689.18
1395.25	8726.18
1395.81	8656.18
1396.37	8599.18
1396.93	8576.18
1397.48	8592.18
1398.04	8380.18
1398.6	8334.18
1399.16	8504.18
1399.71	8576.18
1400.27	8479.18
