34.6581	7771.22
35.3335	8045.22
36.0088	8414.22
36.6841	8865.22
37.3593	9521.22
38.0345	10075.2
38.7096	10521.2
39.3847	10810.2
40.0597	11221.2
40.7347	11470.2
41.4096	11734.2
42.0845	11906.2
42.7594	12149.2
43.4342	12519.2
44.1089	12639.2
44.7836	13048.2
45.4583	13428.2
46.1329	14154.2
46.8075	13972.2
47.482	14217.2
48.1542	14158.2
48.8286	14439.2
49.503	14601.2
50.1773	14822.2
50.8516	15707.2
51.5258	16163.2
52.2	16848.2
52.8719	16870.2
53.5459	16426.2
54.22	16386.2
54.894	16652.2
55.568	17061.2
56.2396	17416.2
56.9134	17368.2
57.5872	17555.2
58.261	17520.2
58.9324	17542.2
59.6061	18226.2
60.2797	18451.2
60.9533	19116.2
61.6246	19279.2
62.2981	19335.2
62.9715	19434.2
63.6449	19373.2
64.3159	19453.2
64.9892	19682.2
65.6625	19858.2
66.3334	19694.2
67.0066	19860.2
67.6774	20029.2
68.3505	20122.2
69.0235	20504.2
69.6942	20691.2
70.3671	20795.2
71.04	20690.2
71.7105	20986.2
72.3833	21082.2
73.0537	20818.2
73.7264	21358.2
74.3968	21456.2
75.0694	21556.2
75.7397	21546.2
76.4122	21700.2
77.0823	21836.2
77.7548	21939.2
78.4248	21702.2
79.0972	22184.2
79.7671	22240.2
80.4394	22254.2
81.1093	22125.2
81.7814	21808.2
82.4512	21951.2
83.1232	22073.2
83.7929	22334.2
84.4649	22605.2
85.1345	22448.2
85.8041	22660.2
86.4759	22531.2
87.1453	22538.2
87.8171	22707.2
88.4864	22587.2
89.1558	22482.2
89.8274	22558.2
90.4966	22628.2
91.1658	22570.2
91.8372	22965.2
92.5063	22450.2
93.1754	22847.2
93.8467	22979.2
94.5156	23138.2
95.1846	22988.2
95.8534	22763.2
96.5246	22984.2
97.1933	22798.2
97.8621	22840.2
98.5308	22971.2
99.2017	23033.2
99.8703	22529.2
100.539	22608.2
101.207	22402.2
101.876	22277.2
102.546	22534.2
103.215	22552.2
103.883	22343.2
104.551	22530.2
105.22	22497.2
105.888	22950.2
106.558	22837.2
107.226	22856.2
107.894	23136.2
108.562	23254.2
109.23	22830.2
109.898	23018.2
110.566	22804.2
111.234	22881.2
111.902	22750.2
112.569	22844.2
113.237	22833.2
113.905	22677.2
114.572	22552.2
115.24	22739.2
115.907	22616.2
116.575	22599.2
117.242	22819.2
117.909	22957.2
118.577	22682.2
119.244	22784.2
119.911	22780.2
120.578	22973.2
121.245	22794.2
121.913	22748.2
122.58	22588.2
123.247	22304.2
123.913	22331.2
124.58	22022.2
125.247	22197.2
125.914	22365.2
126.578	22172.2
127.245	22226.2
127.912	22361.2
128.578	22446.2
129.245	22124.2
129.912	22431.2
130.576	22552.2
131.242	22455.2
131.909	22546.2
132.575	22472.2
133.241	22090.2
133.905	22304.2
134.571	22123.2
135.237	22046.2
135.904	21866.2
136.567	21692.2
137.233	21445.2
137.899	21090.2
138.563	21283.2
139.229	21872.2
139.895	21839.2
140.56	21088.2
141.224	21390.2
141.89	21564.2
142.555	21643.2
143.219	21574.2
143.884	21913.2
144.547	21681.2
145.213	22261.2
145.878	22050.2
146.541	21744.2
147.207	21695.2
147.872	21628.2
148.535	21819.2
149.2	21764.2
149.863	21822.2
150.528	21899.2
151.191	21831.2
151.856	21836.2
152.519	21394.2
153.184	21558.2
153.846	21377.2
154.511	21744.2
155.173	21765.2
155.838	21671.2
156.501	21375.2
157.165	21332.2
157.828	21290.2
158.492	21467.2
159.154	21303.2
159.819	21019.2
160.481	21122.2
161.143	21052.2
161.807	20934.2
162.469	21020.2
163.134	21252.2
163.795	21380.2
164.457	20982.2
165.121	21396.2
165.783	21427.2
166.445	21350.2
167.109	21336.2
167.771	21290.2
168.432	21286.2
169.096	21179.2
169.757	21101.2
170.419	20802.2
171.08	20877.2
171.744	21041.2
172.405	21074.2
173.067	21026.2
173.728	21314.2
174.391	20950.2
175.052	20836.2
175.713	20551.2
176.375	20894.2
177.036	20738.2
177.699	21210.2
178.36	20734.2
179.021	20778.2
179.681	20574.2
180.342	20506.2
181.003	20541.2
181.666	20681.2
182.326	20498.2
182.987	20635.2
183.648	20451.2
184.308	20320.2
184.969	20348.2
185.629	20540.2
186.289	20400.2
186.95	20535.2
187.61	20352.2
188.27	20521.2
188.93	20532.2
189.593	20488.2
190.253	20557.2
190.913	20487.2
191.573	20485.2
192.233	20446.2
192.891	20228.2
193.55	20230.2
194.21	20424.2
194.87	20110.2
195.53	20070.2
196.189	20466.2
196.849	20372.2
197.509	20418.2
198.168	20251.2
198.828	20317.2
199.487	20314.2
200.147	20073.2
200.806	20194.2
201.463	20223.2
202.122	20033.2
202.782	19980.2
203.441	19956.2
204.1	19965.2
204.759	19718.2
205.416	19850.2
206.075	19859.2
206.734	20068.2
207.393	19895.2
208.052	19635.2
208.708	19954.2
209.367	19993.2
210.026	19757.2
210.684	20085.2
211.341	19949.2
211.999	19846.2
212.658	19769.2
213.314	19966.2
213.973	19818.2
214.631	19999.2
215.29	20329.2
215.946	20043.2
216.604	19900.2
217.26	19702.2
217.918	19837.2
218.576	19763.2
219.232	20093.2
219.89	19824.2
220.548	19972.2
221.204	19622.2
221.862	19370.2
222.518	19390.2
223.175	19633.2
223.831	19786.2
224.489	19666.2
225.146	19802.2
225.802	19614.2
226.459	19595.2
227.115	19381.2
227.772	19813.2
228.427	19748.2
229.085	20107.2
229.74	20486.2
230.397	19742.2
231.052	19563.2
231.707	19196.2
232.365	19471.2
233.02	19469.2
233.677	19608.2
234.332	19628.2
234.989	19771.2
235.643	19544.2
236.298	19666.2
236.955	19333.2
237.61	19551.2
238.264	19556.2
238.921	19968.2
239.575	19784.2
240.23	19512.2
240.886	19180.2
241.541	19314.2
242.195	19714.2
242.851	19758.2
243.506	19501.2
244.16	19582.2
244.816	19636.2
245.47	19376.2
246.124	19474.2
246.778	19367.2
247.434	19305.2
248.088	19558.2
248.742	19234.2
249.396	19474.2
250.05	19068.2
250.706	19194.2
251.359	19433.2
252.013	19435.2
252.667	19522.2
253.32	19477.2
253.974	19485.2
254.629	19548.2
255.283	19162.2
255.936	19611.2
256.589	19691.2
257.243	19454.2
257.896	19468.2
258.549	19410.2
259.202	19063.2
259.855	19176.2
260.508	19284.2
261.161	19353.2
261.814	19312.2
262.467	19459.2
263.12	18994.2
263.773	19156.2
264.426	18968.2
265.078	19166.2
265.731	19170.2
266.384	19364.2
267.036	19414.2
267.689	19173.2
268.341	19050.2
268.994	18945.2
269.646	19152.2
270.299	19376.2
270.951	19330.2
271.603	19340.2
272.255	19611.2
272.908	18943.2
273.558	19204.2
274.21	19103.2
274.862	19346.2
275.514	19679.2
276.166	19504.2
276.818	19337.2
277.467	19178.2
278.119	19225.2
278.771	19470.2
279.423	19138.2
280.074	19414.2
280.724	19329.2
281.375	19404.2
282.027	19176.2
282.679	19098.2
283.328	19274.2
283.979	19082.2
284.631	19214.2
285.28	19326.2
285.931	19078.2
286.582	19146.2
287.234	19032.2
287.883	18873.2
288.534	18969.2
289.185	19220.2
289.834	19086.2
290.485	19192.2
291.133	19266.2
291.784	18880.2
292.435	19044.2
293.084	18918.2
293.734	19241.2
294.383	19080.2
295.034	19099.2
295.684	19128.2
296.333	19042.2
296.983	18981.2
297.632	19064.2
298.282	19327.2
298.93	19216.2
299.581	19478.2
300.229	19163.2
300.879	19314.2
301.527	19059.2
302.177	19114.2
302.825	19102.2
303.473	19338.2
304.123	19267.2
304.771	19144.2
305.421	19276.2
306.069	19255.2
306.718	19074.2
307.366	19309.2
308.014	19432.2
308.663	19274.2
309.311	19206.2
309.958	19154.2
310.608	19164.2
311.255	18777.2
311.903	19294.2
312.552	19050.2
313.199	18906.2
313.847	19051.2
314.496	18544.2
315.143	18614.2
315.79	18748.2
316.437	18829.2
317.086	19068.2
317.733	19197.2
318.38	19373.2
319.027	19200.2
319.676	18920.2
320.323	19138.2
320.969	19026.2
321.616	19086.2
322.263	19091.2
322.911	19259.2
323.558	19092.2
324.204	18970.2
324.851	19096.2
325.497	18792.2
326.144	19260.2
326.79	19090.2
327.438	19336.2
328.085	19115.2
328.731	19048.2
329.377	19140.2
330.023	18744.2
330.669	19027.2
331.315	19066.2
331.961	18984.2
332.607	19410.2
333.253	19208.2
333.899	18911.2
334.544	18936.2
335.19	19048.2
335.836	19419.2
336.482	19214.2
337.127	19048.2
337.773	18942.2
338.418	19065.2
339.064	18948.2
339.709	19138.2
340.355	18934.2
341	19154.2
341.645	19348.2
342.288	19083.2
342.933	19105.2
343.579	18885.2
344.224	19070.2
344.869	19251.2
345.514	19283.2
346.159	19380.2
346.802	19090.2
347.447	19049.2
348.091	19138.2
348.736	18787.2
349.381	18713.2
350.024	19050.2
350.668	19130.2
351.313	18788.2
351.957	19100.2
352.6	18676.2
353.244	18751.2
353.889	18952.2
354.533	19220.2
355.175	19309.2
355.82	19463.2
356.464	19340.2
357.106	19225.2
357.75	19102.2
358.394	19036.2
359.036	19093.2
359.68	19293.2
360.324	19122.2
360.966	19244.2
361.61	19143.2
362.254	18884.2
362.896	18928.2
363.54	19133.2
364.181	19180.2
364.825	19225.2
365.466	19227.2
366.11	18910.2
366.751	18976.2
367.395	19169.2
368.039	19124.2
368.68	19119.2
369.323	19435.2
369.964	19322.2
370.608	19282.2
371.249	18996.2
371.89	19185.2
372.533	18945.2
373.174	19230.2
373.817	19490.2
374.458	19307.2
375.101	19428.2
375.742	19008.2
376.383	18994.2
377.025	19228.2
377.666	19404.2
378.309	19341.2
378.95	19231.2
379.59	19117.2
380.233	19192.2
380.873	18899.2
381.514	19422.2
382.156	19417.2
382.796	19359.2
383.437	19216.2
384.079	19293.2
384.719	19514.2
385.359	19236.2
386	19335.2
386.642	19258.2
387.282	19730.2
387.922	19484.2
388.562	19403.2
389.202	19410.2
389.844	19275.2
390.483	19199.2
391.123	19463.2
391.763	19592.2
392.403	19612.2
393.044	19280.2
393.684	19442.2
394.324	19470.2
394.963	19125.2
395.602	19795.2
396.242	19557.2
396.881	19736.2
397.521	19555.2
398.16	19688.2
398.801	19511.2
399.44	19575.2
400.08	19243.2
400.719	19460.2
401.358	19732.2
401.997	19710.2
402.636	19576.2
403.275	19817.2
403.914	19546.2
404.552	19447.2
405.191	19707.2
405.83	20040.2
406.469	19915.2
407.107	19844.2
407.746	19966.2
408.382	19629.2
409.021	19780.2
409.659	19716.2
410.298	19958.2
410.936	19984.2
411.575	20247.2
412.213	20047.2
412.851	20090.2
413.49	19998.2
414.126	20178.2
414.764	20156.2
415.402	20052.2
416.04	20127.2
416.678	20320.2
417.314	20252.2
417.952	20150.2
418.59	20289.2
419.227	20226.2
419.865	20426.2
420.501	20684.2
421.139	20562.2
421.776	20389.2
422.414	20337.2
423.049	20299.2
423.687	20450.2
424.324	20804.2
424.96	20767.2
425.597	20634.2
426.234	20520.2
426.87	20630.2
427.507	20594.2
428.144	20672.2
428.779	20733.2
429.416	21170.2
430.051	20993.2
430.688	20963.2
431.325	20765.2
431.96	20956.2
432.597	21132.2
433.232	20655.2
433.869	21098.2
434.503	21216.2
435.14	20958.2
435.775	20902.2
436.412	21053.2
437.046	20719.2
437.683	21128.2
438.317	21100.2
438.954	21587.2
439.588	21517.2
440.224	21394.2
440.858	21330.2
441.495	21163.2
442.129	21490.2
442.765	21193.2
443.399	21461.2
444.033	21398.2
444.669	21556.2
445.303	21647.2
445.939	21663.2
446.573	21664.2
447.207	21302.2
447.843	21973.2
448.477	21890.2
449.11	21882.2
449.746	21885.2
450.38	22066.2
451.013	21829.2
451.647	21892.2
452.282	22204.2
452.916	22365.2
453.549	22551.2
454.182	22285.2
454.818	22188.2
455.451	22444.2
456.084	22164.2
456.718	22180.2
457.353	22124.2
457.986	22756.2
458.619	22380.2
459.252	22357.2
459.885	22006.2
460.518	22362.2
461.153	22586.2
461.786	22591.2
462.418	22840.2
463.051	23088.2
463.684	22905.2
464.316	22776.2
464.949	22686.2
465.582	22644.2
466.214	22794.2
466.847	23046.2
467.479	23053.2
468.111	23137.2
468.746	23066.2
469.378	22916.2
470.011	23012.2
470.643	23162.2
471.275	23328.2
471.907	23286.2
472.537	23348.2
473.169	23438.2
473.801	23180.2
474.433	23147.2
475.065	23379.2
475.697	23351.2
476.329	23555.2
476.961	23558.2
477.592	23370.2
478.224	23420.2
478.856	23354.2
479.487	23584.2
480.117	23617.2
480.748	23653.2
481.38	23866.2
482.011	23772.2
482.643	23492.2
483.274	23555.2
483.903	23532.2
484.534	23755.2
485.166	23861.2
485.797	24057.2
486.426	23718.2
487.057	24178.2
487.688	23977.2
488.319	23728.2
488.948	23770.2
489.579	24183.2
490.21	24173.2
490.839	24507.2
491.469	24504.2
492.1	24060.2
492.729	24029.2
493.359	24012.2
493.99	24247.2
494.618	24489.2
495.249	24372.2
495.88	24290.2
496.508	24260.2
497.138	24194.2
497.767	24287.2
498.397	24479.2
499.027	24475.2
499.655	24994.2
500.286	24754.2
500.914	24781.2
501.544	24358.2
502.172	24637.2
502.802	24430.2
503.43	24579.2
504.06	24725.2
504.687	24774.2
505.317	24828.2
505.945	24707.2
506.575	24722.2
507.203	24409.2
507.83	24574.2
508.46	24764.2
509.087	24870.2
509.717	24997.2
510.344	24939.2
510.972	24732.2
511.601	24698.2
512.228	24744.2
512.858	24753.2
513.485	25344.2
514.112	24938.2
514.741	25193.2
515.368	24876.2
515.995	24739.2
516.622	25026.2
517.252	24803.2
517.878	25215.2
518.505	24996.2
519.134	25011.2
519.761	24725.2
520.388	24595.2
521.014	24185.2
521.643	24407.2
522.27	24237.2
522.896	24706.2
523.523	24522.2
524.149	24668.2
524.776	24587.2
525.404	24443.2
526.031	24460.2
526.657	24918.2
527.283	25032.2
527.91	24935.2
528.536	24951.2
529.162	24836.2
529.788	24862.2
530.416	24427.2
531.042	24444.2
531.668	24516.7
532.294	24589.5
532.92	24589.2
533.546	24347.4
534.172	24171
534.798	24185.7
535.423	24250.9
536.049	24138.7
536.675	24629.6
537.3	24466.9
537.926	24233.4
538.551	24092.9
539.177	23876.4
539.802	24222.8
540.428	23910.6
541.051	24098.6
541.676	23918.8
542.301	23844
542.927	23882.8
543.552	23727
544.177	23626.5
544.802	23665.6
545.427	23510.4
546.05	23521.1
546.675	23825
547.3	23594.3
547.925	23114.4
548.55	23083.8
549.174	23008.9
549.797	22985.1
550.422	23135.6
551.047	23490.3
551.671	23147.4
552.294	22966.9
552.918	22992.3
553.543	22881.7
554.167	22665.8
554.789	23003.7
555.414	22697.8
556.038	23055.2
556.66	22611.6
557.285	22643.6
557.909	22434.7
558.531	22367.4
559.155	22505.4
559.777	22661.2
560.401	22347.7
561.025	22558.3
561.647	22509.3
562.271	22343.3
562.893	22104.8
563.517	22121.6
564.14	22222.4
564.762	22048.5
565.386	21823.2
566.007	22075.6
566.631	21748.8
567.252	21794.2
567.876	21901.7
568.497	21747.5
569.121	21773.7
569.742	21770.6
570.366	21912.2
570.987	21888.2
571.61	21477.2
572.231	21496.9
572.852	21533.5
573.476	21485.3
574.097	21495.6
574.72	21567
575.341	21707.7
575.961	21427.5
576.584	21287.9
577.205	21117.4
577.826	21308.9
578.449	21202.9
579.07	21211.5
579.69	21342.8
580.313	21281.5
580.934	21078.4
581.554	20854.7
582.174	20744.4
582.797	20932.9
583.417	20665.6
584.038	20936.1
584.658	21044.8
585.281	20811.7
585.901	20500
586.521	20392.8
587.141	20292.9
587.763	20266.9
588.383	20202.9
589.003	20268.2
589.623	20316.4
590.243	20044
590.863	19777.8
591.483	19835.5
592.105	19586.4
592.725	19792.5
593.345	19795.3
593.964	19662.3
594.584	19549.4
595.204	19536.4
595.823	19383.6
596.443	19245.4
597.062	19122.9
597.682	19127.8
598.301	19004.2
598.92	19170.7
599.54	18990.8
600.159	18587.1
600.778	18762.8
601.397	18347.9
602.017	18436.4
602.636	18505.3
603.255	18418.3
603.874	18291.7
604.493	18226.7
605.112	18183.9
605.731	18136.1
606.347	18005.2
606.966	17996
607.585	17983.2
608.204	17716.2
608.823	17751.8
609.441	17549.2
610.06	17399.3
610.676	17318.9
611.295	17181.6
611.913	17319
612.532	16915.3
613.15	16987.1
613.766	16754.1
614.385	16591.6
615.003	16528.5
615.621	16510
616.237	16474.7
616.856	16583.4
617.474	16494
618.09	16384.5
618.708	16417.5
619.326	16199.7
619.944	16110.9
620.56	16041.4
621.177	16003.1
621.793	16033
622.411	16043.3
623.029	15704.9
623.644	15386.6
624.262	15253.3
624.88	15028.7
625.495	15063.2
626.113	15029.5
626.728	14889.8
627.346	14667.9
627.961	14581.2
628.578	14605.3
629.194	14667.8
629.811	14924.6
630.426	14728.9
631.043	14753.8
631.658	14730.4
632.276	14578.7
632.891	14569.6
633.508	14383.1
634.123	14289.3
634.74	14335.9
635.354	14270.3
635.971	14372.7
636.586	14069.4
637.201	14043.7
637.818	13884.4
638.432	13867.6
639.047	13814.6
639.663	14107.9
640.278	13867.1
640.892	13681
641.509	13576.6
642.123	13541.6
642.738	13334.2
643.354	13224.4
643.968	13231.7
644.583	13018.1
645.199	13130.3
645.813	12802.2
646.427	13007.7
647.041	12731.7
647.655	12944.4
648.271	12807.9
648.885	12771.1
649.499	12855.7
650.113	12883.3
650.727	12708.9
651.343	12739.9
651.956	12477.1
652.57	12397
653.184	12284.6
653.797	12380.5
654.411	12342.4
655.024	12451.9
655.638	12302.8
656.254	12127.6
656.867	12075.1
657.48	12084.3
658.094	11975.7
658.707	11834
659.32	12002.4
659.933	11957.9
660.547	11890.7
661.16	11744
661.773	11704.6
662.386	11596.4
662.999	11649.4
663.612	11571.7
664.225	11596.4
664.838	11659.2
665.451	11450
666.063	11298.4
666.674	11329.1
667.287	11405.1
667.899	11246.6
668.512	11350
669.125	11181.8
669.404	11168.8
670.023	10969.8
670.644	10931.8
671.265	11088.8
671.886	10972.8
672.507	11041.8
673.128	11137.8
673.749	10910.8
674.368	10981.8
674.989	10868.8
675.609	10861.8
676.23	10801.8
676.851	10852.8
677.469	10760.8
678.09	10725.8
678.711	10729.8
679.331	10631.8
679.949	10747.8
680.57	10460.8
681.19	10355.8
681.811	10646.8
682.429	10690.8
683.049	10525.8
683.669	10459.8
684.287	10538.8
684.908	10414.8
685.528	10374.8
686.146	10313.8
686.766	10417.8
687.386	10268.8
688.003	10267.8
688.623	10293.8
689.241	10194.8
689.861	10115.8
690.481	10039.8
691.098	10171.8
691.718	10049.8
692.336	10236.8
692.955	10109.8
693.573	10099.8
694.192	9979.78
694.81	9939.78
695.429	9965.78
696.046	9880.78
696.666	10016.8
697.283	9853.78
697.902	10086.8
698.519	9839.78
699.139	9927.78
699.756	9740.78
700.375	9937.78
700.992	9766.78
701.611	9824.78
702.228	9765.78
702.844	9725.78
703.463	9497.78
704.08	9473.78
704.699	9649.78
705.316	9731.78
705.932	9668.78
706.551	9539.78
707.168	9624.78
707.784	9517.78
708.403	9615.78
709.019	9437.78
709.635	9665.78
710.254	9540.78
710.87	9540.78
711.487	9424.78
712.103	9565.78
712.721	9297.78
713.337	9471.78
713.953	9359.78
714.569	9325.78
715.188	9353.78
715.804	9407.78
716.419	9423.78
717.035	9239.78
717.651	9297.78
718.269	9320.78
718.885	9291.78
719.501	9224.78
720.116	9209.78
720.732	9373.78
721.348	9063.78
721.963	9272.78
722.579	9131.78
723.196	9018.78
723.812	9180.78
724.427	9058.78
725.043	9179.78
725.658	9111.78
726.273	8842.78
726.889	8942.78
727.504	8870.78
728.119	8938.78
728.734	8804.78
729.349	8918.78
729.964	8985.78
730.579	8810.78
731.194	8863.78
731.809	8706.78
732.424	8758.78
733.039	8844.78
733.654	8733.78
734.268	8762.78
734.883	8910.78
735.498	8833.78
736.112	8690.78
736.725	8649.78
737.34	8736.78
737.954	8711.78
738.569	8724.78
739.183	8856.78
739.797	8740.78
740.412	8598.78
741.024	8600.78
741.638	8490.78
742.252	8503.78
742.867	8459.78
743.481	8424.78
744.093	8426.78
744.707	8460.78
745.321	8527.78
745.935	8353.78
746.549	8400.78
747.161	8432.78
747.775	8420.78
748.388	8415.78
749	8449.78
749.614	8303.78
750.228	8309.78
750.841	8373.78
751.453	8328.78
752.066	8310.78
752.68	8297.78
753.291	8195.78
753.905	8197.78
754.516	8210.78
755.129	8283.78
755.743	8158.78
756.354	8179.78
756.967	8132.78
757.578	8237.78
758.192	8140.78
758.805	8061.78
759.416	8038.78
760.029	8005.78
760.64	8058.78
761.253	7933.78
761.863	8154.78
762.476	8005.78
763.087	8037.78
763.7	8034.78
764.311	7914.78
764.923	7834.78
765.534	7711.78
766.147	7955.78
766.757	7869.78
767.368	7908.78
767.98	7714.78
768.591	7811.78
769.203	7755.78
769.813	7765.78
770.424	7678.78
771.036	7754.78
771.646	7795.78
772.258	7763.78
772.869	7615.78
773.479	7611.78
774.091	7533.78
774.701	7365.78
775.311	7571.78
775.923	7721.78
776.533	7517.78
777.142	7439.78
777.752	7388.78
778.364	7407.78
778.974	7396.78
779.583	7422.78
780.193	7325.78
780.805	7317.78
781.414	7387.78
782.024	7314.78
782.633	7337.78
783.243	7190.78
783.854	7261.78
784.464	7231.78
785.073	7155.78
785.682	7204.78
786.291	7039.78
786.901	7196.78
787.51	7038.78
788.121	7107.78
788.73	6792.78
789.339	6970.78
789.948	6808.78
790.557	6822.78
791.166	6781.78
791.775	6599.78
792.384	6620.78
792.992	6522.78
793.601	6458.78
794.21	6616.78
794.819	6549.78
795.427	6716.78
796.036	6619.78
796.644	6557.78
797.253	6515.78
797.861	6392.78
798.47	6425.78
799.078	6405.78
799.686	6485.78
800.295	6341.78
800.903	6242.78
801.511	6164.78
802.12	6107.78
802.726	6048.78
803.334	6104.78
803.942	6230.78
804.55	6066.78
805.158	6055.78
805.766	6001.78
806.374	5809.78
806.979	5799.78
807.587	5782.78
808.195	5839.78
808.803	5835.78
809.41	5820.78
810.016	5800.78
810.624	5648.78
811.231	5437.78
811.839	5460.78
812.444	5452.78
813.052	5486.78
813.659	5518.78
814.267	5489.78
814.872	5262.78
815.479	5376.78
816.086	5198.78
816.692	5263.78
817.299	5007.78
817.906	5223.78
818.511	5204.78
819.118	5077.78
819.725	5056.78
820.33	4873.78
820.937	5021.78
821.542	4976.78
822.149	4866.78
822.755	4896.78
823.36	4826.78
823.967	4878.78
824.572	4783.78
825.178	4646.78
825.783	4688.78
826.389	4668.78
826.994	4650.78
827.6	4699.78
828.205	4607.78
828.811	4636.78
829.416	4574.78
830.022	4648.78
830.626	4501.78
831.232	4478.78
831.837	4617.78
832.441	4489.78
833.047	4604.78
833.651	4508.78
834.257	4545.78
834.861	4392.78
835.465	4364.78
836.071	4432.78
836.675	4458.78
837.281	4392.78
837.884	4508.78
838.488	4423.78
839.094	4430.78
839.697	4480.78
840.301	4477.78
840.905	4426.78
841.51	4433.78
842.114	4447.78
842.717	4387.78
843.323	4359.78
843.926	4381.78
844.529	4330.78
845.133	4353.78
845.736	4416.78
846.341	4413.78
846.944	4455.78
847.547	4550.78
848.15	4484.78
848.754	4525.78
849.359	4410.78
849.962	4542.78
850.565	4517.78
851.167	4643.78
851.77	4608.78
852.373	4608.78
852.976	4547.78
853.579	4451.78
854.181	4590.78
854.786	4589.78
855.389	4549.78
855.991	4741.78
856.594	4692.78
857.196	4679.78
857.799	4610.78
858.401	4687.78
859.004	4647.78
859.606	4713.78
860.208	4708.78
860.81	4847.78
861.413	4819.78
862.015	4800.78
862.617	4815.78
863.219	4814.78
863.821	4845.78
864.421	5042.78
865.023	4981.78
865.625	5043.78
866.227	5066.78
866.829	5096.78
867.431	5172.78
868.032	5159.78
868.634	5130.78
869.234	5195.78
869.836	5322.78
870.437	5185.78
871.039	5472.78
871.64	5460.78
872.242	5326.78
872.841	5422.78
873.443	5502.78
874.044	5509.78
874.645	5611.78
875.245	5514.78
875.846	5610.78
876.447	5709.78
877.048	5719.78
877.647	5737.78
878.249	5777.78
878.85	5843.78
879.449	5901.78
880.05	5906.78
880.651	5913.78
881.249	5960.78
881.85	5809.78
882.451	6057.78
883.05	6222.78
883.651	6205.78
884.249	6350.78
884.85	6344.78
885.451	6356.78
886.049	6371.78
886.65	6353.78
887.248	6514.78
887.849	6539.78
888.447	6598.78
889.048	6665.78
889.646	6618.78
890.246	6717.78
890.844	6794.78
891.445	6789.78
892.043	6786.78
892.643	6993.78
893.241	7096.78
893.841	7035.78
894.439	7139.78
895.039	7153.78
895.637	7099.78
896.237	7361.78
896.835	7242.78
897.433	7336.78
898.033	7585.78
898.63	7533.78
899.228	7565.78
899.828	7821.78
900.425	7587.78
901.025	7632.78
901.623	7709.78
902.22	7929.78
902.818	7904.78
903.417	7961.78
904.014	8045.78
904.612	8000.78
905.211	7958.78
905.808	8083.78
906.406	8278.78
907.003	8363.78
907.602	8475.78
908.199	8628.78
908.796	8542.78
909.393	8545.78
909.99	8465.78
910.589	8678.78
911.186	8530.78
911.783	8885.78
912.38	8949.78
912.977	8819.78
913.573	8792.78
914.17	8914.78
914.769	8917.78
915.365	8930.78
915.962	9121.78
916.559	9505.78
917.155	9428.78
917.752	9495.78
918.348	9502.78
918.944	9475.78
919.541	9477.78
920.137	9512.78
920.733	9750.78
921.33	9751.78
921.926	9851.78
922.522	9761.78
923.118	9882.78
923.714	9938.78
924.31	10019.8
924.906	9939.78
925.502	10161.8
926.098	10531.8
926.694	10408.8
927.29	10290.8
927.886	10304.8
928.48	10310.8
929.075	10522.8
929.671	10629.8
930.267	10733.8
930.862	10823.8
931.458	10735.8
932.054	10753.8
932.647	10713.8
933.243	10789.8
933.838	10839.8
934.433	11015.8
935.029	11029.8
935.622	11122.8
936.217	11213.8
936.813	11124.8
937.408	11017.8
938.001	11231.8
938.596	11231.8
939.191	11420.8
939.786	11685.8
940.379	11657.8
940.974	11580.8
941.569	11629.8
942.162	11464.8
942.757	11508.8
943.352	11675.8
943.944	11788.8
944.539	11768.8
945.132	12085.8
945.726	11931.8
946.321	12015.8
946.914	11779.8
947.508	12021.8
948.101	12089.8
948.695	12272.8
949.289	12190.8
949.882	12096.8
950.476	12065.8
951.068	12245.8
951.663	12248.8
952.255	12370.8
952.849	12405.8
953.441	12429.8
954.035	12435.8
954.627	12531.8
955.219	12476.8
955.813	12494.8
956.405	12333.8
956.999	12635.8
957.591	12675.8
958.185	12626.8
958.777	12931.8
959.369	12754.8
959.962	12810.8
960.554	12759.8
961.146	12693.8
961.739	12679.8
962.331	12770.8
962.922	12851.8
963.516	13059.8
964.107	12854.8
964.699	12885.8
965.292	12748.8
965.883	12806.8
966.475	12899.8
967.066	13001.8
967.659	12921.8
968.25	13070.8
968.841	13196.8
969.432	13041.6
970.026	12993
970.617	12980.4
971.207	13025.8
971.798	12942.1
972.389	13176.9
972.982	13321.1
973.573	13245.5
974.164	13398.8
974.755	13173.6
975.345	13237.8
975.936	13174
976.526	13199.6
977.117	13361.5
977.708	13415.3
978.3	13232.7
978.891	13226.5
979.481	13143.6
980.072	13138.6
980.662	13089.2
981.252	13390.1
981.843	13321
982.433	13198.8
983.023	13160.2
983.613	13192.5
984.203	13239
984.793	12973.1
985.383	12940.2
985.973	12931.8
986.561	12915.4
987.151	13114.2
987.741	13163.2
988.331	13128.2
988.921	12978.1
989.511	12894.4
990.1	13231.8
990.69	13199.7
991.28	13266.5
991.867	13269.1
992.457	13548.3
993.047	13212.7
993.636	12930.2
994.226	13079.9
994.813	13210
995.402	13179
995.992	13403
996.581	13253.7
997.17	13213
997.758	12993.2
998.347	12874
998.936	12925.1
999.523	13085.5
1000.11	13311.8
1000.7	13194.6
1001.29	13242.6
1001.88	13120.5
1002.47	12958.8
1003.06	12889.1
1003.64	12864.5
1004.23	12974.1
1004.82	12943.2
1005.41	12991.7
1006	13033
1006.58	12990.2
1007.17	12807.9
1007.76	12750.5
1008.35	12763
1008.93	12851.3
1009.52	12748.1
1010.11	12792.5
1010.7	12608.7
1011.28	12755.3
1011.87	12572.5
1012.46	12634.6
1013.04	12449.8
1013.63	12647
1014.22	12614.6
1014.81	12551.6
1015.39	12637.3
1015.98	12677.3
1016.57	12583.8
1017.15	12291.4
1017.74	12352.7
1018.33	12283.4
1018.92	12496.3
1019.5	12243.1
1020.09	12344.7
1020.67	12389.5
1021.26	12200.6
1021.85	12149.2
1022.43	12029
1023.02	11933.3
1023.6	12166.6
1024.19	12117.9
1024.78	12152.1
1025.36	11958.5
1025.95	11816
1026.54	11772.4
1027.12	11744.4
1027.71	11710.4
1028.29	11721.8
1028.88	11783.5
1029.46	11744.7
1030.05	11558.2
1030.63	11713.8
1031.22	11501.7
1031.81	11536.3
1032.39	11429.1
1032.98	11421.9
1033.56	11460.1
1034.15	11561
1034.73	11271.3
1035.32	11337.5
1035.9	11194.3
1036.49	11198.7
1037.07	11199.8
1037.66	11273.8
1038.24	11236.5
1038.83	11131.1
1039.41	11003.3
1039.99	10985
1040.58	10972.1
1041.16	10779.5
1041.75	10854.6
1042.33	10874.8
1042.92	10907.9
1043.5	10882.6
1044.09	10796.1
1044.67	10690
1045.25	10570.8
1045.84	10642
1046.42	10458.5
1047.01	10521.4
1047.59	10453.4
1048.17	10397.9
1048.76	10288.5
1049.34	10263.5
1049.92	10277.4
1050.51	10173.8
1051.09	10353.5
1051.67	10223
1052.26	10205.7
1052.84	10245.4
1053.42	10230.7
1054.01	10100.3
1054.59	9940.45
1055.17	9739.66
1055.76	9849.21
1056.34	9922.97
1056.92	9718.08
1057.5	9673.8
1058.09	9683.24
1058.67	9433.97
1059.25	9306.24
1059.84	9221.07
1060.42	9237.63
1061	9292.49
1061.58	9274.2
1062.17	9389.29
1062.75	9411.94
1063.33	9345.54
1063.91	9300.1
1064.49	9297.24
1065.08	9185.15
1065.66	9282.73
1066.24	9338.92
1066.82	9308.8
1067.4	9119.42
1067.99	9122.88
1068.57	8975.89
1069.15	8928.9
1069.73	8918.32
1070.31	8897.01
1070.89	8926.77
1071.48	8850.13
1072.06	8911.37
1072.64	8878.8
1073.22	8670.66
1073.8	8574.58
1074.38	8576.56
1074.96	8631.55
1075.54	8570.61
1076.12	8550.26
1076.71	8387.45
1077.29	8376.45
1077.87	8306.97
1078.45	8264.87
1079.03	8272.12
1079.61	8268.81
1080.19	8223.76
1080.77	8325.66
1081.35	8289.02
1081.93	8159
1082.51	8143.69
1083.09	8232.96
1083.67	8020.44
1084.25	8071.5
1084.83	8111.68
1085.41	8054.51
1085.99	7995.79
1086.57	7912.94
1087.15	7783.19
1087.73	7796.84
1088.31	7768.07
1088.89	7807.97
1089.47	7760.4
1090.05	7822.14
1090.63	7750.51
1091.21	7659.07
1091.79	7676.68
1092.37	7568.42
1092.95	7512.35
1093.53	7567.26
1094.11	7550.5
1094.69	7580.06
1095.27	7509.01
1095.84	7497.89
1096.42	7306.91
1097	7341.33
1097.58	7283.88
1098.16	7359.79
1098.74	7368.87
1099.32	7345
1099.9	7243.7
1100.47	7182.42
1101.05	7035.46
1101.63	7024.35
1102.21	6978.71
1102.79	6977.88
1103.37	6944.76
1103.95	6966
1104.52	6971.9
1105.1	6952.44
1105.68	6936.87
1106.26	6754.01
1106.84	6764.74
1107.42	6614.79
1107.99	6724.59
1108.57	6716.12
1109.15	6747.12
1109.73	6744.84
1110.3	6578.4
1110.88	6665.1
1111.46	6607.53
1112.04	6531.35
1112.61	6524.93
1113.19	6532.86
1113.77	6555.45
1114.34	6503.5
1114.92	6450.09
1115.5	6295.27
1116.08	6151.63
1116.65	6244.83
1117.23	6304.07
1117.81	6296.9
1118.38	6291.75
1118.96	6154.71
1119.54	6166.07
1120.11	6241.44
1120.69	6178.91
1121.27	6013.58
1121.84	6113.36
1122.42	6050.49
1123	6121.81
1123.57	6057.96
1124.15	6000.66
1124.72	6003.49
1125.3	5870.57
1125.88	5838.3
1126.45	5865.58
1127.03	5932.65
1127.6	5979.86
1128.18	5895.92
1128.76	5901.16
1129.33	5727.57
1129.91	5662.7
1130.48	5652.89
1131.06	5658.13
1131.63	5542.96
1132.21	5532.52
1132.79	5607.29
1133.36	5562.64
1133.93	5545.43
1134.51	5479.87
1135.09	5464
1135.66	5457.44
1136.24	5523.77
1136.81	5530.5
1137.39	5570.27
1137.96	5451.81
1138.54	5384.24
1139.11	5381.85
1139.69	5250.4
1140.26	5352.66
1140.83	5299.51
1141.41	5351.9
1141.98	5331.82
1142.56	5295.9
1143.13	5303.13
1143.71	5173.58
1144.28	5009.7
1144.86	5181.65
1145.43	5152.42
1146	5019.69
1146.2	5014.69
1146.79	5091.69
1147.37	5055.69
1147.95	5012.69
1148.53	4964.69
1149.12	4915.69
1149.7	4845.69
1150.28	4889.69
1150.86	4881.69
1151.44	4927.69
1152.02	4837.69
1152.6	4787.69
1153.19	4666.69
1153.77	4771.69
1154.35	4753.69
1154.93	4710.69
1155.51	4652.69
1156.09	4702.69
1156.67	4710.69
1157.25	4571.69
1157.83	4566.69
1158.42	4408.69
1159	4442.69
1159.58	4599.69
1160.16	4480.69
1160.74	4525.69
1161.32	4616.69
1161.9	4463.69
1162.48	4350.69
1163.06	4295.69
1163.64	4438.69
1164.22	4397.69
1164.8	4335.69
1165.38	4256.69
1165.96	4332.69
1166.54	4255.69
1167.12	4207.69
1167.7	4179.69
1168.28	4206.69
1168.86	4179.69
1169.44	4088.69
1170.02	4119.69
1170.6	4100.69
1171.18	4080.69
1171.76	4086.69
1172.34	3974.69
1172.92	3989.69
1173.5	3881.69
1174.08	3895.69
1174.66	4032.69
1175.24	3976.69
1175.82	3971.69
1176.4	3853.69
1176.97	3722.69
1177.55	3821.69
1178.13	3816.69
1178.71	3804.69
1179.29	3765.69
1179.87	3797.69
1180.45	3818.69
1181.03	3745.69
1181.61	3671.69
1182.18	3601.69
1182.76	3621.69
1183.34	3594.69
1183.92	3613.69
1184.5	3546.69
1185.08	3641.69
1185.65	3494.69
1186.23	3416.69
1186.81	3411.69
1187.39	3456.69
1187.97	3491.69
1188.55	3425.69
1189.12	3394.69
1189.7	3446.69
1190.28	3313.69
1190.86	3416.69
1191.43	3234.69
1192.01	3249.69
1192.59	3332.69
1193.17	3306.69
1193.74	3240.69
1194.32	3232.69
1194.9	3234.69
1195.48	3170.69
1196.05	3116.69
1196.63	3102.69
1197.21	3107.69
1197.79	3134.69
1198.36	3102.69
1198.94	3058.69
1199.52	3075.69
1200.09	3067.69
1200.67	3059.69
1201.25	3044.69
1201.82	3000.69
1202.4	2951.69
1202.98	3043.69
1203.55	2959.69
1204.13	2906.69
1204.7	2918.69
1205.28	2796.69
1205.86	2827.69
1206.44	2844.69
1207.01	2867.69
1207.59	2867.69
1208.16	2826.69
1208.74	2803.69
1209.31	2755.69
1209.89	2746.69
1210.47	2639.69
1211.04	2776.69
1211.62	2723.69
1212.19	2636.69
1212.77	2615.69
1213.34	2664.69
1213.92	2683.69
1214.5	2571.69
1215.07	2612.69
1215.65	2627.69
1216.22	2567.69
1216.8	2620.69
1217.37	2601.69
1217.95	2643.69
1218.52	2532.69
1219.1	2471.69
1219.67	2515.69
1220.25	2538.69
1220.82	2527.69
1221.4	2544.69
1221.97	2538.69
1222.55	2498.69
1223.12	2466.69
1223.7	2419.69
1224.27	2476.69
1224.85	2401.69
1225.42	2412.69
1225.99	2424.69
1226.57	2437.69
1227.14	2425.69
1227.72	2376.69
1228.29	2424.69
1228.86	2362.69
1229.44	2337.69
1230.01	2377.69
1230.59	2400.69
1231.16	2355.69
1231.73	2349.69
1232.31	2381.69
1232.88	2342.69
1233.46	2350.69
1234.03	2315.69
1234.6	2331.69
1235.18	2360.69
1235.75	2272.69
1236.32	2331.69
1236.9	2291.69
1237.47	2299.69
1238.04	2281.69
1238.61	2240.69
1239.19	2296.69
1239.76	2279.69
1240.33	2337.69
1240.91	2288.69
1241.48	2248.69
1242.05	2224.69
1242.63	2267.69
1243.2	2235.69
1243.77	2302.69
1244.34	2282.69
1244.92	2167.69
1245.49	2291.69
1246.06	2232.69
1246.63	2199.69
1247.21	2245.69
1247.78	2191.69
1248.35	2211.69
1248.92	2208.69
1249.5	2203.69
1250.07	2199.69
1250.64	2235.69
1251.21	2220.69
1251.78	2220.69
1252.36	2211.69
1252.93	2243.69
1253.5	2245.69
1254.07	2308.69
1254.64	2253.69
1255.21	2190.69
1255.78	2294.69
1256.36	2199.69
1256.93	2189.69
1257.5	2157.69
1258.07	2235.69
1258.64	2176.69
1259.21	2142.69
1259.78	2186.69
1260.35	2235.69
1260.93	2194.69
1261.5	2247.69
1262.07	2135.69
1262.64	2189.69
1263.21	2215.69
1263.78	2190.69
1264.35	2208.69
1264.92	2160.69
1265.49	2173.69
1266.06	2197.69
1266.63	2189.69
1267.2	2241.69
1267.77	2187.69
1268.34	2208.69
1268.91	2182.69
1269.48	2173.69
1270.05	2144.69
1270.62	2227.69
1271.19	2257.69
1271.76	2221.69
1272.33	2177.69
1272.9	2260.69
1273.47	2162.69
1274.04	2146.69
1274.61	2176.69
1275.18	2175.69
1275.75	2203.69
1276.32	2191.69
1276.89	2107.69
1277.46	2166.69
1278.03	2216.69
1278.6	2251.69
1279.17	2175.69
1279.74	2247.69
1280.3	2174.69
1280.87	2127.69
1281.44	2175.69
1282.01	2131.69
1282.58	2215.69
1283.15	2179.69
1283.72	2138.69
1284.29	2179.69
1284.86	2162.69
1285.42	2232.69
1285.99	2147.69
1286.56	2179.69
1287.13	2262.69
1287.7	2169.69
1288.27	2198.69
1288.83	2182.69
1289.4	2184.69
1289.97	2111.69
1290.54	2186.69
1291.11	2169.69
1291.68	2157.69
1292.24	2136.69
1292.81	2240.69
1293.38	2141.69
1293.95	2238.69
1294.51	2176.69
1295.08	2107.69
1295.65	2187.69
1296.22	2151.69
1296.79	2248.69
1297.35	2145.69
1297.92	2120.69
1298.49	2195.69
1299.05	2149.69
1299.62	2291.69
1300.19	2158.69
1300.76	2186.69
1301.32	2200.69
1301.89	2086.69
1302.46	2190.69
1303.02	2160.69
1303.59	2138.69
1304.16	2214.69
1304.72	2169.69
1305.29	2240.69
1305.86	2181.69
1306.42	2184.69
1306.99	2140.69
1307.56	2142.69
1308.12	2203.69
1308.69	2109.69
1309.26	2150.69
1309.82	2166.69
1310.39	2238.69
1310.95	2195.69
1311.52	2126.69
1312.09	2210.69
1312.65	2233.69
1313.22	2148.69
1313.78	2186.69
1314.35	2105.69
1314.92	2115.69
1315.48	2192.69
1316.05	2168.69
1316.61	2173.69
1317.18	2177.69
1317.74	2167.69
1318.31	2253.69
1318.87	2154.69
1319.44	2178.69
1320.01	2177.69
1320.57	2205.69
1321.13	2195.69
1321.7	2118.69
1322.27	2113.69
1322.83	2195.69
1323.4	2131.69
1323.96	2144.69
1324.52	2235.69
1325.09	2231.69
1325.65	2187.69
1326.22	2195.69
1326.78	2199.69
1327.35	2121.69
1327.91	2115.69
1328.48	2197.69
1329.04	2186.69
1329.61	2193.69
1330.17	2107.69
1330.73	2090.69
1331.3	2164.69
1331.86	2169.69
1332.43	2221.69
1332.99	2194.69
1333.55	2206.69
1334.12	2206.69
1334.68	2224.69
1335.25	2232.69
1335.81	2177.69
1336.37	2153.69
1336.94	2203.69
1337.5	2187.69
1338.06	2220.69
1338.63	2272.69
1339.19	2222.69
1339.75	2205.69
1340.32	2195.69
1340.88	2124.69
1341.44	2183.69
1342.01	2250.69
1342.57	2248.69
1343.13	2254.69
1343.69	2197.69
1344.26	2223.69
1344.82	2183.69
1345.38	2154.69
1345.95	2250.69
1346.51	2232.69
1347.07	2150.69
1347.64	2278.69
1348.2	2221.69
1348.76	2269.69
1349.32	2156.69
1349.88	2181.69
1350.45	2131.69
1351.01	2235.69
1351.57	2193.69
1352.13	2262.69
1352.7	2232.69
1353.26	2250.69
1353.82	2249.69
1354.38	2166.69
1354.94	2226.69
1355.51	2158.69
1356.07	2177.69
1356.63	2187.69
1357.19	2311.69
1357.75	2299.69
1358.31	2259.69
1358.87	2115.69
1359.43	2146.69
1360	2120.69
1360.56	2243.69
1361.12	2264.69
1361.68	2157.69
1362.24	2330.69
1362.8	2246.69
1363.36	2222.69
1363.92	2208.69
1364.49	2204.69
1365.05	2184.69
1365.61	2230.69
1366.17	2258.69
1366.73	2295.69
1367.29	2235.69
1367.85	2299.69
1368.41	2339.69
1368.97	2265.69
1369.53	2227.69
1370.09	2251.69
1370.65	2217.69
1371.21	2267.69
1371.77	2254.69
1372.33	2277.69
1372.89	2193.69
1373.45	2195.69
1374.01	2265.69
1374.57	2214.69
1375.13	2239.69
1375.69	2243.69
1376.25	2257.69
1376.81	2272.69
1377.37	2285.69
1377.93	2235.69
1378.49	2143.69
1379.05	2233.69
1379.61	2243.69
1380.17	2249.69
1380.73	2302.69
1381.29	2312.69
1381.85	2191.69
1382.41	2179.69
1382.97	2265.69
1383.52	2232.69
1384.08	2240.69
1384.64	2239.69
1385.2	2322.69
1385.76	2230.69
1386.32	2278.69
1386.88	2191.69
1387.44	2272.69
1387.99	2135.69
1388.55	2219.69
1389.11	2263.69
1389.67	2258.69
1390.23	2269.69
1390.79	2231.69
1391.35	2243.69
1391.9	2247.69
1392.46	2274.69
1393.02	2227.69
1393.58	2227.69
1394.14	2263.69
1394.7	2239.69
1395.25	2211.69
1395.81	2256.69
1396.37	2235.69
1396.93	2221.69
1397.48	2259.69
1398.04	2150.69
1398.6	2211.69
1399.16	2190.69
1399.71	2214.69
1400.27	2227.69
