34.6581	16136.2
35.3335	16496.2
36.0088	16958.2
36.6841	17575.2
37.3593	18344.2
38.0345	19121.2
38.7096	19262.2
39.3847	19698.2
40.0597	20179.2
40.7347	20354.2
41.4096	20860.2
42.0845	20896.2
42.7594	21094.2
43.4342	21198.2
44.1089	21311.2
44.7836	21756.2
45.4583	21989.2
46.1329	22270.2
46.8075	22807.2
47.482	22924.2
48.1542	23168.2
48.8286	23522.2
49.503	23541.2
50.1773	23851.2
50.8516	24009.2
51.5258	24709.2
52.2	24648.2
52.8719	24756.2
53.5459	24948.2
54.22	25248.2
54.894	25222.2
55.568	25683.2
56.2396	25858.2
56.9134	26086.2
57.5872	25883.2
58.261	26232.2
58.9324	26394.2
59.6061	26940.2
60.2797	26970.2
60.9533	27176.2
61.6246	27660.2
62.2981	27831.2
62.9715	27800.2
63.6449	27919.2
64.3159	27877.2
64.9892	28051.2
65.6625	27881.2
66.3334	28217.2
67.0066	28380.2
67.6774	28684.2
68.3505	28971.2
69.0235	28725.2
69.6942	29286.2
70.3671	29365.2
71.04	29201.2
71.7105	28934.2
72.3833	29256.2
73.0537	29274.2
73.7264	29212.2
74.3968	29747.2
75.0694	29713.2
75.7397	30104.2
76.4122	29752.2
77.0823	30196.2
77.7548	29934.2
78.4248	30088.2
79.0972	30089.2
79.7671	30307.2
80.4394	29957.2
81.1093	30112.2
81.7814	30163.2
82.4512	30064.2
83.1232	30183.2
83.7929	30047.2
84.4649	30568.2
85.1345	30726.2
85.8041	30250.2
86.4759	30281.2
87.1453	30488.2
87.8171	30533.2
88.4864	30393.2
89.1558	30691.2
89.8274	30433.2
90.4966	30284.2
91.1658	30303.2
91.8372	30148.2
92.5063	30307.2
93.1754	30156.2
93.8467	30537.2
94.5156	30563.2
95.1846	30293.2
95.8534	30589.2
96.5246	30526.2
97.1933	30468.2
97.8621	30588.2
98.5308	30568.2
99.2017	30484.2
99.8703	30280.2
100.539	29958.2
101.207	30292.2
101.876	29824.2
102.546	29764.2
103.215	29725.2
103.883	29744.2
104.551	29780.2
105.22	29937.2
105.888	29746.2
106.558	29852.2
107.226	30176.2
107.894	30314.2
108.562	30076.2
109.23	29706.2
109.898	30032.2
110.566	29905.2
111.234	29748.2
111.902	29876.2
112.569	29884.2
113.237	29842.2
113.905	29724.2
114.572	29764.2
115.24	29594.2
115.907	29703.2
116.575	29478.2
117.242	29748.2
117.909	29832.2
118.577	29376.2
119.244	29849.2
119.911	29670.2
120.578	29601.2
121.245	29438.2
121.913	29314.2
122.58	28976.2
123.247	29470.2
123.913	28790.2
124.58	28705.2
125.247	28713.2
125.914	28715.2
126.578	28750.2
127.245	28608.2
127.912	28851.2
128.578	28752.2
129.245	28534.2
129.912	28837.2
130.576	29011.2
131.242	28950.2
131.909	28785.2
132.575	28879.2
133.241	28740.2
133.905	28380.2
134.571	28516.2
135.237	28184.2
135.904	28567.6
136.567	28567.6
137.233	28567.6
137.899	28567.6
138.563	28567.6
139.229	28493.6
139.895	28493.6
140.56	28345.5
141.224	28345.5
141.89	28345.5
142.555	28345.5
143.219	28345.5
143.884	28197.5
144.547	28006.2
145.213	28064.2
145.878	28034.2
146.541	27895.2
147.207	27810.2
147.872	27644.2
148.535	27830.2
149.2	27673.2
149.863	27725.2
150.528	27482.2
151.191	27592.2
151.856	27379.2
152.519	27315.2
153.184	27327.2
153.846	27276.2
154.511	27354.2
155.173	27414.2
155.838	27228.2
156.501	27105.2
157.165	27061.2
157.828	26816.2
158.492	26936.2
159.154	26594.2
159.819	26821.2
160.481	26621.2
161.143	26620.2
161.807	26471.2
162.469	26610.2
163.134	26903.2
163.795	26809.2
164.457	26765.2
165.121	26433.2
165.783	26540.2
166.445	26636.2
167.109	26374.2
167.771	26544.2
168.432	26567.2
169.096	26305.2
169.757	26373.2
170.419	25900.2
171.08	26260.2
171.744	26462.2
172.405	26312.2
173.067	26312.2
173.728	26054.2
174.391	26125.2
175.052	26182.2
175.713	25953.2
176.375	26184.2
177.036	25908.2
177.699	26008.2
178.36	25934.2
179.021	25705.2
179.681	25887.2
180.342	25752.2
181.003	25632.2
181.666	25554.2
182.326	25777.2
182.987	25371.2
183.648	25404.2
184.308	25262.2
184.969	25087.2
185.629	25086.2
186.289	25305.2
186.95	25246.2
187.61	25352.2
188.27	25494.2
188.93	25021.2
189.593	25065.2
190.253	24908.2
190.913	25168.2
191.573	25015.2
192.233	25324.2
192.891	24956.2
193.55	25042.2
194.21	24950.2
194.87	24790.2
195.53	24877.2
196.189	24972.2
196.849	24956.2
197.509	24860.2
198.168	24562.2
198.828	24998.2
199.487	24824.2
200.147	24628.2
200.806	24883.2
201.463	24874.2
202.122	24734.2
202.782	24593.2
203.441	24531.2
204.1	24382.2
204.759	24393.2
205.416	24693.2
206.075	24489.2
206.734	24348.2
207.393	24178.2
208.052	24032.2
208.708	24333.2
209.367	24228.2
210.026	24509.2
210.684	24437.2
211.341	24352.2
211.999	24252.2
212.658	24321.2
213.314	24000.2
213.973	24190.2
214.631	24488.2
215.29	24202.2
215.946	24039.2
216.604	24403.2
217.26	24047.2
217.918	24056.2
218.576	23988.2
219.232	24011.2
219.89	24092.2
220.548	23974.2
221.204	23856.2
221.862	23540.2
222.518	23636.2
223.175	23625.2
223.831	23630.2
224.489	23742.2
225.146	23840.2
225.802	23894.2
226.459	23676.2
227.115	23740.2
227.772	23998.2
228.427	23892.2
229.085	23762.2
229.74	23672.2
230.397	23914.2
231.052	23394.2
231.707	23438.2
232.365	23406.2
233.02	23420.2
233.677	23673.2
234.332	23676.2
234.989	23451.2
235.643	23426.2
236.298	23382.2
236.955	23349.2
237.61	23606.2
238.264	23206.2
238.921	23328.2
239.575	23652.2
240.23	23243.2
240.886	23016.2
241.541	23031.2
242.195	22964.2
242.851	23360.2
243.506	23264.2
244.16	23120.2
244.816	22896.2
245.47	22849.2
246.124	23121.2
246.778	23129.2
247.434	22928.2
248.088	22797.2
248.742	22776.2
249.396	22918.2
250.05	22860.2
250.706	22548.2
251.359	22684.2
252.013	22860.2
252.667	23054.2
253.32	22900.2
253.974	22973.2
254.629	22802.2
255.283	22849.2
255.936	22904.2
256.589	22773.2
257.243	22844.2
257.896	22859.2
258.549	22583.2
259.202	22588.2
259.855	22455.2
260.508	22646.2
261.161	22507.2
261.814	22541.2
262.467	22672.2
263.12	22610.2
263.773	22053.2
264.426	22224.2
265.078	22609.2
265.731	22494.2
266.384	22474.2
267.036	22465.2
267.689	22498.2
268.341	22268.2
268.994	22103.2
269.646	22322.2
270.299	22286.2
270.951	22432.2
271.603	22673.2
272.255	22407.2
272.908	22362.2
273.558	22118.2
274.21	22217.2
274.862	22274.2
275.514	22262.2
276.166	22436.2
276.818	22116.2
277.467	22293.2
278.119	22024.2
278.771	22405.2
279.423	22602.2
280.074	22447.2
280.724	22545.2
281.375	22080.2
282.027	22158.2
282.679	21992.2
283.328	21912.2
283.979	21970.2
284.631	22200.2
285.28	21976.2
285.931	22093.2
286.582	22021.2
287.234	21928.2
287.883	21712.2
288.534	22060.2
289.185	21794.2
289.834	21874.2
290.485	22134.2
291.133	21718.2
291.784	21751.2
292.435	21720.2
293.084	21776.2
293.734	22039.2
294.383	21857.2
295.034	21476.2
295.684	21767.2
296.333	21609.2
296.983	21722.2
297.632	21975.2
298.282	21823.2
298.93	21805.2
299.581	21689.2
300.229	21846.2
300.879	21351.2
301.527	21479.2
302.177	21841.2
302.825	21713.2
303.473	21688.2
304.123	21826.2
304.771	21763.2
305.421	21781.2
306.069	21640.2
306.718	21430.2
307.366	21911.2
308.014	21866.2
308.663	21856.2
309.311	21560.2
309.958	21593.2
310.608	21181.2
311.255	21475.2
311.903	21344.2
312.552	21430.2
313.199	21312.2
313.847	20916.2
314.496	20892.2
315.143	21061.2
315.79	20966.2
316.437	21172.2
317.086	21283.2
317.733	21277.2
318.38	21532.2
319.027	21634.2
319.676	21524.2
320.323	21218.2
320.969	21546.2
321.616	21304.2
322.263	21421.2
322.911	21519.2
323.558	21568.2
324.204	21520.2
324.851	21320.2
325.497	21237.2
326.144	21477.2
326.79	21653.2
327.438	21458.2
328.085	21365.2
328.731	21379.2
329.377	21471.2
330.023	21116.2
330.669	21401.2
331.315	21385.2
331.961	21455.2
332.607	21391.2
333.253	21433.2
333.899	21520.2
334.544	21290.2
335.19	21378.2
335.836	21518.2
336.482	21347.2
337.127	21404.2
337.773	21394.2
338.418	21317.2
339.064	21486.2
339.709	21310.2
340.355	21418.2
341	21489.2
341.645	21250.2
342.288	21361.2
342.933	21172.2
343.579	21298.2
344.224	21136.2
344.869	21284.2
345.514	21652.2
346.159	21472.2
346.802	21257.2
347.447	21386.2
348.091	21566.2
348.736	21143.2
349.381	21210.2
350.024	21292.2
350.668	21167.2
351.313	20961.2
351.957	21107.2
352.6	20970.2
353.244	21122.2
353.889	21082.2
354.533	21227.2
355.175	21362.2
355.82	21700.2
356.464	21439.2
357.106	21208.2
357.75	21093.2
358.394	21124.2
359.036	21280.2
359.68	21559.2
360.324	21596.2
360.966	21398.2
361.61	21116.2
362.254	21155.2
362.896	21287.2
363.54	21296.2
364.181	21459.2
364.825	21415.2
365.466	21419.2
366.11	21309.2
366.751	21291.2
367.395	21222.2
368.039	21389.2
368.68	21408.2
369.323	21483.2
369.964	21477.2
370.608	21427.2
371.249	21314.2
371.89	21295.2
372.533	21430.2
373.174	21310.2
373.817	21491.2
374.458	21300.2
375.101	21350.2
375.742	21246.2
376.383	21102.2
377.025	21260.2
377.666	21500.2
378.309	21628.2
378.95	21446.2
379.59	21388.2
380.233	21252.2
380.873	21185.2
381.514	21474.2
382.156	21456.2
382.796	21480.2
383.437	21408.2
384.079	21745.2
384.719	21141.2
385.359	21254.2
386	21360.2
386.642	21369.2
387.282	21636.2
387.922	21592.2
388.562	21517.2
389.202	21455.2
389.844	21334.2
390.483	21457.2
391.123	21558.2
391.763	21529.2
392.403	21567.2
393.044	21555.2
393.684	21572.2
394.324	21511.2
394.963	21193.2
395.602	21813.2
396.242	21612.2
396.881	21598.2
397.521	21582.2
398.16	21421.2
398.801	21481.2
399.44	21273.2
400.08	21164.2
400.719	21134.2
401.358	21757.2
401.997	21849.2
402.636	21479.2
403.275	21516.2
403.914	21494.2
404.552	21367.2
405.191	21633.2
405.83	21674.2
406.469	21611.2
407.107	21743.2
407.746	21503.2
408.382	21373.2
409.021	21661.2
409.659	21343.2
410.298	21595.2
410.936	21901.2
411.575	21831.2
412.213	21688.2
412.851	21513.2
413.49	21731.2
414.126	21770.2
414.764	21578.2
415.402	21794.2
416.04	21935.2
416.678	21783.2
417.314	21673.2
417.952	21881.2
418.59	21877.2
419.227	21605.2
419.865	21503.2
420.501	22086.2
421.139	22052.2
421.776	21765.2
422.414	21623.2
423.049	21860.2
423.687	21768.2
424.324	21950.2
424.96	21803.2
425.597	22157.2
426.234	22078.2
426.87	21761.2
427.507	21647.2
428.144	21956.2
428.779	22023.2
429.416	21877.2
430.051	22227.2
430.688	21836.2
431.325	22134.2
431.96	22001.2
432.597	22015.2
433.232	21842.2
433.869	22179.2
434.503	22158.2
435.14	22052.2
435.775	22120.2
436.412	21822.2
437.046	21876.2
437.683	21839.2
438.317	22248.2
438.954	22360.2
439.588	22235.2
440.224	22253.2
440.858	22180.2
441.495	22115.2
442.129	22207.2
442.765	21965.2
443.399	22114.2
444.033	22166.2
444.669	22192.2
445.303	22401.2
445.939	22127.2
446.573	22327.2
447.207	22031.2
447.843	22516.2
448.477	22740.2
449.11	22849.2
449.746	22524.2
450.38	22390.2
451.013	22465.2
451.647	22269.2
452.282	22720.2
452.916	22743.2
453.549	22929.2
454.182	22708.2
454.818	22460.2
455.451	22536.2
456.084	22732.2
456.718	22661.2
457.353	22835.2
457.986	23118.2
458.619	22842.2
459.252	22747.2
459.885	22793.2
460.518	22555.2
461.153	22816.2
461.786	23241.2
462.418	23363.2
463.051	23210.2
463.684	23083.2
464.316	23185.2
464.949	23212.2
465.582	22941.2
466.214	23118.2
466.847	23188.2
467.479	23094.2
468.111	23268.2
468.746	23440.2
469.378	23244.2
470.011	23308.2
470.643	23412.2
471.275	23416.2
471.907	23656.2
472.537	23645.2
473.169	23592.2
473.801	23450.2
474.433	23510.2
475.065	23716.2
475.697	23556.2
476.329	23871.2
476.961	23732.2
477.592	23782.2
478.224	23746.2
478.856	23881.2
479.487	23852.2
480.117	23647.2
480.748	23855.2
481.38	24036.2
482.011	23958.2
482.643	24012.2
483.274	24031.2
483.903	24136.2
484.534	24231.2
485.166	24509.2
485.797	24534.2
486.426	24327.2
487.057	23901.2
487.688	24064.2
488.319	24349.2
488.948	24178.2
489.579	24362.2
490.21	24438.2
490.839	24690.2
491.469	24554.2
492.1	24664.2
492.729	24599.2
493.359	24690.2
493.99	24666.2
494.618	25006.2
495.249	24982.2
495.88	24968.2
496.508	24692.2
497.138	24807.2
497.767	24726.2
498.397	24844.2
499.027	24639.2
499.655	25139.2
500.286	25573.2
500.914	24982.2
501.544	25201.2
502.172	25390.2
502.802	25201.2
503.43	25297.2
504.06	25420.2
504.687	25664.2
505.317	25598.2
505.945	25523.2
506.575	25185.2
507.203	25418.2
507.83	25522.2
508.46	25928.2
509.087	25890.2
509.717	26122.2
510.344	25908.2
510.972	25714.2
511.601	25924.2
512.228	25808.2
512.858	25878.2
513.485	25914.2
514.112	25923.2
514.741	26108.2
515.368	26046.2
515.995	26409.2
516.622	26058.2
517.252	26264.2
517.878	26637.2
518.505	26231.2
519.134	26595.2
519.761	26183.2
520.388	26161.2
521.014	26082.2
521.643	26190.2
522.27	26154.2
522.896	26130.2
523.523	26173.2
524.149	26456.2
524.776	26414.2
525.404	26204.2
526.031	26609.2
526.657	26573.2
527.283	26736.2
527.91	27191.2
528.536	26934.2
529.162	27180.2
529.788	26870.2
530.416	27018.2
531.042	26960.2
531.668	27037.9
532.294	27425
532.92	27145
533.546	27328.8
534.172	26845.2
534.798	27204.8
535.423	27157.5
536.049	27418.8
536.675	27353.4
537.3	27399
537.926	27367.5
538.551	27735.4
539.177	27461.2
539.802	27404.8
540.428	27427.6
541.051	27752.5
541.676	27629.1
542.301	27698.6
542.927	27942.6
543.552	27685.6
544.177	27702.4
544.802	27770.2
545.427	27826.5
546.05	28146
546.675	27892.4
547.3	28080
547.925	27995.6
548.55	27960.2
549.174	27943.9
549.797	27961
550.422	28226
551.047	28234.6
551.671	28422.6
552.294	28220.9
552.918	28354.7
553.543	28178.8
554.167	28314
554.789	28149.9
555.414	28179.5
556.038	28595.7
556.66	28398.3
557.285	28563.1
557.909	28148.5
558.531	28340.9
559.155	28612.2
559.777	28243.8
560.401	28778.8
561.025	28674.9
561.647	28586.1
562.271	28617.3
562.893	28584
563.517	28423.8
564.14	28795.3
564.762	28826.7
565.386	28628.6
566.007	28913.3
566.631	28381
567.252	28460.5
567.876	28482.5
568.497	28464.3
569.121	28688.7
569.742	28957.2
570.366	28813.9
570.987	28739.5
571.61	28674.4
572.231	28687.7
572.852	28902.9
573.476	28602.1
574.097	28725.7
574.72	28847.5
575.341	28962.8
575.961	28578.2
576.584	28619.5
577.205	28529.1
577.826	28579.2
578.449	28787.7
579.07	28556.1
579.69	28765.2
580.313	28636.1
580.934	28709.7
581.554	28462.6
582.174	28339.6
582.797	28297.8
583.417	28257.5
584.038	28441.1
584.658	28210.1
585.281	28285.1
585.901	28185.3
586.521	27959.3
587.141	27814.3
587.763	28083.8
588.383	27881.5
589.003	27914.1
589.623	27792.7
590.243	27427.7
590.863	27471.6
591.483	27225.3
592.105	27258.6
592.725	27084.5
593.345	27058.5
593.964	27132.6
594.584	27071.2
595.204	26786.7
595.823	26606.2
596.443	26696
597.062	26505.5
597.682	26603.8
598.301	26420.4
598.92	26246.8
599.54	26080.6
600.159	26000.3
600.778	25784.8
601.397	25553.3
602.017	25517.2
602.636	25618.1
603.255	25741.7
603.874	25654.8
604.493	25313.4
605.112	25140.6
605.731	24997.2
606.347	24939.5
606.966	24891.6
607.585	24655.6
608.204	24734.5
608.823	24800.7
609.441	24477.1
610.06	24225.3
610.676	24267.3
611.295	24100.4
611.913	23872.4
612.532	23585.2
613.15	23563.4
613.766	23335.7
614.385	23157.5
615.003	22905.2
615.621	22871.3
616.237	23144.3
616.856	22863.5
617.474	23034.1
618.09	22812.2
618.708	22597.7
619.326	22532.2
619.944	22403.3
620.56	22323.8
621.177	22179.3
621.793	22340.8
622.411	22103.9
623.029	21836.8
623.644	21635.3
624.262	21473.4
624.88	21225.6
625.495	20915.9
626.113	20793.7
626.728	20848.8
627.346	20495.5
627.961	20326.6
628.578	20438.9
629.194	20540.1
629.811	20643.3
630.426	20640.1
631.043	20647.2
631.658	20844.8
632.276	20774.1
632.891	20648.3
633.508	20386.5
634.123	20362.5
634.74	20313.8
635.354	20585.3
635.971	20514.3
636.586	20248.9
637.201	20252.8
637.818	19834.2
638.432	20110.3
639.047	20101
639.663	19809
640.278	19800.1
640.892	19899.4
641.509	19920.4
642.123	19690.9
642.738	19363.2
643.354	19428.4
643.968	19196.1
644.583	19236.2
645.199	19363.3
645.813	19147
646.427	19287.2
647.041	19139.5
647.655	19196.1
648.271	18893.4
648.885	19121.2
649.499	19056.4
650.113	19042.2
650.727	19063.5
651.343	19064.7
651.956	19144.7
652.57	19045.9
653.184	18833.4
653.797	18708.5
654.411	18990.9
655.024	18973.9
655.638	18650.2
656.254	18997.3
656.867	18718
657.48	18611
658.094	18648.9
658.707	18533.9
659.32	18823.5
659.933	18519
660.547	18780
661.16	18675.9
661.773	18412.9
662.386	18456.7
662.999	18227.2
663.612	18611.9
664.225	18432.4
664.838	18284.8
665.451	18457.8
666.063	18217.5
666.674	18246.7
667.287	18285.4
667.899	17990.6
668.512	18126.3
669.125	18255.8
669.404	18086.8
670.023	18087.8
670.644	18143.8
671.265	17807.8
671.886	18208.8
672.507	17925.8
673.128	18169.8
673.749	17887.8
674.368	18265.8
674.989	17949.8
675.609	17965.8
676.23	17720.8
676.851	17795.8
677.469	17549.8
678.09	17856.8
678.711	17773.8
679.331	17810.8
679.949	17863.8
680.57	17643.8
681.19	17547.8
681.811	17511.8
682.429	17685.8
683.049	17747.8
683.669	17557.8
684.287	17403.8
684.908	17469.8
685.528	17403.8
686.146	17147.8
686.766	17328.8
687.386	17383.8
688.003	17451.8
688.623	17397.8
689.241	17140.8
689.861	16917.8
690.481	17208.8
691.098	17151.8
691.718	17327.8
692.336	17213.8
692.955	17065.8
693.573	17149.8
694.192	17125.8
694.81	17022.8
695.429	17149.8
696.046	17099.8
696.666	17027.8
697.283	17093.8
697.902	17080.8
698.519	16925.8
699.139	17019.8
699.756	16703.8
700.375	16919.8
700.992	16889.8
701.611	16967.8
702.228	16673.8
702.844	16533.8
703.463	16413.8
704.08	16436.8
704.699	16488.8
705.316	16379.8
705.932	16480.8
706.551	16504.8
707.168	16344.8
707.784	16265.8
708.403	16369.8
709.019	16298.8
709.635	16286.8
710.254	16456.8
710.87	16457.8
711.487	16611.8
712.103	16335.8
712.721	16000.8
713.337	16003.8
713.953	16172.8
714.569	16081.8
715.188	16010.8
715.804	16073.8
716.419	16168.8
717.035	16034.8
717.651	15798.8
718.269	15950.8
718.885	15730.8
719.501	15793.8
720.116	15727.8
720.732	15761.8
721.348	15939.8
721.963	15724.8
722.579	15385.8
723.196	15579.8
723.812	15540.8
724.427	15472.8
725.043	15522.8
725.658	15569.8
726.273	15276.8
726.889	15196.8
727.504	15255.8
728.119	15181.8
728.734	14973.8
729.349	15270.8
729.964	15124.8
730.579	15215.8
731.194	14787.8
731.809	14661.8
732.424	14847.8
733.039	15035.8
733.654	14984.8
734.268	15054.8
734.883	14756.8
735.498	14937.8
736.112	14677.8
736.725	14631.8
737.34	14575.8
737.954	14557.8
738.569	14626.8
739.183	14765.8
739.797	14398.8
740.412	14509.8
741.024	14227.8
741.638	14072.8
742.252	14149.8
742.867	14232.8
743.481	14250.8
744.093	14070.8
744.707	14021.8
745.321	13873.8
745.935	13731.8
746.549	13707.8
747.161	13757.8
747.775	13805.8
748.388	13667.8
749	13839.8
749.614	13891.8
750.228	13424.8
750.841	13452.8
751.453	13316.8
752.066	13274.8
752.68	13417.8
753.291	13276.8
753.905	13299.8
754.516	13059.8
755.129	13098.8
755.743	12863.8
756.354	12987.8
756.967	13115.8
757.578	13018.8
758.192	12701.8
758.805	12803.8
759.416	12636.8
760.029	12336.8
760.64	12529.8
761.253	12347.8
761.863	12365.8
762.476	12597.8
763.087	12299.8
763.7	12213.8
764.311	11947.8
764.923	12038.8
765.534	11968.8
766.147	11769.8
766.757	11806.8
767.368	11654.8
767.98	11868.8
768.591	11589.8
769.203	11684.8
769.813	11479.8
770.424	11265.8
771.036	11217.8
771.646	11186.8
772.258	11166.8
772.869	11025.8
773.479	10825.8
774.091	10875.8
774.701	10640.8
775.311	10747.8
775.923	10688.8
776.533	10729.8
777.142	10670.8
777.752	10455.8
778.364	10383.8
778.974	10269.8
779.583	10184.8
780.193	10055.8
780.805	10211.8
781.414	10259.8
782.024	10136.8
782.633	10066.8
783.243	9869.79
783.854	9728.79
784.464	9622.79
785.073	9743.79
785.682	9715.79
786.291	9430.79
786.901	9481.79
787.51	9277.79
788.121	9269.79
788.73	9161.79
789.339	9096.79
789.948	8888.79
790.557	8843.79
791.166	8795.79
791.775	8711.79
792.384	8460.79
792.992	8576.79
793.601	8641.79
794.21	8565.79
794.819	8530.79
795.427	8633.79
796.036	8480.79
796.644	8326.79
797.253	8286.79
797.861	8195.79
798.47	8291.79
799.078	8240.79
799.686	8297.79
800.295	8148.79
800.903	8061.79
801.511	7900.79
802.12	8071.79
802.726	8022.79
803.334	7940.79
803.942	7911.79
804.55	7905.79
805.158	7908.79
805.766	7720.79
806.374	7850.79
806.979	7753.79
807.587	7793.79
808.195	7734.79
808.803	7857.79
809.41	7694.79
810.016	7642.79
810.624	7456.79
811.231	7673.79
811.839	7629.79
812.444	7593.79
813.052	7626.79
813.659	7589.79
814.267	7824.79
814.872	7713.79
815.479	7793.79
816.086	7685.79
816.692	7764.79
817.299	7726.79
817.906	7707.79
818.511	7865.79
819.118	7736.79
819.725	7830.79
820.33	7776.79
820.937	7765.79
821.542	7872.79
822.149	7944.79
822.755	8040.79
823.36	8131.79
823.967	8001.79
824.572	8028.79
825.178	7941.79
825.783	8068.79
826.389	8008.79
826.994	8284.79
827.6	8457.79
828.205	8309.79
828.811	8567.79
829.416	8556.79
830.022	8489.79
830.626	8617.79
831.232	8715.79
831.837	8866.79
832.441	8829.79
833.047	8964.79
833.651	8915.79
834.257	9101.79
834.861	8919.79
835.465	9207.79
836.071	9179.79
836.675	9457.79
837.281	9599.79
837.884	9743.79
838.488	9789.79
839.094	9788.79
839.697	9789.79
840.301	9924.79
840.905	10154.8
841.51	10157.8
842.114	10269.8
842.717	10482.8
843.323	10343.8
843.926	10665.8
844.529	10811.8
845.133	10941.8
845.736	11037.8
846.341	11205.8
846.944	11405.8
847.547	11473.8
848.15	11717.8
848.754	11632.8
849.359	11774.8
849.962	11947.8
850.565	12166.8
851.167	12410.8
851.77	12609.8
852.373	12834.8
852.976	13090.8
853.579	12791.8
854.181	13070.8
854.786	13353.8
855.389	13720.8
855.991	13708.8
856.594	13918.8
857.196	14081.8
857.799	14053.8
858.401	14221.8
859.004	14571.8
859.606	14748.8
860.208	15110.8
860.81	15291.8
861.413	15166.8
862.015	15852.8
862.617	15685.8
863.219	15992.8
863.821	16152.8
864.421	16207.8
865.023	16564.8
865.625	16971.8
866.227	17101.8
866.829	17312.8
867.431	17581.8
868.032	17616.8
868.634	17811.8
869.234	18027.8
869.836	18409.8
870.437	18399.8
871.039	18478.8
871.64	18809.8
872.242	18872.8
872.841	19371.8
873.443	19791.8
874.044	19751.8
874.645	20213.8
875.245	20423.8
875.846	20339.8
876.447	20941.8
877.048	20851.8
877.647	21021.8
878.249	21552.8
878.85	21425.8
879.449	22134.8
880.05	22286.8
880.651	22140.8
881.249	22213.8
881.85	22412.8
882.451	22719.8
883.05	23039.8
883.651	23483.8
884.249	23652.8
884.85	23704.8
885.451	23781.8
886.049	23983.8
886.65	24136.8
887.248	24428.8
887.849	24592.8
888.447	25070.8
889.048	25600.8
889.646	25301.8
890.246	25748.8
890.844	25671.8
891.445	25833.8
892.043	26074.8
892.643	26224.8
893.241	26684.8
893.841	26595.8
894.439	27169.8
895.039	27033.8
895.637	26861.8
896.237	27405.8
896.835	27821.8
897.433	28075.8
898.033	28271.8
898.63	28176.8
899.228	28364.8
899.828	28267.8
900.425	28685.8
901.025	28598.8
901.623	28665.8
902.22	29179.8
902.818	29325.8
903.417	29673.8
904.014	29422.8
904.612	29397.8
905.211	29687.8
905.808	29895.8
906.406	29987.8
907.003	30247.8
907.602	30486.8
908.199	30489.8
908.796	30403.8
909.393	30477.8
909.99	30603.8
910.589	30790.8
911.186	31117.8
911.783	31313.8
912.38	31738.8
912.977	31337.8
913.573	31387.8
914.17	31565.8
914.769	31527.8
915.365	31978.8
915.962	32359.8
916.559	32398.8
917.155	32400.8
917.752	32357.8
918.348	32762.8
918.944	32595.8
919.541	32439.8
920.137	32716.8
920.733	32887.8
921.33	33159.8
921.926	33795.8
922.522	33585.8
923.118	33406.8
923.714	33549.8
924.31	33211.8
924.906	33140.8
925.502	33571.8
926.098	33813.8
926.694	33781.8
927.29	33390.8
927.886	33383.8
928.48	33328.8
929.075	33625.8
929.671	33924.8
930.267	33920.8
930.862	33876.8
931.458	33991.8
932.054	34082.8
932.647	33679.8
933.243	34055.8
933.838	33812.8
934.433	34060.8
935.029	34139.8
935.622	34361.8
936.217	34364.8
936.813	34517.8
937.408	33831.8
938.001	34239.8
938.596	34087.8
939.191	34235.8
939.786	34415.8
940.379	34476.8
940.974	34352.8
941.569	34325.8
942.162	34269.8
942.757	34125.8
943.352	34137.8
943.944	34464.8
944.539	34636.8
945.132	34708.8
945.726	34220.8
946.321	33867.8
946.914	34327.8
947.508	34275.8
948.101	34297.8
948.695	34531.8
949.289	34330.8
949.882	34273.8
950.476	34277.8
951.068	34416.8
951.663	34274.8
952.255	33930.8
952.849	34220.8
953.441	34284.8
954.035	34334.8
954.627	34453.8
955.219	34087.8
955.813	34349.8
956.405	33904.8
956.999	34243.8
957.591	34107.8
958.185	34054.8
958.777	33909.8
959.369	34036.8
959.962	33961.8
960.554	33700.8
961.146	33382.8
961.739	33271.8
962.331	33377.8
962.922	33524.8
963.516	33965.8
964.107	33475.8
964.699	33340.8
965.292	33220.8
965.883	33047.8
966.475	33287.8
967.066	33171.8
967.659	33414.8
968.25	33363.8
968.841	33354.8
969.432	33146.4
970.026	32690.2
970.617	32539.4
971.207	32564.9
971.798	32448.2
972.389	32579
972.982	32681.8
973.573	32802.1
974.164	32239.1
974.755	32503.8
975.345	32316.4
975.936	31987.3
976.526	32451.2
977.117	32067.9
977.708	32300.9
978.3	32168.1
978.891	31891
979.481	31566.1
980.072	31541.5
980.662	31393.3
981.252	31629.5
981.843	31668.6
982.433	31524
983.023	31472
983.613	31172.7
984.203	30893.8
984.793	30809.1
985.383	30442.1
985.973	30295.8
986.561	30054.4
987.151	30507.2
987.741	30317.7
988.331	30242.8
988.921	29947.1
989.511	29833.6
990.1	29773.2
990.69	29987.6
991.28	29951.1
991.867	30109
992.457	29796.5
993.047	29492.7
993.636	29398.7
994.226	29604.1
994.813	29253.6
995.402	29198.8
995.992	29420.6
996.581	29369.3
997.17	29056.7
997.758	28935.5
998.347	28567.3
998.936	28399.7
999.523	28574.5
1000.11	28599.2
1000.7	28477.3
1001.29	28263.8
1001.88	28523.4
1002.47	28161.7
1003.06	28189
1003.64	27794.1
1004.23	27316.5
1004.82	27844.9
1005.41	27625.2
1006	28656.8
1006.58	27572.6
1007.17	27370.4
1007.76	27228.2
1008.35	26919.7
1008.93	26807.2
1009.52	26822.9
1010.11	26817.8
1010.7	26658.3
1011.28	26713.4
1011.87	26283
1012.46	26142.2
1013.04	25944.2
1013.63	25941.4
1014.22	25949.7
1014.81	26074.6
1015.39	25918.2
1015.98	25742.2
1016.57	25601.3
1017.15	25243.9
1017.74	25018.2
1018.33	24947.2
1018.92	24850.4
1019.5	24985.2
1020.09	24752.7
1020.67	24829.7
1021.26	24535
1021.85	24297.5
1022.43	23984.9
1023.02	24001.6
1023.6	23857.5
1024.19	23990
1024.78	23769.8
1025.36	23769.2
1025.95	23276.2
1026.54	23106.2
1027.12	23050.7
1027.71	22957.7
1028.29	22733.4
1028.88	22847.2
1029.46	22669.8
1030.05	22736.4
1030.63	22529.7
1031.22	22194.5
1031.81	22109.6
1032.39	21861.6
1032.98	21962.9
1033.56	21883.7
1034.15	21847.6
1034.73	21957.3
1035.32	21575.7
1035.9	21400.6
1036.49	21275.2
1037.07	20953
1037.66	21255.5
1038.24	21112.5
1038.83	20931.2
1039.41	20908.3
1039.99	20574.7
1040.58	20476.7
1041.16	20106.4
1041.75	20321
1042.33	20321.2
1042.92	20646.3
1043.5	20572.4
1044.09	19863.9
1044.67	19566.5
1045.25	19479.7
1045.84	19408.3
1046.42	19350.7
1047.01	19015.2
1047.59	18950.5
1048.17	18934.4
1048.76	18944.6
1049.34	18740.3
1049.92	18685.5
1050.51	18404.4
1051.09	18369.3
1051.67	18332.1
1052.26	18337.5
1052.84	18159.4
1053.42	18273.2
1054.01	18156.1
1054.59	17771.5
1055.17	17529.4
1055.76	17600.9
1056.34	17221.4
1056.92	17420.7
1057.5	17094.8
1058.09	16968.1
1058.67	16754.8
1059.25	16535.9
1059.84	16217.8
1060.42	16189.4
1061	16330.1
1061.58	16286.9
1062.17	16140.4
1062.75	16490.7
1063.33	16355.6
1063.91	16320.3
1064.49	16127.7
1065.08	15950.9
1065.66	15697.7
1066.24	15793
1066.82	15820.5
1067.4	15711.5
1067.99	15530.3
1068.57	15360.3
1069.15	15279.2
1069.73	14954
1070.31	15098.2
1070.89	15091.4
1071.48	14970.7
1072.06	14993.2
1072.64	14985.3
1073.22	14545.1
1073.8	14552.6
1074.38	14230.2
1074.96	14250.9
1075.54	14110
1076.12	14273.2
1076.71	13937.8
1077.29	13804.8
1077.87	13614.7
1078.45	13701.8
1079.03	13575.7
1079.61	13526.2
1080.19	13480.3
1080.77	13490.3
1081.35	13370.2
1081.93	13258.6
1082.51	13151.2
1083.09	13133.5
1083.67	13038
1084.25	12784.1
1084.83	12902.5
1085.41	12979.7
1085.99	12766.5
1086.57	12593.3
1087.15	12426.6
1087.73	12313.3
1088.31	12182.7
1088.89	12243.3
1089.47	12206.8
1090.05	12287.3
1090.63	12244.6
1091.21	12020.3
1091.79	11815
1092.37	11739.2
1092.95	11594.3
1093.53	11529.7
1094.11	11496.7
1094.69	11698.5
1095.27	11387.1
1095.84	11398.5
1096.42	11173.6
1097	11167.6
1097.58	10875.5
1098.16	11072.1
1098.74	10928.3
1099.32	10896.8
1099.9	10686.2
1100.47	10813.1
1101.05	10542.3
1101.63	10501.9
1102.21	10419.7
1102.79	10361.1
1103.37	10236.8
1103.95	10441.5
1104.52	10271.4
1105.1	10209.8
1105.68	10050.3
1106.26	9928.46
1106.84	9831.1
1107.42	9844.43
1107.99	9725
1108.57	9761.98
1109.15	9610.48
1109.73	9549.57
1110.3	9464.42
1110.88	9371.81
1111.46	9259.9
1112.04	9351.61
1112.61	9195.92
1113.19	9291.55
1113.77	9272.69
1114.34	9114.84
1114.92	9055.72
1115.5	8926.68
1116.08	8698.81
1116.65	8727.18
1117.23	8757.11
1117.81	8743.63
1118.38	8702.44
1118.96	8608.44
1119.54	8585.13
1120.11	8571.34
1120.69	8465.7
1121.27	8275.72
1121.84	8359.21
1122.42	8307.02
1123	8290.5
1123.57	8120.4
1124.15	8205.9
1124.72	8009.51
1125.3	8076.56
1125.88	7994.24
1126.45	8097.62
1127.03	7950.34
1127.6	7878.33
1128.18	7745.82
1128.76	7911.56
1129.33	7745.85
1129.91	7585.3
1130.48	7576.76
1131.06	7502.96
1131.63	7680.06
1132.21	7698.37
1132.79	7248.25
1133.36	7479.69
1133.93	7287.28
1134.51	7188.22
1135.09	7155.99
1135.66	7187.39
1136.24	7209.25
1136.81	7104.3
1137.39	7150.14
1137.96	7242.17
1138.54	7130.29
1139.11	7147.46
1139.69	7073.47
1140.26	6979.2
1140.83	6977.64
1141.41	6921.4
1141.98	7077.3
1142.56	6776.51
1143.13	6984.4
1143.71	6985.82
1144.28	6896.06
1144.86	6758.68
1145.43	6659.45
1146	6721.33
1146.2	6810.33
1146.79	6745.33
1147.37	6592.33
1147.95	6602.33
1148.53	6457.33
1149.12	6463.33
1149.7	6562.33
1150.28	6468.33
1150.86	6593.33
1151.44	6491.33
1152.02	6475.33
1152.6	6410.33
1153.19	6326.33
1153.77	6333.33
1154.35	6328.33
1154.93	6204.33
1155.51	6342.33
1156.09	6351.33
1156.67	6373.33
1157.25	6142.33
1157.83	6059.33
1158.42	6062.33
1159	5981.33
1159.58	6142.33
1160.16	6148.33
1160.74	6464.33
1161.32	6128.28
1161.9	6429.63
1162.48	6481.56
1163.06	6393.33
1163.64	6039.33
1164.22	6040.33
1164.8	6014.33
1165.38	5949.33
1165.96	5913.33
1166.54	5886.33
1167.12	6010.33
1167.7	5857.33
1168.28	5840.33
1168.86	5734.33
1169.44	5847.33
1170.02	5741.33
1170.6	5783.33
1171.18	5790.33
1171.76	5796.33
1172.34	5760.33
1172.92	5664.33
1173.5	5784.33
1174.08	5846.33
1174.66	5798.33
1175.24	5780.33
1175.82	5826.33
1176.4	5681.33
1176.97	5696.33
1177.55	5674.33
1178.13	5588.33
1178.71	5702.33
1179.29	5645.33
1179.87	5613.33
1180.45	5648.33
1181.03	5577.33
1181.61	5433.33
1182.18	5531.33
1182.76	5538.33
1183.34	5603.33
1183.92	5650.33
1184.5	5492.33
1185.08	5628.33
1185.65	5471.33
1186.23	5323.33
1186.81	5569.33
1187.39	5557.33
1187.97	5458.33
1188.55	5508.33
1189.12	5401.33
1189.7	5342.33
1190.28	5539.33
1190.86	5395.33
1191.43	5387.33
1192.01	5338.33
1192.59	5508.33
1193.17	5618.33
1193.74	5547.33
1194.32	5435.33
1194.9	5497.33
1195.48	5321.33
1196.05	5346.33
1196.63	5320.33
1197.21	5237.33
1197.79	5370.33
1198.36	5386.33
1198.94	5435.33
1199.52	5282.33
1200.09	5436.33
1200.67	5304.33
1201.25	5652.33
1201.82	5375.53
1202.4	5510.33
1202.98	5473.33
1203.55	5422.33
1204.13	5405.33
1204.7	5302.33
1205.28	5354.33
1205.86	5167.33
1206.44	5247.33
1207.01	5248.33
1207.59	5330.33
1208.16	5438.33
1208.74	5312.33
1209.31	5365.33
1209.89	5352.33
1210.47	5145.33
1211.04	5324.33
1211.62	5217.33
1212.19	5296.33
1212.77	5237.33
1213.34	5172.33
1213.92	5110.33
1214.5	5057.33
1215.07	5221.33
1215.65	5231.33
1216.22	5146.33
1216.8	5139.33
1217.37	5275.33
1217.95	5277.33
1218.52	5264.33
1219.1	5220.33
1219.67	5166.33
1220.25	5206.33
1220.82	5124.33
1221.4	5253.33
1221.97	5285.33
1222.55	5250.33
1223.12	5152.33
1223.7	5201.33
1224.27	5124.33
1224.85	5221.33
1225.42	5255.33
1225.99	5249.33
1226.57	5158.33
1227.14	5207.33
1227.72	5215.33
1228.29	5173.33
1228.86	5097.33
1229.44	5208.33
1230.01	5295.33
1230.59	5188.33
1231.16	5179.33
1231.73	5191.33
1232.31	5100.33
1232.88	5236.33
1233.46	5223.33
1234.03	5266.33
1234.6	5245.33
1235.18	5218.33
1235.75	5150.33
1236.32	5358.33
1236.9	5191.33
1237.47	5192.33
1238.04	5169.33
1238.61	5029.33
1239.19	5254.33
1239.76	5150.33
1240.33	5160.33
1240.91	5206.33
1241.48	5157.33
1242.05	5159.33
1242.63	5204.33
1243.2	5079.33
1243.77	5211.33
1244.34	5277.33
1244.92	5131.33
1245.49	5257.33
1246.06	5215.33
1246.63	5194.33
1247.21	5232.33
1247.78	5090.33
1248.35	5142.33
1248.92	5119.33
1249.5	5152.33
1250.07	5279.33
1250.64	5207.33
1251.21	5379.33
1251.78	5185.33
1252.36	5270.33
1252.93	5278.33
1253.5	5372.33
1254.07	5203.33
1254.64	5288.33
1255.21	5215.33
1255.78	5269.33
1256.36	5059.33
1256.93	5193.33
1257.5	5195.33
1258.07	5212.33
1258.64	5198.33
1259.21	5086.33
1259.78	5230.33
1260.35	5126.33
1260.93	5177.33
1261.5	5147.33
1262.07	5232.33
1262.64	5202.33
1263.21	5253.33
1263.78	5198.33
1264.35	5241.33
1264.92	5260.33
1265.49	5262.33
1266.06	5056.33
1266.63	5213.33
1267.2	5193.33
1267.77	5193.33
1268.34	5278.33
1268.91	5272.33
1269.48	5306.33
1270.05	5102.33
1270.62	5060.33
1271.19	5220.33
1271.76	5374.33
1272.33	5316.33
1272.9	5132.33
1273.47	5283.33
1274.04	5315.33
1274.61	5252.33
1275.18	5223.33
1275.75	5146.33
1276.32	5320.33
1276.89	5309.33
1277.46	5260.33
1278.03	5274.33
1278.6	5195.33
1279.17	5165.33
1279.74	5261.33
1280.3	5240.33
1280.87	5768.33
1281.44	5286.37
1282.01	5268.33
1282.58	5359.33
1283.15	5234.33
1283.72	5265.33
1284.29	5214.33
1284.86	5330.33
1285.42	5376.33
1285.99	5255.33
1286.56	5306.33
1287.13	5311.33
1287.7	5275.33
1288.27	5342.33
1288.83	5293.33
1289.4	5252.33
1289.97	5358.33
1290.54	5332.33
1291.11	5198.33
1291.68	5382.33
1292.24	5289.33
1292.81	5337.33
1293.38	5182.33
1293.95	5291.33
1294.51	5269.33
1295.08	5327.33
1295.65	5288.33
1296.22	5592.33
1296.79	5330.33
1297.35	5266.33
1297.92	5263.33
1298.49	5345.33
1299.05	5255.33
1299.62	5359.33
1300.19	5252.33
1300.76	5324.33
1301.32	5375.33
1301.89	5324.21
1302.46	5306.33
1303.02	5212.33
1303.59	5283.33
1304.16	5288.33
1304.72	5368.33
1305.29	5400.33
1305.86	5392.33
1306.42	5395.33
1306.99	5411.33
1307.56	5389.33
1308.12	5339.33
1308.69	5241.33
1309.26	5226.33
1309.82	5320.33
1310.39	5358.33
1310.95	5381.33
1311.52	5377.33
1312.09	5320.33
1312.65	5262.33
1313.22	5324.33
1313.78	5325.33
1314.35	5343.33
1314.92	5373.33
1315.48	5397.33
1316.05	5338.33
1316.61	5357.33
1317.18	5208.33
1317.74	5370.33
1318.31	5335.33
1318.87	5363.33
1319.44	5295.33
1320.01	5444.33
1320.57	5383.33
1321.13	5357.33
1321.7	5321.33
1322.27	5366.33
1322.83	5348.33
1323.4	5327.33
1323.96	5433.33
1324.52	5377.33
1325.09	5363.33
1325.65	5345.33
1326.22	5577.33
1326.78	5379.83
1327.35	5316.33
1327.91	5277.33
1328.48	5274.33
1329.04	5297.33
1329.61	5351.33
1330.17	5344.33
1330.73	5331.33
1331.3	5345.33
1331.86	5448.33
1332.43	5434.33
1332.99	5574.33
1333.55	5414.33
1334.12	5452.33
1334.68	5531.33
1335.25	5374.33
1335.81	5378.33
1336.37	5255.33
1336.94	5419.33
1337.5	5364.33
1338.06	5542.33
1338.63	5481.33
1339.19	5504.33
1339.75	5583.33
1340.32	5553.33
1340.88	5492.33
1341.44	5400.33
1342.01	5339.33
1342.57	5433.33
1343.13	5510.33
1343.69	5319.33
1344.26	5625.33
1344.82	5581.33
1345.38	5329.33
1345.95	5430.33
1346.51	5454.33
1347.07	5386.33
1347.64	5386.33
1348.2	5570.33
1348.76	5409.33
1349.32	5520.33
1349.88	5499.33
1350.45	5413.33
1351.01	5512.33
1351.57	5629.33
1352.13	5679.33
1352.7	5502.68
1353.26	5570.33
1353.82	5478.33
1354.38	5508.33
1354.94	5542.33
1355.51	5510.33
1356.07	5614.33
1356.63	5554.33
1357.19	5514.33
1357.75	5479.33
1358.31	5524.33
1358.87	5562.33
1359.43	5599.33
1360	5550.33
1360.56	5359.33
1361.12	5510.33
1361.68	5461.33
1362.24	5582.33
1362.8	5460.33
1363.36	5598.33
1363.92	5618.33
1364.49	5426.33
1365.05	5583.33
1365.61	5561.33
1366.17	5699.33
1366.73	5710.33
1367.29	5624.33
1367.85	5624.33
1368.41	5558.33
1368.97	5536.33
1369.53	5482.33
1370.09	5590.33
1370.65	5721.33
1371.21	5659.33
1371.77	5730.33
1372.33	5400.33
1372.89	5551.33
1373.45	5522.33
1374.01	5685.33
1374.57	5534.33
1375.13	5558.33
1375.69	5730.33
1376.25	5607.33
1376.81	5533.33
1377.37	5570.33
1377.93	5609.74
1378.49	5539.33
1379.05	5416.33
1379.61	5560.33
1380.17	5814.33
1380.73	5548.33
1381.29	5701.33
1381.85	5682.33
1382.41	5657.33
1382.97	5684.33
1383.52	5397.33
1384.08	5632.33
1384.64	5713.33
1385.2	5727.33
1385.76	5769.33
1386.32	5719.33
1386.88	5535.33
1387.44	5450.33
1387.99	5691.33
1388.55	5695.33
1389.11	5745.33
1389.67	5746.33
1390.23	5793.33
1390.79	5677.33
1391.35	5707.33
1391.9	5608.33
1392.46	5754.33
1393.02	5758.33
1393.58	5690.33
1394.14	5635.33
1394.7	5754.33
1395.25	5770.33
1395.81	5638.33
1396.37	5516.33
1396.93	5539.33
1397.48	5636.33
1398.04	5453.33
1398.6	5504.33
1399.16	5624.33
1399.71	5680.33
1400.27	5716.33
