15.4043	489.75
16.081	825.25
16.7577	1150.75
17.4343	1605.25
18.1131	1988.25
18.7897	2217.75
19.4661	2591.25
20.1425	2953.75
20.8189	3103.75
21.4953	3317.25
22.1715	3346.75
22.8478	3462.25
23.5239	3550.75
24.2001	3768.75
24.8762	3846.75
25.5522	4080.75
26.2282	4227.75
26.9042	4319.75
27.5801	4300.75
28.2559	4243.75
28.9317	4384.75
29.6075	4378.75
30.2832	4605.75
30.9589	4475.75
31.6345	4602.75
32.3101	4680.75
32.9856	4784.75
33.6611	5094.75
34.3365	5077.75
35.0119	5284.25
35.6849	5430.25
36.3602	5589.75
37.0355	5620.25
37.7107	5698.25
38.3858	5680.75
39.0609	5756.75
39.736	5721.25
40.4087	5811.75
41.0837	5747.75
41.7586	5827.75
42.4334	5920.25
43.1083	5935.25
43.7807	6031.25
44.4555	6067.75
45.1302	6036.25
45.8048	5983.75
46.4771	6020.75
47.1516	6072.25
47.8261	6060.25
48.5006	6172.25
49.1727	6170.75
49.847	6209.75
50.5213	6191.75
51.1933	6170.25
51.8675	6215.75
52.5417	6163.75
53.2135	6163.75
53.8876	6180.25
54.5616	6165.25
55.2333	6263.75
55.9072	6171.25
56.5811	6263.75
57.2526	6271.25
57.9264	6363.75
58.5979	6439.75
59.2716	6485.25
59.9452	6520.25
60.6165	6457.75
61.2901	6438.25
61.9613	6359.75
62.6348	6322.25
63.3059	6272.25
63.9793	6262.75
64.6503	6390.25
65.3236	6289.75
65.9945	6298.75
66.6677	6272.25
67.3386	6362.25
68.0116	6317.25
68.6824	6298.75
69.3554	6351.25
70.0261	6237.25
70.699	6282.75
71.3695	6381.75
72.0423	6429.25
72.7128	6425.25
73.3832	6454.25
74.0559	6476.75
74.7262	6370.75
75.3965	6398.25
76.0691	6429.75
76.7393	6436.25
77.4117	6335.75
78.0818	6314.75
78.7518	6238.25
79.4241	6252.75
80.0941	6323.75
80.764	6287.25
81.4339	6431.75
82.106	6313.25
82.7758	6506.25
83.4455	6454.75
84.1175	6428.75
84.7871	6341.75
85.4567	6328.25
86.1263	6189.75
86.798	6252.75
87.4675	6206.75
88.1369	6285.25
88.8063	6300.75
89.4756	6301.75
90.1471	6291.25
90.8164	6393.25
91.4855	6337.75
92.1547	6371.25
92.8237	6279.25
93.4928	6262.75
94.1618	6221.25
94.833	6225.25
95.5019	6236.75
96.1707	6250.75
96.8395	6185.75
97.5083	6173.75
98.177	6160.75
98.8457	6210.25
99.5143	6258.75
100.183	6171.75
100.851	6151.25
101.52	6170.25
102.188	6064.75
102.857	6008.75
103.525	6028.75
104.193	6051.75
104.862	6089.25
105.53	6146.25
106.198	6136.75
106.866	6193.75
107.534	6169.25
108.202	6167.25
108.87	6034.25
109.538	6080.25
110.206	6000.25
110.874	5987.75
111.542	5918.75
112.209	5910.75
112.877	5948.25
113.542	6020.75
114.21	5928.75
114.878	5909.75
115.545	5853.75
116.212	5831.75
116.88	5809.75
117.545	5818.25
118.212	5860.25
118.88	5845.75
119.547	5847.75
120.214	5863.25
120.879	5869.25
121.546	5883.25
122.213	5906.75
122.88	5877.25
123.545	5875.75
124.212	5833.75
124.879	5824.75
125.545	5845.75
126.21	5754.75
126.877	5750.75
127.543	5732.25
128.208	5737.75
128.874	5838.25
129.541	5749.75
130.205	5709.25
130.871	5595.25
131.538	5694.25
132.202	5635.25
132.868	5618.75
133.535	5517.75
134.198	5581.75
134.865	5569.75
135.528	5447.75
136.195	5536.75
136.858	5617.75
137.524	5601.75
138.19	5575.75
138.854	5526.75
139.52	5549.75
140.183	5471.75
140.849	5489.25
141.513	5438.75
142.178	5405.25
142.842	5365.25
143.507	5180.75
144.17	5340.25
144.836	5288.75
145.499	5334.75
146.162	5309.75
146.828	5238.75
147.491	5200.75
148.156	5297.75
148.819	5104.25
149.484	5184.25
150.147	5204.25
150.81	5097.25
151.475	5049.75
152.137	4998.75
152.8	5104.75
153.465	5146.75
154.127	5000.25
154.79	5005.75
155.455	5008.75
156.117	4900.75
156.78	5022.25
157.444	4824.75
158.107	4867.75
158.769	4829.75
159.431	4725.75
160.095	4813.25
160.758	4785.75
161.42	4740.25
162.082	4824.75
162.746	4645.75
163.408	4617.25
164.07	4749.75
164.732	4687.75
165.393	4629.75
166.057	4787.75
166.719	4745.75
167.381	4690.75
168.042	4576.75
168.704	4590.75
169.366	4660.75
170.027	4543.75
170.691	4631.25
171.352	4568.75
172.013	4530.75
172.675	4584.75
173.336	4649.25
173.997	4604.75
174.658	4518.75
175.32	4672.75
175.981	4600.75
176.642	4536.75
177.303	4365.75
177.964	4417.75
178.624	4451.75
179.285	4452.75
179.946	4522.75
180.607	4521.25
181.268	4463.75
181.928	4437.75
182.589	4374.75
183.249	4360.75
183.91	4227.75
184.571	4507.75
185.231	4438.75
185.891	4352.75
186.552	4477.75
187.21	4260.75
187.87	4446.75
188.53	4356.75
189.19	4443.75
189.851	4476.75
190.511	4496.75
191.171	4337.75
191.828	4394.75
192.488	4441.75
193.148	4448.75
193.808	4347.75
194.468	4475.25
195.125	4419.75
195.785	4315.75
196.445	4312.75
197.104	4214.75
197.762	4284.75
198.421	4298.75
199.081	4215.75
199.74	4323.75
200.397	4378.75
201.057	4381.75
201.716	4374.75
202.373	4385.75
203.032	4374.25
203.691	4369.25
204.348	4397.75
205.007	4444.25
205.666	4365.75
206.323	4460.75
206.982	4227.75
207.641	4433.25
208.298	4328.75
208.956	4409.75
209.613	4322.75
210.272	4293.75
210.928	4360.75
211.587	4335.75
212.245	4505.75
212.902	4447.75
213.56	4479.75
214.216	4346.75
214.875	4424.75
215.531	4376.75
216.189	4486.25
216.845	4338.75
217.503	4393.75
218.159	4435.25
218.815	4391.75
219.473	4399.75
220.129	4475.25
220.787	4462.75
221.443	4413.75
222.101	4264.75
222.756	4251.75
223.412	4328.75
224.07	4351.75
224.725	4424.25
225.383	4553.75
226.038	4477.75
226.694	4494.25
227.351	4490.25
228.006	4494.25
228.662	4610.25
229.319	4514.75
229.974	4486.25
230.629	4503.75
231.284	4453.75
231.942	4621.25
232.596	4516.75
233.251	4464.75
233.906	4496.75
234.563	4556.75
235.218	4661.25
235.873	4578.75
236.527	4624.75
237.184	4650.75
237.839	4680.75
238.493	4601.25
239.148	4678.25
239.802	4741.25
240.457	4677.75
241.113	4628.75
241.768	4689.25
242.422	4676.75
243.076	4753.75
243.73	4670.75
244.385	4619.75
245.039	4639.75
245.693	4657.75
246.347	4685.75
247.001	4763.75
247.657	4819.25
248.311	4692.75
248.965	4784.75
249.618	4840.75
250.272	4891.25
250.926	4804.75
251.579	4895.75
252.233	4817.75
252.887	4846.75
253.54	4872.75
254.194	4893.75
254.847	4930.75
255.498	4881.75
256.152	4918.75
256.805	4936.75
257.458	4861.75
258.111	5006.75
258.764	5076.25
259.418	5014.75
260.071	4989.75
260.724	4880.75
261.377	5022.75
262.027	5025.25
262.68	4997.75
263.333	4940.75
263.986	4987.25
264.639	5074.75
265.291	5050.75
265.942	5053.75
266.594	5175.25
267.247	5187.25
267.9	5203.25
268.55	5094.75
269.202	5051.75
269.855	5163.25
270.507	5197.75
271.157	5198.75
271.809	5192.75
272.462	5079.75
273.114	5237.25
273.764	5216.75
274.416	5255.25
275.068	5235.75
275.718	5368.75
276.37	5288.75
277.022	5298.75
277.671	5348.75
278.323	5343.75
278.973	5375.75
279.624	5405.75
280.276	5339.25
280.925	5393.75
281.577	5384.75
282.226	5428.75
282.878	5449.75
283.527	5414.25
284.178	5352.75
284.83	5443.75
285.479	5381.75
286.13	5283.75
286.779	5456.75
287.431	5524.25
288.079	5544.75
288.731	5414.25
289.379	5334.25
290.03	5328.25
290.679	5397.75
291.328	5355.75
291.979	5392.75
292.627	5376.75
293.278	5452.75
293.927	5522.75
294.575	5400.75
295.226	5653.75
295.874	5681.75
296.525	5685.25
297.173	5636.75
297.822	5630.25
298.472	5610.75
299.12	5750.75
299.768	5687.75
300.419	5571.75
301.067	5691.75
301.715	5732.75
302.363	5677.75
303.013	5692.25
303.661	5633.75
304.309	5682.25
304.958	5703.75
305.606	5672.25
306.254	5702.75
306.902	5815.25
307.549	5696.75
308.199	5734.25
308.847	5703.75
309.494	5696.75
310.141	5776.75
310.789	5781.25
311.438	5699.75
312.086	5741.25
312.733	5766.25
313.38	5708.75
314.027	5777.75
314.674	5767.75
315.322	5818.75
315.969	5775.25
316.616	5732.25
317.263	5769.75
317.912	5817.75
318.559	5809.75
319.205	5821.25
319.852	5786.75
320.499	5782.75
321.146	5760.25
321.792	5786.25
322.439	5806.75
323.085	5822.25
323.732	5793.75
324.378	5827.75
325.025	5850.75
325.671	5862.75
326.318	5841.25
326.962	5823.25
327.608	5858.25
328.254	5837.25
328.9	5810.75
329.546	5864.25
330.192	5916.75
330.838	5863.25
331.484	5820.75
332.13	5813.25
332.774	5853.75
333.42	5927.75
334.066	5926.75
334.711	5902.75
335.357	5906.75
336.003	5915.25
336.646	5927.75
337.292	5929.25
337.937	6000.25
338.583	5979.25
339.226	5904.25
339.872	5913.75
340.517	5915.25
341.162	5902.75
341.805	5966.25
342.451	5960.75
343.096	5943.25
343.739	5949.75
344.384	6042.25
345.029	5992.75
345.672	5984.75
346.317	5977.25
346.962	6016.25
347.604	6044.75
348.249	5993.75
348.894	5974.75
349.537	6016.25
350.181	5992.25
350.824	6023.75
351.468	6037.25
352.113	6112.75
352.755	6038.25
353.4	6041.25
354.042	6125.75
354.687	6102.75
355.329	6082.25
355.973	6082.75
356.615	6171.75
357.259	6092.75
357.901	6093.75
358.546	6073.75
359.187	6099.25
359.831	6112.75
360.473	6163.75
361.117	6136.75
361.759	6158.75
362.401	6099.75
363.045	6230.25
363.686	6113.75
364.33	6121.25
364.971	6195.75
365.613	6153.75
366.257	6203.25
366.898	6161.75
367.539	6250.25
368.183	6177.75
368.824	6245.25
369.465	6250.25
370.109	6260.25
370.75	6269.25
371.391	6282.75
372.034	6236.75
372.675	6198.25
373.316	6246.25
373.957	6287.75
374.6	6243.75
375.241	6302.25
375.882	6284.75
376.522	6364.75
377.163	6336.25
377.806	6309.75
378.446	6373.25
379.087	6362.25
379.727	6350.25
380.368	6387.75
381.008	6433.75
381.651	6417.25
382.291	6362.25
382.932	6365.75
383.572	6373.75
384.212	6423.75
384.852	6435.75
385.492	6397.75
386.132	6442.75
386.772	6399.25
387.413	6468.25
388.052	6421.75
388.692	6503.25
389.334	6478.25
389.974	6451.75
390.614	6412.25
391.254	6535.75
391.893	6487.75
392.533	6492.75
393.171	6469.25
393.81	6465.25
394.45	6530.25
395.089	6609.75
395.729	6632.75
396.368	6531.75
397.007	6533.25
397.647	6595.75
398.286	6611.25
398.925	6595.25
399.564	6623.25
400.201	6581.75
400.84	6710.75
401.479	6649.75
402.118	6643.75
402.757	6638.75
403.396	6602.75
404.033	6643.75
404.672	6699.25
405.311	6715.25
405.949	6733.25
406.588	6670.75
407.224	6657.25
407.863	6769.25
408.502	6726.75
409.14	6697.75
409.777	6764.25
410.415	6725.25
411.053	6719.25
411.69	6759.75
412.328	6741.25
412.966	6849.75
413.602	6864.75
414.24	6852.75
414.879	6904.75
415.514	6814.25
416.153	6856.25
416.791	6775.25
417.426	6847.25
418.064	6903.25
418.7	6922.75
419.338	6922.75
419.976	6970.25
420.611	6901.75
421.249	6890.75
421.884	6865.75
422.522	6922.25
423.157	7047.75
423.795	7007.75
424.43	7025.75
425.068	7035.75
425.703	7083.25
426.34	7038.25
426.975	7088.25
427.613	7114.75
428.248	7178.75
428.885	7127.25
429.52	7152.25
430.155	7160.25
430.792	7191.25
431.427	7237.25
432.064	7173.25
432.699	7231.25
433.333	7226.25
433.97	7178.75
434.605	7257.25
435.239	7293.75
435.876	7326.75
436.511	7239.25
437.145	7366.25
437.782	7308.75
438.416	7351.75
439.05	7349.25
439.687	7354.25
440.321	7375.25
440.955	7481.75
441.59	7434.25
442.226	7453.75
442.86	7364.75
443.494	7400.75
444.128	7427.25
444.762	7482.75
445.398	7414.75
446.032	7580.25
446.666	7477.25
447.299	7476.75
447.933	7542.25
448.567	7526.25
449.203	7551.25
449.836	7548.75
450.47	7593.25
451.103	7609.75
451.737	7633.75
452.37	7570.75
453.004	7563.75
453.637	7649.25
454.27	7633.25
454.904	7683.25
455.537	7666.75
456.17	7711.25
456.803	7642.75
457.436	7657.75
458.069	7629.75
458.702	7661.25
459.335	7755.75
459.968	7736.75
460.601	7748.75
461.234	7749.75
461.867	7715.75
462.5	7705.75
463.132	7742.75
463.765	7766.25
464.398	7786.75
465.03	7809.75
465.663	7799.25
466.293	7738.25
466.926	7788.75
467.558	7790.75
468.19	7817.25
468.823	7781.75
469.455	7809.25
470.085	7863.75
470.717	7812.75
471.35	7879.25
471.982	7834.25
472.614	7785.75
473.244	7771.25
473.876	7880.75
474.508	7863.75
475.14	7890.25
475.769	7885.25
476.401	7908.75
477.033	7894.75
477.665	7772.75
478.294	7906.75
478.926	7896.25
479.557	7913.75
480.187	7886.16
480.818	7906.35
481.45	7866.25
482.079	7924.5
482.711	7917.04
483.34	7875.98
483.971	7935.61
484.602	7940.99
485.231	7931.46
485.863	7898.45
486.492	7973.89
487.123	8035.27
487.752	8086.64
488.383	8120.06
489.011	8128.97
489.642	8167.62
490.271	8155.99
490.902	8167.05
491.531	8087.44
492.161	8215.45
492.79	8180.25
493.421	8218.47
494.049	8139.54
494.68	8139.96
495.308	8125.42
495.939	8086.5
496.567	8124.85
497.195	8054.51
497.826	8079.33
498.454	8025.78
499.084	7926.2
499.712	7928.71
500.34	7903.19
500.971	7907.97
501.599	7916.94
502.227	7951.85
502.857	7891.5
503.484	7879.93
504.112	7864.58
504.74	7786.34
505.37	7741.9
505.998	7726.15
506.625	7770.37
507.255	7632.25
507.883	7622.87
508.51	7578.09
509.138	7516.43
509.765	7451.55
510.395	7347.2
511.022	7378.88
511.649	7342.78
512.276	7334.63
512.904	7208.24
513.531	7204.09
514.16	7098.6
514.787	7060.48
515.414	7023.54
516.041	6984.08
516.668	6922.49
517.295	6855.78
517.922	6798.25
518.549	6768.8
519.176	6754.67
519.803	6627.27
520.429	6616.23
521.056	6578.17
521.685	6547.58
522.311	6347.24
522.938	6409.39
523.564	6359.03
524.191	6246.78
524.815	6258.13
525.442	6154.39
526.068	6154.1
526.694	6083.96
527.32	6084.38
527.947	5964.51
528.573	5916.28
529.199	5909.26
529.825	5770.93
530.451	5713.09
531.077	5630.55
531.703	5577.4
532.327	5546.14
532.953	5462.72
533.579	5457.23
534.205	5363.44
534.83	5271.06
535.456	5210.51
536.08	5222.35
536.705	5213.46
537.331	5176.78
537.956	5035.85
538.58	4985.88
539.205	4845.12
539.831	4943.93
540.456	5022.77
541.079	4917.9
541.704	4887.49
542.33	4732.95
542.953	4850.99
543.578	4773.83
544.203	4814.17
544.828	4755.43
545.451	4704.34
546.076	4687.17
546.699	4712.73
547.324	4672.39
547.949	4635.28
548.571	4565.22
549.196	4598.93
549.819	4629.85
550.444	4735.05
551.068	4718.69
551.691	4663.76
552.315	4636.66
552.938	4632.82
553.562	4729.11
554.185	4662.31
554.809	4660.11
555.431	4750.14
556.056	4759.66
556.678	4720.49
557.302	4780.16
557.924	4818.65
558.548	4813.74
559.17	4764.77
559.792	4897.28
560.416	4870.18
561.038	4869.51
561.662	4956.57
562.284	4902.14
562.906	4937.37
563.53	4977.94
564.151	5010.75
564.775	5058.35
565.397	5070.27
566.018	4972.51
566.64	5001.32
567.263	5063.53
567.885	5246.93
568.506	5202.67
569.13	5157.45
569.751	5191.8
570.372	5176.88
570.993	5221.62
571.617	5193.87
572.238	5194.77
572.859	5200.41
573.48	5211.21
574.103	5181.06
574.724	5133.75
575.345	5155.45
575.966	5060.93
576.587	5082.14
577.207	5025.41
577.83	5051.45
578.451	4992.21
579.072	4952.5
579.692	4990.22
580.313	5049.74
580.934	4955
581.554	4994.1
582.174	5063.88
582.795	4923.86
583.415	4931.84
584.036	4916.5
584.656	4939.52
585.276	4873.04
585.896	4755.01
586.517	4723.87
587.137	4666.3
587.757	4663.69
588.377	4642.49
588.997	4629.94
589.617	4568.65
590.237	4479.32
590.857	4399.28
591.477	4489.02
592.096	4408.32
592.716	4332.22
593.336	4290.28
593.956	4274.21
594.575	4166.86
595.195	4135.15
595.812	4070.42
596.432	4104.76
597.051	4089.15
597.671	4055.73
598.29	3960.85
598.907	3976.87
599.527	3861.28
600.146	3829.61
600.765	3777.29
601.384	3679.46
602.001	3747.64
602.621	3706.41
603.24	3651.2
603.859	3653.16
604.476	3569.5
605.094	3570.27
605.713	3507.26
606.33	3467.68
606.949	3395.64
607.568	3416.33
608.184	3416.85
608.803	3321.85
609.422	3303.73
610.038	3308.69
610.657	3307.62
611.275	3225.16
611.892	3173.54
612.51	3150.43
613.126	3133.65
613.745	3152.65
614.361	3129.94
614.979	3049.74
615.598	3066.37
616.214	3028.04
616.832	3017.93
617.448	2965.74
618.066	2944.95
618.682	2954.12
619.3	2908.03
619.916	2903.62
620.532	2896.88
621.149	2860.12
621.765	2871.88
622.383	2841.59
622.999	2796.66
623.616	2810.99
624.232	2801.88
624.847	2824.33
625.465	2808.86
626.08	2739.65
626.698	2863.46
627.313	2827.17
627.929	2788.72
628.546	2758.76
629.161	2783.64
629.776	2712.59
630.392	2681.94
631.009	2682.25
631.624	2733.28
632.239	2704.74
632.856	2655.4
633.471	2616.17
634.086	2653.34
634.701	2640.66
635.316	2700.83
635.932	2630.71
636.547	2602.46
637.162	2564.34
637.777	2645.83
638.391	2601.17
639.008	2604.38
639.622	2618.28
640.237	2607.96
640.851	2588.25
641.466	2620.62
642.08	2609.14
642.695	2592.18
643.309	2595.33
643.925	2571.24
644.539	2601.4
645.154	2611.21
645.768	2564.76
646.382	2568.49
646.996	2517.88
647.61	2602.31
648.224	2602.46
648.838	2611.35
649.452	2575.38
650.066	2569.1
650.679	2565.5
651.293	2579.74
651.907	2560.89
652.521	2592.98
653.134	2581.98
653.746	2529.58
654.359	2541.52
654.973	2576.79
655.586	2577.53
656.2	2572.8
656.813	2580.87
657.427	2635.99
658.04	2639.98
658.651	2630.76
659.264	2606.26
659.878	2525.65
660.491	2532.86
661.104	2634.6
661.715	2639.92
662.328	2637.03
662.941	2670.51
663.554	2715.97
664.167	2655.84
664.777	2645.16
665.39	2698.81
666.003	2687
666.614	2683.37
667.227	2692.72
667.839	2689.9
668.45	2703.75
668.568	2741.25
669.187	2680.25
669.808	2663.25
670.427	2734.25
671.048	2724.75
671.667	2730.75
672.288	2640.25
672.907	2694.75
673.528	2702.75
674.146	2758.25
674.765	2694.75
675.386	2717.75
676.005	2627.25
676.625	2713.75
677.244	2705.75
677.862	2706.75
678.483	2603.25
679.101	2687.25
679.72	2689.25
680.34	2663.75
680.958	2678.25
681.577	2656.25
682.197	2616.25
682.815	2646.25
683.433	2627.25
684.053	2707.25
684.672	2707.25
685.289	2729.25
685.91	2727.25
686.527	2718.75
687.145	2687.25
687.763	2653.25
688.381	2646.25
689.001	2603.25
689.619	2656.25
690.236	2734.25
690.854	2682.25
691.471	2661.25
692.091	2645.25
692.709	2654.25
693.326	2668.25
693.943	2703.75
694.561	2639.25
695.178	2642.25
695.796	2676.25
696.415	2740.25
697.032	2673.75
697.649	2539.25
698.266	2699.75
698.884	2683.25
699.501	2645.25
700.118	2670.25
700.735	2676.25
701.352	2666.75
701.968	2720.75
702.585	2691.25
703.202	2605.25
703.819	2611.25
704.436	2626.25
705.052	2596.25
705.669	2662.25
706.286	2570.25
706.902	2599.25
707.519	2558.25
708.135	2590.25
708.752	2612.25
709.368	2619.25
709.984	2615.75
710.599	2589.25
711.215	2601.25
711.831	2605.25
712.447	2604.25
713.063	2643.25
713.68	2638.25
714.296	2626.25
714.909	2586.25
715.526	2605.25
716.141	2585.75
716.757	2616.25
717.373	2564.25
717.987	2522.25
718.603	2579.25
719.219	2597.25
719.834	2598.25
720.448	2549.25
721.063	2582.25
721.679	2634.25
722.295	2615.25
722.908	2588.25
723.523	2534.25
724.139	2589.25
724.752	2510.25
725.367	2527.25
725.983	2539.25
726.596	2549.25
727.211	2538.25
727.826	2528.25
728.439	2522.75
729.054	2489.75
729.667	2568.25
730.282	2491.25
730.897	2560.75
731.51	2607.25
732.125	2509.75
732.738	2527.75
733.353	2496.25
733.965	2502.75
734.58	2546.25
735.195	2484.25
735.807	2543.25
736.422	2473.25
737.034	2486.75
737.647	2499.75
738.261	2496.25
738.874	2448.25
739.488	2481.75
740.1	2428.25
740.715	2397.75
741.327	2374.25
741.941	2406.75
742.553	2392.25
743.165	2389.25
743.779	2335.25
744.391	2387.75
745.005	2378.25
745.617	2389.75
746.229	2511.75
746.843	2448.75
747.455	2482.25
748.067	2482.25
748.68	2450.75
749.292	2387.25
749.904	2370.75
750.515	2419.75
751.129	2439.25
751.74	2433.75
752.352	2411.25
752.965	2404.75
753.577	2437.75
754.188	2411.25
754.799	2422.25
755.411	2426.75
756.024	2435.25
756.635	2415.25
757.246	2375.75
757.857	2412.25
758.468	2382.25
759.079	2383.25
759.692	2349.25
760.303	2343.75
760.914	2333.75
761.525	2350.75
762.136	2387.75
762.747	2335.25
763.357	2350.25
763.968	2374.25
764.579	2319.25
765.189	2333.25
765.802	2396.25
766.413	2403.25
767.023	2383.75
767.633	2371.25
768.244	2322.25
768.854	2390.25
769.465	2339.25
770.075	2358.75
770.685	2336.25
771.295	2298.25
771.906	2355.25
772.514	2359.25
773.124	2333.25
773.734	2318.75
774.344	2227.25
774.954	2290.25
775.564	2365.75
776.173	2285.75
776.783	2313.25
777.393	2269.25
778.003	2293.25
778.61	2333.25
779.22	2303.25
779.83	2291.25
780.439	2258.25
781.049	2295.25
781.659	2271.25
782.266	2310.25
782.875	2229.25
783.485	2317.25
784.094	2308.25
784.701	2315.25
785.311	2293.25
785.92	2273.25
786.529	2277.75
787.136	2224.25
787.745	2221.25
788.354	2276.25
788.961	2191.75
789.57	2208.75
790.179	2210.25
790.786	2219.75
791.395	2199.25
792.004	2208.75
792.611	2201.25
793.219	2178.75
793.828	2186.25
794.435	2122.25
795.043	2123.75
795.65	2136.25
796.258	2090.25
796.867	2129.25
797.473	2115.25
798.082	2109.25
798.688	2061.25
799.296	2084.25
799.903	1986.25
800.511	2036.25
801.117	2087.75
801.725	2005.25
802.331	2047.25
802.94	2044.25
803.546	2021.75
804.154	1981.25
804.759	1957.75
805.367	1898.25
805.973	1926.25
806.579	1913.25
807.187	1891.75
807.793	1849.75
808.4	1850.25
809.006	1924.75
809.612	1862.25
810.219	1856.25
810.825	1800.25
811.43	1826.25
812.038	1834.25
812.643	1804.75
813.249	1771.25
813.856	1728.75
814.461	1719.75
815.067	1713.25
815.672	1667.75
816.279	1710.25
816.884	1697.25
817.489	1642.25
818.094	1649.75
818.701	1618.25
819.306	1593.25
819.911	1614.75
820.516	1619.25
821.121	1573.25
821.728	1526.75
822.333	1546.25
822.937	1478.25
823.542	1524.25
824.147	1504.25
824.751	1520.75
825.358	1478.25
825.962	1416.25
826.567	1444.25
827.171	1445.75
827.776	1408.25
828.38	1404.75
828.984	1346.25
829.589	1416.75
830.193	1350.25
830.797	1359.25
831.401	1324.25
832.006	1329.25
832.61	1305.75
833.214	1283.25
833.818	1306.75
834.422	1248.25
835.026	1333.25
835.63	1255.25
836.233	1258.25
836.837	1266.75
837.441	1293.25
838.045	1276.75
838.648	1286.25
839.252	1241.75
839.856	1248.75
840.457	1252.25
841.061	1236.25
841.664	1225.25
842.268	1224.75
842.871	1218.25
843.474	1195.75
844.076	1173.25
844.679	1249.25
845.282	1232.25
845.886	1213.25
846.489	1168.25
847.09	1221.75
847.693	1222.25
848.296	1191.25
848.899	1179.25
849.5	1233.25
850.103	1182.25
850.706	1218.25
851.309	1186.25
851.909	1154.25
852.512	1217.25
853.115	1185.25
853.716	1132.25
854.318	1151.25
854.921	1220.25
855.521	1161.25
856.124	1156.25
856.727	1205.25
857.327	1169.25
857.929	1198.25
858.53	1204.75
859.132	1185.25
859.734	1162.75
860.335	1195.75
860.937	1194.75
861.537	1194.75
862.139	1185.75
862.739	1193.25
863.341	1155.25
863.941	1175.75
864.543	1151.25
865.143	1169.75
865.745	1195.75
866.345	1159.25
866.947	1169.25
867.546	1208.75
868.148	1188.75
868.748	1261.75
869.347	1151.75
869.949	1161.25
870.549	1151.25
871.15	1174.75
871.75	1199.75
872.349	1242.75
872.951	1209.25
873.55	1191.75
874.149	1235.25
874.751	1177.25
875.35	1214.25
875.949	1205.75
876.55	1212.75
877.149	1241.25
877.748	1180.25
878.347	1164.25
878.948	1220.25
879.547	1221.75
880.146	1209.75
880.745	1249.25
881.346	1194.75
881.945	1231.75
882.544	1250.75
883.142	1234.75
883.743	1278.25
884.342	1201.25
884.94	1262.25
885.539	1264.25
886.137	1272.25
886.736	1252.75
887.334	1288.25
887.935	1260.25
888.533	1272.25
889.132	1254.25
889.73	1283.25
890.328	1243.75
890.926	1273.25
891.525	1291.75
892.123	1278.25
892.721	1319.25
893.319	1326.75
893.917	1262.25
894.515	1276.75
895.113	1268.75
895.711	1306.75
896.309	1323.25
896.906	1318.75
897.504	1340.75
898.102	1353.75
898.7	1347.75
899.297	1283.25
899.895	1378.75
900.492	1343.25
901.09	1374.25
901.688	1400.25
902.283	1356.25
902.88	1358.25
903.478	1405.75
904.075	1358.75
904.672	1404.25
905.27	1427.75
905.867	1411.75
906.462	1408.25
907.059	1436.25
907.656	1391.75
908.254	1393.25
908.851	1417.25
909.446	1509.75
910.043	1482.75
910.639	1529.75
911.236	1509.75
911.831	1514.25
912.428	1492.75
913.025	1509.25
913.619	1504.25
914.216	1544.75
914.813	1553.75
915.407	1565.25
916.004	1551.25
916.6	1574.25
917.195	1576.25
917.791	1612.75
918.388	1641.75
918.982	1657.25
919.578	1639.75
920.173	1660.75
920.769	1654.75
921.365	1701.25
921.959	1719.25
922.556	1685.15
923.15	1704.49
923.746	1721.04
924.34	1743.72
924.936	1739.09
925.53	1710.42
926.126	1766.49
926.719	1766.22
927.315	1771.72
927.909	1871.26
928.505	1820.58
929.098	1882.69
929.694	1817.39
930.288	1868.14
930.881	1938.8
931.477	1928.02
932.07	1980.34
932.666	1993.08
933.259	1978.59
933.853	2015.88
934.448	2017.5
935.041	1986.21
935.635	2062.32
936.23	2068.25
936.823	2029.52
937.416	2058.56
938.011	2073.67
938.604	2105.77
939.197	2119.44
939.79	2121.22
940.385	2132.4
940.978	2176.91
941.571	2207.3
942.164	2234.37
942.759	2247.37
943.352	2294.3
943.944	2221.8
944.537	2283.31
945.13	2261.23
945.724	2371.75
946.317	2405.99
946.909	2399.22
947.502	2394.02
948.094	2443.4
948.687	2443.86
949.279	2417.05
949.873	2430.29
950.466	2452.67
951.058	2532.71
951.65	2529.69
952.242	2563.97
952.835	2479.37
953.427	2574.81
954.019	2570.28
954.611	2581.38
955.203	2648.25
955.795	2613.13
956.387	2641.92
956.978	2735.92
957.57	2704.79
958.162	2691.77
958.754	2758.59
959.346	2778.22
959.937	2784.74
960.529	2699.95
961.121	2830.45
961.712	2787.92
962.302	2705.12
962.893	2848.46
963.484	2839.28
964.076	2905.32
964.667	2884.49
965.259	2883.91
965.85	2907.01
966.439	2861.61
967.03	2866.77
967.622	2950.58
968.213	2901.79
968.804	2921.14
969.393	2925.22
969.984	2913.24
970.575	2965.77
971.166	3012.64
971.755	3025.78
972.346	3016.06
972.936	3015.24
973.527	3020.6
974.116	3014.54
974.707	3046.49
975.297	3051.72
975.886	3092.44
976.477	3163.84
977.067	3059.48
977.656	3075.61
978.246	3100.06
978.835	3096.5
979.425	3148.45
980.015	3104.99
980.604	3136.89
981.194	3194.52
981.782	3116.25
982.372	3223.77
982.961	3213.21
983.551	3222.55
984.141	3175.23
984.729	3223.9
985.319	3149.69
985.907	3263.81
986.497	3262.81
987.085	3261.36
987.673	3243.3
988.263	3233.37
988.85	3280.19
989.44	3214.36
990.028	3300.04
990.617	3302.67
991.205	3333.15
991.793	3306.25
992.382	3290.47
992.97	3323.49
993.559	3367.7
994.147	3331.07
994.734	3341.27
995.323	3342.97
995.911	3375.74
996.498	3345.74
997.087	3333.37
997.675	3343
998.262	3426.62
998.849	3418.4
999.438	3394.32
1000.03	3401.64
1000.61	3420.44
1001.2	3445.2
1001.79	3392.5
1002.37	3392.76
1002.96	3448.66
1003.55	3438.76
1004.14	3443.71
1004.72	3434.4
1005.31	3450.84
1005.9	3421.77
1006.48	3492.7
1007.07	3482.1
1007.66	3448.11
1008.25	3488.09
1008.83	3428.41
1009.42	3478.69
1010.01	3474.24
1010.59	3463.68
1011.18	3453.45
1011.76	3436.1
1012.35	3513.38
1012.94	3481.78
1013.52	3465.55
1014.11	3468.34
1014.7	3459.47
1015.28	3469.86
1015.87	3461.42
1016.45	3474.96
1017.04	3521.78
1017.63	3556.44
1018.21	3593.87
1018.8	3535.23
1019.38	3632.35
1019.97	3547.49
1020.55	3557.63
1021.14	3556.03
1021.73	3654.55
1022.31	3641.15
1022.89	3643.86
1023.48	3686.3
1024.07	3660.38
1024.65	3615.17
1025.24	3626.7
1025.82	3646.84
1026.41	3658.59
1026.99	3610.64
1027.58	3711.44
1028.16	3644.12
1028.74	3710.75
1029.33	3647.6
1029.91	3637.77
1030.5	3659.39
1031.08	3688.42
1031.67	3739.61
1032.25	3736.37
1032.84	3765.25
1033.42	3726.63
1034.01	3748.22
1034.59	3723.62
1035.17	3725.99
1035.76	3812.43
1036.34	3809.67
1036.93	3780.54
1037.51	3806.98
1038.09	3765.9
1038.68	3802.57
1039.26	3851.03
1039.84	3759.43
1040.43	3830.9
1041.01	3825.47
1041.6	3881.21
1042.18	3896.81
1042.76	3874
1043.34	3865.27
1043.93	3880.29
1044.51	3884.16
1045.09	3923.66
1045.68	3901.38
1046.26	3939.82
1046.84	3939.52
1047.43	3887.02
1048.01	3920.17
1048.59	3966.35
1049.17	3862.42
1049.76	4006.43
1050.34	3993.69
1050.92	3953.97
1051.51	3942
1052.09	3928.56
1052.67	3939.78
1053.25	3964.67
1053.83	3948.69
1054.42	4049.1
1055	4006.21
1055.58	3985.65
1056.16	3971.06
1056.74	4004.43
1057.33	3979.57
1057.91	4065.66
1058.49	4053.24
1059.07	4058.03
1059.65	4055.29
1060.24	4070.87
1060.82	4059.08
1061.4	4077.25
1061.98	4040.07
1062.56	4148.55
1063.14	4072.66
1063.72	4021.01
1064.3	4156.11
1064.89	4098.47
1065.47	4111.3
1066.05	4135.82
1066.63	4096.46
1067.21	4036.84
1067.79	4064.28
1068.37	4125.05
1068.95	4149.09
1069.53	4127.4
1070.11	4178.57
1070.69	4205.13
1071.27	4105.81
1071.86	4099.67
1072.44	4110.7
1073.02	4094.89
1073.6	4178.96
1074.18	4116.38
1074.76	4109.47
1075.34	4144.52
1075.92	4199.51
1076.5	4157.76
1077.08	4126.93
1077.66	4048.43
1078.24	4110.25
1078.82	4161.7
1079.4	4143.25
1079.98	4106.35
1080.55	4110.18
1081.13	4143.67
1081.71	4105.92
1082.29	4053.92
1082.87	4091.27
1083.45	4141.53
1084.03	4107.43
1084.61	4074.69
1085.19	4029.63
1085.77	3993.38
1086.35	4010.79
1086.93	3982.84
1087.51	4085.31
1088.09	4023.07
1088.67	4054.53
1089.24	3944.14
1089.82	3963.06
1090.4	3867.85
1090.98	3975.82
1091.56	4040.52
1092.14	4051.2
1092.71	3980.44
1093.29	4005.22
1093.87	3996.13
1094.45	3955.16
1095.03	3968.78
1095.61	3898.92
1096.18	3915.98
1096.76	3846.82
1097.34	3891.76
1097.92	3841.37
1098.49	3844.75
1099.04	3834.25
1099.63	3725.75
1100.22	3853.75
1100.8	3753.75
1101.39	3842.75
1101.97	3758.75
1102.56	3874.25
1103.15	3756.25
1103.73	3726.25
1104.31	3659.75
1104.9	3621.75
1105.49	3723.25
1106.07	3599.75
1106.66	3709.25
1107.24	3628.75
1107.83	3604.75
1108.41	3634.75
1109	3520.75
1109.58	3533.75
1110.17	3523.75
1110.75	3531.25
1111.33	3549.75
1111.92	3499.25
1112.5	3455.25
1113.09	3454.25
1113.67	3484.75
1114.26	3441.75
1114.84	3487.75
1115.43	3457.25
1116.01	3340.75
1116.59	3468.75
1117.18	3424.75
1117.76	3365.75
1118.35	3356.75
1118.93	3313.75
1119.51	3376.25
1120.1	3319.75
1120.68	3331.25
1121.27	3338.75
1121.85	3235.75
1122.43	3235.75
1123.02	3263.25
1123.6	3211.25
1124.18	3183.75
1124.77	3200.75
1125.35	3260.25
1125.93	3178.75
1126.52	3201.75
1127.1	3119.75
1127.68	3078.25
1128.26	3055.75
1128.85	2986.75
1129.43	3060.75
1130.01	3062.75
1130.6	3005.25
1131.18	3017.25
1131.76	3009.75
1132.34	2948.25
1132.93	2883.75
1133.51	2892.75
1134.09	2929.75
1134.67	2956.25
1135.26	2880.75
1135.84	2919.75
1136.42	2859.75
1137	2837.75
1137.59	2848.75
1138.17	2783.25
1138.75	2758.75
1139.33	2677.75
1139.91	2785.75
1140.49	2733.75
1141.08	2760.25
1141.66	2652.75
1142.24	2625.75
1142.82	2669.75
1143.4	2664.75
1143.99	2625.25
1144.57	2593.75
1145.15	2541.25
1145.73	2632.25
1146.31	2465.75
1146.89	2468.75
1147.47	2509.75
1148.05	2543.25
1148.64	2544.25
1149.22	2414.75
1149.8	2485.75
1150.38	2416.25
1150.96	2390.75
1151.54	2382.75
1152.12	2400.75
1152.7	2380.25
1153.28	2369.75
1153.86	2358.75
1154.44	2300.75
1155.02	2275.75
1155.6	2278.75
1156.18	2266.75
1156.76	2261.25
1157.34	2221.75
1157.92	2247.25
1158.5	2238.75
1159.08	2220.75
1159.66	2182.25
1160.24	2193.75
1160.82	2182.75
1161.4	2147.25
1161.98	2163.75
1162.56	2133.75
1163.14	2079.75
1163.72	2111.75
1164.3	2089.75
1164.88	2057.25
1165.46	2028.75
1166.04	1999.75
1166.62	1996.75
1167.2	2003.25
1167.78	1996.25
1168.36	1949.75
1168.94	1908.25
1169.52	1884.75
1170.09	1805.75
1170.67	1773.75
1171.25	1845.75
1171.83	1857.75
1172.41	1851.25
1172.99	1791.25
1173.57	1853.25
1174.15	1838.25
1174.72	1801.25
1175.3	1805.75
1175.88	1716.75
1176.46	1744.75
1177.04	1756.75
1177.62	1778.75
1178.19	1710.75
1178.77	1743.75
1179.35	1709.75
1179.93	1638.75
1180.51	1638.75
1181.08	1671.75
1181.66	1618.25
1182.24	1615.75
1182.82	1637.75
1183.4	1624.25
1183.97	1609.75
1184.55	1588.75
1185.13	1547.75
1185.7	1522.75
1186.28	1497.75
1186.86	1524.75
1187.44	1511.75
1188.02	1504.25
1188.59	1501.25
1189.17	1477.75
1189.75	1469.75
1190.32	1440.75
1190.9	1462.25
1191.48	1463.25
1192.05	1413.75
1192.63	1447.75
1193.21	1428.25
1193.78	1417.25
1194.36	1355.75
1194.94	1339.75
1195.51	1321.25
1196.09	1298.75
1196.67	1324.75
1197.24	1306.25
1197.82	1314.75
1198.4	1295.25
1198.97	1265.75
1199.55	1295.75
1200.12	1287.25
1200.7	1300.75
1201.28	1245.75
1201.85	1236.75
1202.43	1233.25
1203	1213.75
1203.58	1242.75
1204.16	1221.25
1204.73	1207.25
1205.31	1182.25
1205.88	1237.25
1206.46	1167.25
1207.03	1168.75
1207.61	1122.75
1208.18	1114.75
1208.76	1140.25
1209.33	1159.25
1209.91	1143.75
1210.48	1107.25
1211.06	1065.75
1211.63	1122.75
1212.21	1064.75
1212.78	1084.75
1213.36	1083.75
1213.93	1112.75
1214.51	1098.75
1215.08	1096.75
1215.66	1019.75
1216.23	1050.75
1216.8	1071.75
1217.38	1032.25
1217.95	1055.75
1218.53	1056.25
1219.1	1042.75
1219.68	1048.25
1220.25	1037.75
1220.83	1049.75
1221.4	989.75
1221.97	993.75
1222.55	953.75
1223.12	1000.75
1223.69	961.75
1224.27	975.25
1224.84	1007.75
1225.41	997.75
1225.99	901.75
1226.56	940.75
1227.13	955.75
1227.71	966.75
1228.28	976.75
1228.85	948.75
1229.43	979.75
1230	981.25
1230.57	977.75
1231.15	935.25
1231.72	944.75
1232.29	958.25
1232.87	932.75
1233.44	946.75
1234.01	963.75
1234.58	949.75
1235.16	930.75
1235.73	951.75
1236.3	898.75
1236.87	934.75
1237.45	934.75
1238.02	945.75
1238.59	929.75
1239.16	936.75
1239.74	923.25
1240.31	945.75
1240.88	947.75
1241.45	878.75
1242.03	948.25
1242.6	910.75
1243.17	925.75
1243.74	917.25
1244.31	932.25
1244.88	942.75
1245.46	904.75
1246.03	919.25
1246.6	923.75
1247.17	922.25
1247.74	897.25
1248.31	920.75
1248.88	872.75
1249.45	908.25
1250.03	917.25
1250.6	916.25
1251.17	897.75
1251.74	900.25
1252.31	905.75
1252.88	918.25
1253.45	890.25
1254.02	915.25
1254.59	883.75
1255.17	879.75
1255.74	914.25
1256.31	926.75
1256.88	895.75
1257.45	908.75
1258.02	886.75
1258.59	911.75
1259.16	860.75
1259.73	873.25
1260.3	866.75
1260.87	906.25
1261.44	901.25
1262.01	896.75
1262.58	878.25
1263.15	869.75
1263.72	878.75
1264.29	879.75
1264.86	895.25
1265.43	862.75
1266	901.75
1266.57	917.25
1267.14	898.25
1267.71	891.75
1268.28	879.75
1268.85	896.75
1269.41	872.25
1269.98	894.25
1270.55	884.75
1271.12	854.75
1271.69	868.75
1272.26	916.25
1272.83	862.25
1273.4	886.25
1273.97	896.75
1274.54	840.75
1275.1	902.25
1275.67	883.75
1276.24	840.75
1276.81	883.75
1277.38	850.25
1277.95	901.25
1278.52	859.75
1279.09	885.25
1279.65	879.25
1280.22	851.75
1280.79	867.75
1281.36	867.75
1281.93	851.75
1282.49	882.25
1283.06	862.25
1283.63	876.25
1284.2	886.25
1284.77	863.75
1285.33	871.75
1285.9	857.75
1286.47	861.75
1287.04	851.25
1287.6	834.75
1288.17	866.75
1288.74	873.75
1289.31	891.75
1289.87	894.75
1290.44	847.75
1291.01	879.75
1291.58	811.75
1292.14	867.75
1292.71	862.75
1293.28	887.25
1293.84	899.75
1294.41	867.75
1294.98	902.25
1295.54	849.25
1296.11	895.25
1296.68	877.75
1297.25	867.75
1297.81	844.75
1298.38	857.75
1298.94	874.75
1299.51	863.75
1300.08	854.25
1300.64	859.75
1301.21	868.25
1301.78	862.75
1302.34	857.75
1302.91	859.25
1303.47	876.75
1304.04	916.25
1304.61	878.75
1305.17	879.75
1305.74	865.75
1306.3	868.75
1306.87	830.75
1307.43	869.25
1308	900.25
1308.57	834.25
1309.13	887.75
1309.7	883.75
1310.26	895.75
1310.83	894.25
1311.39	861.75
1311.96	900.75
1312.52	874.25
1313.09	876.25
1313.65	862.75
1314.22	869.75
1314.78	861.75
1315.35	867.75
1315.91	867.25
1316.48	787.75
1317.04	851.75
1317.61	831.75
1318.17	842.75
1318.74	904.25
1319.3	871.25
1319.86	916.75
1320.43	872.25
1320.99	916.25
1321.56	863.75
1322.12	886.75
1322.68	859.75
1323.25	892.75
1323.81	907.25
1324.38	869.75
1324.94	870.75
1325.51	873.75
1326.07	858.25
1326.63	866.75
1327.2	886.75
1327.76	880.25
1328.32	863.75
1328.89	861.75
1329.45	868.25
1330.01	899.75
1330.58	911.25
1331.14	900.75
1331.7	834.75
1332.27	895.75
1332.83	882.25
1333.39	876.25
1333.96	872.75
1334.52	857.75
1335.08	872.75
1335.65	894.25
1336.21	853.75
1336.77	889.25
1337.33	880.75
1337.9	866.75
1338.46	923.25
1339.02	846.75
1339.58	906.25
1340.15	892.25
1340.71	837.75
1341.27	915.75
1341.83	879.25
1342.4	877.75
1342.96	865.25
1343.52	854.75
1344.08	857.75
1344.64	885.25
1345.21	877.75
1345.77	884.25
1346.33	886.25
1346.89	921.25
1347.45	855.75
1348.01	885.25
1348.58	879.75
1349.14	897.75
1349.7	896.75
1350.26	902.75
1350.82	894.75
1351.38	879.75
1351.95	872.75
1352.51	904.75
1353.07	833.75
1353.63	881.25
1354.19	894.25
1354.75	872.75
1355.31	865.75
1355.87	853.75
1356.43	846.75
1357	832.75
1357.56	890.75
1358.12	869.75
1358.68	857.25
1359.24	904.25
1359.8	933.75
1360.36	916.75
1360.92	920.25
1361.48	870.25
1362.04	881.25
1362.6	873.25
1363.16	887.75
1363.72	912.25
1364.28	929.25
1364.84	885.75
1365.4	896.25
1365.96	867.75
1366.52	862.75
1367.08	886.75
1367.64	888.75
1368.2	905.25
1368.76	914.25
1369.32	898.75
1369.88	917.75
1370.44	870.75
1371	898.25
1371.56	898.25
1372.11	888.25
1372.67	859.75
1373.23	869.75
1373.79	912.75
1374.35	907.25
1374.91	873.75
1375.47	890.75
1376.03	922.75
1376.59	908.75
1377.15	866.25
1377.7	879.25
1378.26	873.75
1378.82	915.75
1379.38	865.25
1379.94	925.75
1380.5	894.25
1381.06	909.25
1381.61	846.75
1382.17	891.75
1382.73	886.75
1383.29	927.25
1383.85	892.25
1384.41	901.75
1384.96	922.25
1385.52	886.75
1386.08	879.75
1386.64	878.25
1387.2	842.75
1387.75	913.75
1388.31	947.25
1388.87	915.75
1389.43	897.25
1389.98	931.25
1390.54	873.75
1391.1	875.75
1391.66	930.25
1392.22	919.25
1392.77	882.75
1393.33	941.25
1393.89	906.25
1394.44	888.25
1395	910.25
1395.56	945.25
1396.12	899.75
1396.67	898.25
1397.23	942.75
1397.79	874.75
1398.34	912.25
1398.9	906.25
1399.46	903.75
1400.01	916.75
1400.57	895.75
1401.12	890.25
1401.68	853.75
1402.24	921.25
1402.79	883.25
1403.35	894.75
1403.91	895.75
1404.46	871.25
1405.02	902.75
1405.57	946.75
1406.13	945.75
1406.69	906.75
1407.24	912.75
1407.8	909.75
1408.36	919.25
1408.91	894.25
1409.47	878.75
1410.02	923.75
1410.58	926.75
1411.13	948.25
1411.69	915.75
1412.24	952.25
1412.8	887.75
1413.35	920.25
1413.91	920.75
1414.46	915.25
1415.02	913.75
1415.57	952.75
1416.13	901.75
1416.68	914.25
1417.24	915.75
1417.8	917.25
1418.35	898.75
1418.91	868.75
1419.46	940.25
1420.01	933.25
1420.57	957.75
1421.12	919.75
1421.68	931.75
1422.23	935.75
1422.79	925.25
1423.34	925.75
1423.89	898.25
1424.45	904.75
1425	911.75
1425.56	909.75
1426.11	934.25
1426.67	887.75
1427.22	921.75
1427.77	912.75
1428.33	933.75
1428.88	932.75
1429.43	905.75
1429.99	961.25
1430.54	887.75
1431.09	940.75
1431.65	927.75
1432.2	909.75
1432.76	896.75
1433.31	915.75
1433.86	895.25
1434.42	929.25
1434.97	956.75
1435.52	903.25
1436.07	921.75
1436.63	915.75
1437.18	951.75
1437.73	927.75
1438.29	926.75
1438.84	954.75
1439.39	950.75
1439.95	920.25
1440.5	930.25
1441.05	948.75
1441.6	964.75
1442.15	938.25
1442.71	965.25
1443.26	933.25
1443.81	920.75
1444.36	916.25
1444.92	907.25
1445.47	949.75
1446.02	925.75
1446.57	935.25
1447.13	934.75
1447.68	935.25
1448.23	959.25
1448.78	879.75
1449.33	928.75
1449.88	933.75
1450.44	958.75
1450.99	934.25
1451.54	943.25
1452.09	909.25
1452.64	922.25
1453.19	970.75
1453.74	924.25
1454.3	948.75
1454.85	910.75
1455.4	964.25
1455.95	943.25
1456.5	952.25
1457.05	958.25
1457.6	945.25
1458.15	937.25
1458.7	929.75
1459.25	938.25
1459.8	945.25
1460.36	901.75
1460.91	965.25
1461.46	950.75
1462.01	965.75
1462.56	958.75
1463.11	946.75
1463.66	959.75
1464.21	951.75
1464.76	914.75
1465.31	934.75
1465.86	962.75
1466.41	968.75
1466.96	949.75
1467.51	941.75
1468.06	945.75
1468.61	955.75
1469.16	925.75
1469.71	950.25
1470.26	905.75
1470.81	946.75
1471.36	966.75
1471.91	952.25
1472.46	954.25
1473.01	909.75
1473.56	950.25
1474.11	913.75
1474.66	938.75
1475.2	921.75
1475.75	965.75
1476.3	935.75
1476.85	950.75
1477.4	938.75
1477.95	931.75
1478.5	918.25
1479.05	926.75
1479.6	935.75
1480.15	920.75
1480.7	935.75
1481.24	965.25
1481.79	942.75
1482.34	909.25
1482.89	949.25
1483.44	957.75
1483.99	912.75
1484.53	942.75
1485.08	960.25
1485.63	933.25
1486.18	924.25
1486.73	953.25
1487.27	970.25
1487.82	964.75
1488.37	975.25
1488.92	992.25
1489.47	980.75
1490.01	954.75
1490.56	936.25
1491.11	956.25
1491.66	940.75
1492.21	917.25
1492.75	975.75
1493.3	943.75
1493.85	946.25
1494.39	952.75
1494.94	939.75
1495.49	954.75
1496.04	921.75
1496.58	949.25
1497.13	954.75
1497.68	960.75
1498.22	951.75
1498.77	964.75
1499.32	960.75
1499.87	925.25
