15.4043	2875.01
16.081	3368.01
16.7577	3904.01
17.4343	4451.51
18.1131	4925.01
18.7897	5436.01
19.4661	5974.01
20.1425	6627.51
20.8189	7027.51
21.4953	7344.51
22.1715	7636.01
22.8478	7805.51
23.5239	7955.51
24.2001	8020.51
24.8762	8044.01
25.5522	8052.01
26.2282	8312.01
26.9042	8451.01
27.5801	8735.01
28.2559	8840.01
28.9317	9070.51
29.6075	9161.01
30.2832	9131.01
30.9589	9314.01
31.6345	9369.51
32.3101	9390.01
32.9856	9349.01
33.6611	9521.51
34.3365	9654.51
35.0119	9772.01
35.6849	10026.5
36.3602	10337
37.0355	10320
37.7107	10570
38.3858	10606
39.0609	10896
39.736	11166
40.4087	11257
41.0837	11200
41.7586	11196
42.4334	11184
43.1083	11216
43.7807	11475
44.4555	11702
45.1302	11882.5
45.8048	11976
46.4771	12257
47.1516	12218.5
47.8261	12142
48.5006	12177
49.1727	12118
49.847	12465
50.5213	12313
51.1933	12555.5
51.8675	12727.5
52.5417	12646.5
53.2135	12668
53.8876	12548
54.5616	12827
55.2333	12718
55.9072	12650
56.5811	12679.5
57.2526	12716.5
57.9264	12704
58.5979	12948.5
59.2716	13024
59.9452	13103.5
60.6165	13292.5
61.2901	13460.5
61.9613	13453
62.6348	13670
63.3059	13435
63.9793	13409
64.6503	13203
65.3236	13125
65.9945	13144
66.6677	13082
67.3386	13007.5
68.0116	13079
68.6824	13077
69.3554	13210.5
70.0261	13322
70.699	13352
71.3695	13365
72.0423	13406.5
72.7128	13317
73.3832	13276
74.0559	13386
74.7262	13521
75.3965	13456.5
76.0691	13478.5
76.7393	13486
77.4117	13481.5
78.0818	13762
78.7518	13716
79.4241	13547.5
80.0941	13583.5
80.764	13199.5
81.4339	13275
82.106	13413
82.7758	13367
83.4455	13559
84.1175	13627.5
84.7871	13559
85.4567	13561
86.1263	13659
86.798	13727.5
87.4675	13513
88.1369	13358
88.8063	13261.5
89.4756	13144
90.1471	13181
90.8164	13288
91.4855	13330.5
92.1547	13265
92.8237	13525
93.4928	13534
94.1618	13540
94.833	13521
95.5019	13329
96.1707	13219
96.8395	13364.5
97.5083	13275
98.177	13116
98.8457	13237
99.5143	12885
100.183	13046.5
100.851	13033
101.52	13104
102.188	13139
102.857	12925
103.525	13095.5
104.193	12838
104.862	12727.5
105.53	12760
106.198	12871
106.866	12895.5
107.534	12928
108.202	13024
108.87	13095
109.538	12880.5
110.206	12831
110.874	12712.5
111.542	12555.5
112.209	12365
112.877	12215
113.542	12284.5
114.21	12215.5
114.878	12231.5
115.545	12057
116.212	12150
116.88	12099
117.545	12271
118.212	12379.5
118.88	12412.5
119.547	12402.5
120.214	12448.5
120.879	12392
121.546	12447
122.213	12062
122.88	12110
123.545	12218
124.212	12172.5
124.879	12218.5
125.545	12275.5
126.21	12142.5
126.877	12114
127.543	11836
128.208	11878
128.874	12006.5
129.541	11967
130.205	11917
130.871	11899.5
131.538	11759.5
132.202	11713.5
132.868	11614
133.535	11724
134.198	11572.5
134.865	11576
135.528	11347
136.195	11349
136.858	11345.5
137.524	11457.5
138.19	11381
138.854	11327.5
139.52	11475
140.183	11500.5
140.849	11436.5
141.513	11247
142.178	11289
142.842	11257.5
143.507	11230
144.17	11163
144.836	11113.5
145.499	11099.5
146.162	10790
146.828	10955
147.491	11010
148.156	11020.5
148.819	10826
149.484	11005.5
150.147	10733
150.81	10795
151.475	10785
152.137	10603
152.8	10519
153.465	10539
154.127	10597
154.79	10644.5
155.455	10415
156.117	10493
156.78	10238
157.444	10453
158.107	10470.5
158.769	10412
159.431	10201
160.095	10126
160.758	10085
161.42	10176.5
162.082	10177
162.746	10106
163.408	10037
164.07	10008.5
164.732	9899.01
165.393	10137
166.057	10095
166.719	10057
167.381	10085
168.042	9958.01
168.704	9917.01
169.366	9915.01
170.027	9933.01
170.691	9957.01
171.352	9937.51
172.013	9822.01
172.675	9892.01
173.336	9873.51
173.997	9767.51
174.658	9715.01
175.32	9489.01
175.981	9746.01
176.642	9588.01
177.303	9584.01
177.964	9623.01
178.624	9629.01
179.285	9539.51
179.946	9581.51
180.607	9582.51
181.268	9569.01
181.928	9525.01
182.589	9645.51
183.249	9376.01
183.91	9357.01
184.571	9351.51
185.231	9516.01
185.891	9417.51
186.552	9467.01
187.21	9371.51
187.87	9337.01
188.53	9273.01
189.19	9350.01
189.851	9376.01
190.511	9426.01
191.171	9269.01
191.828	9337.51
192.488	9296.01
193.148	9250.01
193.808	9194.01
194.468	9229.01
195.125	9243.01
195.785	9319.51
196.445	9293.51
197.104	9201.51
197.762	9036.01
198.421	9068.51
199.081	9194.01
199.74	9078.01
200.397	9103.01
201.057	9142.01
201.716	9244.51
202.373	9043.51
203.032	9134.01
203.691	9173.51
204.348	9237.51
205.007	9190.01
205.666	9126.51
206.323	9049.01
206.982	9127.01
207.641	9205.01
208.298	9151.01
208.956	9108.01
209.613	9123.01
210.272	9208.51
210.928	9070.01
211.587	9043.01
212.245	9071.51
212.902	9005.01
213.56	9062.01
214.216	9137.51
214.875	9117.51
215.531	9063.51
216.189	9064.51
216.845	9104.51
217.503	9183.01
218.159	9026.01
218.815	9213.51
219.473	9137.51
220.129	9035.01
220.787	9002.01
221.443	8982.01
222.101	8870.01
222.756	8849.01
223.412	8913.51
224.07	8997.51
224.725	8732.51
225.383	8914.01
226.038	9039.51
226.694	9039.51
227.351	8902.01
228.006	9085.51
228.662	9077.01
229.319	9119.51
229.974	9081.01
230.629	9098.51
231.284	9186.51
231.942	9262.01
232.596	9237.01
233.251	9207.51
233.906	9194.01
234.563	9149.01
235.218	9236.01
235.873	9147.51
236.527	9384.01
237.184	9190.01
237.839	9153.01
238.493	9244.51
239.148	9282.51
239.802	9198.51
240.457	9204.01
241.113	9238.01
241.768	9213.01
242.422	9338.51
243.076	9279.01
243.73	9254.51
244.385	9155.01
245.039	9205.01
245.693	9432.01
246.347	9362.01
247.001	9319.01
247.657	9370.51
248.311	9252.01
248.965	9426.01
249.618	9335.51
250.272	9330.01
250.926	9370.51
251.579	9572.51
252.233	9366.01
252.887	9286.51
253.54	9516.51
254.194	9497.01
254.847	9487.01
255.498	9459.01
256.152	9579.01
256.805	9541.01
257.458	9575.01
258.111	9498.01
258.764	9486.01
259.418	9370.01
260.071	9630.51
260.724	9630.01
261.377	9561.51
262.027	9641.01
262.68	9625.01
263.333	9680.01
263.986	9482.01
264.639	9761.51
265.291	9774.01
265.942	9634.51
266.594	9802.51
267.247	9773.01
267.9	9692.51
268.55	9756.51
269.202	9765.51
269.855	9864.51
270.507	9815.51
271.157	9765.01
271.809	9787.51
272.462	9826.51
273.114	9885.01
273.764	9728.01
274.416	9881.01
275.068	10127
275.718	9949.01
276.37	9920.01
277.022	9842.01
277.671	10123
278.323	10064
278.973	10173
279.624	10177
280.276	10113
280.925	9876.01
281.577	10045
282.226	10165.5
282.878	10129
283.527	10096.5
284.178	10129
284.83	10083.5
285.479	10033
286.13	10099
286.779	10008.5
287.431	10116
288.079	10071
288.731	10275
289.379	10101
290.03	10000.5
290.679	9967.51
291.328	9943.01
291.979	9800.01
292.627	9795.01
293.278	9987.51
293.927	10023.5
294.575	10259
295.226	10285
295.874	10173
296.525	10213
297.173	10398.5
297.822	10345.5
298.472	10347.5
299.12	10429.5
299.768	10274
300.419	10351.5
301.067	10228
301.715	10333
302.363	10460.5
303.013	10369
303.661	10405.5
304.309	10405.5
304.958	10269.5
305.606	10453
306.254	10454
306.902	10514.5
307.549	10543.5
308.199	10581
308.847	10430
309.494	10454
310.141	10431.5
310.789	10353.5
311.438	10469.5
312.086	10408
312.733	10456.5
313.38	10318
314.027	10477
314.674	10518.5
315.322	10460
315.969	10445
316.616	10453
317.263	10516
317.912	10406
318.559	10560.5
319.205	10624
319.852	10440
320.499	10490.5
321.146	10554
321.792	10542
322.439	10569
323.085	10691
323.732	10552.5
324.378	10533
325.025	10648
325.671	10488
326.318	10683
326.962	10582
327.608	10529.5
328.254	10638
328.9	10569
329.546	10535
330.192	10607
330.838	10661
331.484	10699
332.13	10703.5
332.774	10723.5
333.42	10537.5
334.066	10650
334.711	10709
335.357	10719
336.003	10736
336.646	10592.5
337.292	10772
337.937	10631
338.583	10570
339.226	10624
339.872	10764.5
340.517	10755.5
341.162	10700
341.805	10545
342.451	10667.5
343.096	10678
343.739	10808
344.384	10988
345.029	10811
345.672	10781.5
346.317	10637
346.962	10670.5
347.604	10761.5
348.249	10817.5
348.894	10807
349.537	10786.5
350.181	10884
350.824	10797
351.468	10795
352.113	10846
352.755	10805
353.4	10823
354.042	10920
354.687	10850.5
355.329	10882.5
355.973	10765
356.615	10843
357.259	10988
357.901	10967
358.546	11018
359.187	11050
359.831	11059
360.473	10919.5
361.117	10962
361.759	11145.5
362.401	11102.5
363.045	11159
363.686	11083
364.33	11015
364.971	11180
365.613	11008
366.257	11248
366.898	11239.5
367.539	11224
368.183	11275
368.824	11265
369.465	11242
370.109	11282
370.75	11262
371.391	11358
372.034	11377.5
372.675	11437
373.316	11381
373.957	11279
374.6	11459
375.241	11194
375.882	11388
376.522	11280.5
377.163	11507
377.806	11519
378.446	11618.5
379.087	11585.5
379.727	11532
380.368	11550.5
381.008	11613
381.651	11681
382.291	11715.5
382.932	11605.5
383.572	11811
384.212	11680.5
384.852	11719
385.492	11675
386.132	12007.5
386.772	11861
387.413	11924
388.052	11818.5
388.692	11787
389.334	11866.5
389.974	11802
390.614	12068.5
391.254	12026
391.893	11854
392.533	12033.5
393.171	11913
393.81	12120
394.45	12036
395.089	12228
395.729	12247.5
396.368	12206
397.007	12113
397.647	12239.5
398.286	12301
398.925	12128
399.564	12222
400.201	12418
400.84	12287
401.479	12483
402.118	12378
402.757	12452.5
403.396	12437
404.033	12350
404.672	12512
405.311	12518
405.949	12618
406.588	12641
407.224	12571
407.863	12629
408.502	12687.5
409.14	12737.5
409.777	12822
410.415	12680
411.053	12860
411.69	12714.5
412.328	12765.5
412.966	12791
413.602	12861
414.24	13024
414.879	12894.5
415.514	12949.5
416.153	12943
416.791	12758
417.426	12967
418.064	12923
418.7	12938
419.338	13123
419.976	13046.5
420.611	13093.5
421.249	12981
421.884	12936
422.522	13134
423.157	13167
423.795	13370
424.43	13390.5
425.068	13475.5
425.703	13506
426.34	13510
426.975	13444
427.613	13459
428.248	13707
428.885	13719
429.52	13801.5
430.155	13703.5
430.792	13772
431.427	13690.5
432.064	13807
432.699	13833
433.333	13633
433.97	13819
434.605	13755
435.239	13834
435.876	13923
436.511	13859.5
437.145	14004.5
437.782	14087
438.416	14090
439.05	14020
439.687	14037.5
440.321	14064
440.955	14009
441.59	14075.5
442.226	14233
442.86	14151
443.494	14285.5
444.128	14126.5
444.762	14225.5
445.398	14232.5
446.032	14229
446.666	14274
447.299	14243.5
447.933	14243
448.567	14315
449.203	14350.5
449.836	14331
450.47	14275.5
451.103	14384
451.737	14559.5
452.37	14574.5
453.004	14525
453.637	14619.5
454.27	14554.5
454.904	14349
455.537	14587.5
456.17	14556
456.803	14648
457.436	14656
458.069	14606
458.702	14669.5
459.335	14659
459.968	14706
460.601	14651
461.234	14573
461.867	14841.5
462.5	14693
463.132	14628
463.765	14726
464.398	14749
465.03	14808
465.663	14808
466.293	14786
466.926	14810
467.558	14832
468.19	14845.5
468.823	14872
469.455	14965.5
470.085	15130
470.717	14975
471.35	15000
471.982	15056
472.614	14904
473.244	14948.5
473.876	14859
474.508	15021.5
475.14	15262
475.769	15138
476.401	15164.5
477.033	15299.5
477.665	15158.5
478.294	15137
478.926	15079
479.557	15370
480.187	15394.7
480.818	15371
481.45	15329.4
482.079	15308.5
482.711	15299.3
483.34	15271.8
483.971	15329.4
484.602	15363.6
485.231	15302.9
485.863	15470.7
486.492	15487.8
487.123	15578.5
487.752	15504.4
488.383	15613
489.011	15746.7
489.642	15744.7
490.271	15852.1
490.902	15851.3
491.531	15732.5
492.161	15875.8
492.79	15845.9
493.421	15919.7
494.049	15803.7
494.68	15698.3
495.308	15749.8
495.939	15694.4
496.567	15856.2
497.195	15638.7
497.826	15733.7
498.454	15610.9
499.084	15504.7
499.712	15412.5
500.34	15390.7
500.971	15393.8
501.599	15461.4
502.227	15485.4
502.857	15588.3
503.484	15484.4
504.112	15470.3
504.74	15263.9
505.37	15363.7
505.998	15166.6
506.625	15043.6
507.255	15145
507.883	15228.1
508.51	15055.8
509.138	15002.4
509.765	14902.4
510.395	14664.4
511.022	14700.7
511.649	14472.4
512.276	14396.2
512.904	14387.3
513.531	14209.3
514.16	14240.9
514.787	14056.5
515.414	14091.8
516.041	13981.1
516.668	13914.3
517.295	13892.6
517.922	13688.4
518.549	13577
519.176	13488.3
519.803	13345.6
520.429	13240.6
521.056	13192
521.685	13229.9
522.311	12922.8
522.938	12780.5
523.564	12810.3
524.191	12589.2
524.815	12479.4
525.442	12528.3
526.068	12516.1
526.694	12289
527.32	12287.1
527.947	12054.5
528.573	12070.2
529.199	11917.5
529.825	11751.9
530.451	11747.9
531.077	11792.6
531.703	11766.2
532.327	11604.8
532.953	11442.3
533.579	11465.2
534.205	11390.1
534.83	11316.5
535.456	11311.8
536.08	11260.4
536.705	11157.3
537.331	11158.4
537.956	11153.9
538.58	11128
539.205	10990.8
539.831	11081.3
540.456	10947.4
541.079	10896
541.704	10913.6
542.33	10896.6
542.953	10843.3
543.578	10790.2
544.203	10829.4
544.828	10896.5
545.451	10761.5
546.076	10791.7
546.699	10909.2
547.324	10730.7
547.949	10766
548.571	10775.2
549.196	10871
549.819	10823.3
550.444	10772.8
551.068	10733.7
551.691	10968.6
552.315	10743.6
552.938	10882.8
553.562	10777.8
554.185	10945.3
554.809	10903.4
555.431	10877.8
556.056	10967.9
556.678	10920.3
557.302	10838.9
557.924	10864
558.548	10921.7
559.17	10965
559.792	10848.9
560.416	10765.3
561.038	10951.1
561.662	10894.9
562.284	10878.2
562.906	10853.9
563.53	10840.8
564.151	10881.3
564.775	10889.1
565.397	10813.7
566.018	10826.7
566.64	10795.1
567.263	10862.3
567.885	10827.4
568.506	10822.1
569.13	10786.8
569.751	10733.4
570.372	10725.3
570.993	10709.9
571.617	10684.9
572.238	10493
572.859	10470.2
573.48	10317.5
574.103	10359.6
574.724	10205.4
575.345	10185.8
575.966	10104.9
576.587	10063.5
577.207	9917.45
577.83	9856.1
578.451	9789.45
579.072	9766.43
579.692	9702.51
580.313	9770.42
580.934	9727.36
581.554	9726.91
582.174	9648.91
582.795	9470.73
583.415	9391.17
584.036	9427.06
584.656	9298.61
585.276	9178.93
585.896	9077.12
586.517	9049.92
587.137	8973.04
587.757	8903.27
588.377	8795.85
588.997	8720.67
589.617	8716.48
590.237	8646.54
590.857	8490.75
591.477	8407.5
592.096	8330.98
592.716	8159.96
593.336	8099.54
593.956	8044.15
594.575	7956.7
595.195	7938.65
595.812	7811.07
596.432	7755.15
597.051	7665.48
597.671	7710.74
598.29	7462.27
598.907	7459.88
599.527	7441.02
600.146	7374.01
600.765	7301.24
601.384	7278.22
602.001	7209.58
602.621	7172.81
603.24	7024.33
603.859	6917.12
604.476	6918.66
605.094	6910.51
605.713	6784.53
606.33	6770.31
606.949	6785.7
607.568	6795.02
608.184	6579.28
608.803	6555.35
609.422	6501.16
610.038	6485.04
610.657	6485.49
611.275	6409.83
611.892	6347.54
612.51	6364.98
613.126	6303.75
613.745	6294.77
614.361	6150.96
614.979	6180.73
615.598	6108.68
616.214	5980.9
616.832	6072.36
617.448	6020.97
618.066	5896.29
618.682	5959.84
619.3	5994.49
619.916	5836.83
620.532	5887.91
621.149	5804.97
621.765	5694.18
622.383	5759.26
622.999	5717.4
623.616	5727.58
624.232	5598.82
624.847	5653.66
625.465	5684.53
626.08	5599.24
626.698	5581.55
627.313	5666.19
627.929	5539.4
628.546	5580.22
629.161	5422.89
629.776	5483.85
630.392	5518.82
631.009	5456.04
631.624	5417.35
632.239	5397.27
632.856	5346.85
633.471	5293.8
634.086	5337.41
634.701	5281.1
635.316	5290.25
635.932	5241.23
636.547	5252.78
637.162	5237.42
637.777	5241.65
638.391	5159.25
639.008	5144.13
639.622	5108.8
640.237	5128.88
640.851	5210.52
641.466	5104.84
642.08	5034.46
642.695	5032.76
643.309	5120.16
643.925	5069.91
644.539	5051.43
645.154	4968.06
645.768	5047.07
646.382	4983.2
646.996	4951.63
647.61	5032.86
648.224	5056.43
648.838	4970.98
649.452	4972.13
650.066	4996.77
650.679	4889.87
651.293	4975.06
651.907	4821.24
652.521	4847.44
653.134	4808.96
653.746	5005.93
654.359	4832.28
654.973	4758.2
655.586	4797.47
656.2	4862.17
656.813	4921.9
657.427	4893.47
658.04	4868.9
658.651	4869.52
659.264	4941.52
659.878	4802.87
660.491	4805.18
661.104	4821.98
661.715	4824.9
662.328	4866.26
662.941	4895.42
663.554	4826.88
664.167	4800.49
664.777	4817.99
665.39	4911.43
666.003	4769.8
666.614	4822.55
667.227	4774.78
667.839	4856.64
668.45	4823.74
668.568	4821.24
669.187	4886.24
669.808	4824.24
670.427	4784.24
671.048	4787.24
671.667	4854.24
672.288	4814.24
672.907	4847.74
673.528	4807.24
674.146	4849.74
674.765	4808.24
675.386	4823.24
676.005	4850.24
676.625	4822.74
677.244	4806.24
677.862	4705.24
678.483	4844.24
679.101	4728.24
679.72	4752.74
680.34	4788.24
680.958	4857.24
681.577	4786.24
682.197	4843.24
682.815	4845.74
683.433	4921.24
684.053	4893.74
684.672	4906.24
685.289	4905.24
685.91	4992.74
686.527	4969.24
687.145	4979.24
687.763	4941.24
688.381	4922.74
689.001	4998.24
689.619	4840.24
690.236	4965.74
690.854	4923.74
691.471	4928.24
692.091	5001.74
692.709	4936.74
693.326	4976.24
693.943	4914.74
694.561	4975.24
695.178	4970.24
695.796	4927.74
696.415	4975.24
697.032	5030.74
697.649	4853.24
698.266	4985.24
698.884	4906.24
699.501	5054.74
700.118	5011.24
700.735	5048.74
701.352	5006.24
701.968	5018.74
702.585	5093.24
703.202	4959.24
703.819	4938.24
704.436	5062.24
705.052	4885.24
705.669	5057.74
706.286	5060.24
706.902	5095.24
707.519	5030.24
708.135	5047.24
708.752	5035.74
709.368	5038.74
709.984	5024.24
710.599	5058.24
711.215	5143.74
711.831	4977.24
712.447	4982.24
713.063	5019.74
713.68	5099.24
714.296	4998.24
714.909	5104.24
715.526	5064.24
716.141	5000.24
716.757	5037.24
717.373	4957.24
717.987	5008.24
718.603	5085.24
719.219	5081.24
719.834	5055.24
720.448	5055.74
721.063	5074.74
721.679	5087.24
722.295	5103.24
722.908	4977.24
723.523	4985.24
724.139	4967.74
724.752	4972.24
725.367	5050.24
725.983	5061.24
726.596	5027.24
727.211	5051.24
727.826	5015.24
728.439	5120.74
729.054	5007.74
729.667	4912.24
730.282	5051.74
730.897	4961.24
731.51	4994.74
732.125	4993.74
732.738	5010.74
733.353	4968.74
733.965	5091.74
734.58	4951.24
735.195	5064.24
735.807	4951.24
736.422	4921.24
737.034	4846.24
737.647	4919.24
738.261	4853.74
738.874	4894.74
739.488	4849.24
740.1	4913.74
740.715	4703.24
741.327	4787.24
741.941	4804.74
742.553	4770.24
743.165	4707.24
743.779	4687.24
744.391	4794.24
745.005	4727.24
745.617	4830.24
746.229	4796.24
746.843	4826.24
747.455	4883.24
748.067	4932.24
748.68	4846.24
749.292	4831.24
749.904	4803.74
750.515	4735.24
751.129	4759.24
751.74	4723.24
752.352	4715.74
752.965	4825.74
753.577	4779.24
754.188	4785.24
754.799	4732.74
755.411	4697.24
756.024	4681.24
756.635	4715.24
757.246	4771.24
757.857	4675.24
758.468	4548.24
759.079	4713.24
759.692	4578.24
760.303	4627.74
760.914	4633.24
761.525	4622.24
762.136	4566.24
762.747	4589.24
763.357	4532.24
763.968	4542.24
764.579	4455.24
765.189	4537.24
765.802	4580.24
766.413	4449.24
767.023	4457.24
767.633	4415.74
768.244	4501.24
768.854	4358.24
769.465	4418.74
770.075	4392.74
770.685	4407.24
771.295	4351.74
771.906	4268.24
772.514	4298.24
773.124	4263.24
773.734	4208.74
774.344	4183.74
774.954	4159.24
775.564	4157.24
776.173	4224.24
776.783	4156.24
777.393	4107.24
778.003	4178.24
778.61	4154.24
779.22	4052.74
779.83	4066.74
780.439	4069.24
781.049	4135.74
781.659	4036.74
782.266	3950.24
782.875	3965.24
783.485	3937.24
784.094	3893.24
784.701	3964.24
785.311	3987.74
785.92	3867.24
786.529	3878.74
787.136	3804.74
787.745	3818.74
788.354	3782.74
788.961	3718.24
789.57	3705.24
790.179	3819.24
790.786	3695.24
791.395	3622.74
792.004	3649.74
792.611	3681.74
793.219	3576.24
793.828	3616.24
794.435	3637.24
795.043	3491.24
795.65	3506.74
796.258	3534.24
796.867	3487.74
797.473	3445.24
798.082	3474.74
798.688	3433.24
799.296	3412.74
799.903	3405.74
800.511	3431.24
801.117	3455.24
801.725	3389.24
802.331	3351.24
802.94	3333.24
803.546	3412.74
804.154	3283.24
804.759	3310.24
805.367	3283.74
805.973	3239.74
806.579	3238.24
807.187	3263.24
807.793	3264.24
808.4	3217.24
809.006	3198.24
809.612	3193.24
810.219	3241.74
810.825	3179.74
811.43	3120.24
812.038	3168.74
812.643	3216.74
813.249	3198.24
813.856	3188.74
814.461	3203.24
815.067	3155.24
815.672	3137.24
816.279	3118.74
816.884	3196.24
817.489	3184.24
818.094	3142.74
818.701	3196.24
819.306	3122.74
819.911	3173.24
820.516	3125.74
821.121	3102.24
821.728	3119.24
822.333	3173.74
822.937	3157.24
823.542	3152.24
824.147	3129.24
824.751	3115.24
825.358	3184.24
825.962	3131.24
826.567	3120.74
827.171	3102.74
827.776	3080.74
828.38	3139.74
828.984	3121.24
829.589	3137.74
830.193	3082.24
830.797	3105.24
831.401	3135.24
832.006	3112.24
832.61	3126.24
833.214	3160.24
833.818	3091.24
834.422	3173.24
835.026	3181.24
835.63	3130.24
836.233	3235.24
836.837	3185.24
837.441	3189.24
838.045	3174.24
838.648	3119.24
839.252	3143.24
839.856	3219.74
840.457	3106.24
841.061	3182.24
841.664	3142.24
842.268	3142.24
842.871	3183.24
843.474	3191.74
844.076	3149.74
844.679	3231.24
845.282	3202.74
845.886	3219.24
846.489	3185.24
847.09	3183.74
847.693	3154.24
848.296	3211.74
848.899	3123.24
849.5	3225.24
850.103	3274.74
850.706	3233.74
851.309	3245.24
851.909	3235.24
852.512	3177.24
853.115	3219.24
853.716	3167.24
854.318	3207.24
854.921	3218.24
855.521	3113.24
856.124	3199.24
856.727	3213.24
857.327	3204.24
857.929	3252.74
858.53	3250.24
859.132	3262.74
859.734	3238.24
860.335	3270.74
860.937	3279.74
861.537	3280.24
862.139	3267.24
862.739	3244.24
863.341	3248.24
863.941	3293.74
864.543	3266.24
865.143	3338.74
865.745	3368.24
866.345	3333.24
866.947	3287.24
867.546	3296.24
868.148	3414.24
868.748	3407.24
869.347	3343.24
869.949	3381.24
870.549	3369.24
871.15	3421.74
871.75	3357.74
872.349	3436.74
872.951	3437.24
873.55	3464.74
874.149	3517.74
874.751	3510.24
875.35	3383.24
875.949	3505.24
876.55	3446.24
877.149	3439.24
877.748	3546.74
878.347	3534.74
878.948	3579.24
879.547	3499.74
880.146	3666.24
880.745	3529.24
881.346	3573.74
881.945	3594.74
882.544	3654.24
883.142	3719.24
883.743	3567.24
884.342	3604.24
884.94	3649.24
885.539	3710.74
886.137	3710.74
886.736	3739.74
887.334	3711.74
887.935	3798.24
888.533	3759.74
889.132	3800.24
889.73	3818.24
890.328	3863.24
890.926	3829.24
891.525	3891.24
892.123	3886.24
892.721	3972.74
893.319	3970.24
893.917	4004.24
894.515	4013.24
895.113	4048.74
895.711	4160.24
896.309	4143.74
896.906	4097.24
897.504	4085.24
898.102	4156.74
898.7	4191.24
899.297	4199.74
899.895	4248.24
900.492	4370.24
901.09	4287.74
901.688	4383.24
902.283	4424.74
902.88	4349.24
903.478	4459.24
904.075	4462.24
904.672	4494.74
905.27	4508.74
905.867	4540.24
906.462	4530.24
907.059	4614.74
907.656	4628.24
908.254	4658.24
908.851	4699.74
909.446	4757.74
910.043	4828.74
910.639	4846.74
911.236	4907.24
911.831	4852.74
912.428	4917.24
913.025	5040.74
913.619	5058.24
914.216	5128.74
914.813	5039.24
915.407	5126.74
916.004	5097.24
916.6	5188.24
917.195	5208.24
917.791	5281.24
918.388	5242.24
918.982	5358.24
919.578	5403.24
920.173	5476.24
920.769	5499.74
921.365	5487.24
921.959	5649.74
922.556	5552.06
923.15	5537.6
923.746	5608.55
924.34	5597
924.936	5770.17
925.53	5798.23
926.126	5772.48
926.719	5719.04
927.315	5833.89
927.909	5817.5
928.505	5909.16
929.098	6031.2
929.694	6107.54
930.288	6120.64
930.881	6150.85
931.477	6112.57
932.07	6222.22
932.666	6245.87
933.259	6362.97
933.853	6397.1
934.448	6445.02
935.041	6442.21
935.635	6510.4
936.23	6553.48
936.823	6551.99
937.416	6498.59
938.011	6595.21
938.604	6571.08
939.197	6554.69
939.79	6655.04
940.385	6700.95
940.978	6733.81
941.571	6837.55
942.164	6735.52
942.759	6996.15
943.352	6981.07
943.944	7016.93
944.537	7135.46
945.13	7034.05
945.724	7104.61
946.317	7177.41
946.909	7115.69
947.502	7279.95
948.094	7217.87
948.687	7250.1
949.279	7329.02
949.873	7304.11
950.466	7355
951.058	7358.07
951.65	7427.59
952.242	7529.01
952.835	7577.25
953.427	7599.5
954.019	7726.89
954.611	7732.52
955.203	7723.22
955.795	7703.66
956.387	7773.24
956.978	7833.96
957.57	7807.08
958.162	7944.07
958.754	7945.56
959.346	7859.7
959.937	7892.89
960.529	7866.17
961.121	7924.72
961.712	8039.46
962.302	8092.06
962.893	8066.47
963.484	8140.79
964.076	8165.41
964.667	8160.88
965.259	8223.03
965.85	8287.08
966.439	8150.49
967.03	8361.79
967.622	8288.04
968.213	8295.18
968.804	8350.52
969.393	8364.91
969.984	8415.5
970.575	8385.93
971.166	8416.08
971.755	8404.19
972.346	8468.12
972.936	8536.36
973.527	8508.29
974.116	8509.42
974.707	8560.77
975.297	8588.3
975.886	8619.93
976.477	8619.85
977.067	8701.45
977.656	8726.89
978.246	8654.77
978.835	8649.87
979.425	8665.28
980.015	8726.95
980.604	8755.69
981.194	8770.02
981.782	8771.57
982.372	8860.86
982.961	8796.16
983.551	8857.03
984.141	8888.45
984.729	8867.01
985.319	8883.58
985.907	8986.22
986.497	8913.46
987.085	8990.06
987.673	8925.45
988.263	8892.72
988.85	8889.27
989.44	8992.42
990.028	9047.87
990.617	9057.33
991.205	9109.96
991.793	9073.14
992.382	9074.81
992.97	9029.43
993.559	9071.64
994.147	9117.3
994.734	9114.3
995.323	9102.87
995.911	9223.21
996.498	9161.14
997.087	9155.15
997.675	9155.05
998.262	9129.85
998.849	9184.82
999.438	9114.79
1000.03	9124.49
1000.61	9097.92
1001.2	9157.39
1001.79	9109.32
1002.37	9047.9
1002.96	9105.71
1003.55	9098.21
1004.14	9155.36
1004.72	9128.08
1005.31	9098.68
1005.9	9161.58
1006.48	9111
1007.07	9119.14
1007.66	9027.29
1008.25	9119.52
1008.83	9068.73
1009.42	9083.39
1010.01	8964.15
1010.59	8944.42
1011.18	9019.31
1011.76	8898.4
1012.35	8843.95
1012.94	8873.6
1013.52	8824.61
1014.11	8842.7
1014.7	8765.46
1015.28	8799.27
1015.87	8808.71
1016.45	8844.93
1017.04	8906.67
1017.63	8946.58
1018.21	8927.31
1018.8	8965.85
1019.38	8925.88
1019.97	8958.91
1020.55	8955.15
1021.14	8865.97
1021.73	8835.72
1022.31	8779.79
1022.89	8790.93
1023.48	8818.35
1024.07	8815.53
1024.65	8745.56
1025.24	8698.15
1025.82	8737.17
1026.41	8707.89
1026.99	8546.56
1027.58	8636.16
1028.16	8611.35
1028.74	8602.94
1029.33	8554.44
1029.91	8479.71
1030.5	8442.36
1031.08	8429.46
1031.67	8421.92
1032.25	8431.41
1032.84	8456.64
1033.42	8449.5
1034.01	8354.68
1034.59	8389.21
1035.17	8291.17
1035.76	8201.02
1036.34	8220.33
1036.93	8239.13
1037.51	8075.92
1038.09	8201.71
1038.68	8135.29
1039.26	8150.55
1039.84	8056.97
1040.43	8018.28
1041.01	8038.43
1041.6	8080.48
1042.18	7948.32
1042.76	7929.24
1043.34	7903.34
1043.93	7855.03
1044.51	7852.39
1045.09	7790.09
1045.68	7752.49
1046.26	7750.17
1046.84	7689.25
1047.43	7735.66
1048.01	7666.04
1048.59	7639.49
1049.17	7568.17
1049.76	7590.11
1050.34	7447.5
1050.92	7493.58
1051.51	7487.93
1052.09	7383.94
1052.67	7373.29
1053.25	7271.97
1053.83	7219.1
1054.42	7190.23
1055	7142.44
1055.58	7156.04
1056.16	7103.16
1056.74	7114.6
1057.33	7104.28
1057.91	7051.13
1058.49	6988.96
1059.07	6952.92
1059.65	6971.26
1060.24	6957.52
1060.82	6995.61
1061.4	6961.31
1061.98	6820.19
1062.56	6774.86
1063.14	6799.67
1063.72	6671.23
1064.3	6687.29
1064.89	6703.21
1065.47	6676.98
1066.05	6557.71
1066.63	6537.1
1067.21	6592.71
1067.79	6546.88
1068.37	6539.48
1068.95	6451.78
1069.53	6466.02
1070.11	6346.89
1070.69	6379.51
1071.27	6484.21
1071.86	6376.94
1072.44	6231.55
1073.02	6242.44
1073.6	6165.33
1074.18	6141.75
1074.76	6112.38
1075.34	6114.72
1075.92	6103.39
1076.5	6089.49
1077.08	6048.15
1077.66	5963.29
1078.24	5952.15
1078.82	5927.08
1079.4	5938.9
1079.98	5963.53
1080.55	5846.78
1081.13	5935.39
1081.71	5847.73
1082.29	5748.08
1082.87	5762.54
1083.45	5750.58
1084.03	5707.44
1084.61	5706.96
1085.19	5681.75
1085.77	5606.89
1086.35	5554.29
1086.93	5571.93
1087.51	5466.1
1088.09	5464.52
1088.67	5465.61
1089.24	5398.29
1089.82	5430.43
1090.4	5442.63
1090.98	5418.04
1091.56	5390.83
1092.14	5312.01
1092.71	5304.21
1093.29	5277.63
1093.87	5247.41
1094.45	5344.15
1095.03	5285.8
1095.61	5270.7
1096.18	5095.2
1096.76	5183.45
1097.34	5089.38
1097.92	5111.1
1098.49	5071.66
1099.04	5104.66
1099.63	4942.66
1100.22	5033.66
1100.8	5010.16
1101.39	4901.66
1101.97	4907.66
1102.56	4896.16
1103.15	4915.66
1103.73	4937.66
1104.31	4814.16
1104.9	4829.66
1105.49	4760.66
1106.07	4707.16
1106.66	4753.16
1107.24	4746.66
1107.83	4734.66
1108.41	4700.16
1109	4640.66
1109.58	4495.66
1110.17	4509.66
1110.75	4499.66
1111.33	4440.66
1111.92	4455.66
1112.5	4519.66
1113.09	4428.66
1113.67	4490.66
1114.26	4319.66
1114.84	4371.16
1115.43	4381.66
1116.01	4419.66
1116.59	4396.66
1117.18	4373.16
1117.76	4309.66
1118.35	4387.66
1118.93	4295.66
1119.51	4182.66
1120.1	4238.66
1120.68	4279.66
1121.27	4246.66
1121.85	4219.66
1122.43	4269.66
1123.02	4221.66
1123.6	4148.66
1124.18	4146.66
1124.77	4114.66
1125.35	4114.66
1125.93	4073.66
1126.52	4055.66
1127.1	4083.16
1127.68	3978.16
1128.26	3977.66
1128.85	3885.66
1129.43	3941.16
1130.01	4030.66
1130.6	3936.66
1131.18	3899.66
1131.76	3917.16
1132.34	3819.66
1132.93	3850.16
1133.51	3809.66
1134.09	3779.16
1134.67	3824.66
1135.26	3741.16
1135.84	3743.16
1136.42	3751.16
1137	3662.66
1137.59	3701.16
1138.17	3636.66
1138.75	3620.66
1139.33	3691.16
1139.91	3687.16
1140.49	3710.16
1141.08	3629.66
1141.66	3644.16
1142.24	3614.66
1142.82	3515.16
1143.4	3536.66
1143.99	3542.66
1144.57	3580.16
1145.15	3556.66
1145.73	3509.66
1146.31	3403.66
1146.89	3389.66
1147.47	3444.66
1148.05	3475.66
1148.64	3476.16
1149.22	3471.66
1149.8	3405.66
1150.38	3386.66
1150.96	3399.66
1151.54	3347.66
1152.12	3351.16
1152.7	3331.66
1153.28	3289.16
1153.86	3268.16
1154.44	3340.66
1155.02	3242.66
1155.6	3230.66
1156.18	3207.66
1156.76	3235.66
1157.34	3236.66
1157.92	3263.16
1158.5	3206.66
1159.08	3174.66
1159.66	3154.16
1160.24	3188.66
1160.82	3176.16
1161.4	3188.16
1161.98	3133.66
1162.56	3115.16
1163.14	3137.16
1163.72	3189.16
1164.3	3130.66
1164.88	3130.66
1165.46	3076.66
1166.04	3073.66
1166.62	3026.16
1167.2	3005.66
1167.78	3049.16
1168.36	2974.16
1168.94	2981.66
1169.52	2939.66
1170.09	2922.16
1170.67	2907.16
1171.25	2898.66
1171.83	2962.16
1172.41	2966.16
1172.99	3027.16
1173.57	3016.66
1174.15	2978.66
1174.72	2904.66
1175.3	2917.66
1175.88	2983.16
1176.46	2936.66
1177.04	2926.66
1177.62	2954.66
1178.19	2946.66
1178.77	2898.66
1179.35	2916.66
1179.93	2930.66
1180.51	2864.66
1181.08	2899.16
1181.66	2895.66
1182.24	2857.16
1182.82	2952.66
1183.4	2890.66
1183.97	2893.16
1184.55	2816.66
1185.13	2829.16
1185.7	2826.66
1186.28	2887.66
1186.86	2839.66
1187.44	2863.66
1188.02	2864.66
1188.59	2842.16
1189.17	2795.66
1189.75	2839.16
1190.32	2789.66
1190.9	2789.66
1191.48	2850.66
1192.05	2840.66
1192.63	2866.66
1193.21	2833.66
1193.78	2813.66
1194.36	2836.66
1194.94	2786.66
1195.51	2800.16
1196.09	2737.16
1196.67	2736.66
1197.24	2787.66
1197.82	2843.16
1198.4	2806.66
1198.97	2807.66
1199.55	2804.16
1200.12	2738.66
1200.7	2766.16
1201.28	2751.66
1201.85	2836.16
1202.43	2792.66
1203	2710.66
1203.58	2714.66
1204.16	2693.16
1204.73	2730.66
1205.31	2753.66
1205.88	2758.16
1206.46	2747.16
1207.03	2753.66
1207.61	2752.66
1208.18	2729.66
1208.76	2752.66
1209.33	2726.66
1209.91	2702.66
1210.48	2744.66
1211.06	2798.16
1211.63	2754.66
1212.21	2674.66
1212.78	2769.16
1213.36	2769.16
1213.93	2719.16
1214.51	2795.66
1215.08	2754.66
1215.66	2758.66
1216.23	2732.16
1216.8	2691.66
1217.38	2671.66
1217.95	2752.16
1218.53	2710.16
1219.1	2726.16
1219.68	2677.66
1220.25	2760.66
1220.83	2712.16
1221.4	2688.16
1221.97	2722.66
1222.55	2734.16
1223.12	2699.16
1223.69	2719.16
1224.27	2590.66
1224.84	2721.66
1225.41	2678.66
1225.99	2702.16
1226.56	2662.66
1227.13	2673.66
1227.71	2695.66
1228.28	2682.66
1228.85	2624.66
1229.43	2663.16
1230	2662.66
1230.57	2679.66
1231.15	2752.16
1231.72	2664.66
1232.29	2682.66
1232.87	2695.16
1233.44	2653.66
1234.01	2687.66
1234.58	2627.66
1235.16	2682.66
1235.73	2668.66
1236.3	2627.66
1236.87	2689.66
1237.45	2724.66
1238.02	2707.66
1238.59	2710.66
1239.16	2684.16
1239.74	2693.16
1240.31	2656.66
1240.88	2735.66
1241.45	2670.66
1242.03	2701.16
1242.6	2683.66
1243.17	2606.66
1243.74	2661.16
1244.31	2674.66
1244.88	2663.66
1245.46	2674.66
1246.03	2648.16
1246.6	2729.66
1247.17	2685.16
1247.74	2672.66
1248.31	2641.66
1248.88	2726.66
1249.45	2724.16
1250.03	2675.16
1250.6	2647.66
1251.17	2651.16
1251.74	2685.66
1252.31	2680.16
1252.88	2638.66
1253.45	2685.16
1254.02	2604.16
1254.59	2658.66
1255.17	2678.66
1255.74	2659.66
1256.31	2655.66
1256.88	2663.66
1257.45	2688.16
1258.02	2613.66
1258.59	2689.66
1259.16	2697.16
1259.73	2625.66
1260.3	2655.66
1260.87	2651.66
1261.44	2672.16
1262.01	2659.16
1262.58	2633.66
1263.15	2713.16
1263.72	2645.66
1264.29	2662.16
1264.86	2622.66
1265.43	2718.66
1266	2647.16
1266.57	2635.66
1267.14	2706.66
1267.71	2625.66
1268.28	2615.16
1268.85	2631.66
1269.41	2656.66
1269.98	2594.66
1270.55	2657.66
1271.12	2668.66
1271.69	2647.66
1272.26	2621.16
1272.83	2638.66
1273.4	2611.66
1273.97	2615.66
1274.54	2584.66
1275.1	2660.16
1275.67	2533.66
1276.24	2652.66
1276.81	2582.66
1277.38	2554.16
1277.95	2596.16
1278.52	2657.66
1279.09	2633.66
1279.65	2613.16
1280.22	2608.66
1280.79	2634.66
1281.36	2621.66
1281.93	2671.16
1282.49	2612.16
1283.06	2633.16
1283.63	2592.16
1284.2	2562.66
1284.77	2625.66
1285.33	2618.66
1285.9	2573.66
1286.47	2567.66
1287.04	2574.66
1287.6	2604.16
1288.17	2629.16
1288.74	2661.66
1289.31	2594.66
1289.87	2650.66
1290.44	2645.66
1291.01	2605.16
1291.58	2655.16
1292.14	2585.66
1292.71	2562.66
1293.28	2622.16
1293.84	2626.16
1294.41	2613.16
1294.98	2657.66
1295.54	2616.66
1296.11	2600.16
1296.68	2643.16
1297.25	2634.66
1297.81	2622.66
1298.38	2673.66
1298.94	2645.16
1299.51	2593.16
1300.08	2631.66
1300.64	2611.66
1301.21	2631.16
1301.78	2631.16
1302.34	2581.66
1302.91	2591.66
1303.47	2624.66
1304.04	2664.66
1304.61	2667.16
1305.17	2638.66
1305.74	2620.66
1306.3	2599.16
1306.87	2613.16
1307.43	2522.66
1308	2580.66
1308.57	2637.16
1309.13	2583.66
1309.7	2629.16
1310.26	2588.66
1310.83	2585.16
1311.39	2577.66
1311.96	2584.66
1312.52	2596.66
1313.09	2572.66
1313.65	2602.66
1314.22	2618.66
1314.78	2593.16
1315.35	2627.66
1315.91	2621.66
1316.48	2598.66
1317.04	2569.16
1317.61	2583.16
1318.17	2635.66
1318.74	2612.66
1319.3	2628.16
1319.86	2613.66
1320.43	2602.16
1320.99	2557.66
1321.56	2636.66
1322.12	2560.66
1322.68	2627.66
1323.25	2588.66
1323.81	2593.66
1324.38	2606.16
1324.94	2627.16
1325.51	2609.66
1326.07	2604.16
1326.63	2584.66
1327.2	2605.66
1327.76	2603.16
1328.32	2606.16
1328.89	2652.66
1329.45	2602.66
1330.01	2624.16
1330.58	2621.16
1331.14	2658.66
1331.7	2601.66
1332.27	2620.16
1332.83	2601.16
1333.39	2618.66
1333.96	2637.66
1334.52	2624.66
1335.08	2548.16
1335.65	2589.16
1336.21	2583.16
1336.77	2563.66
1337.33	2598.16
1337.9	2601.66
1338.46	2566.66
1339.02	2632.16
1339.58	2587.66
1340.15	2602.16
1340.71	2549.66
1341.27	2613.66
1341.83	2583.66
1342.4	2616.16
1342.96	2610.66
1343.52	2613.66
1344.08	2569.16
1344.64	2584.66
1345.21	2547.66
1345.77	2566.66
1346.33	2595.16
1346.89	2574.66
1347.45	2585.66
1348.01	2600.16
1348.58	2584.66
1349.14	2579.66
1349.7	2600.66
1350.26	2594.66
1350.82	2547.66
1351.38	2586.66
1351.95	2616.66
1352.51	2511.66
1353.07	2568.16
1353.63	2615.16
1354.19	2576.16
1354.75	2561.66
1355.31	2524.66
1355.87	2582.66
1356.43	2576.66
1357	2556.16
1357.56	2562.66
1358.12	2571.66
1358.68	2549.66
1359.24	2516.66
1359.8	2600.16
1360.36	2613.16
1360.92	2624.66
1361.48	2600.66
1362.04	2566.66
1362.6	2576.66
1363.16	2545.66
1363.72	2584.16
1364.28	2568.66
1364.84	2568.66
1365.4	2593.16
1365.96	2563.66
1366.52	2607.66
1367.08	2536.66
1367.64	2624.66
1368.2	2497.66
1368.76	2600.66
1369.32	2612.66
1369.88	2595.66
1370.44	2627.66
1371	2603.16
1371.56	2504.66
1372.11	2579.66
1372.67	2612.16
1373.23	2583.66
1373.79	2635.66
1374.35	2573.66
1374.91	2615.66
1375.47	2559.66
1376.03	2567.66
1376.59	2599.66
1377.15	2571.66
1377.7	2631.16
1378.26	2613.16
1378.82	2586.16
1379.38	2629.16
1379.94	2568.66
1380.5	2597.66
1381.06	2591.66
1381.61	2530.66
1382.17	2561.66
1382.73	2584.66
1383.29	2593.66
1383.85	2602.16
1384.41	2582.66
1384.96	2600.66
1385.52	2605.16
1386.08	2555.66
1386.64	2614.66
1387.2	2599.66
1387.75	2632.66
1388.31	2547.66
1388.87	2643.66
1389.43	2584.66
1389.98	2597.16
1390.54	2621.66
1391.1	2602.16
1391.66	2618.66
1392.22	2567.66
1392.77	2594.16
1393.33	2547.66
1393.89	2614.16
1394.44	2578.16
1395	2619.66
1395.56	2622.66
1396.12	2589.66
1396.67	2566.16
1397.23	2598.66
1397.79	2561.16
1398.34	2546.16
1398.9	2568.66
1399.46	2544.66
1400.01	2514.66
1400.57	2606.66
1401.12	2584.16
1401.68	2585.66
1402.24	2600.66
1402.79	2580.66
1403.35	2585.66
1403.91	2530.16
1404.46	2516.66
1405.02	2578.66
1405.57	2592.66
1406.13	2540.66
1406.69	2629.66
1407.24	2560.66
1407.8	2570.16
1408.36	2580.16
1408.91	2565.66
1409.47	2584.16
1410.02	2528.16
1410.58	2550.66
1411.13	2521.66
1411.69	2631.66
1412.24	2593.66
1412.8	2570.66
1413.35	2540.66
1413.91	2613.16
1414.46	2559.66
1415.02	2566.66
1415.57	2542.66
1416.13	2556.66
1416.68	2573.16
1417.24	2566.66
1417.8	2603.16
1418.35	2537.66
1418.91	2611.66
1419.46	2544.66
1420.01	2556.66
1420.57	2555.66
1421.12	2628.66
1421.68	2580.66
1422.23	2625.66
1422.79	2554.66
1423.34	2554.66
1423.89	2507.66
1424.45	2542.66
1425	2482.16
1425.56	2579.66
1426.11	2520.66
1426.67	2541.66
1427.22	2541.16
1427.77	2497.16
1428.33	2560.66
1428.88	2558.16
1429.43	2569.16
1429.99	2536.66
1430.54	2539.16
1431.09	2564.66
1431.65	2576.66
1432.2	2514.16
1432.76	2542.66
1433.31	2513.66
1433.86	2542.66
1434.42	2574.66
1434.97	2565.66
1435.52	2530.66
1436.07	2510.66
1436.63	2613.66
1437.18	2551.66
1437.73	2456.66
1438.29	2549.66
1438.84	2535.16
1439.39	2564.66
1439.95	2562.16
1440.5	2596.66
1441.05	2559.66
1441.6	2546.66
1442.15	2522.66
1442.71	2571.16
1443.26	2525.66
1443.81	2521.66
1444.36	2542.66
1444.92	2525.66
1445.47	2512.66
1446.02	2568.66
1446.57	2549.66
1447.13	2476.66
1447.68	2517.66
1448.23	2604.66
1448.78	2537.16
1449.33	2541.66
1449.88	2543.66
1450.44	2553.16
1450.99	2540.66
1451.54	2492.66
1452.09	2531.66
1452.64	2559.16
1453.19	2506.66
1453.74	2484.16
1454.3	2510.66
1454.85	2520.66
1455.4	2508.66
1455.95	2541.66
1456.5	2480.66
1457.05	2514.66
1457.6	2528.66
1458.15	2529.66
1458.7	2540.16
1459.25	2562.66
1459.8	2546.16
1460.36	2529.16
1460.91	2582.66
1461.46	2496.16
1462.01	2507.16
1462.56	2564.66
1463.11	2519.16
1463.66	2522.16
1464.21	2477.16
1464.76	2490.16
1465.31	2557.16
1465.86	2516.66
1466.41	2493.66
1466.96	2514.66
1467.51	2526.66
1468.06	2542.66
1468.61	2552.66
1469.16	2531.16
1469.71	2527.66
1470.26	2490.66
1470.81	2558.16
1471.36	2521.16
1471.91	2533.16
1472.46	2569.16
1473.01	2499.66
1473.56	2558.16
1474.11	2515.66
1474.66	2484.66
1475.2	2460.66
1475.75	2519.66
1476.3	2468.66
1476.85	2531.66
1477.4	2491.66
1477.95	2508.66
1478.5	2553.16
1479.05	2567.16
1479.6	2523.16
1480.15	2493.16
1480.7	2520.16
1481.24	2490.66
1481.79	2463.66
1482.34	2517.66
1482.89	2537.16
1483.44	2528.66
1483.99	2505.66
1484.53	2488.66
1485.08	2444.66
1485.63	2501.66
1486.18	2542.16
1486.73	2573.16
1487.27	2552.66
1487.82	2527.66
1488.37	2581.66
1488.92	2488.66
1489.47	2510.16
1490.01	2479.66
1490.56	2444.66
1491.11	2499.66
1491.66	2501.16
1492.21	2534.16
1492.75	2528.66
1493.3	2492.66
1493.85	2455.66
1494.39	2456.66
1494.94	2504.66
1495.49	2530.16
1496.04	2491.16
1496.58	2535.66
1497.13	2508.66
1497.68	2496.66
1498.22	2456.16
1498.77	2458.66
1499.32	2496.16
1499.87	2483.16
