19.3994	7682.62
20.0758	7748.12
20.7522	8018.62
21.4285	8519.62
22.1048	8895.62
22.7811	8938.62
23.4573	9146.62
24.1334	9568.62
24.8095	9533.12
25.4855	9695.62
26.1615	10140.6
26.8375	10013.6
27.5134	10473.6
28.1893	10462.6
28.8651	10579.6
29.5408	10783.6
30.2166	11090.1
30.8922	11358.6
31.5679	11460.1
32.2434	11566.6
32.919	11920.1
33.5945	12191.6
34.2699	12334.1
34.9453	12524.6
35.6206	12769.6
36.2959	13000.6
36.9712	13184.1
37.6464	13082.6
38.3192	13074.6
38.9943	13390.1
39.6694	13582.6
40.3444	13888.6
41.0194	13992.1
41.6943	14124.6
42.3692	14246.6
43.0417	14302.1
43.7165	14313.1
44.3912	14482.6
45.0659	14755.1
45.7405	14870.6
46.4128	14654.6
47.0874	14750.6
47.7619	14997.1
48.4363	15147.1
49.1084	15108.6
49.7828	15281.1
50.4571	15285.6
51.1314	15204.6
51.8033	15272.6
52.4775	15165.1
53.1516	15204.1
53.8234	15412.1
54.4974	15408.6
55.1714	15408.6
55.843	15648.6
56.5169	15829.1
57.1908	15707.1
57.8623	15827.6
58.536	15875.6
59.2074	15966.6
59.8811	15885.6
60.5547	15959.6
61.2259	15951.1
61.8995	15840
62.5706	15863.4
63.2441	15889.6
63.9174	15904.1
64.5885	16242.1
65.2618	16170.6
65.9327	15822.1
66.6059	15935.6
67.2767	15885.1
67.9498	15899.6
68.6206	16150.6
69.2936	15903.6
69.9643	15512.1
70.6372	15653.6
71.3077	15558.1
71.9783	15823.1
72.651	15965.7
73.3215	15991.4
73.9941	16070.6
74.6645	16044.7
75.3371	15917.8
76.0073	15814.3
76.6775	16361.1
77.3499	16093.6
78.02	15994.6
78.6901	15758.6
79.3624	15767.6
80.0324	16075.1
80.7023	15551.1
81.3745	15585.1
82.0443	15602.6
82.7141	15421.6
83.3861	15940.6
84.0558	15278.6
84.7254	15401.6
85.3973	15024.6
86.0668	14961.6
86.7364	15210.6
87.4058	15519.6
88.0775	15549.1
88.7469	15469.6
89.4162	15223.1
90.0855	15243.6
90.7547	15134.6
91.4261	15539.6
92.0953	15242.6
92.7644	15382.1
93.4334	15296.1
94.1024	15156.1
94.7713	15075.6
95.4425	14981.6
96.1114	15354.6
96.7802	15131.6
97.449	15090.6
98.1177	15100.6
98.7863	14887.1
99.455	14881.6
100.124	15048.6
100.792	14887.6
101.461	14769.6
102.131	15117.1
102.8	14659.1
103.468	14651.6
104.136	14793.6
104.805	14804.1
105.473	14465.1
106.141	14670.6
106.809	14700.6
107.477	14410.6
108.145	14414.6
108.813	14137.6
109.481	14317.6
110.147	14248.1
110.814	14313.1
111.482	14320.6
112.15	14551.6
112.818	14554.6
113.485	14375.6
114.153	14376.6
114.821	14308.1
115.488	14218.6
116.156	13984.1
116.821	13930.6
117.488	13871.6
118.155	13577.6
118.823	13445.6
119.49	13616.6
120.157	13591.1
120.822	13458.6
121.489	13404.6
122.156	13013.6
122.823	13368.6
123.49	13459.1
124.155	13568.6
124.822	13694.6
125.488	13412.6
126.155	13362.6
126.82	13379.6
127.486	13134.6
128.153	13407.6
128.817	13227.6
129.484	13462.6
130.15	13188.1
130.817	12992.6
131.481	13171.1
132.147	13085.6
132.811	13146.1
133.478	13000.6
134.144	13107.1
134.808	13122.6
135.474	12665.6
136.14	12681.1
136.804	12788.1
137.47	12402.6
138.133	12572.6
138.799	12472.6
139.463	12607.1
140.129	12452.6
140.795	12137.6
141.458	12506.6
142.124	12433.1
142.787	12340.6
143.453	12543.6
144.116	12364.1
144.781	12324.1
145.445	12048.6
146.11	12101.6
146.773	12071.1
147.436	12250.1
148.101	12198.1
148.764	11967.6
149.429	11875.6
150.092	11850.1
150.757	11881.6
151.42	11856.1
152.083	11800.6
152.748	11850.6
153.41	12064.1
154.075	11790.1
154.738	11779.6
155.4	11613.6
156.065	11641.1
156.727	11547.6
157.39	11668.1
158.054	11683.1
158.717	11547.1
159.379	11385.1
160.041	11368.6
160.705	11458.6
161.367	11368.6
162.03	11253.1
162.692	11339.1
163.356	11314.6
164.018	11120.6
164.679	11207.6
165.341	10970.6
166.005	11202.6
166.667	11139.1
167.329	11057.6
167.99	11019.6
168.652	11135.6
169.313	10893.6
169.977	11125.6
170.639	11102.6
171.3	11147.6
171.961	11172.1
172.623	11102.6
173.284	11162.1
173.945	10973.6
174.606	11006.1
175.267	11051.1
175.931	10929.6
176.592	10984.1
177.253	10841.6
177.914	10880.1
178.575	10642.6
179.236	10727.6
179.896	10981.1
180.557	11008.6
181.218	11055.6
181.879	10800.6
182.539	11004.6
183.2	10867.1
183.86	10626.6
184.521	10625.6
185.181	10808.6
185.839	10487.6
186.5	10425.6
187.16	10483.6
187.82	10623.1
188.48	10529.6
189.141	10706.6
189.801	10819.6
190.461	10860.6
191.121	10723.6
191.779	10821.6
192.439	10682.6
193.098	10694.6
193.758	10807.6
194.418	10741.6
195.078	10865.1
195.735	10810.6
196.395	10739.1
197.055	10678.6
197.714	10665.6
198.374	10797.1
199.031	10774.6
199.691	10631.6
200.35	10801.6
201.009	10690.6
201.666	10515.6
202.326	10549.6
202.985	10634.6
203.642	10610.6
204.301	10669.6
204.96	10670.1
205.617	10737.6
206.276	10712.6
206.935	10635.1
207.591	10705.6
208.25	10740.1
208.909	10858.6
209.566	10746.6
210.224	10859.1
210.881	10842.1
211.539	10693.6
212.196	10846.1
212.854	10861.1
213.513	10887.6
214.169	10857.1
214.827	10976.1
215.483	10814.1
216.142	10574.6
216.798	10892.1
217.456	10784.6
218.112	10939.1
218.77	10707.6
219.426	10750.1
220.084	10728.6
220.74	10823.6
221.398	10774.6
222.053	10887.6
222.709	10921.1
223.367	10932.1
224.022	11083.1
224.68	11043.6
225.336	10810.6
225.991	10849.1
226.649	10844.6
227.304	10727.1
227.961	10851.6
228.617	10796.1
229.272	10832.1
229.929	10835.6
230.584	10848.6
231.239	10946.6
231.897	10991.1
232.551	11199.6
233.206	11202.6
233.861	11184.6
234.518	11349.1
235.173	11243.1
235.828	11373.6
236.482	11553.1
237.139	11323.6
237.794	11410.6
238.449	11360.1
239.103	11319.1
239.757	11393.1
240.414	11405.6
241.069	11615.1
241.723	11495.1
242.377	11556.6
243.031	11466.6
243.686	11391.6
244.342	11464.1
244.996	11521.6
245.65	11540.6
246.304	11594.1
246.958	11737.1
247.612	11561.6
248.266	11697.1
248.92	11611.1
249.573	11756.6
250.227	12012.6
250.881	11944.6
251.535	11927.1
252.188	11743.6
252.842	11712.6
253.495	11866.6
254.149	11949.1
254.802	12025.1
255.456	12027.1
256.109	11960.6
256.762	11967.1
257.415	11998.6
258.069	12033.6
258.722	12005.1
259.375	12086.6
260.028	12206.1
260.681	12175.6
261.334	12286.1
261.987	12124.6
262.64	12264.1
263.29	12154.6
263.943	12297.6
264.596	12371.6
265.249	12502.1
265.901	12449.1
266.554	12167.6
267.204	12211.1
267.857	12423.6
268.509	12287.6
269.162	12454.1
269.814	12511.1
270.464	12383.6
271.117	12186.6
271.769	12419.6
272.421	12292.6
273.071	12655.1
273.723	12652.1
274.375	12781.6
275.025	12635.6
275.677	12686.6
276.329	12622.1
276.979	12679.1
277.631	12617.1
278.283	12782.6
278.932	13052.1
279.584	13065.1
280.236	12965.6
280.885	13076.6
281.537	12912.6
282.188	13000.6
282.838	13062.6
283.489	13158.6
284.138	13313.1
284.79	13052.6
285.439	13021.1
286.09	13016.6
286.739	13115.6
287.39	13302.6
288.041	13272.1
288.69	13381.1
289.341	13393.1
289.99	13353.6
290.639	13294.1
291.29	13176.1
291.939	13412.6
292.589	13474.1
293.238	13282.6
293.889	13349.6
294.537	13384
295.188	13414.5
295.836	13441.8
296.485	13462.5
297.135	13487
297.784	13370.6
298.434	13614.6
299.082	13495.6
299.73	13654.6
300.381	13722.1
301.029	13842.6
301.677	13885.1
302.327	13768.6
302.975	13844.6
303.623	13895.1
304.271	13849.6
304.921	13794.1
305.568	13822.6
306.216	14047.6
306.866	13991.6
307.513	14093.6
308.161	14010.1
308.809	13903.1
309.456	13956.1
310.106	14034.6
310.753	14024.1
311.4	13960.1
312.048	14134.6
312.695	14096.6
313.344	13925.6
313.992	13853.1
314.639	13990.6
315.286	14308.1
315.933	14180.1
316.58	14282.6
317.227	14214.6
317.874	14221.6
318.521	14119.1
319.17	14341.1
319.816	14423.1
320.463	14553.1
321.11	14553.6
321.757	14504.6
322.403	14476.6
323.05	14278.1
323.696	14474.6
324.343	14396.6
324.989	14577.6
325.636	14758.1
326.282	14463.6
326.928	14549.1
327.574	14542.6
328.221	14525.6
328.867	14643.6
329.511	14809.6
330.157	14863.6
330.803	14591.6
331.449	14641.1
332.095	14577.1
332.741	14526.6
333.387	14537.1
334.032	14806.6
334.678	14883.6
335.322	15147.1
335.967	15171.1
336.613	14861.1
337.259	14890.6
337.904	14758.6
338.547	14999.6
339.193	15141.6
339.838	15198.1
340.484	15271.1
341.129	15134.1
341.772	15169.6
342.417	15112.6
343.062	15269.6
343.705	15165.1
344.351	15403.1
344.996	15316.6
345.641	15524.1
346.283	15312.1
346.928	15083.6
347.573	15473.6
348.216	15560.6
348.861	15497.6
349.505	15585.6
350.148	15584.6
350.793	15550.1
351.435	15539.1
352.08	15462.6
352.724	15772.6
353.367	15850.6
354.011	15818.6
354.653	15768.1
355.298	15691.6
355.94	15754.1
356.584	15591.1
357.226	15693.1
357.87	15947.6
358.512	16021.6
359.156	16020.6
359.798	16073.6
360.442	15811.6
361.084	15898.6
361.728	15958.6
362.37	16250.1
363.013	16140.1
363.655	16257.6
364.299	16216.1
364.94	16136.6
365.582	16037.1
366.225	16047.6
366.867	16245.1
367.51	16631.1
368.152	16500.6
368.793	16352.6
369.436	16486.6
370.078	16494.1
370.719	16344.6
371.362	16342.6
372.003	16647.6
372.644	16641.6
373.287	16772.1
373.928	16590.6
374.569	16673.1
375.21	16496.6
375.853	16686.6
376.493	16755.6
377.134	16880.1
377.775	17137.6
378.418	16796.6
379.058	16890.1
379.699	16652.6
380.339	16832.6
380.98	16974.6
381.62	17041.6
382.263	17129.6
382.903	17082.6
383.543	16974.6
384.183	16972.6
384.823	16965.6
385.464	17174.6
386.104	17308.6
386.744	17369.6
387.386	17480.6
388.026	17474.6
388.666	17586.6
389.306	17231.6
389.945	17456.1
390.585	17705.6
391.225	17660.1
391.865	17619.6
392.504	17610.1
393.144	17596.1
393.784	17712.6
394.423	17638.6
395.063	17964.6
395.702	17882.1
396.341	17964.6
396.981	17795.6
397.62	17869.6
398.259	17768.6
398.896	17901.6
399.536	18182.6
400.175	18006.6
400.814	18285.1
401.453	18101.6
402.092	18210.6
402.731	17987.6
403.37	18221.6
404.006	18026.6
404.645	18378.1
405.284	18532.6
405.923	18556.1
406.562	18469.6
407.2	18440.6
407.837	18183.1
408.475	18367.6
409.114	18709.1
409.752	18848.6
410.388	18796.1
411.027	18792.6
411.665	18852.6
412.301	18737.6
412.94	18942.6
413.578	18831.1
414.216	19082.6
414.852	19348.6
415.49	19206.6
416.128	18953.6
416.764	18960.6
417.402	19002.6
418.04	19027.6
418.676	19334.6
419.314	19455.1
419.949	19492.1
420.587	19369.6
421.225	19382.6
421.86	19450.6
422.498	19441.6
423.133	19420.1
423.771	19448.1
424.406	19512.6
425.043	19455.6
425.679	19489.6
426.316	19707.6
426.951	19571.6
427.589	20021.6
428.224	20117.1
428.861	20157.1
429.496	20392.6
430.133	20084.1
430.768	20281.6
431.405	20346.1
432.04	20333.1
432.674	20499.6
433.311	20632.6
433.946	20616.6
434.583	20898.6
435.217	20487.6
435.852	20774.6
436.489	20672.6
437.123	20809.6
437.758	21224.6
438.394	21016.6
439.028	21148.6
439.663	20885.1
440.299	20877.6
440.933	21024.6
441.568	21185.6
442.202	21408.6
442.838	21586.6
443.472	21403.6
444.106	21471.6
444.74	21423.6
445.376	21193.1
446.01	21545.1
446.644	21701.6
447.277	21904.6
447.911	21614.6
448.547	21683.6
449.181	21428.1
449.814	21689.1
450.448	21757.1
451.081	21808.6
451.715	22108.1
452.348	22039.6
452.984	21753.6
453.617	21882.6
454.251	21985.6
454.884	21884.6
455.517	22139.6
456.15	22147.6
456.784	22289.1
457.417	22249.1
458.05	22058.1
458.683	22010.6
459.316	22203.1
459.949	22347.6
460.582	22261.1
461.214	22289.1
461.847	22347.6
462.48	22212.6
463.113	22268.1
463.745	22191.6
464.378	22289.6
465.011	22306.6
465.643	22443.1
466.276	22592.6
466.906	22354.6
467.538	22345.6
468.171	22113.6
468.803	22364.7
469.435	22407.6
470.068	22205.6
470.7	22410.6
471.33	22497.6
471.962	22558.6
472.594	22291.6
473.226	22338.1
473.858	22542.6
474.488	22535.6
475.12	22437.6
475.752	22675.1
476.384	22451.1
477.013	22381.1
477.645	22435.6
478.277	22206.6
478.908	22345.1
479.538	22802.6
480.169	22603.1
480.801	22694.6
481.43	22566.1
482.062	22376.6
482.693	22428.1
483.322	22335.6
483.954	22623.1
484.585	22738.6
485.214	22653.6
485.845	22395.6
486.474	22305.6
487.105	22327.1
487.736	22038.1
488.365	22120.6
488.996	22175.6
489.625	22379.1
490.256	22220.6
490.885	22003.6
491.515	21671.6
492.144	21602.6
492.775	21493.6
493.403	21603.1
494.034	21731.1
494.662	21614.6
495.293	21241.1
495.921	20924.6
496.552	20762.1
497.18	20580.1
497.81	20698.6
498.439	20654.1
499.067	20467.1
499.697	20095.1
500.325	19902.6
500.955	19595.6
501.583	19571.6
502.211	19309.1
502.841	18896.1
503.469	18690.1
504.097	18516.6
504.727	18451.1
505.355	18127.6
505.982	17835.1
506.61	17852.6
507.24	17781.6
507.867	17511.1
508.495	17159.6
509.124	16989.1
509.752	16758.6
510.379	16436.6
511.007	16148.1
511.634	16245.6
512.263	15829.6
512.891	15954.1
513.518	15519.1
514.145	15394.6
514.772	14915.6
515.399	14372.6
516.028	14463.1
516.655	14339.6
517.282	14217.6
517.909	13738.6
518.536	13757.6
519.163	13369.6
519.789	13222.6
520.416	13112.1
521.043	12995.6
521.669	12728.6
522.298	12920.6
522.925	12589.6
523.551	12302.1
524.178	12130.6
524.804	11714.6
525.431	11667.6
526.057	11445.6
526.683	11586.6
527.31	11313.6
527.934	11081.6
528.56	10990.6
529.186	10802.6
529.812	10893.6
530.438	10308.6
531.064	10605.6
531.69	10613.1
532.316	10258.6
532.942	10075.6
533.568	10200.1
534.194	9881.62
534.817	10020.1
535.443	9687.62
536.069	9765.62
536.694	9741.62
537.32	9383.62
537.943	9476.62
538.569	9261.62
539.194	9298.62
539.82	8851.62
540.445	8926.62
541.068	9225.12
541.694	9260.62
542.319	9072.62
542.944	9062.12
543.567	8847.12
544.192	8897.62
544.817	9007.12
545.44	8800.01
546.065	8809.23
546.69	8741.36
547.313	8582.37
547.938	8471.3
548.563	8517.08
549.185	8510.1
549.81	8503.13
550.433	8617.44
551.057	8540.29
551.682	8367.14
552.305	8503.28
552.929	8368.58
553.551	8377.56
554.176	8448.68
554.798	8509.47
555.423	8523.34
556.047	8443.87
556.669	8467.78
557.293	8166.3
557.915	8431.63
558.537	8371.92
559.162	8299.24
559.784	8400.53
560.408	8452.7
561.03	8613.5
561.654	8508.67
562.275	8622.54
562.899	8613.6
563.521	8650.18
564.143	8742.97
564.766	8762.11
565.388	8736.22
566.009	8118.03
566.633	8604.79
567.255	8750.82
567.878	8687.94
568.5	8418.84
569.121	8858.91
569.742	8721.37
570.366	8820.51
570.987	8555.61
571.608	8529.28
572.231	8862.96
572.852	8804.37
573.473	8931.21
574.094	8888.65
574.717	8872.34
575.338	8544.64
575.959	8552.97
576.58	8546.65
577.201	8722.9
577.822	8708.81
578.445	8566.59
579.065	8233.02
579.686	8416.46
580.306	8364.22
580.927	8267.02
581.548	8282.91
582.168	8492.49
582.791	8199.4
583.411	8391.17
584.031	8444.92
584.652	8185.56
585.272	8296.41
585.892	8109.12
586.512	8160.83
587.132	8122.47
587.753	8220.86
588.373	8140.96
588.993	8132.89
589.613	7992.4
590.233	7929.26
590.852	7855.13
591.472	7755.82
592.092	7807.94
592.712	7793.76
593.332	7725.7
593.951	7575.32
594.569	7589.04
595.188	7503.51
595.808	7399.34
596.427	7414.08
597.047	7272.23
597.666	7283.3
598.286	7124.84
598.905	7125.54
599.522	7005.89
600.142	6995.75
600.761	6889.31
601.38	6846.4
601.999	6869.65
602.616	6709.75
603.235	6687.6
603.854	6628.46
604.473	6522.47
605.09	6470.2
605.709	6468.78
606.328	6360.49
606.947	6326.56
607.563	6239.72
608.182	6142.47
608.801	6035.75
609.417	6007.63
610.036	5994.49
610.655	5888.97
611.271	5876.99
611.89	5799.66
612.508	5655.07
613.124	5704.72
613.743	5654.54
614.359	5570.98
614.977	5519.69
615.595	5562.5
616.212	5443.97
616.83	5465.47
617.446	5345.42
618.064	5370.64
618.68	5313.79
619.298	5221.85
619.914	5133.45
620.532	5151.42
621.147	5026.5
621.765	5034.78
622.381	4953.68
622.999	4926.96
623.614	4936.93
624.23	4874.87
624.847	4838.99
625.463	4792.38
626.08	4833.67
626.696	4728.68
627.311	4643.59
627.929	4656.67
628.544	4649.08
629.161	4548.2
629.776	4534.47
630.392	4499.09
631.009	4504
631.624	4422.13
632.239	4336.07
632.854	4378.99
633.471	4354.08
634.086	4399.29
634.701	4291.19
635.318	4312.04
635.932	4317.63
636.547	4268.13
637.162	4241.51
637.777	4140.7
638.393	4128.81
639.008	3999.85
639.622	4032.08
640.237	4016.56
640.851	4070.48
641.468	4031.39
642.082	3982
642.697	3932.25
643.311	3863.06
643.925	3939.09
644.539	3884.15
645.154	4004.74
645.768	3779.65
646.382	3832.27
646.996	3884.53
647.612	3821.67
648.226	3779.57
648.84	3849.46
649.454	3774
650.068	3830.37
650.682	3698.2
651.295	3771.41
651.909	3716.94
652.523	3704.86
653.136	3712.88
653.75	3680.62
654.361	3747.64
654.975	3696.66
655.589	3657.29
656.202	3608.64
656.815	3564.18
657.429	3635.48
658.042	3574.1
658.655	3642.8
659.269	3585.46
659.882	3534.49
660.493	3516.53
661.106	3522.64
661.719	3516.55
662.332	3529.3
662.945	3502.49
663.556	3472.31
664.169	3456.78
664.782	3471.91
665.395	3545.24
666.007	3478.66
666.618	3436.97
667.231	3470.87
667.843	3467.22
668.454	3413.22
669.067	3455.53
669.679	3334.8
670.292	3371.47
670.902	3393.42
671.514	3268.25
672.125	3378.13
672.423	3433.63
673.044	3384.63
673.665	3342.63
674.286	3387.63
674.907	3337.63
675.528	3368.13
676.148	3267.63
676.769	3339.63
677.388	3361.13
678.008	3373.63
678.629	3335.63
679.249	3435.13
679.87	3335.63
680.49	3304.13
681.111	3361.13
681.731	3302.63
682.349	3296.63
682.97	3351.63
683.59	3264.63
684.21	3199.63
684.83	3167.63
685.448	3224.63
686.068	3216.63
686.688	3228.63
687.308	3264.13
687.926	3300.63
688.546	3257.13
689.166	3288.13
689.786	3325.63
690.404	3316.63
691.023	3225.13
691.643	3251.13
692.26	3257.63
692.88	3270.63
693.5	3186.13
694.117	3219.13
694.737	3201.63
695.356	3200.13
695.973	3220.63
696.593	3263.13
697.21	3241.63
697.829	3220.63
698.449	3192.63
699.066	3219.63
699.685	3252.63
700.302	3173.63
700.921	3197.63
701.538	3174.63
702.157	3180.13
702.774	3173.13
703.393	3135.63
704.009	3228.13
704.628	3043.13
705.245	3105.63
705.864	3192.63
706.48	3241.13
707.099	3189.63
707.716	3156.63
708.334	3218.13
708.951	3205.13
709.569	3215.63
710.185	3105.63
710.802	3254.63
711.42	3148.13
712.036	3093.63
712.653	3219.63
713.271	3143.63
713.887	3216.13
714.505	3207.63
715.121	3141.63
715.737	3226.63
716.355	3179.13
716.971	3128.13
717.587	3198.63
718.203	3187.13
718.821	3131.63
719.437	3137.63
720.052	3154.63
720.67	3119.13
721.286	3181.13
721.901	3194.63
722.517	3042.63
723.132	3144.63
723.75	3183.13
724.365	3169.13
724.981	3054.63
725.596	3103.63
726.211	3112.63
726.829	3152.63
727.444	3172.63
728.059	3161.63
728.674	3200.63
729.289	3141.63
729.904	3159.63
730.519	3119.13
731.134	3090.63
731.751	3087.63
732.366	3209.13
732.981	3134.13
733.596	3159.63
734.211	3159.63
734.826	3021.63
735.44	3136.13
736.055	3143.63
736.669	3141.63
737.284	3137.13
737.899	3120.63
738.513	3210.63
739.128	3156.63
739.742	3112.13
740.356	3097.63
740.971	3077.63
741.585	3033.63
742.199	3030.63
742.813	3092.63
743.427	3036.13
744.039	3051.63
744.654	2997.63
745.268	3029.13
745.882	2951.63
746.496	3041.63
747.109	3127.13
747.723	3125.13
748.337	3151.13
748.949	3123.63
749.563	3228.63
750.176	3161.63
750.79	3132.63
751.404	3115.63
752.015	3187.13
752.629	3179.13
753.242	3221.13
753.856	3254.63
754.467	3119.63
755.08	3134.13
755.694	3154.63
756.307	3238.13
756.918	3160.63
757.531	3132.63
758.145	3240.63
758.756	3228.63
759.369	3155.63
759.982	3191.63
760.593	3118.13
761.206	3194.63
761.819	3256.63
762.43	3284.63
763.042	3109.63
763.655	3074.63
764.266	3206.13
764.879	3239.13
765.489	3247.13
766.102	3247.13
766.713	3260.63
767.325	3262.63
767.938	3108.63
768.548	3201.63
769.161	3132.63
769.771	3171.63
770.383	3304.13
770.993	3319.13
771.606	3238.63
772.216	3309.63
772.828	3299.63
773.438	3220.63
774.048	3327.13
774.66	3320.63
775.27	3376.13
775.882	3311.63
776.492	3300.13
777.104	3253.63
777.714	3256.63
778.324	3245.63
778.936	3299.13
779.545	3366.63
780.155	3285.63
780.767	3251.63
781.376	3393.63
781.986	3283.13
782.597	3276.63
783.207	3220.63
783.816	3292.13
784.427	3343.63
785.037	3349.63
785.646	3348.63
786.257	3270.13
786.867	3311.13
787.476	3350.63
788.085	3318.63
788.694	3284.63
789.305	3373.63
789.914	3339.63
790.523	3325.13
791.132	3335.63
791.741	3317.13
792.352	3216.63
792.961	3268.63
793.569	3205.63
794.178	3331.13
794.787	3343.63
795.395	3343.13
796.004	3280.13
796.615	3252.63
797.223	3188.63
797.832	3239.63
798.44	3233.13
799.048	3286.63
799.657	3310.13
800.265	3154.13
800.873	3215.13
801.482	3161.63
802.09	3172.63
802.698	3215.63
803.306	3164.63
803.914	3072.63
804.522	3026.63
805.13	2996.63
805.738	2998.63
806.346	2931.13
806.954	2954.63
807.562	2944.63
808.17	3003.13
808.777	3018.63
809.385	2973.63
809.993	3028.63
810.598	2863.13
811.206	2948.13
811.813	2926.13
812.421	2907.63
813.028	2893.63
813.636	2940.63
814.243	2838.63
814.849	2824.63
815.456	2795.63
816.063	2794.13
816.67	2827.13
817.278	2785.63
817.883	2733.63
818.49	2697.63
819.097	2673.63
819.704	2596.63
820.309	2624.13
820.916	2492.63
821.523	2491.63
822.13	2509.63
822.734	2486.63
823.341	2513.63
823.948	2408.13
824.553	2468.13
825.159	2346.63
825.766	2350.13
826.37	2313.63
826.977	2277.63
827.583	2227.63
828.188	2247.63
828.794	2206.63
829.399	2175.63
830.005	2119.63
830.609	2172.63
831.216	2172.63
831.822	2083.13
832.426	2030.63
833.032	2037.13
833.636	2017.63
834.242	1971.63
834.846	1978.13
835.452	1926.63
836.056	1899.63
836.662	1944.63
837.266	1848.63
837.872	1862.13
838.475	1835.63
839.081	1778.63
839.685	1773.63
840.288	1761.13
840.894	1762.63
841.497	1712.13
842.103	1768.13
842.707	1683.13
843.31	1654.13
843.915	1637.63
844.519	1618.63
845.124	1628.13
845.727	1682.13
846.331	1607.63
846.936	1642.13
847.539	1591.63
848.142	1523.63
848.745	1529.63
849.35	1570.63
849.953	1536.13
850.556	1471.63
851.161	1494.63
851.764	1516.63
852.367	1538.13
852.97	1535.63
853.572	1515.63
854.177	1485.63
854.78	1461.63
855.382	1542.63
855.985	1483.63
856.587	1417.13
857.192	1471.63
857.794	1458.63
858.397	1433.13
858.999	1433.63
859.602	1454.13
860.204	1428.63
860.806	1451.63
861.408	1436.63
862.013	1469.63
862.615	1436.13
863.217	1461.63
863.819	1414.63
864.421	1440.13
865.023	1475.63
865.625	1495.13
866.227	1423.63
866.829	1415.63
867.431	1408.63
868.032	1488.13
868.634	1441.63
869.236	1440.63
869.838	1498.63
870.439	1495.13
871.041	1467.13
871.642	1425.63
872.244	1427.13
872.843	1456.63
873.445	1443.13
874.046	1486.13
874.648	1398.63
875.249	1424.13
875.85	1451.13
876.451	1417.63
877.053	1440.63
877.652	1444.13
878.253	1429.63
878.854	1448.63
879.455	1424.63
880.056	1457.63
880.655	1438.13
881.256	1465.13
881.857	1423.63
882.458	1481.63
883.056	1420.63
883.657	1481.63
884.258	1443.63
884.858	1453.63
885.457	1491.13
886.058	1437.63
886.658	1407.63
887.257	1452.13
887.857	1472.63
888.458	1456.63
889.056	1443.13
889.656	1391.63
890.257	1451.63
890.855	1393.63
891.455	1462.13
892.055	1430.63
892.654	1459.63
893.254	1485.63
893.852	1430.63
894.452	1468.63
895.052	1490.63
895.65	1483.63
896.25	1486.63
896.848	1520.13
897.448	1507.13
898.045	1490.63
898.645	1533.63
899.243	1504.13
899.842	1525.63
900.44	1524.63
901.04	1493.63
901.637	1497.63
902.235	1504.63
902.834	1542.13
903.432	1537.63
904.031	1495.63
904.628	1525.13
905.228	1552.13
905.825	1589.13
906.422	1543.13
907.022	1566.63
907.619	1591.63
908.216	1523.63
908.815	1531.63
909.412	1583.13
910.009	1552.13
910.608	1567.63
911.205	1591.63
911.802	1606.63
912.401	1602.13
912.997	1577.13
913.594	1589.13
914.191	1586.13
914.79	1596.63
915.386	1642.63
915.983	1646.63
916.58	1617.63
917.176	1652.63
917.775	1633.13
918.371	1748.13
918.967	1638.63
919.564	1656.13
920.16	1654.63
920.756	1673.13
921.355	1713.63
921.951	1728.63
922.547	1700.13
923.143	1627.63
923.739	1735.63
924.336	1697.63
924.932	1731.13
925.528	1738.63
926.123	1811.13
926.719	1763.13
927.315	1723.63
927.911	1689.63
928.507	1765.63
929.103	1793.63
929.698	1863.13
930.294	1899.13
930.89	1955.63
931.485	1951.63
932.081	1932.63
932.676	1906.13
933.272	1951.63
933.867	1965.63
934.463	1986.13
935.058	1965.63
935.653	1999.13
936.249	2029.13
936.844	1954.63
937.439	2073.63
938.032	2129.13
938.627	2065.63
939.222	2119.63
939.818	2191.13
940.413	2164.13
941.008	2187.63
941.6	2177.13
942.195	2172.13
942.79	2223.63
943.385	2212.13
943.98	2254.13
944.572	2268.63
945.167	2328.63
945.762	2297.13
946.357	2354.63
946.949	2355.63
947.544	2380.63
948.138	2382.13
948.73	2407.13
949.325	2469.63
949.919	2479.13
950.512	2476.63
951.106	2475.63
951.7	2557.63
952.292	2545.13
952.887	2562.63
953.481	2547.13
954.073	2604.13
954.667	2650.63
955.259	2678.13
955.853	2625.13
956.445	2675.63
957.039	2742.63
957.633	2695.63
958.225	2724.13
958.818	2785.63
959.41	2745.63
960.004	2809.63
960.596	2837.63
961.189	2857.63
961.781	2813.63
962.374	2938.13
962.966	2903.13
963.557	2925.63
964.151	3017.63
964.742	2945.63
965.336	2998.63
965.927	3018.63
966.52	3054.63
967.112	3126.63
967.703	3123.13
968.296	3144.63
968.887	3182.13
969.478	3206.13
970.071	3132.63
970.662	3134.13
971.253	3198.63
971.846	3215.63
972.437	3243.13
973.028	3225.13
973.621	3248.63
974.212	3226.63
974.802	3284.13
975.393	3349.63
975.986	3270.63
976.576	3407.63
977.167	3323.63
977.758	3411.63
978.348	3374.63
978.941	3347.63
979.531	3402.63
980.121	3394.13
980.712	3478.63
981.302	3524.63
981.892	3559.63
982.485	3445.63
983.075	3558.63
983.665	3572.63
984.255	3537.63
984.845	3549.63
985.435	3617.63
986.025	3634.13
986.615	3707.63
987.205	3595.63
987.795	3691.63
988.385	3595.13
988.975	3587.63
989.565	3689.13
990.154	3689.13
990.744	3687.63
991.334	3745.63
991.923	3765.63
992.513	3724.13
993.103	3713.13
993.692	3697.63
994.282	3692.13
994.871	3826.63
995.46	3708.63
996.05	3798.63
996.639	3796.63
997.229	3830.13
997.818	3789.63
998.405	3888.63
998.994	3813.63
999.583	3835.63
1000.17	3897.63
1000.76	3874.63
1001.35	3865.13
1001.94	3788.63
1002.53	3906.63
1003.12	3703.63
1003.7	3702.63
1004.29	3842.63
1004.88	3853.63
1005.47	3997.13
1006.06	3950.13
1006.65	3991.63
1007.23	3944.13
1007.82	3932.63
1008.41	3994.13
1009	3978.13
1009.58	4063.13
1010.17	4015.63
1010.76	3926.63
1011.35	4043.63
1011.94	4056.13
1012.52	4070.13
1013.11	4028.13
1013.7	4034.63
1014.29	4006.63
1014.87	4049.63
1015.46	4060.63
1016.05	4066.63
1016.63	4102.63
1017.22	4009.63
1017.81	4106.63
1018.4	4112.63
1018.98	4107.63
1019.57	4183.13
1020.16	4202.13
1020.74	4111.63
1021.33	4040.13
1021.92	4058.63
1022.5	4200.63
1023.09	4123.63
1023.67	4105.63
1024.26	4211.13
1024.85	4242.63
1025.44	4174.63
1026.02	4167.63
1026.61	4206.63
1027.19	4231.13
1027.78	4194.63
1028.37	4282.63
1028.95	4195.13
1029.54	4208.63
1030.12	4173.63
1030.71	4187.63
1031.29	4268.13
1031.88	4227.63
1032.47	4254.63
1033.05	4359.13
1033.64	4405.63
1034.22	4307.63
1034.81	4181.63
1035.39	4274.63
1035.98	4226.63
1036.56	4340.13
1037.15	4355.13
1037.73	4383.13
1038.32	4350.63
1038.9	4337.63
1039.49	4297.63
1040.07	4320.13
1040.66	4353.13
1041.24	4310.63
1041.83	4384.59
1042.41	4362.68
1043	4370.89
1043.58	4303.29
1044.17	4304.09
1044.75	4351.25
1045.33	4290.61
1045.92	4390.71
1046.5	4484.47
1047.09	4376.35
1047.67	4394.55
1048.25	4515.26
1048.84	4500.85
1049.42	4455.43
1050.01	4485.02
1050.59	4477.05
1051.17	4443.67
1051.76	4486.51
1052.34	4608.32
1052.93	4514.41
1053.51	4497.65
1054.09	4566.31
1054.68	4586.89
1055.26	4580.48
1055.84	4566.87
1056.42	4593.64
1057.01	4674.77
1057.59	4691.75
1058.17	4662.81
1058.76	4580.17
1059.34	4585.08
1059.92	4696.59
1060.51	4613.71
1061.09	4736.34
1061.67	4679.05
1062.25	4736.33
1062.84	4759.41
1063.42	4644.78
1064	4802.97
1064.58	4739.85
1065.17	4779.4
1065.75	4871.38
1066.33	4816.56
1066.91	4915.18
1067.49	4900.74
1068.08	4852.78
1068.66	4831.05
1069.24	4880.36
1069.82	4880.66
1070.41	4995.79
1070.99	4937.71
1071.57	4982.19
1072.15	5011.89
1072.73	4969.85
1073.31	4985.15
1073.89	4944.02
1074.48	4885.55
1075.06	4883.28
1075.64	5063.26
1076.22	5038
1076.8	5076.4
1077.38	4957.25
1077.96	5078.09
1078.55	5125.76
1079.13	5046.76
1079.71	5164.49
1080.29	5091.95
1080.87	5177.62
1081.45	5227.52
1082.03	5173.68
1082.61	5143.55
1083.19	5158.72
1083.77	5204.39
1084.35	5246.18
1084.93	5329.24
1085.51	5282.8
1086.09	5268.89
1086.67	5243.45
1087.25	5188.21
1087.83	5293.58
1088.41	5284.02
1088.99	5280.1
1089.57	5295.63
1090.15	5278.15
1090.73	5314.09
1091.31	5190.93
1091.89	5144.41
1092.47	5255.78
1093.05	5261.91
1093.63	5280.15
1094.21	5370.6
1094.79	5346.26
1095.37	5394.5
1095.95	5398.61
1096.53	5333.58
1097.11	5272.61
1097.69	5399.98
1098.27	5316.26
1098.85	5436.9
1099.42	5453.4
1100	5333.08
1100.58	5350.04
1101.16	5341.3
1101.74	5255.78
1102.32	5308.38
1102.9	5214.23
1103.48	5331.12
1104.05	5443.58
1104.63	5312.79
1105.21	5289.62
1105.79	5333.02
1106.37	5197.43
1106.95	5180.9
1107.52	5307.1
1108.1	5288.13
1108.68	5209.56
1109.26	5346.19
1109.84	5289.03
1110.41	5254.94
1110.99	5269.18
1111.57	5183.34
1112.15	5287.92
1112.73	5225.27
1113.3	5310.67
1113.88	5265.9
1114.46	5292.15
1115.03	5220.86
1115.61	5210.02
1116.19	5148.67
1116.77	5141.95
1117.34	5145.75
1117.92	5208.67
1118.5	5197.18
1119.08	5142.45
1119.65	5165.32
1120.23	5076.61
1120.81	4961.36
1121.38	5010.67
1121.96	5027.52
1122.54	5080.28
1123.11	5044.17
1123.69	5110.1
1124.27	5006.06
1124.84	4967.02
1125.42	4971.66
1126	4961.03
1126.57	5068.03
1127.15	4982.53
1127.72	4803.78
1128.3	4831.81
1128.88	4626.19
1129.45	4833.18
1130.03	4746.99
1130.6	4766.92
1131.18	4698.73
1131.76	4617.47
1132.33	4780.16
1132.91	4711.27
1133.48	4691.06
1134.06	4694.6
1134.63	4528.67
1135.21	4538.37
1135.78	4573.89
1136.36	4703.93
1136.94	4647.23
1137.51	4664.7
1138.09	4591.65
1138.66	4568.6
1139.24	4525.11
1139.81	4580.34
1140.39	4550.93
1140.96	4507.76
1141.53	4527.59
1142.11	4515.23
1142.68	4521.96
1143.26	4473.46
1143.83	4348.03
1144.41	4363.84
1144.98	4423.16
1145.56	4417.77
1146.13	4412.85
1146.71	4421.62
1147.28	4357
1147.85	4326.79
1148.43	4314.49
1149	4143.93
1149.58	4235.77
1150.15	4126.98
1150.73	4144.11
1151.3	4183.41
1151.87	4078.96
1152.45	4024.87
1153.02	4061.82
1153.59	4088.17
1154.17	4006.88
1154.74	4019.32
1155.31	3988.83
1155.89	3943.13
1156.46	3924.39
1157.03	3912.62
1157.61	3887.89
1158.18	3777.74
1158.75	3848.07
1158.97	3851.07
1159.55	3736.57
1160.14	3762.07
1160.72	3795.57
1161.3	3736.57
1161.88	3695.57
1162.46	3733.57
1163.05	3666.07
1163.63	3623.07
1164.21	3615.57
1164.79	3614.07
1165.37	3574.57
1165.95	3515.07
1166.53	3527.57
1167.11	3434.07
1167.7	3403.57
1168.28	3449.57
1168.86	3439.57
1169.44	3309.57
1170.02	3364.57
1170.6	3333.57
1171.18	3304.57
1171.76	3261.57
1172.35	3243.57
1172.93	3199.57
1173.51	3215.57
1174.09	3152.07
1174.67	3181.57
1175.25	3145.07
1175.83	3118.57
1176.41	3035.57
1176.99	3024.57
1177.57	3071.57
1178.15	3007.07
1178.73	3029.57
1179.31	3001.57
1179.89	2974.57
1180.47	2939.07
1181.05	2836.57
1181.63	2868.57
1182.21	2841.57
1182.79	2853.07
1183.37	2732.57
1183.95	2832.07
1184.53	2830.57
1185.11	2741.07
1185.69	2727.57
1186.27	2682.57
1186.85	2607.57
1187.43	2643.07
1188.01	2625.57
1188.58	2606.57
1189.16	2550.57
1189.74	2550.57
1190.32	2473.57
1190.9	2497.07
1191.48	2440.57
1192.06	2476.07
1192.64	2446.57
1193.22	2429.07
1193.8	2385.07
1194.37	2405.57
1194.95	2365.07
1195.53	2345.07
1196.11	2322.57
1196.69	2283.57
1197.27	2264.07
1197.85	2308.07
1198.42	2304.57
1199	2201.07
1199.58	2194.57
1200.16	2178.07
1200.74	2181.57
1201.31	2091.07
1201.89	2097.57
1202.47	2124.57
1203.05	2045.57
1203.63	1995.57
1204.2	1964.07
1204.78	2019.57
1205.36	1982.57
1205.94	1985.57
1206.51	1985.57
1207.09	1919.57
1207.67	1932.57
1208.25	1900.57
1208.82	1895.07
1209.4	1841.57
1209.98	1849.07
1210.56	1836.57
1211.13	1834.07
1211.71	1832.07
1212.29	1768.57
1212.86	1732.57
1213.44	1739.57
1214.02	1716.57
1214.59	1690.57
1215.17	1634.57
1215.75	1610.57
1216.32	1708.07
1216.9	1662.57
1217.48	1654.07
1218.05	1635.57
1218.63	1577.57
1219.21	1585.07
1219.78	1596.57
1220.36	1541.57
1220.93	1520.57
1221.51	1542.57
1222.09	1444.57
1222.66	1458.07
1223.24	1441.57
1223.81	1477.07
1224.39	1440.07
1224.97	1418.07
1225.54	1342.57
1226.12	1384.57
1226.69	1356.57
1227.27	1332.07
1227.84	1335.57
1228.42	1359.57
1228.99	1324.07
1229.57	1278.07
1230.15	1324.57
1230.72	1318.07
1231.3	1315.57
1231.87	1300.07
1232.44	1307.57
1233.02	1276.57
1233.6	1278.57
1234.17	1286.57
1234.75	1214.57
1235.32	1223.57
1235.89	1235.57
1236.47	1203.57
1237.04	1229.57
1237.62	1237.07
1238.19	1229.57
1238.77	1168.57
1239.34	1255.07
1239.92	1204.57
1240.49	1216.57
1241.06	1206.57
1241.64	1183.57
1242.21	1130.57
1242.79	1174.57
1243.36	1151.57
1243.93	1140.57
1244.51	1182.07
1245.08	1143.57
1245.66	1130.57
1246.23	1153.57
1246.8	1107.07
1247.38	1084.57
1247.95	1143.07
1248.52	1054.57
1249.1	1126.57
1249.67	1088.57
1250.24	1131.57
1250.82	1140.57
1251.39	1102.57
1251.96	1110.07
1252.54	1105.57
1253.11	1120.57
1253.68	1107.07
1254.26	1095.57
1254.83	1097.57
1255.4	1119.57
1255.97	1083.07
1256.55	1089.57
1257.12	1092.57
1257.69	1086.07
1258.27	1066.57
1258.84	1077.57
1259.41	1120.07
1259.98	1076.57
1260.55	1078.57
1261.13	1084.07
1261.7	1013.07
1262.27	1048.07
1262.84	1058.57
1263.41	1072.07
1263.99	1103.07
1264.56	1064.57
1265.13	1061.57
1265.7	1068.07
1266.27	1102.57
1266.85	1048.57
1267.42	1037.57
1267.99	1061.57
1268.56	1075.07
1269.13	1051.07
1269.7	1065.07
1270.28	1058.07
1270.85	1057.57
1271.42	1047.57
1271.99	1048.57
1272.56	1065.57
1273.13	1057.57
1273.7	1044.57
1274.27	1050.57
1274.85	1048.57
1275.41	1081.57
1275.99	1021.07
1276.56	1051.07
1277.13	1048.07
1277.7	1058.07
1278.27	1075.07
1278.84	1049.07
1279.41	1047.07
1279.98	1024.57
1280.55	1029.57
1281.12	1068.07
1281.69	1032.57
1282.26	1020.07
1282.83	1073.57
1283.4	1048.57
1283.97	1027.07
1284.54	1014.57
1285.11	1018.07
1285.68	989.568
1286.25	988.068
1286.82	972.568
1287.39	1038.07
1287.96	1026.57
1288.53	1030.07
1289.1	1029.07
1289.67	1027.57
1290.24	1038.07
1290.81	1024.57
1291.38	1051.57
1291.95	1023.07
1292.52	1001.57
1293.09	1043.57
1293.65	1047.07
1294.22	1024.57
1294.79	1019.57
1295.36	1032.07
1295.93	1044.57
1296.5	1032.57
1297.07	1059.57
1297.64	1023.07
1298.21	1043.57
1298.78	1053.57
1299.34	1029.07
1299.91	1030.07
1300.48	1011.57
1301.05	1027.57
1301.62	973.568
1302.19	1049.07
1302.75	1053.57
1303.32	1045.57
1303.89	1024.07
1304.46	1023.57
1305.03	1050.07
1305.59	1021.57
1306.16	1028.57
1306.73	1014.57
1307.3	1037.07
1307.87	1036.07
1308.43	1003.07
1309	1035.57
1309.57	964.568
1310.14	1022.57
1310.7	1024.07
1311.27	1044.57
1311.84	1024.57
1312.4	1010.07
1312.97	1030.07
1313.54	1008.57
1314.11	979.068
1314.67	1043.07
1315.24	987.068
1315.81	1032.57
1316.38	1054.57
1316.94	1001.07
1317.51	1020.57
1318.08	992.068
1318.64	1022.57
1319.21	1021.07
1319.77	1012.57
1320.34	993.568
1320.91	1038.57
1321.48	998.568
1322.04	1012.57
1322.61	1027.07
1323.18	1057.07
1323.74	1020.07
1324.31	995.568
1324.87	1045.57
1325.44	1007.57
1326	1028.07
1326.57	1040.57
1327.14	979.568
1327.7	983.568
1328.27	999.568
1328.83	1027.57
1329.4	1043.07
1329.97	1044.57
1330.53	1028.57
1331.1	1055.57
1331.66	992.568
1332.23	1017.57
1332.79	1012.07
1333.36	1007.57
1333.92	1002.57
1334.49	997.568
1335.05	1046.57
1335.62	1002.57
1336.18	1006.57
1336.75	1043.57
1337.31	983.568
1337.88	1035.07
1338.44	1022.57
1339.01	1007.07
1339.57	1019.57
1340.14	1014.57
1340.7	1049.57
1341.27	986.568
1341.83	1014.57
1342.39	1024.07
1342.96	1036.57
1343.52	1026.57
1344.09	1014.57
1344.65	1008.57
1345.22	1010.07
1345.78	1021.57
1346.35	1027.57
1346.91	1020.57
1347.47	1014.07
1348.04	1042.57
1348.6	1051.57
1349.16	1017.57
1349.73	1021.57
1350.29	1017.57
1350.86	1021.57
1351.42	1033.57
1351.98	1050.07
1352.55	1014.57
1353.11	1031.57
1353.67	1027.57
1354.23	1043.57
1354.8	1040.57
1355.36	1051.57
1355.92	1032.07
1356.49	1017.57
1357.05	1036.57
1357.61	1024.57
1358.18	1030.57
1358.74	1024.57
1359.3	1038.57
1359.87	1011.57
1360.43	997.568
1360.99	972.568
1361.55	1011.07
1362.11	1018.07
1362.68	1015.07
1363.24	1040.57
1363.8	1044.07
1364.36	1056.57
1364.93	1042.57
1365.49	1051.57
1366.05	1038.57
1366.61	1026.57
1367.17	1054.07
1367.74	1023.57
1368.3	1009.57
1368.86	1033.57
1369.42	1049.07
1369.98	1008.57
1370.55	1055.07
1371.11	1050.07
1371.67	1011.57
1372.23	1032.57
1372.79	1057.07
1373.35	1027.57
1373.91	993.568
1374.48	1000.57
1375.04	1029.57
1375.6	1039.57
1376.16	1020.57
1376.72	1017.57
1377.28	1063.07
1377.84	1034.57
1378.4	1018.57
1378.96	1020.07
1379.53	1023.07
1380.09	1062.57
1380.65	1048.07
1381.21	1021.57
1381.77	1010.57
1382.33	1030.07
1382.89	1036.57
1383.45	1044.57
1384.01	1028.07
1384.57	1032.57
1385.13	1054.07
1385.69	1065.07
1386.25	1044.57
1386.81	1042.57
1387.37	1077.57
1387.93	1077.57
1388.49	1052.57
1389.05	1049.07
1389.61	1040.57
1390.17	1062.57
1390.73	1045.57
1391.29	1041.57
1391.85	1031.57
1392.41	1047.57
1392.97	1037.57
1393.53	1058.07
1394.09	1026.57
1394.65	1036.07
1395.21	1065.07
1395.77	1048.57
1396.33	1021.57
1396.88	1060.57
1397.44	1048.57
1398	1065.57
1398.56	999.568
1399.12	1044.57
1399.68	1026.07
1400.24	1000.57
1400.8	1021.57
1401.36	1049.57
1401.91	1059.57
1402.47	1055.07
1403.03	1087.57
1403.59	1033.57
1404.15	1065.57
1404.71	1075.57
1405.26	1084.07
1405.82	1051.07
1406.38	1051.07
1406.94	1051.57
1407.5	1015.57
1408.06	1074.57
1408.61	1041.57
1409.17	1013.57
1409.73	1040.57
1410.29	1008.57
1410.85	1015.57
1411.4	1038.57
1411.96	1037.57
1412.52	1040.57
1413.08	1054.07
1413.63	998.568
1414.19	1067.57
1414.75	991.568
1415.31	1073.57
1415.86	1035.57
1416.42	1041.57
1416.98	1067.57
1417.53	1040.57
1418.09	1086.07
1418.65	1028.57
1419.21	1066.57
1419.76	1042.57
1420.32	1091.07
1420.88	1045.57
1421.43	1007.57
1421.99	1053.07
1422.55	1060.57
1423.1	1043.57
1423.66	1094.07
1424.22	1062.57
1424.77	1067.57
1425.33	1036.07
1425.89	1046.07
1426.44	1084.57
1427	1047.57
1427.55	1051.57
1428.11	1070.07
1428.67	1061.57
1429.22	1064.07
1429.78	1017.57
1430.33	1070.57
1430.89	1021.57
1431.44	1061.57
1432	1057.57
1432.56	1056.57
1433.11	1074.57
1433.67	1074.57
1434.22	1099.57
1434.78	1081.07
1435.34	1019.57
1435.89	1047.57
1436.44	1079.57
1437	1060.07
1437.56	1080.57
1438.11	1059.57
1438.67	1089.57
1439.22	1120.57
1439.78	1058.57
1440.33	1075.57
1440.89	1058.07
1441.44	1056.07
1441.99	1066.57
1442.55	1042.57
1443.11	1063.07
1443.66	1049.07
1444.21	1038.57
1444.77	1093.57
1445.32	1071.57
1445.88	1064.57
1446.43	1072.57
1446.98	1053.57
1447.54	1075.57
1448.09	1069.57
1448.65	1069.57
1449.2	1063.07
1449.76	1059.57
1450.31	1090.57
1450.86	1058.07
1451.42	1031.07
1451.97	1032.07
1452.52	1075.07
1453.08	1038.07
1453.63	1048.07
1454.19	1048.57
1454.74	1073.07
1455.29	1099.07
1455.85	1054.57
1456.4	1022.07
1456.95	1103.57
1457.51	1043.57
1458.06	1093.57
1458.61	1075.57
1459.17	1029.07
1459.72	1078.57
1460.27	1102.57
1460.82	1094.07
1461.38	1115.07
1461.93	1071.57
1462.48	1089.57
1463.04	1024.57
1463.59	1049.07
1464.14	1060.07
1464.69	1075.57
1465.25	1095.07
1465.8	1072.57
1466.35	1071.57
1466.9	1066.57
1467.46	1087.57
1468.01	1027.57
1468.56	1086.07
1469.11	1108.07
1469.66	1074.07
1470.22	1085.57
1470.77	1053.57
1471.32	1103.07
1471.87	1097.07
1472.42	1082.07
1472.98	1116.07
1473.53	1083.07
1474.08	1080.07
1474.63	1079.07
1475.18	1101.07
1475.73	1077.07
1476.28	1057.57
1476.84	1068.07
1477.39	1072.07
1477.94	1047.07
1478.49	1086.57
1479.04	1022.57
1479.59	1063.57
1480.14	1081.07
1480.7	1116.57
1481.25	1055.07
1481.8	1090.57
1482.35	1086.07
1482.9	1091.57
1483.45	1133.07
1484	1062.57
1484.55	1122.07
1485.1	1089.57
1485.65	1117.57
1486.2	1080.57
1486.75	1081.57
1487.3	1116.57
1487.85	1097.57
1488.4	1102.57
1488.95	1105.57
1489.5	1079.57
1490.05	1109.57
1490.6	1105.57
1491.15	1103.57
1491.7	1101.07
1492.25	1075.57
1492.8	1069.07
1493.35	1103.57
1493.9	1092.57
1494.45	1069.07
1495	1059.57
1495.55	1104.57
1496.1	1111.57
1496.65	1082.57
1497.2	1072.57
1497.75	1115.07
1498.3	1090.07
1498.85	1086.57
1499.4	1109.57
1499.95	1093.57
