19.3994	8384.26
20.0758	8872.76
20.7522	9237.26
21.4285	9796.76
22.1048	10195.3
22.7811	10533.8
23.4573	10897.8
24.1334	11378.3
24.8095	11414.8
25.4855	12108.8
26.1615	12151.3
26.8375	12342.8
27.5134	12484.3
28.1893	12835.8
28.8651	12906.8
29.5408	13312.8
30.2166	13427.3
30.8922	13450.8
31.5679	13736.8
32.2434	13794.8
32.919	14399.3
33.5945	14600.3
34.2699	14668.8
34.9453	15090.3
35.6206	15042.8
36.2959	15410.8
36.9712	15312.3
37.6464	15545.8
38.3192	15469.8
38.9943	15803.8
39.6694	15835.8
40.3444	16077.8
41.0194	16128.8
41.6943	16399.8
42.3692	16500.8
43.0417	16482.3
43.7165	16600.8
44.3912	16850.8
45.0659	16740.8
45.7405	16936.8
46.4128	17095.3
47.0874	16714.8
47.7619	17057.8
48.4363	17144.3
49.1084	17117.3
49.7828	17050.8
50.4571	16955.8
51.1314	16971.8
51.8033	16988.8
52.4775	16651.8
53.1516	16977.8
53.8234	17169.3
54.4974	16898.8
55.1714	17082.8
55.843	17262.8
56.5169	17317.8
57.1908	17357.3
57.8623	17243.8
58.536	17161.8
59.2074	17270.8
59.8811	17096.8
60.5547	16976.8
61.2259	17362.8
61.8995	17568.8
62.5706	17394.8
63.2441	17593.3
63.9174	17313.8
64.5885	17203.3
65.2618	17102.3
65.9327	16856.3
66.6059	16860.8
67.2767	16910.8
67.9498	16910.8
68.6206	16607.3
69.2936	16622.8
69.9643	16500.8
70.6372	16502.8
71.3077	16770.3
71.9783	16779.8
72.651	17398.8
73.3215	17096.8
73.9941	17031.8
74.6645	17150.8
75.3371	16961.8
76.0073	16710.3
76.6775	16760.3
77.3499	16572.3
78.02	16509.3
78.6901	16524.8
79.3624	16437.8
80.0324	16399.3
80.7023	16378.8
81.3745	16188.8
82.0443	16203.8
82.7141	16058.3
83.3861	15878.8
84.0558	16014.8
84.7254	15661.8
85.3973	16022.8
86.0668	15723.8
86.7364	15791.8
87.4058	15887.8
88.0775	15857.3
88.7469	15689.3
89.4162	15809.8
90.0855	15690.8
90.7547	15824.8
91.4261	15852.3
92.0953	15594.8
92.7644	15722.3
93.4334	15534.8
94.1024	15441.3
94.7713	15495.3
95.4425	15277.8
96.1114	15446.8
96.7802	15340.8
97.449	15120.3
98.1177	15175.8
98.7863	15221.8
99.455	15105.8
100.124	15173.3
100.792	15098.8
101.461	15033.3
102.131	14899.3
102.8	15181.8
103.468	15064.3
104.136	14914.8
104.805	15073.8
105.473	15055.8
106.141	14588.8
106.809	14737.8
107.477	14490.3
108.145	14712.8
108.813	14680.3
109.481	14677.8
110.147	14480.8
110.814	14489.8
111.482	14540.8
112.15	14607.3
112.818	14345.3
113.485	14562.3
114.153	14561.8
114.821	14338.8
115.488	14058.8
116.156	13986.8
116.821	13834.3
117.488	13896.8
118.155	13908.8
118.823	13817.8
119.49	13920.3
120.157	13763.3
120.822	13709.8
121.489	13763.8
122.156	13846.8
122.823	13684.8
123.49	13616.8
124.155	13664.3
124.822	13483.8
125.488	13414.8
126.155	13356.3
126.82	13605.8
127.486	13395.3
128.153	13336.8
128.817	13414.8
129.484	13451.8
130.15	13342.8
130.817	13309.3
131.481	13276.3
132.147	13174.8
132.811	13278.8
133.478	13124.8
134.144	13167.3
134.808	13143.3
135.474	13222.8
136.14	13001.3
136.804	13000.8
137.47	12981.8
138.133	12975.8
138.799	12976.3
139.463	12868.8
140.129	12692.8
140.795	12747.8
141.458	12791.3
142.124	12859.8
142.787	12744.8
143.453	12568.8
144.116	12642.8
144.781	12415.8
145.445	12444.8
146.11	12527.3
146.773	12499.8
147.436	12280.3
148.101	12516.8
148.764	12105.8
149.429	12217.3
150.092	12259.8
150.757	12279.3
151.42	12268.3
152.083	12173.8
152.748	12012.8
153.41	12134.8
154.075	12154.8
154.738	12220.8
155.4	12266.8
156.065	12167.8
156.727	12060.3
157.39	11993.3
158.054	11852.8
158.717	11845.3
159.379	11890.8
160.041	11979.3
160.705	11923.8
161.367	11732.8
162.03	11572.8
162.692	11734.8
163.356	11737.8
164.018	11525.8
164.679	11698.8
165.341	11584.8
166.005	11633.8
166.667	11458.8
167.329	11518.8
167.99	11560.8
168.652	11600.8
169.313	11704.3
169.977	11679.8
170.639	11599.3
171.3	11633.3
171.961	11550.3
172.623	11519.8
173.284	11479.3
173.945	11434.8
174.606	11452.8
175.267	11325.8
175.931	11453.8
176.592	11351.8
177.253	11398.3
177.914	11408.8
178.575	11428.8
179.236	11449.3
179.896	11294.8
180.557	11531.3
181.218	11349.3
181.879	11496.3
182.539	11386.3
183.2	11338.8
183.86	11473.8
184.521	11441.8
185.181	11468.3
185.839	11318.8
186.5	11064.8
187.16	11291.8
187.82	11135.8
188.48	11274.3
189.141	11273.3
189.801	11118.8
190.461	11335.8
191.121	11331.8
191.779	11327.8
192.439	11380.3
193.098	11273.3
193.758	11200.8
194.418	11422.8
195.078	11366.8
195.735	11347.8
196.395	11335.3
197.055	11395.8
197.714	11435.8
198.374	11504.8
199.031	11402.3
199.691	11335.8
200.35	11159.8
201.009	11288.8
201.666	11503.8
202.326	11332.8
202.985	11328.8
203.642	11389.8
204.301	11315.8
204.96	11377.8
205.617	11338.8
206.276	11348.8
206.935	11602.8
207.591	11525.8
208.25	11381.8
208.909	11536.8
209.566	11518.3
210.224	11556.8
210.881	11567.3
211.539	11439.8
212.196	11590.8
212.854	11651.8
213.513	11401.8
214.169	11583.3
214.827	11544.3
215.483	11555.3
216.142	11614.3
216.798	11578.8
217.456	11751.3
218.112	11528.8
218.77	11493.3
219.426	11543.3
220.084	11772.8
220.74	11595.8
221.398	11745.8
222.053	11584.8
222.709	11857.3
223.367	11642.3
224.022	11566.8
224.68	11694.8
225.336	11782.8
225.991	11603.3
226.649	11531.3
227.304	11668.8
227.961	11687.2
228.617	11713
229.272	11733.8
229.929	11750.7
230.584	11593.3
231.239	11595.3
231.897	11633.8
232.551	11618.8
233.206	11737.8
233.861	11912.8
234.518	11816.8
235.173	12050.8
235.828	12192.8
236.482	12142.3
237.139	12001.8
237.794	12151.8
238.449	12161.3
239.103	12259.3
239.757	12253.8
240.414	12120.8
241.069	12348.8
241.723	12280.3
242.377	12113.8
243.031	12196.8
243.686	12196.8
244.342	12264.8
244.996	12482.8
245.65	12433.8
246.304	12450.8
246.958	12358.8
247.612	12278.8
248.266	12368.8
248.92	12567.3
249.573	12592.8
250.227	12653.3
250.881	12546.8
251.535	12233.8
252.188	12535.8
252.842	12651.8
253.495	12448.8
254.149	12741.8
254.802	12629.8
255.456	12614.8
256.109	12647.8
256.762	12471.3
257.415	12699.3
258.069	12736.8
258.722	12877.3
259.375	12989.8
260.028	12694.8
260.681	12948.8
261.334	12803.3
261.987	12834.8
262.64	12816.8
263.29	13056.3
263.943	13022.8
264.596	13151.8
265.249	13007.3
265.901	13173.8
266.554	13058.8
267.204	13237.3
267.857	13252.8
268.509	13175.8
269.162	13230.8
269.814	13138.3
270.464	13115.8
271.117	13081.8
271.769	12969.8
272.421	13275.8
273.071	13490.8
273.723	13260.8
274.375	13346.3
275.025	13241.8
275.677	13296.3
276.329	13520.8
276.979	13501.8
277.631	13396.3
278.283	13501.3
278.932	13503.3
279.584	13440.8
280.236	13277.8
280.885	13671.8
281.537	13507.8
282.188	13483.8
282.838	13562.8
283.489	13761.3
284.138	13542.8
284.79	13598.3
285.439	13651.3
286.09	13649.8
286.739	13670.8
287.39	13999.8
288.041	13737.8
288.69	13778.8
289.341	13796.8
289.99	13845.8
290.639	13864.8
291.29	13866.8
291.939	13864.8
292.589	13845.8
293.238	13590.3
293.889	13756.8
294.537	13521.8
295.188	13815.5
295.836	13832.7
296.485	13862.2
297.135	13870.6
297.784	13566.8
298.434	13708.8
299.082	13850.8
299.73	13965.3
300.381	14104.3
301.029	14203.3
301.677	14198.8
302.327	14149.8
302.975	14225.8
303.623	14088.8
304.271	14171.8
304.921	14161.3
305.568	14469.3
306.216	14252.8
306.866	14144.8
307.513	14125.8
308.161	14093.8
308.809	14334.3
309.456	14279.8
310.106	14464.3
310.753	14337.3
311.4	14329.8
312.048	14113.8
312.695	14115.3
313.344	14108.8
313.992	14431.3
314.639	14489.8
315.286	14528.8
315.933	14492.3
316.58	14525.8
317.227	14248.8
317.874	14543.3
318.521	14400.8
319.17	14661.8
319.816	14601.3
320.463	14581.3
321.11	14376.8
321.757	14591.3
322.403	14511.8
323.05	14534.8
323.696	14558.8
324.343	14615.3
324.989	14655.3
325.636	14778.8
326.282	14700.3
326.928	14555.8
327.574	14781.3
328.221	14740.8
328.867	14820.8
329.511	14924.3
330.157	14888.3
330.803	14703.8
331.449	14779.3
332.095	14608.8
332.741	14829.3
333.387	14913.3
334.032	15031.8
334.678	15045.8
335.322	14964.8
335.967	14809.8
336.613	14880.8
337.259	15263.8
337.904	15125.3
338.547	15250.8
339.193	15254.8
339.838	15179.8
340.484	15157.3
341.129	15071.8
341.772	15274.3
342.417	15408.3
343.062	15374.8
343.705	15338.3
344.351	15529.8
344.996	15402.8
345.641	15354.3
346.283	15433.3
346.928	15328.8
347.573	15523.3
348.216	15527.8
348.861	15266.8
349.505	15664.8
350.148	15342.8
350.793	15571.3
351.435	15519.3
352.08	15503.3
352.724	15841.3
353.367	15909.3
354.011	15781.8
354.653	15739.3
355.298	15552.8
355.94	15696.8
356.584	15984.8
357.226	15604.8
357.87	15992.3
358.512	16020.8
359.156	15991.8
359.798	15913.8
360.442	16050.3
361.084	16102.8
361.728	15961.8
362.37	15883.8
363.013	16208.3
363.655	16166.3
364.299	16139.3
364.94	16047.8
365.582	16033.3
366.225	16256.8
366.867	16389.8
367.51	16294.3
368.152	16385.8
368.793	16315.8
369.436	16337.3
370.078	16234.8
370.719	16313.8
371.362	16538.3
372.003	16598.3
372.644	16485.8
373.287	16503.8
373.928	16213.3
374.569	16361.8
375.21	16786.3
375.853	16816.8
376.493	16833.3
377.134	16611.3
377.775	16812.3
378.418	16635.8
379.058	16687.3
379.699	16705.8
380.339	16834.8
380.98	16848.8
381.62	16951.3
382.263	16972.8
382.903	16865.8
383.543	16838.8
384.183	17063.8
384.823	17025.3
385.464	17245.3
386.104	17045.3
386.744	17011.3
387.386	17085.8
388.026	16959.3
388.666	17206.3
389.306	17298.8
389.945	17377.8
390.585	17348.8
391.225	17406.3
391.865	17318.3
392.504	17379.3
393.144	17466.8
393.784	17412.8
394.423	17641.8
395.063	17217.8
395.702	17670.8
396.341	17547.8
396.981	17400.8
397.62	17534.3
398.259	17787.8
398.896	17636.8
399.536	17720.3
400.175	17667.8
400.814	17830.8
401.453	17768.8
402.092	17739.8
402.731	17787.3
403.37	18002.3
404.006	17918.3
404.645	17998.3
405.284	17918.3
405.923	17984.8
406.562	18173.8
407.2	18031.3
407.837	18026.8
408.475	18228.3
409.114	18188.3
409.752	18344.3
410.388	18091.8
411.027	18232.8
411.665	18275.8
412.301	18504.3
412.94	18430.3
413.578	18470.3
414.216	18527.3
414.852	18427.8
415.49	18487.8
416.128	18473.8
416.764	18546.8
417.402	18503.8
418.04	18614.8
418.676	18725.8
419.314	18486.3
419.949	18631.3
420.587	18750.8
421.225	18763.8
421.86	18971.3
422.498	19130.3
423.133	18805.8
423.771	18828.8
424.406	18586.3
425.043	18375.3
425.679	19065
426.316	18847.3
426.951	18958.3
427.589	19241.8
428.224	19230.3
428.861	19255.8
429.496	19488.8
430.133	19323.3
430.768	19578.3
431.405	19558.8
432.04	19760.8
432.674	19874.8
433.311	19668.8
433.946	19708.3
434.583	19605.8
435.217	19866.8
435.852	20044.3
436.489	19928.8
437.123	19881.3
437.758	20153.8
438.394	19890.3
439.028	19871.8
439.663	20088.8
440.299	20321.8
440.933	20340.8
441.568	20350.8
442.202	20310.3
442.838	20362.8
443.472	20345.3
444.106	20488.8
444.74	20435.8
445.376	20352.8
446.01	20556.8
446.644	20233.3
447.277	20561.3
447.911	20315.8
448.547	20650.3
449.181	20453.8
449.814	20751.8
450.448	20640.8
451.081	20680.3
451.715	20761.3
452.348	20796.3
452.984	20679.8
453.617	20774.3
454.251	20787.8
454.884	21049.3
455.517	21117.8
456.15	20840.8
456.784	21085.8
457.417	21030.8
458.05	20814.3
458.683	20616.8
459.316	21150.8
459.949	21067.3
460.582	20952.3
461.214	20827.8
461.847	20787.8
462.48	21047.8
463.113	21080.8
463.745	21059.8
464.378	21079.8
465.011	21149.8
465.643	21237.3
466.276	21145.8
466.906	21035.3
467.538	21194.8
468.171	21321.8
468.803	21115.8
469.435	21425.3
470.068	21235.8
470.7	21312.3
471.33	21382.3
471.962	21549.3
472.594	21436.3
473.226	21509.8
473.858	21702.8
474.488	21657.8
475.12	21639.8
475.752	21588.8
476.384	21895.3
477.013	21594.8
477.645	21692.3
478.277	21764.3
478.908	21715.8
479.538	21800.3
480.169	21766.8
480.801	21737.3
481.43	21711.8
482.062	21796.3
482.693	21841.8
483.322	22060.8
483.954	21928.3
484.585	21946.3
485.214	21911.3
485.845	21584.8
486.474	21624.3
487.105	21667.8
487.736	21512.8
488.365	21634.8
488.996	21507.8
489.625	21372.3
490.256	21338.8
490.885	21085.8
491.515	20874.8
492.144	20885.3
492.775	20660.8
493.403	20827.8
494.034	20390.8
494.662	20334.3
495.293	20040.3
495.921	19913.3
496.552	19847.8
497.18	19776.8
497.81	19721.8
498.439	19426.8
499.067	19002.8
499.697	18951.3
500.325	18634.8
500.955	18440.3
501.583	18357.3
502.211	18266.8
502.841	17914.8
503.469	17606.3
504.097	17296.8
504.727	17008.3
505.355	16941.3
505.982	16698.8
506.61	16495.3
507.24	16458.8
507.867	16240.8
508.495	15790.8
509.124	15551.8
509.752	15276.3
510.379	15095.8
511.007	14948.8
511.634	14750.8
512.263	14520.8
512.891	14219.8
513.518	14090.8
514.145	13848.3
514.772	13373.8
515.399	13408.8
516.028	13069.8
516.655	12924.8
517.282	12914.8
517.909	12710.8
518.536	12490.8
519.163	12230.8
519.789	12014.8
520.416	12038.3
521.043	11926.8
521.669	11734.3
522.298	11482.3
522.925	11297.8
523.551	11119.8
524.178	11082.8
524.804	10830.3
525.431	10855.8
526.057	10570.8
526.683	10506.8
527.31	10488.3
527.934	10243.8
528.56	10193.8
529.186	10100.8
529.812	10022.8
530.438	9974.76
531.064	9820.76
531.69	9753.76
532.316	9505.76
532.942	9508.76
533.568	9302.76
534.194	9186.76
534.817	9274.76
535.443	9093.26
536.069	9125.26
536.694	8873.76
537.32	8961.76
537.943	8836.26
538.569	8981.76
539.194	8822.76
539.82	8757.76
540.445	8749.26
541.068	8726.76
541.694	8548.26
542.319	8332.76
542.944	8506.76
543.567	8503.76
544.192	8518.76
544.817	8410.26
545.44	8334.99
546.065	8175.46
546.69	8233.96
547.313	8170.7
547.938	8173.12
548.563	8258.76
549.185	8165.19
549.81	8027.86
550.433	8123.26
551.057	8076.5
551.682	8039.69
552.305	7995.02
552.929	8084.7
553.551	8259.07
554.176	8084.38
554.798	8168.89
555.423	8100.57
556.047	8100.74
556.669	8202.1
557.293	8179.57
557.915	8276.19
558.537	8373.97
559.162	8447.16
559.784	8171.61
560.408	8390.16
561.03	8439.33
561.654	8461.45
562.275	8513.11
562.899	8533.9
563.521	8516.08
564.143	8507.98
564.766	8631.78
565.388	8554
566.009	8562.73
566.633	8647.18
567.255	8659.72
567.878	8702.79
568.5	8657.12
569.121	8716.99
569.742	8607.63
570.366	8661.28
570.987	8526.51
571.608	8756.71
572.231	8678.99
572.852	8905.3
573.473	8680.35
574.094	8713.52
574.717	8700.77
575.338	8575.21
575.959	8521.08
576.58	8603.05
577.201	8681.83
577.822	8538.71
578.445	8531.68
579.065	8405.44
579.686	8284.69
580.306	8364.77
580.927	8423.69
581.548	8267.59
582.168	8307.8
582.791	8206.2
583.411	8169.2
584.031	8213.03
584.652	8088.25
585.272	7795.68
585.892	8085.45
586.512	8011.77
587.132	8007.21
587.753	7906.96
588.373	7983.77
588.993	7889.38
589.613	7851.78
590.233	7733.63
590.852	7786.45
591.472	7758.9
592.092	7695.03
592.712	7614.21
593.332	7532.87
593.951	7397.3
594.569	7424.01
595.188	7353.58
595.808	7167.51
596.427	7277.64
597.047	7096.96
597.666	7012.35
598.286	6921.95
598.905	6902.72
599.522	6732.5
600.142	6760.05
600.761	6752.84
601.38	6702.08
601.999	6593.01
602.616	6600.97
603.235	6524.7
603.854	6166.1
604.473	6153.31
605.09	6351.58
605.709	6316.25
606.328	6187
606.947	6099.49
607.563	5982.87
608.182	5862.79
608.801	5933.63
609.417	5916.73
610.036	5892.04
610.655	5830.29
611.271	5793.29
611.89	5737.27
612.508	5614.56
613.124	5560.23
613.743	5555.81
614.359	5526.95
614.977	5551.18
615.595	5374.26
616.212	5411.92
616.83	5335.19
617.446	5263.53
618.064	5252.52
618.68	5127.42
619.298	5137.95
619.914	5157.97
620.532	5096.97
621.147	5046.01
621.765	5054.63
622.381	4968.44
622.999	4926.9
623.614	4990.98
624.23	4934.11
624.847	4854.76
625.463	4820.18
626.08	4803.67
626.696	4745.48
627.311	4804.33
627.929	4749.71
628.544	4657.95
629.161	4711.95
629.776	4574.58
630.392	4617.3
631.009	4522.56
631.624	4538.72
632.239	4476
632.854	4507
633.471	4434.46
634.086	4463.38
634.701	4399.29
635.318	4376.49
635.932	4329.95
636.547	4273.18
637.162	4267.25
637.777	4227.77
638.393	4222.11
639.008	4163.7
639.622	4170.37
640.237	4124.75
640.851	4147.71
641.468	4143.39
642.082	4122.7
642.697	4054.54
643.311	4104.47
643.925	4050.19
644.539	3996.31
645.154	4026.06
645.768	4006.07
646.382	4002.41
646.996	4017.61
647.612	3995.23
648.226	3945.71
648.84	3988.55
649.454	3921.17
650.068	3899.52
650.682	3862.8
651.295	3848.16
651.909	3923.12
652.523	3906.24
653.136	3898.07
653.75	3808.08
654.361	3845.31
654.975	3816.39
655.589	3823.12
656.202	3867.57
656.815	3761.61
657.429	3774.44
658.042	3714.59
658.655	3723
659.269	3698.48
659.882	3674.46
660.493	3648.52
661.106	3561.69
661.719	3572.14
662.332	3719.43
662.945	3662.5
663.556	3606.15
664.169	3653.13
664.782	3601.32
665.395	3629.45
666.007	3613.14
666.618	3598.09
667.231	3608.53
667.843	3598.48
668.454	3684.74
669.067	3542.07
669.679	3558.14
670.292	3485.1
670.902	3540.45
671.514	3509.88
672.125	3561.74
672.423	3604.74
673.044	3511.74
673.665	3401.74
674.286	3579.74
674.907	3578.74
675.528	3532.24
676.148	3483.24
676.769	3575.74
677.388	3482.74
678.008	3389.74
678.629	3492.74
679.249	3546.24
679.87	3505.74
680.49	3464.74
681.111	3490.74
681.731	3498.74
682.349	3472.74
682.97	3453.24
683.59	3205.74
684.21	3388.74
684.83	3421.74
685.448	3442.74
686.068	3408.74
686.688	3435.24
687.308	3412.74
687.926	3373.74
688.546	3396.24
689.166	3431.74
689.786	3489.74
690.404	3424.24
691.023	3423.74
691.643	3419.24
692.26	3303.74
692.88	3313.74
693.5	3317.74
694.117	3323.74
694.737	3375.74
695.356	3377.74
695.973	3364.24
696.593	3336.24
697.21	3332.24
697.829	3283.74
698.449	3309.74
699.066	3344.74
699.685	3433.74
700.302	3420.74
700.921	3371.74
701.538	3330.74
702.157	3345.24
702.774	3289.74
703.393	3300.74
704.009	3272.74
704.628	3333.74
705.245	3327.74
705.864	3317.74
706.48	3259.74
707.099	3251.74
707.716	3307.24
708.334	3337.24
708.951	3311.74
709.569	3457.74
710.185	3329.74
710.802	3277.74
711.42	3341.24
712.036	3327.74
712.653	3273.74
713.271	3197.74
713.887	3390.74
714.505	3417.74
715.121	3306.74
715.737	3379.74
716.355	3384.74
716.971	3303.74
717.587	3289.74
718.203	3293.74
718.821	3330.74
719.437	3299.24
720.052	3358.24
720.67	3327.74
721.286	3315.24
721.901	3345.74
722.517	3388.74
723.132	3319.74
723.75	3363.24
724.365	3363.24
724.981	3297.24
725.596	3349.74
726.211	3423.24
726.829	3371.74
727.444	3280.24
728.059	3376.74
728.674	3387.24
729.289	3379.74
729.904	3335.74
730.519	3268.74
731.134	3319.74
731.751	3314.24
732.366	3341.74
732.981	3382.74
733.596	3259.74
734.211	3340.24
734.826	3366.24
735.44	3341.24
736.055	3297.74
736.669	3327.74
737.284	3319.24
737.899	3366.24
738.513	3285.74
739.128	3226.24
739.742	3354.24
740.356	3312.74
740.971	3292.24
741.585	3252.24
742.199	3151.74
742.813	3224.74
743.427	3244.24
744.039	3174.74
744.654	3191.24
745.268	3164.24
745.882	3248.24
746.496	3241.24
747.109	3292.24
747.723	3357.74
748.337	3335.24
748.949	3287.74
749.563	3229.74
750.176	3378.24
750.79	3345.24
751.404	3376.24
752.015	3426.24
752.629	3321.74
753.242	3341.74
753.856	3388.74
754.467	3349.74
755.08	3368.74
755.694	3370.24
756.307	3378.24
756.918	3376.74
757.531	3409.74
758.145	3372.74
758.756	3281.74
759.369	3367.24
759.982	3400.24
760.593	3450.74
761.206	3457.74
761.819	3313.74
762.43	3443.74
763.042	3435.24
763.655	3438.74
764.266	3480.24
764.879	3434.24
765.489	3389.24
766.102	3433.24
766.713	3470.24
767.325	3405.24
767.938	3433.74
768.548	3431.74
769.161	3528.74
769.771	3480.74
770.383	3504.24
770.993	3533.74
771.606	3528.74
772.216	3522.74
772.828	3560.74
773.438	3478.74
774.048	3525.74
774.66	3522.74
775.27	3521.74
775.882	3580.74
776.492	3544.74
777.104	3522.24
777.714	3599.24
778.324	3562.74
778.936	3499.74
779.545	3521.74
780.155	3604.24
780.767	3577.74
781.376	3460.24
781.986	3566.24
782.597	3586.74
783.207	3588.74
783.816	3550.74
784.427	3556.24
785.037	3572.74
785.646	3583.74
786.257	3522.24
786.867	3517.74
787.476	3531.74
788.085	3655.74
788.694	3522.74
789.305	3620.24
789.914	3579.74
790.523	3570.74
791.132	3484.24
791.741	3546.74
792.352	3506.24
792.961	3532.74
793.569	3617.24
794.178	3478.24
794.787	3472.74
795.395	3542.74
796.004	3425.74
796.615	3498.74
797.223	3491.24
797.832	3560.24
798.44	3474.74
799.048	3437.24
799.657	3467.74
800.265	3359.74
800.873	3406.24
801.482	3317.74
802.09	3334.24
802.698	3363.24
803.306	3332.74
803.914	3241.24
804.522	3229.24
805.13	3226.18
805.738	3208.82
806.346	3190.88
806.954	3166.54
807.562	3154.74
808.17	3076.74
808.777	3188.74
809.385	3117.74
809.993	3070.74
810.598	3056.74
811.206	3019.74
811.813	3085.74
812.421	3027.74
813.028	3027.24
813.636	2996.74
814.243	2927.74
814.849	2930.24
815.456	2857.24
816.063	2870.74
816.67	2832.24
817.278	2860.24
817.883	2807.74
818.49	2699.24
819.097	2750.74
819.704	2655.74
820.309	2550.74
820.916	2605.74
821.523	2608.74
822.13	2571.74
822.734	2439.74
823.341	2499.74
823.948	2480.24
824.553	2431.24
825.159	2476.74
825.766	2362.24
826.37	2379.24
826.977	2346.74
827.583	2321.74
828.188	2247.74
828.794	2222.74
829.399	2223.74
830.005	2119.74
830.609	2080.74
831.216	2135.74
831.822	2130.24
832.426	2095.74
833.032	2017.74
833.636	1974.74
834.242	1994.74
834.846	1945.74
835.452	1856.74
836.056	1911.74
836.662	1860.24
837.266	1864.74
837.872	1853.24
838.475	1857.74
839.081	1813.74
839.685	1743.74
840.288	1764.74
840.894	1748.74
841.497	1705.24
842.103	1738.24
842.707	1735.74
843.31	1693.74
843.915	1707.74
844.519	1743.74
845.124	1666.74
845.727	1661.24
846.331	1656.24
846.936	1665.24
847.539	1619.24
848.142	1627.74
848.745	1614.74
849.35	1598.74
849.953	1615.74
850.556	1594.74
851.161	1596.74
851.764	1608.74
852.367	1498.74
852.97	1555.74
853.572	1563.74
854.177	1618.24
854.78	1571.74
855.382	1600.74
855.985	1527.74
856.587	1587.74
857.192	1583.74
857.794	1561.74
858.397	1585.24
858.999	1559.74
859.602	1559.24
860.204	1529.74
860.806	1574.24
861.408	1553.74
862.013	1572.74
862.615	1596.74
863.217	1578.24
863.819	1605.24
864.421	1592.74
865.023	1572.24
865.625	1559.74
866.227	1605.74
866.829	1544.74
867.431	1586.74
868.032	1578.74
868.634	1508.74
869.236	1571.24
869.838	1554.74
870.439	1550.74
871.041	1575.24
871.642	1570.74
872.244	1590.74
872.843	1567.74
873.445	1547.74
874.046	1553.74
874.648	1540.24
875.249	1524.74
875.85	1516.24
876.451	1533.24
877.053	1472.74
877.652	1557.24
878.253	1520.74
878.854	1542.24
879.455	1544.24
880.056	1544.74
880.655	1577.74
881.256	1511.24
881.857	1582.74
882.458	1577.74
883.056	1542.74
883.657	1615.74
884.258	1500.74
884.858	1573.24
885.457	1564.74
886.058	1554.74
886.658	1511.74
887.257	1562.74
887.857	1580.74
888.458	1576.24
889.056	1548.74
889.656	1512.74
890.257	1602.74
890.855	1520.74
891.455	1585.74
892.055	1606.74
892.654	1578.74
893.254	1606.74
893.852	1586.24
894.452	1561.74
895.052	1574.74
895.65	1627.74
896.25	1562.74
896.848	1552.74
897.448	1541.74
898.045	1521.74
898.645	1562.74
899.243	1612.74
899.842	1591.24
900.44	1649.74
901.04	1584.24
901.637	1591.24
902.235	1598.74
902.834	1638.74
903.432	1600.74
904.031	1579.24
904.628	1623.24
905.228	1629.74
905.825	1613.74
906.422	1598.74
907.022	1611.24
907.619	1589.74
908.216	1686.24
908.815	1607.24
909.412	1561.74
910.009	1628.74
910.608	1578.74
911.205	1629.74
911.802	1634.74
912.401	1593.74
912.997	1618.74
913.594	1635.74
914.191	1672.74
914.79	1654.74
915.386	1658.74
915.983	1674.74
916.58	1708.74
917.176	1676.74
917.775	1667.24
918.371	1712.74
918.967	1713.74
919.564	1734.74
920.16	1723.24
920.756	1762.24
921.355	1687.74
921.951	1721.24
922.547	1678.74
923.143	1639.74
923.739	1739.74
924.336	1780.74
924.932	1795.74
925.528	1723.74
926.123	1765.74
926.719	1782.74
927.315	1745.24
927.911	1791.74
928.507	1826.74
929.103	1819.74
929.698	1872.24
930.294	1883.74
930.89	1939.74
931.485	1877.24
932.081	1922.74
932.676	1925.74
933.272	1855.74
933.867	1931.74
934.463	1940.24
935.058	1948.24
935.653	1920.74
936.249	1979.24
936.844	1953.24
937.439	2061.74
938.032	2044.74
938.627	2024.74
939.222	2066.74
939.818	2118.74
940.413	2081.74
941.008	2111.24
941.6	2095.74
942.195	2146.74
942.79	2118.24
943.385	2188.74
943.98	2249.74
944.572	2150.74
945.167	2246.74
945.762	2271.24
946.357	2301.24
946.949	2323.74
947.544	2319.74
948.138	2323.74
948.73	2428.24
949.325	2401.74
949.919	2420.74
950.512	2400.24
951.106	2446.74
951.7	2443.74
952.292	2455.74
952.887	2577.74
953.481	2550.74
954.073	2494.24
954.667	2577.24
955.259	2609.74
955.853	2568.74
956.445	2700.74
957.039	2672.74
957.633	2697.24
958.225	2724.74
958.818	2748.24
959.41	2705.74
960.004	2765.74
960.596	2849.24
961.189	2804.74
961.781	2871.74
962.374	2865.74
962.966	2904.74
963.557	2946.74
964.151	2995.74
964.742	2964.74
965.336	2848.74
965.927	3050.24
966.52	3060.74
967.112	3139.24
967.703	3138.74
968.296	3138.24
968.887	3123.24
969.478	3168.74
970.071	3139.24
970.662	3246.74
971.253	3264.74
971.846	3233.74
972.437	3320.24
973.028	3212.74
973.621	3273.74
974.212	3283.74
974.802	3401.24
975.393	3369.74
975.986	3490.24
976.576	3440.24
977.167	3442.74
977.758	3405.74
978.348	3543.74
978.941	3573.24
979.531	3535.74
980.121	3561.74
980.712	3650.74
981.302	3639.74
981.892	3550.74
982.485	3618.74
983.075	3638.74
983.665	3675.74
984.255	3660.74
984.845	3705.74
985.435	3710.24
986.025	3719.24
986.615	3781.24
987.205	3782.74
987.795	3766.74
988.385	3795.74
988.975	3680.74
989.565	3767.24
990.154	3827.24
990.744	3905.74
991.334	3853.24
991.923	3825.24
992.513	3833.74
993.103	3831.24
993.692	3861.74
994.282	3997.24
994.871	3911.74
995.46	3979.24
996.05	4016.24
996.639	3969.74
997.229	3924.74
997.818	4024.74
998.405	4067.24
998.994	4043.74
999.583	3930.74
1000.17	4070.74
1000.76	4043.74
1001.35	3950.24
1001.94	3953.74
1002.53	4015.74
1003.12	4008.74
1003.7	4103.74
1004.29	4247.74
1004.88	4143.74
1005.47	4126.74
1006.06	4193.74
1006.65	4120.24
1007.23	4171.24
1007.82	4169.24
1008.41	4258.24
1009	4250.24
1009.58	4269.74
1010.17	4247.74
1010.76	4191.24
1011.35	4215.24
1011.94	4273.24
1012.52	4266.24
1013.11	4303.24
1013.7	4279.74
1014.29	4256.74
1014.87	4280.74
1015.46	4207.74
1016.05	4237.74
1016.63	4339.24
1017.22	4365.74
1017.81	4327.74
1018.4	4385.24
1018.98	4434.24
1019.57	4368.74
1020.16	4350.74
1020.74	4305.74
1021.33	4393.74
1021.92	4286.24
1022.5	4363.74
1023.09	4405.24
1023.67	4480.74
1024.26	4348.24
1024.85	4320.74
1025.44	4489.24
1026.02	4403.24
1026.61	4437.74
1027.19	4472.24
1027.78	4511.74
1028.37	4478.24
1028.95	4459.24
1029.54	4449.24
1030.12	4524.74
1030.71	4418.74
1031.29	4448.74
1031.88	4498.74
1032.47	4553.74
1033.05	4619.74
1033.64	4402.24
1034.22	4481.24
1034.81	4449.24
1035.39	4404.74
1035.98	4478.74
1036.56	4641.74
1037.15	4502.24
1037.73	4450.74
1038.32	4587.74
1038.9	4478.24
1039.49	4487.74
1040.07	4479.74
1040.66	4502.74
1041.24	4502.74
1041.83	4451.21
1042.41	4611.27
1043	4478.88
1043.58	4390.83
1044.17	4445.75
1044.75	4565.85
1045.33	4528.83
1045.92	4576.23
1046.5	4555.77
1047.09	4561.44
1047.67	4599.39
1048.25	4612.22
1048.84	4571.89
1049.42	4599.11
1050.01	4602.91
1050.59	4592.81
1051.17	4642.74
1051.76	4631.3
1052.34	4683.49
1052.93	4653.53
1053.51	4670.52
1054.09	4684.48
1054.68	4730.59
1055.26	4756.01
1055.84	4737.16
1056.42	4610.38
1057.01	4748.24
1057.59	4756.46
1058.17	4821.93
1058.76	4724.85
1059.34	4816.99
1059.92	4842.67
1060.51	4635.33
1061.09	4820.06
1061.67	4844.78
1062.25	4895.4
1062.84	4838.45
1063.42	4848.49
1064	4949.39
1064.58	5023.11
1065.17	4919.44
1065.75	5026.74
1066.33	5008.34
1066.91	5030.04
1067.49	5037.12
1068.08	4972.22
1068.66	5011.05
1069.24	5093.61
1069.82	5203.66
1070.41	5119.88
1070.99	5120.68
1071.57	5135.01
1072.15	5177.9
1072.73	5165.4
1073.31	5239.7
1073.89	5139.9
1074.48	5097.73
1075.06	5300.09
1075.64	5270.47
1076.22	5286.57
1076.8	5275.83
1077.38	5259.73
1077.96	5345.34
1078.55	5307.68
1079.13	5380.99
1079.71	5437.06
1080.29	5441.43
1080.87	5529.88
1081.45	5414.69
1082.03	5434.62
1082.61	5486.99
1083.19	5602.51
1083.77	5606.08
1084.35	5660.79
1084.93	5621.45
1085.51	5600.2
1086.09	5636.73
1086.67	5612.4
1087.25	5598.46
1087.83	5688.74
1088.41	5661.61
1088.99	5620.49
1089.57	5737.49
1090.15	5676.68
1090.73	5717.01
1091.31	5659.68
1091.89	5690.65
1092.47	5653.63
1093.05	5709.5
1093.63	5777.8
1094.21	5848.66
1094.79	5809.25
1095.37	5860.02
1095.95	5805.13
1096.53	5775.03
1097.11	5879.17
1097.69	5863.15
1098.27	5946.21
1098.85	5967.34
1099.42	5914.31
1100	5795.94
1100.58	5859.32
1101.16	5877.86
1101.74	5881.88
1102.32	5924.92
1102.9	5966.52
1103.48	5954.01
1104.05	5881.14
1104.63	5921.88
1105.21	5916.11
1105.79	5930.21
1106.37	5961.16
1106.95	6039.66
1107.52	6048.81
1108.1	6027.14
1108.68	5956.21
1109.26	5928.92
1109.84	5918.61
1110.41	5920.34
1110.99	5892.97
1111.57	5885.26
1112.15	5937.14
1112.73	6013.78
1113.3	5940.16
1113.88	5904.5
1114.46	5932.35
1115.03	5885.46
1115.61	5905.51
1116.19	5947.44
1116.77	5917.85
1117.34	5947.72
1117.92	5855.02
1118.5	5948.57
1119.08	5796.45
1119.65	5654.78
1120.23	5816.44
1120.81	5688.73
1121.38	5813.46
1121.96	5702.12
1122.54	5784.26
1123.11	5775.21
1123.69	5697.62
1124.27	5697.93
1124.84	5694.34
1125.42	5777.28
1126	5704.08
1126.57	5757.56
1127.15	5689.51
1127.72	5688.51
1128.3	5678.75
1128.88	5485.72
1129.45	5578.8
1130.03	5477.43
1130.6	5551.95
1131.18	5501.56
1131.76	5448.44
1132.33	5452.89
1132.91	5518.05
1133.48	5405.06
1134.06	5426.15
1134.63	5360.7
1135.21	5438.51
1135.78	5480.12
1136.36	5417.69
1136.94	5389.95
1137.51	5299.41
1138.09	5310.84
1138.66	5307.2
1139.24	5234.73
1139.81	5279.96
1140.39	5226.01
1140.96	5282.48
1141.53	5226.66
1142.11	5083.34
1142.68	5156.8
1143.26	5274.39
1143.83	5172.6
1144.41	5152.59
1144.98	5035.42
1145.56	5029.95
1146.13	5069.5
1146.71	5158.85
1147.28	5021.53
1147.85	4919.32
1148.43	4931.09
1149	4886.33
1149.58	4864.94
1150.15	4803.48
1150.73	4902.67
1151.3	4912.33
1151.87	4748.62
1152.45	4811.73
1153.02	4732.96
1153.59	4729.3
1154.17	4722.23
1154.74	4666.75
1155.31	4691.53
1155.89	4646.68
1156.46	4560.08
1157.03	4514.91
1157.61	4445.95
1158.18	4478.3
1158.75	4459.85
1158.97	4474.85
1159.55	4507.35
1160.14	4382.35
1160.72	4351.85
1161.3	4355.35
1161.88	4294.35
1162.46	4223.85
1163.05	4236.85
1163.63	4168.85
1164.21	4238.85
1164.79	4086.85
1165.37	4111.85
1165.95	4094.85
1166.53	4014.85
1167.11	4044.85
1167.7	3927.85
1168.28	3944.35
1168.86	3914.35
1169.44	3866.85
1170.02	3805.85
1170.6	3819.85
1171.18	3811.85
1171.76	3745.85
1172.35	3713.85
1172.93	3725.35
1173.51	3735.85
1174.09	3713.35
1174.67	3672.85
1175.25	3609.35
1175.83	3528.85
1176.41	3549.35
1176.99	3452.85
1177.57	3544.85
1178.15	3523.35
1178.73	3401.85
1179.31	3360.85
1179.89	3346.85
1180.47	3347.85
1181.05	3229.85
1181.63	3247.35
1182.21	3261.85
1182.79	3226.85
1183.37	3195.85
1183.95	3097.85
1184.53	3138.35
1185.11	3166.35
1185.69	3060.85
1186.27	3040.35
1186.85	3067.85
1187.43	2996.85
1188.01	2950.35
1188.58	2831.85
1189.16	2897.85
1189.74	2808.35
1190.32	2759.85
1190.9	2743.85
1191.48	2785.35
1192.06	2768.85
1192.64	2703.85
1193.22	2628.85
1193.8	2631.85
1194.37	2552.85
1194.95	2647.85
1195.53	2558.85
1196.11	2538.85
1196.69	2566.85
1197.27	2451.85
1197.85	2501.35
1198.42	2454.85
1199	2386.35
1199.58	2344.85
1200.16	2383.35
1200.74	2368.85
1201.31	2338.85
1201.89	2219.85
1202.47	2222.85
1203.05	2184.85
1203.63	2132.35
1204.2	2165.35
1204.78	2051.85
1205.36	2100.85
1205.94	2097.35
1206.51	2147.85
1207.09	2007.85
1207.67	2032.35
1208.25	2046.85
1208.82	1734.85
1209.4	1952.35
1209.98	1990.35
1210.56	1951.35
1211.13	1902.85
1211.71	1905.35
1212.29	1831.85
1212.86	1854.35
1213.44	1831.35
1214.02	1769.85
1214.59	1701.85
1215.17	1749.85
1215.75	1746.85
1216.32	1729.85
1216.9	1683.85
1217.48	1632.85
1218.05	1616.85
1218.63	1625.35
1219.21	1581.85
1219.78	1596.35
1220.36	1593.85
1220.93	1559.85
1221.51	1567.35
1222.09	1543.35
1222.66	1456.85
1223.24	1531.35
1223.81	1478.85
1224.39	1485.85
1224.97	1426.35
1225.54	1423.85
1226.12	1384.85
1226.69	1379.85
1227.27	1337.35
1227.84	1374.85
1228.42	1369.85
1228.99	1316.85
1229.57	1358.35
1230.15	1366.35
1230.72	1291.35
1231.3	1353.35
1231.87	1302.85
1232.44	1288.85
1233.02	1319.85
1233.6	1334.85
1234.17	1330.85
1234.75	1286.35
1235.32	1319.85
1235.89	1289.35
1236.47	1289.85
1237.04	1276.35
1237.62	1250.35
1238.19	1249.35
1238.77	1224.85
1239.34	1252.85
1239.92	1259.35
1240.49	1288.85
1241.06	1240.85
1241.64	1230.35
1242.21	1201.85
1242.79	1249.35
1243.36	1183.85
1243.93	1182.85
1244.51	1213.85
1245.08	1207.35
1245.66	1193.85
1246.23	1182.35
1246.8	1171.85
1247.38	1195.85
1247.95	1166.85
1248.52	1190.85
1249.1	1199.35
1249.67	1166.85
1250.24	1180.35
1250.82	1158.85
1251.39	1168.35
1251.96	1139.85
1252.54	1189.85
1253.11	1152.85
1253.68	1175.35
1254.26	1156.85
1254.83	1170.85
1255.4	1162.85
1255.97	1143.85
1256.55	1108.85
1257.12	1126.85
1257.69	1133.85
1258.27	1128.35
1258.84	1124.35
1259.41	1165.35
1259.98	1117.85
1260.55	1145.35
1261.13	1129.35
1261.7	1078.85
1262.27	1109.85
1262.84	1111.85
1263.41	1079.85
1263.99	1118.85
1264.56	1126.85
1265.13	1122.35
1265.7	1122.35
1266.27	1147.85
1266.85	1099.35
1267.42	1132.85
1267.99	1083.35
1268.56	1127.35
1269.13	1124.85
1269.7	1105.85
1270.28	1082.35
1270.85	1101.35
1271.42	1115.85
1271.99	1083.85
1272.56	1092.85
1273.13	1101.85
1273.7	1120.85
1274.27	1115.35
1274.85	1095.35
1275.41	1076.35
1275.99	1117.35
1276.56	1060.85
1277.13	1090.85
1277.7	1129.35
1278.27	1108.35
1278.84	1099.35
1279.41	1097.85
1279.98	1030.85
1280.55	1118.85
1281.12	1121.35
1281.69	1084.85
1282.26	1079.85
1282.83	1056.85
1283.4	1065.35
1283.97	1098.85
1284.54	1066.35
1285.11	1051.85
1285.68	1015.35
1286.25	1046.85
1286.82	1022.85
1287.39	1010.85
1287.96	1068.35
1288.53	1046.35
1289.1	1058.85
1289.67	1101.85
1290.24	1083.35
1290.81	1072.35
1291.38	1086.85
1291.95	1075.85
1292.52	1088.35
1293.09	1100.85
1293.65	1111.85
1294.22	1102.85
1294.79	1083.85
1295.36	1050.85
1295.93	1072.85
1296.5	1060.85
1297.07	1053.85
1297.64	1082.85
1298.21	1035.35
1298.78	1070.85
1299.34	1062.35
1299.91	1056.85
1300.48	1018.35
1301.05	1059.85
1301.62	1104.85
1302.19	1087.85
1302.75	1041.35
1303.32	1103.85
1303.89	1089.35
1304.46	1058.85
1305.03	1044.35
1305.59	1060.85
1306.16	1021.85
1306.73	1067.85
1307.3	1091.35
1307.87	1081.35
1308.43	1070.35
1309	1087.35
1309.57	1093.85
1310.14	1076.85
1310.7	1101.35
1311.27	1077.85
1311.84	1053.85
1312.4	1077.85
1312.97	1045.85
1313.54	1098.85
1314.11	1048.35
1314.67	1066.35
1315.24	1069.85
1315.81	1002.85
1316.38	1051.85
1316.94	1061.35
1317.51	1042.35
1318.08	1044.35
1318.64	1069.85
1319.21	1078.35
1319.77	1018.85
1320.34	1085.35
1320.91	1046.85
1321.48	1075.85
1322.04	1074.85
1322.61	1065.35
1323.18	1063.85
1323.74	1041.35
1324.31	1063.85
1324.87	1077.85
1325.44	1065.85
1326	1052.35
1326.57	1048.35
1327.14	1060.85
1327.7	1031.85
1328.27	1038.35
1328.83	1048.85
1329.4	1080.35
1329.97	1080.35
1330.53	1076.85
1331.1	1067.85
1331.66	1081.85
1332.23	1071.35
1332.79	1058.85
1333.36	1012.85
1333.92	1060.35
1334.49	1043.85
1335.05	1049.85
1335.62	1086.35
1336.18	1088.85
1336.75	1075.85
1337.31	1080.35
1337.88	1078.35
1338.44	1039.85
1339.01	1095.35
1339.57	1070.85
1340.14	1073.35
1340.7	1050.85
1341.27	1077.85
1341.83	1077.35
1342.39	1067.85
1342.96	1058.85
1343.52	1064.35
1344.09	1064.85
1344.65	1058.35
1345.22	1048.85
1345.78	1088.85
1346.35	1078.85
1346.91	1080.35
1347.47	1052.35
1348.04	1037.85
1348.6	1087.35
1349.16	1079.35
1349.73	1018.35
1350.29	1063.85
1350.86	1081.85
1351.42	1060.35
1351.98	1079.85
1352.55	1079.35
1353.11	1066.85
1353.67	1069.85
1354.23	1062.85
1354.8	1078.35
1355.36	1065.85
1355.92	1091.85
1356.49	1078.35
1357.05	1031.85
1357.61	1074.85
1358.18	1103.35
1358.74	1062.85
1359.3	1059.85
1359.87	1075.85
1360.43	1065.85
1360.99	1058.35
1361.55	1049.85
1362.11	1053.35
1362.68	1054.85
1363.24	1050.35
1363.8	1084.35
1364.36	1082.85
1364.93	1094.35
1365.49	1046.85
1366.05	1094.85
1366.61	1061.35
1367.17	1070.85
1367.74	1059.85
1368.3	1062.85
1368.86	1060.85
1369.42	1090.85
1369.98	1070.85
1370.55	1090.85
1371.11	1093.85
1371.67	1044.85
1372.23	1065.35
1372.79	1089.35
1373.35	1092.85
1373.91	1104.35
1374.48	1077.35
1375.04	1100.35
1375.6	1062.85
1376.16	1104.85
1376.72	1082.85
1377.28	1091.35
1377.84	1055.85
1378.4	1066.85
1378.96	1105.85
1379.53	1074.35
1380.09	1089.35
1380.65	1067.35
1381.21	1057.85
1381.77	1065.35
1382.33	1069.35
1382.89	1069.85
1383.45	1075.35
1384.01	1095.35
1384.57	1101.35
1385.13	1095.85
1385.69	1069.35
1386.25	1064.85
1386.81	1056.35
1387.37	1094.85
1387.93	1019.85
1388.49	1027.85
1389.05	1079.85
1389.61	1097.85
1390.17	1093.85
1390.73	1109.85
1391.29	1042.35
1391.85	1087.35
1392.41	1064.85
1392.97	1090.85
1393.53	1053.85
1394.09	1071.35
1394.65	1070.85
1395.21	1085.35
1395.77	1068.85
1396.33	1093.85
1396.88	1026.85
1397.44	1110.35
1398	1053.85
1398.56	1081.85
1399.12	1088.85
1399.68	1043.85
1400.24	1069.35
1400.8	1051.35
1401.36	1069.85
1401.91	1101.35
1402.47	1072.35
1403.03	1114.85
1403.59	1108.35
1404.15	1084.35
1404.71	1070.35
1405.26	1097.35
1405.82	1099.85
1406.38	1076.85
1406.94	1057.35
1407.5	1069.85
1408.06	1105.35
1408.61	1066.85
1409.17	1085.35
1409.73	1061.35
1410.29	1086.35
1410.85	1087.85
1411.4	1074.35
1411.96	1061.35
1412.52	1110.85
1413.08	1088.35
1413.63	1054.85
1414.19	1129.35
1414.75	1068.35
1415.31	1099.85
1415.86	1068.85
1416.42	1080.85
1416.98	1067.85
1417.53	1091.35
1418.09	1069.85
1418.65	1100.85
1419.21	1104.85
1419.76	1072.35
1420.32	1105.85
1420.88	1095.35
1421.43	1064.35
1421.99	1092.85
1422.55	1105.85
1423.1	1093.85
1423.66	1104.85
1424.22	1077.35
1424.77	1073.35
1425.33	1102.85
1425.89	1124.35
1426.44	1055.85
1427	1081.85
1427.55	1104.85
1428.11	1142.35
1428.67	1089.85
1429.22	1103.85
1429.78	1087.35
1430.33	1107.85
1430.89	1085.35
1431.44	1067.35
1432	1137.35
1432.56	1094.85
1433.11	1119.35
1433.67	1092.85
1434.22	1075.85
1434.78	1082.85
1435.34	1114.35
1435.89	1095.85
1436.44	1068.85
1437	1126.35
1437.56	1118.85
1438.11	1104.85
1438.67	1096.85
1439.22	1092.35
1439.78	1110.85
1440.33	1117.35
1440.89	1119.85
1441.44	1122.85
1441.99	1081.85
1442.55	1106.35
1443.11	1103.35
1443.66	1090.85
1444.21	1104.85
1444.77	1102.85
1445.32	1107.35
1445.88	1087.85
1446.43	1113.35
1446.98	1097.85
1447.54	1076.35
1448.09	1109.85
1448.65	1093.35
1449.2	1105.35
1449.76	1130.35
1450.31	1089.35
1450.86	1098.85
1451.42	1116.85
1451.97	1093.35
1452.52	1149.85
1453.08	1097.85
1453.63	1047.85
1454.19	1115.85
1454.74	1117.85
1455.29	1080.85
1455.85	1107.35
1456.4	1111.35
1456.95	1117.35
1457.51	1073.85
1458.06	1135.85
1458.61	1093.85
1459.17	1086.85
1459.72	1117.35
1460.27	1124.35
1460.82	1116.85
1461.38	1113.35
1461.93	1112.85
1462.48	1134.85
1463.04	1110.85
1463.59	1124.85
1464.14	1085.85
1464.69	1129.85
1465.25	1150.35
1465.8	1100.85
1466.35	1144.85
1466.9	1115.35
1467.46	1134.85
1468.01	1111.35
1468.56	1106.85
1469.11	1119.85
1469.66	1111.85
1470.22	1133.85
1470.77	1128.35
1471.32	1109.35
1471.87	1118.85
1472.42	1088.35
1472.98	1128.35
1473.53	1123.85
1474.08	1114.85
1474.63	1130.85
1475.18	1142.85
1475.73	1111.85
1476.28	1104.85
1476.84	1148.35
1477.39	1111.35
1477.94	1103.85
1478.49	1142.35
1479.04	1105.85
1479.59	1092.85
1480.14	1118.85
1480.7	1144.85
1481.25	1143.85
1481.8	1107.35
1482.35	1102.85
1482.9	1121.85
1483.45	1148.85
1484	1116.85
1484.55	1127.85
1485.1	1127.35
1485.65	1087.85
1486.2	1138.85
1486.75	1142.35
1487.3	1112.35
1487.85	1105.85
1488.4	1118.85
1488.95	1127.85
1489.5	1128.35
1490.05	1163.35
1490.6	1123.35
1491.15	1133.85
1491.7	1117.35
1492.25	1151.85
1492.8	1162.85
1493.35	1127.35
1493.9	1142.85
1494.45	1143.85
1495	1156.85
1495.55	1118.35
1496.1	1146.85
1496.65	1097.85
1497.2	1140.85
1497.75	1118.35
1498.3	1107.85
1498.85	1127.35
1499.4	1099.85
1499.95	1166.85
