19.3994	9502.35
20.0758	10112.9
20.7522	10347.9
21.4285	10903.4
22.1048	11199.9
22.7811	11677.9
23.4573	11259.9
24.1334	12301.9
24.8095	13030.4
25.4855	13426.9
26.1615	13582.9
26.8375	13584.9
27.5134	13862.9
28.1893	14162.9
28.8651	14447.9
29.5408	14828.4
30.2166	14955.9
30.8922	15211.9
31.5679	15172.9
32.2434	15717.9
32.919	15926.9
33.5945	16456.4
34.2699	16880.9
34.9453	17088.4
35.6206	16938.9
36.2959	17134.4
36.9712	17228.9
37.6464	17471.4
38.3192	17745.4
38.9943	17974.4
39.6694	18046.9
40.3444	18324.4
41.0194	18499.4
41.6943	18337.9
42.3692	18708.4
43.0417	18965.9
43.7165	18694.9
44.3912	18935.4
45.0659	19066.9
45.7405	19376.9
46.4128	19143.9
47.0874	19387.9
47.7619	19776.4
48.4363	19952.4
49.1084	19852.4
49.7828	19729.9
50.4571	19778.9
51.1314	19884.9
51.8033	20046.4
52.4775	20008.9
53.1516	19999.9
53.8234	20041.4
54.4974	19593.9
55.1714	19798.9
55.843	19802.4
56.5169	20085.4
57.1908	20445.9
57.8623	20483.4
58.536	20544.9
59.2074	20309.9
59.8811	20358.4
60.5547	20147.9
61.2259	20480.9
61.8995	20872.4
62.5706	21303.4
63.2441	21226.4
63.9174	21102.9
64.5885	20947.9
65.2618	20569.4
65.9327	20785.4
66.6059	20701.9
67.2767	20462.4
67.9498	20227.9
68.6206	19750.9
69.2936	19927.9
69.9643	19769.9
70.6372	19813.4
71.3077	20007.9
71.9783	19633.9
72.651	19606.4
73.3215	20705.4
73.9941	22013.9
74.6645	21905.9
75.3371	21986.4
76.0073	21580.4
76.6775	21224.9
77.3499	20732.9
78.02	20085.9
78.6901	19958.4
79.3624	19876.4
80.0324	19755.9
80.7023	19532.9
81.3745	19690.9
82.0443	19199.4
82.7141	18935.9
83.3861	18809.9
84.0558	19027.9
84.7254	18841.4
85.3973	18929.9
86.0668	19176.9
86.7364	18686.9
87.4058	18577.9
88.0775	18640.9
88.7469	18473.9
89.4162	18600.9
90.0855	18837.9
90.7547	18618.9
91.4261	18791.9
92.0953	18498.4
92.7644	18342.4
93.4334	18362.9
94.1024	18308.9
94.7713	18282.4
95.4425	18047.9
96.1114	17831.9
96.7802	17904.9
97.449	17726.9
98.1177	17875.4
98.7863	17578.9
99.455	17715.9
100.124	17718.9
100.792	17590.9
101.461	17466.4
102.131	17295.9
102.8	17209.9
103.468	17067.9
104.136	17373.9
104.805	17028.9
105.473	17026.4
106.141	16962.4
106.809	16990.9
107.477	16709.9
108.145	16858.9
108.813	16748.9
109.481	16760.9
110.147	16579.9
110.814	16484.9
111.482	16448.9
112.15	16553.9
112.818	16991.9
113.485	16942.9
114.153	16781.4
114.821	16411.9
115.488	15985.4
116.156	15837.9
116.821	15606.9
117.488	15686.4
118.155	15781.4
118.823	15672.4
119.49	15438.9
120.157	15263.9
120.822	15612.2
121.489	15253.9
122.156	15253.9
122.823	15373.9
123.49	15349.4
124.155	15206.9
124.822	15167.4
125.488	15175.9
126.155	15181.4
126.82	15205.9
127.486	15149.4
128.153	15018.9
128.817	15006.9
129.484	14661.4
130.15	14734.9
130.817	14623.9
131.481	14806.9
132.147	14876.4
132.811	14600.9
133.478	14637.9
134.144	14429.9
134.808	14470.9
135.474	14336.9
136.14	14365.9
136.804	14557.9
137.47	14293.4
138.133	14165.4
138.799	14114.4
139.463	14168.9
140.129	13965.9
140.795	14072.9
141.458	14081.4
142.124	13841.9
142.787	13726.9
143.453	13849.9
144.116	13756.9
144.781	13810.9
145.445	13912.9
146.11	13859.9
146.773	13819.4
147.436	13725.9
148.101	13425.9
148.764	13463.9
149.429	13495.4
150.092	13488.9
150.757	13492.9
151.42	13608.9
152.083	13555.9
152.748	13412.9
153.41	13315.4
154.075	13297.4
154.738	13622.9
155.4	13215.9
156.065	13267.9
156.727	13146.9
157.39	13150.9
158.054	13269.4
158.717	13034.9
159.379	13065.9
160.041	13213.9
160.705	13139.9
161.367	13058.9
162.03	12510.9
162.692	12767.9
163.356	12699.4
164.018	12897.4
164.679	12861.9
165.341	13000.9
166.005	12808.9
166.667	12692.9
167.329	12606.4
167.99	12614.9
168.652	12935.9
169.313	13015.4
169.977	12541.9
170.639	12734.9
171.3	12757.9
171.961	12662.4
172.623	12741.4
173.284	12713.9
173.945	12658.9
174.606	12762.9
175.267	12608.9
175.931	12672.4
176.592	12510.9
177.253	12636.4
177.914	12629.9
178.575	12686.4
179.236	12541.9
179.896	12602.4
180.557	12575.9
181.218	12554.4
181.879	12614.4
182.539	12535.9
183.2	12677.9
183.86	12558.4
184.521	12513.4
185.181	12340.9
185.839	12272.4
186.5	12318.4
187.16	12232.9
187.82	12438.4
188.48	12511.4
189.141	12377.9
189.801	12431.9
190.461	12255.9
191.121	12332.9
191.779	12531.4
192.439	12557.9
193.098	12533.9
193.758	12303.4
194.418	12551.9
195.078	12461.4
195.735	12429.9
196.395	12539.4
197.055	12624.9
197.714	12696.9
198.374	12361.9
199.031	12430.9
199.691	12363.9
200.35	12509.9
201.009	12483.9
201.666	12400.9
202.326	12594.4
202.985	12670.9
203.642	12328.4
204.301	12364.4
204.96	12356.9
205.617	12539.9
206.276	12474.4
206.935	12568.9
207.591	12570.9
208.25	12537.9
208.909	12466.9
209.566	12582.4
210.224	12457.9
210.881	12814.4
211.539	12605.9
212.196	12587.9
212.854	12606.4
213.513	12368.9
214.169	12407.4
214.827	12604.9
215.483	12530.9
216.142	12595.9
216.798	12470.9
217.456	12602.9
218.112	12574.4
218.77	12457.9
219.426	12427.9
220.084	12484.9
220.74	12640.4
221.398	12482.9
222.053	12666.4
222.709	12622.4
223.367	12428.9
224.022	12595.4
224.68	12925.9
225.336	12748.9
225.991	12589.9
226.649	12299.4
227.304	12376.9
227.961	12233.4
228.617	12407.9
229.272	12370.4
229.929	12507.9
230.584	12432.9
231.239	12279.9
231.897	12503.4
232.551	12602.4
233.206	12746.4
233.861	12568.9
234.518	12573.4
235.173	13017.4
235.828	12767.4
236.482	12861.9
237.139	12818.9
237.794	12850.4
238.449	12837.4
239.103	13152.9
239.757	12920.9
240.414	12939.9
241.069	12681.9
241.723	12678.9
242.377	12870.9
243.031	12842.9
243.686	13043.9
244.342	13069.9
244.996	12908.9
245.65	12899.4
246.304	12587.9
246.958	12862.4
247.612	13086.9
248.266	13011.9
248.92	13031.4
249.573	13062.9
250.227	13166.9
250.881	12886.9
251.535	12877.4
252.188	13027.9
252.842	12986.4
253.495	13199.4
254.149	12996.4
254.802	13026.9
255.456	12977.9
256.109	12850.9
256.762	12842.9
257.415	12944.9
258.069	13138.4
258.722	13188.9
259.375	13132.9
260.028	13043.9
260.681	12978.9
261.334	12997.4
261.987	12806.9
262.64	13043.4
263.29	13164.9
263.943	13061.4
264.596	13178.9
265.249	13116.9
265.901	12995.9
266.554	12986.9
267.204	13247.9
267.857	13180.9
268.509	13043.4
269.162	13093.9
269.814	12892.9
270.464	12916.9
271.117	12915.9
271.769	12919.9
272.421	12987.9
273.071	12984.9
273.723	12927.9
274.375	13049.9
275.025	12917.9
275.677	12997.9
276.329	12891.9
276.979	12975.9
277.631	12997.9
278.283	12635.9
278.932	12796.4
279.584	13114.9
280.236	13000.9
280.885	13100.9
281.537	13176.9
282.188	12988.9
282.838	13083.4
283.489	13043.9
284.138	13056.4
284.79	13034.9
285.439	12989.9
286.09	13103.9
286.739	13037.9
287.39	12877.9
288.041	12784.9
288.69	12916.9
289.341	13005.9
289.99	12825.9
290.639	12965.4
291.29	13081.9
291.939	12815.9
292.589	12657.9
293.238	12712.4
293.889	12756.8
294.537	12750.2
295.188	12742.3
295.836	12744.2
296.485	12738.2
297.135	12719.2
297.784	12715
298.434	12704.6
299.082	12672.4
299.73	13036.9
300.381	12812.9
301.029	12841.9
301.677	12896.9
302.327	12788.9
302.975	12827.4
303.623	12791.4
304.271	12787.9
304.921	12904.4
305.568	12865.4
306.216	12727.9
306.866	12754.4
307.513	12712.9
308.161	12663.9
308.809	12852.4
309.456	12801.9
310.106	12898.4
310.753	12603.9
311.4	12715.3
312.048	12659.9
312.695	12317.9
313.344	12709.9
313.992	12750.4
314.639	12726.9
315.286	12641.9
315.933	12541.9
316.58	12653.9
317.227	12548.9
317.874	12748.4
318.521	12746.4
319.17	12677.9
319.816	12675.9
320.463	12832.4
321.11	12816.9
321.757	12509.9
322.403	12628.9
323.05	12821.4
323.696	12752.9
324.343	12333.4
324.989	12838.9
325.636	12620.4
326.282	12661.4
326.928	12624.9
327.574	12538.9
328.221	12835.4
328.867	12828.4
329.511	12784.9
330.157	12653.9
330.803	12696.9
331.449	12599.4
332.095	12747.4
332.741	12707.4
333.387	12814.4
334.032	12681.9
334.678	12801.9
335.322	12568.4
335.967	12771.4
336.613	12747.4
337.259	12688.9
337.904	12969.4
338.547	12970.4
339.193	12900.4
339.838	12780.4
340.484	12736.9
341.129	12836.9
341.772	12803.9
342.417	13003.4
343.062	13013.4
343.705	12859.9
344.351	12769.4
344.996	12697.9
345.641	12861.9
346.283	12801.9
346.928	12942.4
347.573	13028.4
348.216	13028.4
348.861	12970.4
349.505	12966.4
350.148	12966.4
350.793	13052.4
351.435	13083.4
352.08	12890.9
352.724	13069.9
353.367	13173.9
354.011	13021.9
354.653	13015.4
355.298	13125.4
355.94	13091.9
356.584	13153.9
357.226	13157.9
357.87	12846.9
358.512	13095.4
359.156	13131.4
359.798	13238.9
360.442	13245.9
361.084	13433.4
361.728	13413.9
362.37	13288.9
363.013	13246.4
363.655	13257.4
364.299	13269.9
364.94	13232.9
365.582	13419.9
366.225	13384.4
366.867	13320.9
367.51	13358.4
368.152	13330.9
368.793	13138.9
369.436	13544.9
370.078	13342.9
370.719	13609.9
371.362	13749.4
372.003	13357.9
372.644	13489.9
373.287	13472.4
373.928	13559.4
374.569	13430.9
375.21	13739.9
375.853	13508.4
376.493	13561.9
377.134	13512.9
377.775	13671.4
378.418	13797.9
379.058	13515.9
379.699	13668.4
380.339	13933.4
380.98	13826.9
381.62	13669.9
382.263	13826.9
382.903	13624.9
383.543	13896.9
384.183	14091.9
384.823	13941.4
385.464	14029.9
386.104	13814.9
386.744	13866.4
387.386	13926.9
388.026	14113.4
388.666	14173.9
389.306	14221.9
389.945	14359.9
390.585	14219.9
391.225	13975.9
391.865	14287.9
392.504	14160.9
393.144	14424.9
393.784	14376.9
394.423	14575.4
395.063	14311.9
395.702	14449.9
396.341	14155.9
396.981	14340.9
397.62	14346.4
398.259	14696.4
398.896	14599.9
399.536	14587.9
400.175	14407.9
400.814	14347.9
401.453	14193.9
402.092	14667.9
402.731	14787.4
403.37	14851.4
404.006	14797.4
404.645	14818.9
405.284	14683.9
405.923	14674.4
406.562	14760.4
407.2	15076.4
407.837	15005.4
408.475	14866.4
409.114	14950.9
409.752	14881.9
410.388	14909.9
411.027	15049.4
411.665	14849.9
412.301	15035.1
412.94	15071.9
413.578	15143.9
414.216	15070.9
414.852	15062.9
415.49	15207.4
416.128	15073.9
416.764	15213.9
417.402	15333.9
418.04	15352.4
418.676	15093.9
419.314	15131.4
419.949	15347.4
420.587	15354.9
421.225	15350.4
421.86	15435.9
422.498	15345.9
423.133	15435.9
423.771	15235.4
424.406	15129.9
425.043	14947.9
425.679	15117.9
426.316	15373.9
426.951	15528.9
427.589	15664.4
428.224	15574.4
428.861	15472.9
429.496	15531.9
430.133	15710.9
430.768	15775.9
431.405	15863.9
432.04	15865.9
432.674	15742.9
433.311	15745.4
433.946	15516.9
434.583	15935.4
435.217	16153.4
435.852	16169.4
436.489	15978.4
437.123	15961.9
437.758	15993.9
438.394	15647.9
439.028	15989.4
439.663	16094.4
440.299	16204.9
440.933	16190.4
441.568	16252.4
442.202	16242.9
442.838	16147.4
443.472	16184.9
444.106	16141.9
444.74	16063.9
445.376	16246.9
446.01	16511.9
446.644	16296.9
447.277	16102.9
447.911	16339.9
448.547	16185.9
449.181	16364.4
449.814	16498.4
450.448	16447.4
451.081	16492.9
451.715	16538.9
452.348	16218.9
452.984	16581.4
453.617	16534.4
454.251	16612.9
454.884	16960.9
455.517	16755.9
456.15	16766.9
456.784	16797.4
457.417	16721.9
458.05	16765.9
458.683	17049.4
459.316	17053.9
459.949	17291.9
460.582	17087.4
461.214	17041.9
461.847	17090.4
462.48	17176.9
463.113	17346.9
463.745	17498.9
464.378	17549.4
465.011	17504.4
465.643	17659.9
466.276	17389.9
466.906	17599.9
467.538	17466.9
468.171	17691.9
468.803	17556.9
469.435	17583.9
470.068	17810.9
470.7	17502.4
471.33	17459.4
471.962	17522.9
472.594	18001.9
473.226	17681.9
473.858	18006.4
474.488	17838.9
475.12	17658.9
475.752	17592.4
476.384	17674.9
477.013	17857.9
477.645	17892.4
478.277	18037.9
478.908	17981.9
479.538	17869.9
480.169	17767.9
480.801	17740.4
481.43	17780.4
482.062	17767.4
482.693	17695.9
483.322	17707.4
483.954	17799.4
484.585	17325.9
485.214	17476.9
485.845	17199.4
486.474	17412.9
487.105	17290.9
487.736	17439.9
488.365	17367.4
488.996	17163.9
489.625	17114.4
490.256	16975.4
490.885	16933.9
491.515	16841.4
492.144	16631.9
492.775	16562.4
493.403	16330.9
494.034	16188.9
494.662	15989.9
495.293	16069.4
495.921	16095.4
496.552	15855.9
497.18	15939.9
497.81	15532.9
498.439	15676.9
499.067	15380.9
499.697	15197.9
500.325	15145.4
500.955	14952.4
501.583	14807.9
502.211	14562.9
502.841	14461.4
503.469	14117.9
504.097	13994.4
504.727	14019.4
505.355	13870.9
505.982	13800.9
506.61	13806.9
507.24	13516.4
507.867	13446.4
508.495	13393.9
509.124	13387.4
509.752	13250.4
510.379	13130.4
511.007	13109.9
511.634	12951.9
512.263	12845.4
512.891	12637.4
513.518	12473.9
514.145	12569.9
514.772	12419.4
515.399	12236.9
516.028	12174.9
516.655	12031.9
517.282	11909.4
517.909	11661.9
518.536	11538.9
519.163	11993.9
519.789	11810.9
520.416	11783.9
521.043	11322.9
521.669	11517.4
522.298	11380.4
522.925	11435.4
523.551	11254.9
524.178	11277.9
524.804	11318.9
525.431	11230.4
526.057	11150.9
526.683	10993.4
527.31	10755.9
527.934	11057.9
528.56	10975.9
529.186	11024.4
529.812	10925.9
530.438	10913.4
531.064	10978.4
531.69	10730.4
532.316	10920.9
532.942	10850.4
533.568	10970.4
534.194	10893.4
534.817	10882.9
535.443	10813.9
536.069	10644.9
536.694	10764.9
537.32	10834.9
537.943	10700.9
538.569	10926.9
539.194	10884.4
539.82	10887.9
540.445	10862.9
541.068	10995.4
541.694	10839.9
542.319	10903.4
542.944	10890.9
543.567	11143.4
544.192	10925.9
544.817	10990.9
545.44	11132.7
546.065	10955.9
546.69	10976.2
547.313	11074
547.938	11218.5
548.563	11221
549.185	11365.2
549.81	11280
550.433	11392.7
551.057	11394.9
551.682	11465.1
552.305	11582.6
552.929	11817.8
553.551	11816.7
554.176	11755
554.798	11856.1
555.423	12029.7
556.047	12113.3
556.669	12245.8
557.293	12273.7
557.915	12557.1
558.537	12600.9
559.162	12648.1
559.784	12499.6
560.408	12658.1
561.03	12599.1
561.654	12888.4
562.275	13042.3
562.899	12886.8
563.521	13003.6
564.143	13201.2
564.766	13178.6
565.388	13234.7
566.009	13262.8
566.633	13337.2
567.255	13322.5
567.878	13435.7
568.5	13359.4
569.121	13149.5
569.742	13320.6
570.366	13251.5
570.987	13432.8
571.608	13606.2
572.231	13271.6
572.852	13372.6
573.473	13275.1
574.094	13240.4
574.717	13039.6
575.338	13102.5
575.959	12977.1
576.58	12915.4
577.201	12919.9
577.822	12609
578.445	12464
579.065	12513.8
579.686	12529.4
580.306	12414.6
580.927	12500.9
581.548	12155.9
582.168	12039.8
582.791	11857.5
583.411	11714.1
584.031	11750.7
584.652	11650.3
585.272	11620.1
585.892	11679
586.512	11431.6
587.132	11309.4
587.753	11013.5
588.373	11111
588.993	11071.9
589.613	10962.3
590.233	10999
590.852	10966.7
591.472	10689.3
592.092	10622
592.712	10523.8
593.332	10446.9
593.951	10381
594.569	10346.3
595.188	10290.4
595.808	10224.5
596.427	10027.1
597.047	9793.81
597.666	9743.2
598.286	9777.38
598.905	9669.57
599.522	9610.64
600.142	9700.1
600.761	9598.92
601.38	9377.95
601.999	9262.38
602.616	9354.84
603.235	9337.18
603.854	9247.88
604.473	9352.02
605.09	9243.36
605.709	9127.05
606.328	9054.1
606.947	8971.04
607.563	8983.19
608.182	9008.47
608.801	8948.85
609.417	8952.01
610.036	8784.32
610.655	8721.47
611.271	8672.03
611.89	8743.26
612.508	8656.98
613.124	8570.13
613.743	8652.85
614.359	8556.28
614.977	8529.84
615.595	8464.44
616.212	8414.39
616.83	8366.86
617.446	8391.45
618.064	8302.23
618.68	8287.15
619.298	8274.94
619.914	8249.56
620.532	8155.76
621.147	8085.27
621.765	8043.48
622.381	7948.49
622.999	8029.61
623.614	7963.97
624.23	7803.67
624.847	7789.56
625.463	7749.27
626.08	7659.39
626.696	7628.79
627.311	7628.55
627.929	7543.56
628.544	7473.02
629.161	7339.14
629.776	7261.12
630.392	7268.19
631.009	6938.21
631.624	7074.65
632.239	7166.51
632.854	7058.54
633.471	7036.51
634.086	6931.27
634.701	6888.09
635.318	6790.14
635.932	6792.83
636.547	6583.32
637.162	6630.44
637.777	6591.35
638.393	6417.07
639.008	6369.4
639.622	6314.48
640.237	6251.13
640.851	6169.59
641.468	6231.52
642.082	5967.73
642.697	6016.44
643.311	5970.66
643.925	5926.36
644.539	5835.29
645.154	5920.96
645.768	5822.92
646.382	5790.05
646.996	5758.27
647.612	5755.12
648.226	5620.91
648.84	5437.11
649.454	5555.8
650.068	5496.79
650.682	5486
651.295	5523.04
651.909	5446.68
652.523	5392.94
653.136	5388.45
653.75	5352.24
654.361	5275.14
654.975	5248.63
655.589	5165.7
656.202	5321.54
656.815	5255.22
657.429	5121.54
658.042	5049.61
658.655	5051.62
659.269	4955.52
659.882	5037.98
660.493	4983.68
661.106	5159.51
661.719	5014.27
662.332	5041.44
662.945	4970.18
663.556	4930.45
664.169	4803.09
664.782	4934.14
665.395	4837.15
666.007	4872.02
666.618	4882.24
667.231	4839.69
667.843	4831.94
668.454	4706.17
669.067	4794.44
669.679	4788.91
670.292	4800.01
670.902	4813.42
671.514	4809.58
672.125	4658.9
672.423	4806.4
673.044	4877.9
673.665	4779.92
674.286	4780.4
674.907	4855.4
675.528	4889.4
676.148	4747.9
676.769	4726.9
677.388	4735.9
678.008	4732.9
678.629	4853.4
679.249	4725.4
679.87	4756.9
680.49	4786.9
681.111	4664.4
681.731	4721.4
682.349	4646.4
682.97	4725.4
683.59	4735.9
684.21	4618.9
684.83	4725.9
685.448	4753.9
686.068	4769.4
686.688	4739.9
687.308	4765.9
687.926	4795.9
688.546	4553.9
689.166	4787.9
689.786	4822.9
690.404	4789.4
691.023	4774.4
691.643	4682.9
692.26	4769.9
692.88	4824.4
693.5	4816.9
694.117	4788.4
694.737	4745.4
695.356	4819.9
695.973	4642.9
696.593	4768.9
697.21	4783.9
697.829	4531.9
698.449	4823.4
699.066	4773.9
699.685	4820.4
700.302	4758.9
700.921	4770.9
701.538	4736.9
702.157	4747.4
702.774	4734.9
703.393	4758.4
704.009	4668.9
704.628	4703.9
705.245	4676.4
705.864	4530.9
706.48	4675.9
707.099	4715.9
707.716	4681.4
708.334	4755.9
708.951	4809.9
709.569	4660.9
710.185	4691.4
710.802	4652.4
711.42	4696.9
712.036	4760.4
712.653	4715.4
713.271	4757.4
713.887	4751.4
714.505	4638.9
715.121	4718.9
715.737	4625.4
716.355	4704.9
716.971	4647.9
717.587	4623.9
718.203	4554.4
718.821	4576.9
719.437	4634.4
720.052	4603.4
720.67	4583.9
721.286	4663.4
721.901	4621.9
722.517	4639.9
723.132	4629.9
723.75	4604.4
724.365	4563.9
724.981	4637.9
725.596	4545.4
726.211	4608.4
726.829	4543.9
727.444	4549.9
728.059	4606.4
728.674	4348.9
729.289	4391.9
729.904	4510.9
730.519	4541.4
731.134	4547.4
731.751	4508.9
732.366	4387.9
732.981	4503.4
733.596	4370.9
734.211	4438.9
734.826	4444.9
735.44	4357.4
736.055	4352.4
736.669	4282.4
737.284	4375.4
737.899	4338.9
738.513	4389.4
739.128	4276.9
739.742	4221.4
740.356	4305.4
740.971	4209.9
741.585	4077.9
742.199	4155.9
742.813	4139.9
743.427	4085.4
744.039	4026.9
744.654	4196.9
745.268	3992.9
745.882	4038.4
746.496	4114.4
747.109	4115.9
747.723	4103.4
748.337	4025.4
748.949	4146.4
749.563	4169.9
750.176	4199.9
750.79	4046.9
751.404	3948.9
752.015	4019.4
752.629	4003.4
753.242	3972.9
753.856	4067.4
754.467	4093.9
755.08	4036.9
755.694	4011.4
756.307	3928.9
756.918	3968.4
757.531	3902.9
758.145	3899.4
758.756	3971.9
759.369	3868.9
759.982	3783.9
760.593	3826.9
761.206	3760.9
761.819	3674.9
762.43	3788.9
763.042	3770.9
763.655	3806.4
764.266	3723.4
764.879	3696.4
765.489	3579.9
766.102	3687.4
766.713	3666.9
767.325	3626.9
767.938	3636.9
768.548	3469.9
769.161	3441.4
769.771	3520.4
770.383	3553.9
770.993	3372.9
771.606	3394.9
772.216	3502.4
772.828	3385.4
773.438	3424.9
774.048	3449.9
774.66	3372.9
775.27	3349.4
775.882	3348.9
776.492	3317.9
777.104	3329.9
777.714	3252.9
778.324	3259.9
778.936	3268.4
779.545	3138.9
780.155	3228.9
780.767	3166.9
781.376	3152.9
781.986	3057.9
782.597	3040.9
783.207	3049.9
783.816	2948.9
784.427	3010.9
785.037	3030.9
785.646	2936.9
786.257	3015.9
786.867	2962.9
787.476	2832.9
788.085	2904.4
788.694	2915.4
789.305	2855.4
789.914	2790.9
790.523	2822.4
791.132	2828.9
791.741	2786.4
792.352	2798.4
792.961	2712.9
793.569	2723.9
794.178	2676.4
794.787	2652.9
795.395	2532.9
796.004	2637.4
796.615	2611.9
797.223	2476.9
797.832	2614.9
798.44	2580.9
799.048	2441.9
799.657	2473.9
800.265	2484.9
800.873	2409.9
801.482	2513.9
802.09	2471.4
802.698	2366.9
803.306	2400.9
803.914	2324.9
804.522	2233.9
805.13	2243.9
805.738	2186.9
806.346	2179.9
806.954	2233.4
807.562	2217.9
808.17	2221.9
808.777	2261.9
809.385	2294.9
809.993	2317.9
810.598	2253.4
811.206	2196.4
811.813	2057.4
812.421	2246.9
813.028	2163.9
813.636	2196.9
814.243	2193.9
814.849	2069.9
815.456	2287.4
816.063	2230.9
816.67	2188.4
817.278	2159.9
817.883	2175.4
818.49	2160.9
819.097	2149.9
819.704	2149.9
820.309	2169.4
820.916	2158.9
821.523	2095.4
822.13	2083.9
822.734	2115.4
823.341	2038.9
823.948	2145.9
824.553	2145.9
825.159	2128.9
825.766	2154.9
826.37	2159.9
826.977	2114.9
827.583	2074.9
828.188	2077.9
828.794	2080.9
829.399	2040.9
830.005	2110.4
830.609	2120.9
831.216	2123.9
831.822	2106.9
832.426	2061.4
833.032	2116.4
833.636	2108.4
834.242	2058.9
834.846	2077.9
835.452	2056.4
836.056	2110.9
836.662	2095.9
837.266	2131.9
837.872	2085.9
838.475	2176.9
839.081	2113
839.685	2121.9
840.288	2113.9
840.894	2151.4
841.497	2118.8
842.103	2147.9
842.707	2140.9
843.31	2144.9
843.915	2101.9
844.519	2166.4
845.124	2209.9
845.727	2096.9
846.331	2091.9
846.936	2183.9
847.539	2133.9
848.142	2180.4
848.745	2161.4
849.35	2163.9
849.953	2124.9
850.556	2116.9
851.161	2112.9
851.764	2157.9
852.367	2232.9
852.97	2179.9
853.572	2136.9
854.177	2137.9
854.78	2139.9
855.382	2196.9
855.985	2162.9
856.587	2138.9
857.192	2208.9
857.794	2229.9
858.397	2248.9
858.999	2147.9
859.602	2217.9
860.204	2197.9
860.806	2180.9
861.408	2169.9
862.013	2140.9
862.615	2095.4
863.217	2144.9
863.819	2212.9
864.421	2119.9
865.023	2157.4
865.625	2236.9
866.227	2222.9
866.829	2084.9
867.431	2246.9
868.032	2186.9
868.634	2229.9
869.236	2251.9
869.838	2248.9
870.439	2219.9
871.041	2271.9
871.642	2294.4
872.244	2208.9
872.843	2268.4
873.445	2233.9
874.046	2167.9
874.648	2212.9
875.249	2370.4
875.85	2254.4
876.451	2311.9
877.053	2346.4
877.652	2349.4
878.253	2246.9
878.854	2311.4
879.455	2304.9
880.056	2330.9
880.655	2305.4
881.256	2340.9
881.857	2344.4
882.458	2214.9
883.056	2344.4
883.657	2293.9
884.258	2340.9
884.858	2321.9
885.457	2334.9
886.058	2376.9
886.658	2384.9
887.257	2381.9
887.857	2390.9
888.458	2369.9
889.056	2415.9
889.656	2453.4
890.257	2466.9
890.855	2551.4
891.455	2458.4
892.055	2355.9
892.654	2524.4
893.254	2489.4
893.852	2498.9
894.452	2547.9
895.052	2554.9
895.65	2541.9
896.25	2554.9
896.848	2544.9
897.448	2576.4
898.045	2550.9
898.645	2487.9
899.243	2566.4
899.842	2630.4
900.44	2602.9
901.04	2660.9
901.637	2689.4
902.235	2569.9
902.834	2682.9
903.432	2653.9
904.031	2700.9
904.628	2770.9
905.228	2755.9
905.825	2829.4
906.422	2782.9
907.022	2768.9
907.619	2876.9
908.216	2816.9
908.815	2858.9
909.412	2763.9
910.009	2924.4
910.608	2927.9
911.205	2959.9
911.802	2896.9
912.401	2975.9
912.997	3045.9
913.594	2997.9
914.191	3123.9
914.79	3117.4
915.386	3107.9
915.983	3111.9
916.58	3101.9
917.176	3116.4
917.775	3168.9
918.371	3206.9
918.967	3242.9
919.564	3118.9
920.16	3291.4
920.756	3284.9
921.355	3336.9
921.951	3370.9
922.547	3314.4
923.143	3354.9
923.739	3497.9
924.336	3505.9
924.932	3479.9
925.528	3479.4
926.123	3538.4
926.719	3443.9
927.315	3560.9
927.911	3641.9
928.507	3693.9
929.103	3701.4
929.698	3651.9
930.294	3675.9
930.89	3773.9
931.485	3830.9
932.081	3921.9
932.676	4015.4
933.272	3843.9
933.867	4108.9
934.463	3894.9
935.058	3986.9
935.653	4065.4
936.249	4100.9
936.844	4211.9
937.439	4248.9
938.032	4189.9
938.627	4249.4
939.222	4292.9
939.818	4226.4
940.413	4357.9
941.008	4455.4
941.6	4355.9
942.195	4455.9
942.79	4377.9
943.385	4558.4
943.98	4513.9
944.572	4534.9
945.167	4599.9
945.762	4601.9
946.357	4671.4
946.949	4641.9
947.544	4714.9
948.138	4791.9
948.73	4796.9
949.325	4806.9
949.919	4583.9
950.512	4896.4
951.106	4872.4
951.7	4966.9
952.292	4926.9
952.887	5001.4
953.481	4977.4
954.073	4990.9
954.667	5049.4
955.259	5082.9
955.853	5292.4
956.445	5176.4
957.039	5274.9
957.633	5205.9
958.225	5114.9
958.818	5191.9
959.41	5283.9
960.004	5248.9
960.596	5336.9
961.189	5494.9
961.781	5449.9
962.374	5512.4
962.966	5442.4
963.557	5477.9
964.151	5481.9
964.742	5411.9
965.336	5708.4
965.927	5593.4
966.52	5609.9
967.112	5650.4
967.703	5607.9
968.296	5678.9
968.887	5699.9
969.478	5782.9
970.071	5803.9
970.662	5741.4
971.253	5765.4
971.846	5766.9
972.437	5657.9
973.028	5771.4
973.621	5883.4
974.212	5925.4
974.802	5910.9
975.393	5829.9
975.986	5907.4
976.576	5896.9
977.167	5948.9
977.758	5973.9
978.348	5955.4
978.941	6097.4
979.531	6214.4
980.121	6079.9
980.712	6156.9
981.302	6121.4
981.892	6099.9
982.485	6040.9
983.075	6211.9
983.665	6270.9
984.255	6330.4
984.845	6202.9
985.435	6238.9
986.025	6209.9
986.615	6265.9
987.205	6265.4
987.795	6419.9
988.385	6464.4
988.975	6420.9
989.565	6465.9
990.154	6473.4
990.744	6482.9
991.334	6203.4
991.923	6308.9
992.513	6606.9
993.103	6648.4
993.692	6636.4
994.282	6563.9
994.871	6624.9
995.46	6554.9
996.05	6555.4
996.639	6579.4
997.229	6572.9
997.818	6609.9
998.405	6603.9
998.994	6705.4
999.583	6512.9
1000.17	6474.9
1000.76	6586.9
1001.35	6532.9
1001.94	6622.4
1002.53	6782.9
1003.12	6800.4
1003.7	6723.9
1004.29	6691.9
1004.88	6882.4
1005.47	6683.4
1006.06	6731.4
1006.65	6772.4
1007.23	6958.4
1007.82	6878.4
1008.41	6838.9
1009	6955.4
1009.58	6915.9
1010.17	6972.4
1010.76	6766.9
1011.35	6952.9
1011.94	7025.9
1012.52	7101.4
1013.11	7008.9
1013.7	7120.9
1014.29	7047.4
1014.87	7008.9
1015.46	7102.4
1016.05	6984.4
1016.63	7210.9
1017.22	7178.4
1017.81	7209.9
1018.4	7121.9
1018.98	7158.9
1019.57	7073.9
1020.16	7185.4
1020.74	7143.9
1021.33	7232.9
1021.92	7293.4
1022.5	7229.9
1023.09	7345.4
1023.67	7170.9
1024.26	7208.4
1024.85	7300.4
1025.44	7349.4
1026.02	7398.4
1026.61	7461.9
1027.19	7303.9
1027.78	7373.9
1028.37	7267.9
1028.95	7230.4
1029.54	7311.4
1030.12	7414.9
1030.71	7329.4
1031.29	7150.9
1031.88	7299.4
1032.47	7468.9
1033.05	7355.9
1033.64	7257.4
1034.22	7409.4
1034.81	7390.4
1035.39	7416.9
1035.98	7564.9
1036.56	7439.9
1037.15	7339.4
1037.73	7336.9
1038.32	7284.9
1038.9	7338.4
1039.49	7435.9
1040.07	7472.4
1040.66	7458.4
1041.24	7390.9
1041.83	7319.74
1042.41	7196.46
1043	7105.2
1043.58	7226.08
1044.17	7306.31
1044.75	7317.86
1045.33	7342.18
1045.92	7301.99
1046.5	7291.87
1047.09	7142.42
1047.67	7161.38
1048.25	7123.16
1048.84	7282.56
1049.42	7199.09
1050.01	7273.98
1050.59	7174.49
1051.17	7178.87
1051.76	7172.22
1052.34	7089.72
1052.93	7105.6
1053.51	7254.61
1054.09	7150.48
1054.68	7233.51
1055.26	7152.75
1055.84	7075.6
1056.42	7064.17
1057.01	7089.79
1057.59	7011.54
1058.17	6960.3
1058.76	6998.16
1059.34	7028.17
1059.92	7011.69
1060.51	6575.4
1061.09	6882.22
1061.67	6750.21
1062.25	6827.25
1062.84	6956.24
1063.42	6861.66
1064	6881.19
1064.58	6663.99
1065.17	6769.3
1065.75	6655.71
1066.33	6657.58
1066.91	6641.43
1067.49	6719.53
1068.08	6633.34
1068.66	6492.92
1069.24	6482.29
1069.82	6575.89
1070.41	6443.04
1070.99	6431.98
1071.57	6341.57
1072.15	6386.2
1072.73	6399.39
1073.31	6403
1073.89	6281.38
1074.48	6295.29
1075.06	6190.16
1075.64	6158
1076.22	6140.2
1076.8	6202.19
1077.38	6161.34
1077.96	6174.44
1078.55	6073.2
1079.13	6026.84
1079.71	6009.29
1080.29	5930.23
1080.87	5924.35
1081.45	5885.41
1082.03	5923.87
1082.61	6009.97
1083.19	5899.6
1083.77	5769.04
1084.35	5702.56
1084.93	5586.17
1085.51	5533.15
1086.09	5601.94
1086.67	5632.69
1087.25	5606.71
1087.83	5550.14
1088.41	5578.5
1088.99	5395.6
1089.57	5401.75
1090.15	5335.51
1090.73	5339.81
1091.31	5197
1091.89	5322.47
1092.47	5200.24
1093.05	5212.9
1093.63	5130.12
1094.21	5109.63
1094.79	5119.59
1095.37	5070.04
1095.95	5023.88
1096.53	4593.12
1097.11	5054.81
1097.69	5008.23
1098.27	4926.31
1098.85	4824.1
1099.42	4803.91
1100	4915.05
1100.58	4687.43
1101.16	4842.49
1101.74	4671.77
1102.32	4592.62
1102.9	4659.53
1103.48	4585.13
1104.05	4636.21
1104.63	4558.88
1105.21	4609.34
1105.79	4561.25
1106.37	4443.07
1106.95	4489.45
1107.52	4482.55
1108.1	4457
1108.68	4411.59
1109.26	4399.85
1109.84	4344.98
1110.41	4360.14
1110.99	4412.12
1111.57	4311.23
1112.15	4192.69
1112.73	4219.85
1113.3	4151.47
1113.88	4114.28
1114.46	4153.83
1115.03	4001.81
1115.61	4119.53
1116.19	4058.63
1116.77	3919.11
1117.34	3965.64
1117.92	3957.17
1118.5	3883.27
1119.08	3833.47
1119.65	3886.45
1120.23	3890.89
1120.81	3823.42
1121.38	3749.59
1121.96	3731.72
1122.54	3721.17
1123.11	3675.84
1123.69	3615.57
1124.27	3668.57
1124.84	3685.85
1125.42	3677.92
1126	3532.44
1126.57	3515.93
1127.15	3499.34
1127.72	3499.29
1128.3	3431.36
1128.88	3343.55
1129.45	3363.34
1130.03	3365.1
1130.6	3325.28
1131.18	3352.35
1131.76	3288.44
1132.33	3248.03
1132.91	3259.52
1133.48	3243.22
1134.06	3270.63
1134.63	3170.87
1135.21	3240.47
1135.78	3196.63
1136.36	3102.63
1136.94	3165
1137.51	3004.47
1138.09	3000.36
1138.66	3021.99
1139.24	3048.67
1139.81	3020.87
1140.39	2979.85
1140.96	2974.32
1141.53	2949.99
1142.11	2918.17
1142.68	2885.02
1143.26	2846.49
1143.83	2988
1144.41	2856.96
1144.98	2892.38
1145.56	2892.92
1146.13	2839.79
1146.71	2755.99
1147.28	2737.02
1147.85	2715.1
1148.43	2687.64
1149	2669.23
1149.58	2676.94
1150.15	2670.88
1150.73	2561.89
1151.3	2618.75
1151.87	2574.05
1152.45	2545.12
1153.02	2632.07
1153.59	2674.71
1154.17	2601.86
1154.74	2581.3
1155.31	2495.29
1155.89	2465.57
1156.46	2514.11
1157.03	2518.74
1157.61	2462.46
1158.18	2392.89
1158.75	2438.15
1158.97	2428.15
1159.55	2411.15
1160.14	2385.15
1160.72	2384.15
1161.3	2309.65
1161.88	2351.15
1162.46	2287.15
1163.05	2361.15
1163.63	2355.65
1164.21	2251.15
1164.79	2270.15
1165.37	2216.15
1165.95	2257.65
1166.53	2199.65
1167.11	2177.15
1167.7	2221.15
1168.28	2135.15
1168.86	2011.15
1169.44	2147.65
1170.02	2082.15
1170.6	2082.15
1171.18	2071.15
1171.76	2100.65
1172.35	2115.15
1172.93	2036.15
1173.51	2014.15
1174.09	2088.15
1174.67	2015.65
1175.25	2049.65
1175.83	2067.65
1176.41	2012.65
1176.99	2077.65
1177.57	2008.15
1178.15	2011.65
1178.73	1990.15
1179.31	2017.65
1179.89	1913.15
1180.47	1960.15
1181.05	1977.15
1181.63	1933.65
1182.21	1911.65
1182.79	1906.15
1183.37	1940.15
1183.95	1916.15
1184.53	1905.65
1185.11	1916.15
1185.69	1819.15
1186.27	1847.15
1186.85	1908.15
1187.43	1862.65
1188.01	1821.65
1188.58	1869.65
1189.16	1844.15
1189.74	1850.65
1190.32	1879.65
1190.9	1833.15
1191.48	1857.15
1192.06	1829.65
1192.64	1881.65
1193.22	1866.15
1193.8	1853.65
1194.37	1830.65
1194.95	1865.15
1195.53	1915.65
1196.11	1812.15
1196.69	1842.15
1197.27	1839.15
1197.85	1832.65
1198.42	1812.15
1199	1808.15
1199.58	1843.15
1200.16	1808.65
1200.74	1822.65
1201.31	1770.65
1201.89	1828.65
1202.47	1750.15
1203.05	1789.15
1203.63	1815.65
1204.2	1828.15
1204.78	1794.15
1205.36	1818.65
1205.94	1793.15
1206.51	1762.65
1207.09	1799.15
1207.67	1731.15
1208.25	1786.15
1208.82	1817.15
1209.4	1794.15
1209.98	1779.15
1210.56	1792.15
1211.13	1765.65
1211.71	1804.65
1212.29	1751.15
1212.86	1833.15
1213.44	1746.15
1214.02	1733.15
1214.59	1800.65
1215.17	1708.15
1215.75	1765.15
1216.32	1783.15
1216.9	1694.65
1217.48	1765.65
1218.05	1757.65
1218.63	1729.15
1219.21	1732.65
1219.78	1722.15
1220.36	1753.65
1220.93	1719.65
1221.51	1692.15
1222.09	1742.65
1222.66	1727.15
1223.24	1774.15
1223.81	1720.15
1224.39	1741.15
1224.97	1787.15
1225.54	1714.15
1226.12	1638.65
1226.69	1666.65
1227.27	1713.15
1227.84	1657.15
1228.42	1706.15
1228.99	1707.65
1229.57	1654.15
1230.15	1687.15
1230.72	1714.15
1231.3	1711.15
1231.87	1725.65
1232.44	1792.15
1233.02	1745.65
1233.6	1776.65
1234.17	1772.65
1234.75	1613.15
1235.32	1732.15
1235.89	1791.15
1236.47	1744.65
1237.04	1767.65
1237.62	1700.15
1238.19	1712.65
1238.77	1758.15
1239.34	1712.65
1239.92	1701.65
1240.49	1671.65
1241.06	1747.65
1241.64	1720.65
1242.21	1724.15
1242.79	1732.15
1243.36	1723.15
1243.93	1756.65
1244.51	1737.65
1245.08	1740.15
1245.66	1733.15
1246.23	1716.15
1246.8	1749.15
1247.38	1713.65
1247.95	1695.65
1248.52	1713.65
1249.1	1695.15
1249.67	1729.15
1250.24	1701.65
1250.82	1759.15
1251.39	1762.15
1251.96	1713.15
1252.54	1711.65
1253.11	1717.15
1253.68	1704.65
1254.26	1669.15
1254.83	1710.15
1255.4	1737.15
1255.97	1689.15
1256.55	1714.65
1257.12	1714.15
1257.69	1723.65
1258.27	1772.15
1258.84	1733.15
1259.41	1655.15
1259.98	1778.15
1260.55	1729.65
1261.13	1749.15
1261.7	1705.65
1262.27	1687.15
1262.84	1742.65
1263.41	1660.15
1263.99	1721.65
1264.56	1713.65
1265.13	1685.65
1265.7	1742.65
1266.27	1713.65
1266.85	1748.65
1267.42	1728.65
1267.99	1676.65
1268.56	1692.15
1269.13	1716.15
1269.7	1759.15
1270.28	1741.15
1270.85	1709.15
1271.42	1726.65
1271.99	1706.15
1272.56	1689.15
1273.13	1704.65
1273.7	1693.15
1274.27	1739.15
1274.85	1778.65
1275.41	1727.65
1275.99	1743.15
1276.56	1693.15
1277.13	1685.65
1277.7	1725.15
1278.27	1745.65
1278.84	1749.65
1279.41	1704.65
1279.98	1711.65
1280.55	1699.65
1281.12	1706.65
1281.69	1707.15
1282.26	1728.65
1282.83	1703.15
1283.4	1735.15
1283.97	1676.15
1284.54	1732.15
1285.11	1630.65
1285.68	1618.15
1286.25	1646.15
1286.82	1604.65
1287.39	1646.15
1287.96	1706.15
1288.53	1708.15
1289.1	1763.65
1289.67	1706.15
1290.24	1705.15
1290.81	1714.65
1291.38	1685.65
1291.95	1747.65
1292.52	1711.15
1293.09	1729.15
1293.65	1721.65
1294.22	1759.15
1294.79	1749.65
1295.36	1710.15
1295.93	1755.15
1296.5	1731.15
1297.07	1727.65
1297.64	1712.65
1298.21	1750.15
1298.78	1680.65
1299.34	1724.15
1299.91	1666.15
1300.48	1692.15
1301.05	1630.15
1301.62	1713.65
1302.19	1713.15
1302.75	1682.15
1303.32	1749.65
1303.89	1735.15
1304.46	1758.65
1305.03	1730.65
1305.59	1729.15
1306.16	1741.15
1306.73	1729.65
1307.3	1768.65
1307.87	1710.65
1308.43	1769.65
1309	1769.15
1309.57	1708.65
1310.14	1769.65
1310.7	1741.65
1311.27	1778.15
1311.84	1772.15
1312.4	1666.15
1312.97	1765.65
1313.54	1728.15
1314.11	1770.65
1314.67	1763.65
1315.24	1737.65
1315.81	1757.65
1316.38	1750.15
1316.94	1718.15
1317.51	1697.15
1318.08	1723.15
1318.64	1717.65
1319.21	1664.15
1319.77	1722.65
1320.34	1755.15
1320.91	1715.65
1321.48	1734.65
1322.04	1738.15
1322.61	1779.15
1323.18	1755.15
1323.74	1766.15
1324.31	1735.65
1324.87	1734.65
1325.44	1729.15
1326	1767.15
1326.57	1727.15
1327.14	1794.65
1327.7	1742.15
1328.27	1732.65
1328.83	1755.15
1329.4	1766.15
1329.97	1707.15
1330.53	1775.15
1331.1	1811.15
1331.66	1765.65
1332.23	1820.65
1332.79	1755.15
1333.36	1784.15
1333.92	1790.15
1334.49	1715.15
1335.05	1718.65
1335.62	1750.15
1336.18	1766.65
1336.75	1697.15
1337.31	1759.15
1337.88	1754.15
1338.44	1753.15
1339.01	1696.65
1339.57	1751.15
1340.14	1666.15
1340.7	1758.65
1341.27	1786.15
1341.83	1772.15
1342.39	1782.15
1342.96	1802.15
1343.52	1772.65
1344.09	1809.15
1344.65	1752.65
1345.22	1772.15
1345.78	1769.15
1346.35	1747.15
1346.91	1707.15
1347.47	1752.65
1348.04	1732.65
1348.6	1771.15
1349.16	1756.65
1349.73	1795.15
1350.29	1800.65
1350.86	1792.15
1351.42	1743.15
1351.98	1762.65
1352.55	1712.15
1353.11	1778.65
1353.67	1808.15
1354.23	1777.65
1354.8	1787.15
1355.36	1791.65
1355.92	1783.15
1356.49	1768.15
1357.05	1767.15
1357.61	1797.65
1358.18	1793.65
1358.74	1756.65
1359.3	1831.15
1359.87	1798.15
1360.43	1769.65
1360.99	1770.15
1361.55	1745.65
1362.11	1744.65
1362.68	1776.15
1363.24	1792.65
1363.8	1771.15
1364.36	1783.15
1364.93	1833.15
1365.49	1756.65
1366.05	1816.65
1366.61	1766.15
1367.17	1643.15
1367.74	1779.15
1368.3	1805.65
1368.86	1789.15
1369.42	1768.15
1369.98	1773.65
1370.55	1794.15
1371.11	1806.15
1371.67	1775.65
1372.23	1788.15
1372.79	1787.65
1373.35	1806.15
1373.91	1755.65
1374.48	1837.15
1375.04	1783.65
1375.6	1807.15
1376.16	1790.15
1376.72	1805.65
1377.28	1776.15
1377.84	1771.15
1378.4	1834.65
1378.96	1792.15
1379.53	1817.65
1380.09	1769.15
1380.65	1841.15
1381.21	1793.15
1381.77	1803.15
1382.33	1778.15
1382.89	1795.15
1383.45	1837.65
1384.01	1809.15
1384.57	1754.15
1385.13	1789.15
1385.69	1752.15
1386.25	1796.15
1386.81	1769.15
1387.37	1805.15
1387.93	1821.65
1388.49	1825.15
1389.05	1792.15
1389.61	1770.15
1390.17	1763.65
1390.73	1785.15
1391.29	1741.65
1391.85	1796.65
1392.41	1815.15
1392.97	1786.15
1393.53	1810.65
1394.09	1749.15
1394.65	1785.65
1395.21	1801.15
1395.77	1800.15
1396.33	1758.15
1396.88	1789.65
1397.44	1796.65
1398	1784.15
1398.56	1785.65
1399.12	1773.15
1399.68	1773.65
1400.24	1732.15
1400.8	1801.15
1401.36	1751.15
1401.91	1819.65
1402.47	1827.15
1403.03	1842.15
1403.59	1709.15
1404.15	1813.15
1404.71	1823.65
1405.26	1751.15
1405.82	1824.65
1406.38	1797.15
1406.94	1820.65
1407.5	1853.65
1408.06	1836.15
1408.61	1833.65
1409.17	1761.15
1409.73	1783.15
1410.29	1825.65
1410.85	1811.65
1411.4	1829.15
1411.96	1854.65
1412.52	1835.15
1413.08	1789.15
1413.63	1805.15
1414.19	1819.15
1414.75	1805.15
1415.31	1804.15
1415.86	1842.15
1416.42	1832.15
1416.98	1794.65
1417.53	1759.15
1418.09	1838.15
1418.65	1817.15
1419.21	1839.65
1419.76	1855.15
1420.32	1793.15
1420.88	1815.15
1421.43	1815.15
1421.99	1823.65
1422.55	1841.15
1423.1	1862.65
1423.66	1848.15
1424.22	1814.15
1424.77	1794.15
1425.33	1818.15
1425.89	1823.15
1426.44	1846.65
1427	1817.15
1427.55	1802.65
1428.11	1830.15
1428.67	1805.15
1429.22	1837.65
1429.78	1806.65
1430.33	1799.15
1430.89	1768.15
1431.44	1824.65
1432	1856.65
1432.56	1737.65
1433.11	1793.15
1433.67	1838.15
1434.22	1828.65
1434.78	1877.15
1435.34	1843.15
1435.89	1813.15
1436.44	1838.15
1437	1849.15
1437.56	1817.65
1438.11	1860.15
1438.67	1844.15
1439.22	1850.15
1439.78	1800.15
1440.33	1795.65
1440.89	1850.15
1441.44	1820.15
1441.99	1835.15
1442.55	1827.65
1443.11	1814.65
1443.66	1857.15
1444.21	1830.65
1444.77	1790.15
1445.32	1838.15
1445.88	1818.15
1446.43	1860.15
1446.98	1802.65
1447.54	1812.15
1448.09	1835.65
1448.65	1883.15
1449.2	1853.15
1449.76	1836.15
1450.31	1849.15
1450.86	1863.15
1451.42	1802.15
1451.97	1864.15
1452.52	1857.65
1453.08	1849.65
1453.63	1846.15
1454.19	1861.15
1454.74	1872.65
1455.29	1782.15
1455.85	1812.15
1456.4	1789.65
1456.95	1898.65
1457.51	1823.65
1458.06	1822.15
1458.61	1840.15
1459.17	1838.15
1459.72	1854.15
1460.27	1797.15
1460.82	1819.65
1461.38	1857.15
1461.93	1842.15
1462.48	1855.65
1463.04	1882.15
1463.59	1835.65
1464.14	1880.15
1464.69	1819.15
1465.25	1770.65
1465.8	1817.65
1466.35	1834.65
1466.9	1772.65
1467.46	1798.15
1468.01	1804.15
1468.56	1558.15
1469.11	1783.65
1469.66	1800.15
1470.22	1799.65
1470.77	1807.15
1471.32	1864.15
1471.87	1872.65
1472.42	1849.65
1472.98	1849.65
1473.53	1833.15
1474.08	1816.65
1474.63	1860.65
1475.18	1810.15
1475.73	1807.15
1476.28	1815.15
1476.84	1847.65
1477.39	1769.15
1477.94	1810.15
1478.49	1827.15
1479.04	1824.65
1479.59	1839.65
1480.14	1825.65
1480.7	1849.15
1481.25	1826.15
1481.8	1813.15
1482.35	1844.15
1482.9	1877.65
1483.45	1839.65
1484	1781.15
1484.55	1846.65
1485.1	1868.65
1485.65	1802.15
1486.2	1880.15
1486.75	1877.15
1487.3	1881.65
1487.85	1813.65
1488.4	1837.15
1488.95	1858.15
1489.5	1836.65
1490.05	1868.15
1490.6	1869.65
1491.15	1879.15
1491.7	1833.15
1492.25	1881.65
1492.8	1823.65
1493.35	1837.65
1493.9	1857.15
1494.45	1820.15
1495	1864.15
1495.55	1816.65
1496.1	1868.15
1496.65	1846.15
1497.2	1825.15
1497.75	1786.15
1498.3	1851.65
1498.85	1886.65
1499.4	1842.15
1499.95	1838.15
