19.3994	7207.05
20.0758	7439.55
20.7522	7747.55
21.4285	7881.05
22.1048	8230.55
22.7811	8397.05
23.4573	8666.05
24.1334	8569.05
24.8095	9193.05
25.4855	9324.55
26.1615	9690.05
26.8375	9913.05
27.5134	10095.6
28.1893	10352.1
28.8651	10383.1
29.5408	10413.6
30.2166	10764.6
30.8922	11078.6
31.5679	11380.6
32.2434	11398.6
32.919	11723.1
33.5945	11921.6
34.2699	12204.6
34.9453	12558.6
35.6206	12914.6
36.2959	13160.6
36.9712	13266.1
37.6464	13356.1
38.3192	13379.1
38.9943	13507.6
39.6694	13866.1
40.3444	14059.1
41.0194	14514.6
41.6943	14695.1
42.3692	14751.1
43.0417	14876.1
43.7165	15019.6
44.3912	15036.1
45.0659	15187.1
45.7405	15616.1
46.4128	15775.1
47.0874	15789.6
47.7619	15839.1
48.4363	16148.1
49.1084	16221.6
49.7828	16178.6
50.4571	16400.6
51.1314	16366.1
51.8033	16499.6
52.4775	16596.1
53.1516	16423.1
53.8234	16501.6
54.4974	16739.6
55.1714	16609.1
55.843	16713.1
56.5169	16773.1
57.1908	17028.1
57.8623	17143.1
58.536	17597.1
59.2074	17301.1
59.8811	17254.1
60.5547	17391.1
61.2259	17288.1
61.8995	17377.6
62.5706	17503.1
63.2441	17932.1
63.9174	17858.1
64.5885	17793.6
65.2618	17562.1
65.9327	17507.1
66.6059	17452.1
67.2767	17125.1
67.9498	17168.1
68.6206	17221.1
69.2936	17406.1
69.9643	17370.1
70.6372	17308.6
71.3077	17448.1
71.9783	17089.1
72.651	17497.1
73.3215	17396.1
73.9941	17640.7
74.6645	17612
75.3371	17602.6
76.0073	17419
76.6775	17365.8
77.3499	18096.6
78.02	17696.1
78.6901	17571.1
79.3624	17468.6
80.0324	17498.6
80.7023	17487.1
81.3745	17384.1
82.0443	17439.6
82.7141	17245.1
83.3861	17237.1
84.0558	17026.1
84.7254	17200.6
85.3973	17196.1
86.0668	17062.1
86.7364	17370.6
87.4058	17234.1
88.0775	17267.1
88.7469	17045.1
89.4162	17228.1
90.0855	17244.1
90.7547	17169.6
91.4261	17098.6
92.0953	17078.6
92.7644	17185.6
93.4334	16997.1
94.1024	16919.6
94.7713	16645.1
95.4425	16756.1
96.1114	17028.6
96.7802	16839.6
97.449	16765.6
98.1177	16962.1
98.7863	16826.6
99.455	16684.1
100.124	16650.6
100.792	16662.6
101.461	16593.6
102.131	16740.1
102.8	16592.1
103.468	16529.1
104.136	16616.6
104.805	16179.1
105.473	16349.6
106.141	16483.6
106.809	16112.1
107.477	16296.1
108.145	16132.1
108.813	15921.1
109.481	16145.1
110.147	16120.1
110.814	16109.6
111.482	16145.1
112.15	15989.6
112.818	15919.1
113.485	15803.3
114.153	15753.9
114.821	16212.1
115.488	15877.1
116.156	15882.6
116.821	15659.6
117.488	15359.1
118.155	15130.1
118.823	15214.1
119.49	15156.1
120.157	15130.6
120.822	14700.1
121.489	15075.1
122.156	14987.1
122.823	14855.1
123.49	14884.1
124.155	14890.1
124.822	15155.1
125.488	15029.1
126.155	15003.1
126.82	14868.1
127.486	14807.1
128.153	14875.1
128.817	14783.1
129.484	14723.6
130.15	14922.1
130.817	14606.6
131.481	14607.1
132.147	14467.1
132.811	14511.1
133.478	14607.1
134.144	14231.1
134.808	14534.6
135.474	14438.1
136.14	14187.6
136.804	14176.6
137.47	14084.6
138.133	14129.6
138.799	14036.1
139.463	13842.1
140.129	13962.6
140.795	13894.6
141.458	13745.1
142.124	13748.1
142.787	13792.1
143.453	13744.6
144.116	13782.1
144.781	13736.6
145.445	13752.1
146.11	13520.1
146.773	13650.1
147.436	13569.6
148.101	13370.1
148.764	13419.6
149.429	13384.1
150.092	13117.6
150.757	12940.6
151.42	13120.1
152.083	13044.1
152.748	13210.1
153.41	13155.6
154.075	13265.1
154.738	13121.1
155.4	13142.1
156.065	12908.1
156.727	12973.6
157.39	12914.6
158.054	12852.6
158.717	12719.1
159.379	12861.6
160.041	12709.1
160.705	12657.1
161.367	12672.6
162.03	12563.6
162.692	12619.1
163.356	12285.6
164.018	12439.1
164.679	12242.1
165.341	11964.1
166.005	12241.6
166.667	12155.1
167.329	12173.6
167.99	12215.6
168.652	12318.1
169.313	12027.1
169.977	11982.1
170.639	12246.6
171.3	12208.1
171.961	12122.1
172.623	12172.1
173.284	11983.1
173.945	12046.6
174.606	11971.1
175.267	11874.1
175.931	11918.1
176.592	11911.1
177.253	12013.1
177.914	11779.6
178.575	11813.6
179.236	11705.1
179.896	11861.1
180.557	11586.6
181.218	11656.1
181.879	11717.1
182.539	11893.1
183.2	11760.1
183.86	11576.6
184.521	11650.6
185.181	11668.6
185.839	11594.1
186.5	11532.1
187.16	11451.1
187.82	11344.1
188.48	11394.6
189.141	11494.6
189.801	11436.6
190.461	11847.6
191.121	11620.1
191.779	11572.1
192.439	11506.6
193.098	11402.1
193.758	11458.1
194.418	11544.6
195.078	11468.1
195.735	11583.1
196.395	11401.1
197.055	11671.6
197.714	11486.1
198.374	11403.1
199.031	11495.6
199.691	11441.6
200.35	11239.1
201.009	11394.6
201.666	11340.6
202.326	11066.1
202.985	11469.1
203.642	11389.1
204.301	11443.1
204.96	11231.1
205.617	11522.1
206.276	11411.6
206.935	11302.1
207.591	11197.1
208.25	11338.1
208.909	11561.6
209.566	11658.1
210.224	11439.1
210.881	11570.1
211.539	11369.1
212.196	11358.1
212.854	11540.6
213.513	11455.1
214.169	11370.1
214.827	11374.1
215.483	11396.1
216.142	11420.1
216.798	11380.1
217.456	11300.1
218.112	11584.1
218.77	11503.1
219.426	11375.1
220.084	11361.1
220.74	11226.1
221.398	11410.1
222.053	11443.1
222.709	11611.6
223.367	11420.1
224.022	11550.1
224.68	11471.1
225.336	11310.1
225.991	11441.1
226.649	11412.1
227.304	11242.1
227.961	11269.1
228.617	11356.6
229.272	11478.6
229.929	11569.9
230.584	11307.6
231.239	11475.6
231.897	11524.6
232.551	11798.1
233.206	11652.6
233.861	11738.1
234.518	11659.1
235.173	11664.1
235.828	11737.1
236.482	11992.6
237.139	12063.1
237.794	12059.6
238.449	11744.1
239.103	11900.1
239.757	11961.6
240.414	11985.1
241.069	11792.6
241.723	12009.1
242.377	12028.1
243.031	11891.6
243.686	11799.6
244.342	11939.1
244.996	11898.6
245.65	12081.6
246.304	12128.6
246.958	12159.1
247.612	12260.1
248.266	12125.1
248.92	12094.1
249.573	12204.1
250.227	12273.1
250.881	12178.6
251.535	12324.6
252.188	12302.1
252.842	12243.1
253.495	12365.6
254.149	12401.1
254.802	12360.6
255.456	12455.1
256.109	12332.6
256.762	12389.1
257.415	12569.1
258.069	12416.1
258.722	12589.6
259.375	12465.6
260.028	12666.6
260.681	12558.1
261.334	12633.1
261.987	12674.1
262.64	12706.1
263.29	12606.1
263.943	12601.6
264.596	12830.1
265.249	12753.1
265.901	12999.1
266.554	12922.6
267.204	12634.1
267.857	12682.1
268.509	12762.1
269.162	12778.1
269.814	12732.1
270.464	12893.1
271.117	12730.1
271.769	12871.1
272.421	12773.1
273.071	13035.6
273.723	12877.1
274.375	12889.1
275.025	13002.1
275.677	13111.6
276.329	13265.6
276.979	13162.1
277.631	13120.1
278.283	13327.1
278.932	13224.1
279.584	13342.1
280.236	13142.1
280.885	13320.1
281.537	12925.1
282.188	13053.6
282.838	13480.1
283.489	13476.1
284.138	13516.6
284.79	13449.6
285.439	13540.6
286.09	13433.1
286.739	13337.6
287.39	13388.1
288.041	13348.1
288.69	13492.1
289.341	13442.1
289.99	13553.1
290.639	13395.6
291.29	13436.6
291.939	13242.1
292.589	13566.1
293.238	13457.6
293.889	13335.6
294.537	13462.3
295.188	13419.6
295.836	13422.4
296.485	13423
297.135	13476.1
297.784	13311.1
298.434	13258.1
299.082	13545.1
299.73	13619.6
300.381	13400.1
301.029	13496.1
301.677	13758.6
302.327	13535.1
302.975	13734.6
303.623	13874.1
304.271	13626.1
304.921	13647.1
305.568	13414.6
306.216	13522.1
306.866	13795.6
307.513	13579.6
308.161	13777.1
308.809	13669.1
309.456	13454.1
310.106	13442.6
310.753	13382.1
311.4	13349.1
312.048	13625.1
312.695	13580.6
313.344	13360.1
313.992	13727.1
314.639	13647.6
315.286	13513.6
315.933	13633.1
316.58	13771.1
317.227	13445.1
317.874	13521.6
318.521	13556.1
319.17	13577.1
319.816	13413.1
320.463	13463.1
321.11	13656.6
321.757	13732.1
322.403	13735.6
323.05	13653.6
323.696	13429.1
324.343	13352.1
324.989	13512.1
325.636	13667.1
326.282	13750.1
326.928	13728.6
327.574	13635.1
328.221	13505.1
328.867	13364.6
329.511	13524.1
330.157	13634.6
330.803	13675.1
331.449	13446.1
332.095	13674.1
332.741	13636.1
333.387	13652.1
334.032	13741.6
334.678	13578.6
335.322	13940.6
335.967	13909.6
336.613	13719.1
337.259	13598.1
337.904	13791.1
338.547	13719.6
339.193	13605.6
339.838	13746.1
340.484	13734.6
341.129	13751.1
341.772	13704.1
342.417	13688.1
343.062	13672.1
343.705	13761.6
344.351	13850.1
344.996	13814.1
345.641	13998.6
346.283	13765.6
346.928	13893.1
347.573	13815.1
348.216	13966.1
348.861	13897.1
349.505	13977.1
350.148	14283.6
350.793	13950.1
351.435	13726.6
352.08	13939.6
352.724	13851.1
353.367	14008.6
354.011	14154.1
354.653	14005.6
355.298	14049.6
355.94	14050.6
356.584	13945.1
357.226	14156.1
357.87	14153.1
358.512	14232.1
359.156	14115.1
359.798	14314.6
360.442	14163.1
361.084	14105.6
361.728	14131.1
362.37	14126.1
363.013	14426.6
363.655	14570.1
364.299	14419.1
364.94	14335.1
365.582	14197.1
366.225	14252.1
366.867	14434.1
367.51	14336.1
368.152	14401.6
368.793	14375.1
369.436	14028.1
370.078	14109.1
370.719	14348.1
371.362	14294.1
372.003	14640.1
372.644	14818.1
373.287	14672.1
373.928	14142.1
374.569	14628.1
375.21	14593.1
375.853	14647.6
376.493	14814.6
377.134	14837.6
377.775	14895.6
378.418	15086.1
379.058	14984.1
379.699	14697.1
380.339	14688.1
380.98	14795.1
381.62	14973.6
382.263	15205.1
382.903	15231.1
383.543	15132.1
384.183	15183.1
384.823	14816.1
385.464	15077.1
386.104	15249.1
386.744	15349.1
387.386	15263.1
388.026	15425.1
388.666	15472.1
389.306	15395.6
389.945	15258.1
390.585	15434.1
391.225	15535.1
391.865	15550.1
392.504	15731.6
393.144	15537.1
393.784	15590.1
394.423	15763.6
395.063	15598.1
395.702	15814.1
396.341	16001.6
396.981	16033.1
397.62	15805.1
398.259	15896.1
398.896	15906.1
399.536	15988.1
400.175	15883.6
400.814	16202.1
401.453	16179.1
402.092	16223.1
402.731	16180.1
403.37	16149.6
404.006	16368.1
404.645	16458.1
405.284	16365.1
405.923	16577.6
406.562	16453.1
407.2	16463.6
407.837	16378.1
408.475	16451.1
409.114	16442.1
409.752	16990.1
410.388	16549.1
411.027	16812.6
411.665	16775.6
412.301	16713.6
412.94	16691.1
413.578	16808.8
414.216	16760.1
414.852	16876.1
415.49	16998.1
416.128	16986.6
416.764	16895.1
417.402	16907.1
418.04	16863.1
418.676	16991.6
419.314	17267.6
419.949	17352.6
420.587	17160.1
421.225	17106.6
421.86	17154.1
422.498	17209.1
423.133	17188.6
423.771	17210.6
424.406	17084.1
425.043	17360.1
425.679	17124.1
426.316	17130.6
426.951	17367.1
427.589	17502.6
428.224	17564.1
428.861	17726.1
429.496	17775.1
430.133	17594.1
430.768	17811.1
431.405	17696.1
432.04	17765.1
432.674	17777.1
433.311	17930.1
433.946	18154.1
434.583	18155.1
435.217	18257.6
435.852	17928.1
436.489	18042.6
437.123	18081.1
437.758	18201.6
438.394	18256.1
439.028	18235.1
439.663	18033.1
440.299	18060.1
440.933	18378.6
441.568	18258.1
442.202	18186.6
442.838	18566.1
443.472	18548.1
444.106	18464.1
444.74	18383.6
445.376	18097.1
446.01	18374.6
446.644	18454.1
447.277	18567.1
447.911	18601.6
448.547	18656.1
449.181	18576.1
449.814	18520.1
450.448	18531.6
451.081	18671.9
451.715	18799.6
452.348	18879.1
452.984	18823.6
453.617	18567.1
454.251	18895.1
454.884	18584.1
455.517	18834.6
456.15	18956.6
456.784	19193.6
457.417	18983.1
458.05	19017.1
458.683	18774.6
459.316	18931.1
459.949	19108.1
460.582	19026.1
461.214	19494.1
461.847	19112.6
462.48	19276.6
463.113	19369.6
463.745	19199.1
464.378	19115.6
465.011	19183.1
465.643	19582.1
466.276	19548.6
466.906	19600.1
467.538	19510.6
468.171	19676.1
468.803	19584.1
469.435	19433.1
470.068	19657.6
470.7	19783.6
471.33	19839.1
471.962	20022.6
472.594	19958.1
473.226	19906.6
473.858	19820.1
474.488	20113.1
475.12	20375.6
475.752	20335.1
476.384	20462.6
477.013	20356.6
477.645	20408.6
478.277	20204.1
478.908	20308.1
479.538	20667.6
480.169	20740.8
480.801	20761.6
481.43	20736.7
482.062	20895.3
482.693	20454.7
483.322	20797.8
483.954	21000
484.585	21092.6
485.214	21119.3
485.845	21197.1
486.474	21278
487.105	21168.5
487.736	20851.6
488.365	20988.9
488.996	21155
489.625	21434.7
490.256	21257.5
490.885	21267.6
491.515	21245.7
492.144	21025.7
492.775	20844.4
493.403	21025.7
494.034	20724.2
494.662	21161.7
495.293	21142.1
495.921	20584
496.552	20722.3
497.18	20638.3
497.81	20625.4
498.439	20830.6
499.067	20435.9
499.697	20352.5
500.325	20434.3
500.955	20166.1
501.583	19779.4
502.211	19851.5
502.841	19639.3
503.469	19459.7
504.097	19588.5
504.727	19323.8
505.355	19101.4
505.982	18763
506.61	18728.8
507.24	18663.9
507.867	18784.4
508.495	18497.1
509.124	18637.9
509.752	18513.7
510.379	18186.1
511.007	17768.4
511.634	17862.1
512.263	17588.2
512.891	17675.9
513.518	17358
514.145	17097.9
514.772	16879.3
515.399	16723.4
516.028	16540.6
516.655	16301.8
517.282	16234.3
517.909	16187.2
518.536	16187.1
519.163	15859.2
519.789	15849.3
520.416	15519.7
521.043	15404.7
521.669	15232.9
522.298	15185.6
522.925	14945.2
523.551	14908.8
524.178	14513.5
524.804	14247.9
525.431	14234.8
526.057	14166
526.683	14098.8
527.31	14003.7
527.934	14003.6
528.56	13723.5
529.186	13553.7
529.812	13471.6
530.438	13286.5
531.064	13419.1
531.69	13406.2
532.316	13078.4
532.942	13223.9
533.568	12693
534.194	12720.8
534.817	12803.7
535.443	12861.4
536.069	12678.5
536.694	12856.5
537.32	12841
537.943	12837.1
538.569	12694.9
539.194	12516.3
539.82	12498.1
540.445	12586.2
541.068	12615.9
541.694	12654.5
542.319	12604.2
542.944	12598.9
543.567	12306.9
544.192	12388.3
544.817	12466.9
545.44	12698.4
546.065	12624.5
546.69	12576.5
547.313	12614.9
547.938	12403.1
548.563	12482
549.185	12490.8
549.81	12577.4
550.433	12650.3
551.057	12562.8
551.682	12671.2
552.305	12486.9
552.929	12564.6
553.551	12493.9
554.176	12560.3
554.798	12566.6
555.423	12607.3
556.047	12615.5
556.669	12690.4
557.293	12633
557.915	12774.2
558.537	12656
559.162	12670.4
559.784	12831
560.408	12738.9
561.03	12722.3
561.654	12730.2
562.275	12590.1
562.899	12559.4
563.521	12317.2
564.143	12373.2
564.766	12447.6
565.388	12497.4
566.009	12536.9
566.633	12579
567.255	12412.8
567.878	12468.6
568.5	12417.1
569.121	12427.1
569.742	12279.2
570.366	12334.5
570.987	12195.8
571.608	12051.4
572.231	11955.1
572.852	11712.7
573.473	11710.7
574.094	11655.9
574.717	11577.2
575.338	11208.6
575.959	11154.9
576.58	11033.4
577.201	10883.2
577.822	10940.5
578.445	10767
579.065	10599.2
579.686	10630
580.306	10451.6
580.927	10469.3
581.548	10181.7
582.168	10154.5
582.791	9939.81
583.411	9828.2
584.031	9858.99
584.652	9656.08
585.272	9492
585.892	9335.47
586.512	9335.26
587.132	9254.19
587.753	9213.52
588.373	9080
588.993	8878.41
589.613	8748.25
590.233	8651.56
590.852	8533.12
591.472	8446.75
592.092	8435.75
592.712	8221.98
593.332	8025.82
593.951	8087.41
594.569	7785.17
595.188	7853.78
595.808	7728.16
596.427	7628.89
597.047	7525.48
597.666	7443.52
598.286	7381.8
598.905	7281.34
599.522	7084.06
600.142	7026.39
600.761	7042.28
601.38	6912.11
601.999	6825.19
602.616	6827.51
603.235	6705.71
603.854	6686.47
604.473	6557.41
605.09	6252.8
605.709	6323.07
606.328	6394.32
606.947	6311.14
607.563	6387.69
608.182	6166.15
608.801	6184.34
609.417	6047.42
610.036	6070.4
610.655	5978.45
611.271	5882.7
611.89	5927.15
612.508	5909.77
613.124	5832.11
613.743	5761.73
614.359	5731.81
614.977	5696.65
615.595	5669.36
616.212	5592.08
616.83	5557.12
617.446	5617.2
618.064	5514.78
618.68	5425.82
619.298	5438.89
619.914	5296.8
620.532	5309.39
621.147	5315.19
621.765	5300.36
622.381	5251.53
622.999	5230.07
623.614	5186.18
624.23	5101.01
624.847	5095.47
625.463	5004.22
626.08	5036.19
626.696	5096.29
627.311	5050.2
627.929	4977.4
628.544	4947.32
629.161	4956.54
629.776	4825.4
630.392	4850.62
631.009	4862.52
631.624	4805.67
632.239	4826.36
632.854	4791.35
633.471	4754.86
634.086	4727.09
634.701	4661.09
635.318	4658.16
635.932	4680.89
636.547	4640.25
637.162	4569.12
637.777	4509
638.393	4522.78
639.008	4415.11
639.622	4441.68
640.237	4483.1
640.851	4392.88
641.468	4407.48
642.082	4382.42
642.697	4360.17
643.311	4322.05
643.925	4331.03
644.539	4143.17
645.154	4174.8
645.768	4372.06
646.382	4380.48
646.996	4260.11
647.612	4244.04
648.226	4270.62
648.84	4289.68
649.454	4351.95
650.068	4234.5
650.682	4189.04
651.295	4188.36
651.909	4120.34
652.523	4194.57
653.136	4126.35
653.75	4114.53
654.361	4009.23
654.975	4004.09
655.589	4037.91
656.202	4094.32
656.815	4134.11
657.429	4044.49
658.042	4087.43
658.655	4050.47
659.269	4070.97
659.882	4020.99
660.493	4073.55
661.106	4076.19
661.719	4100.18
662.332	4092.2
662.945	4121.9
663.556	4100.35
664.169	4077.15
664.782	4039.78
665.395	4113.34
666.007	4116.52
666.618	3967.31
667.231	4122.78
667.843	4044.17
668.454	4140.51
669.067	4140.9
669.679	4167.14
670.292	4049.98
670.902	3974
671.514	4045.03
672.125	4054.7
672.288	4039.2
672.907	4139.7
673.528	4112.7
674.146	4192.7
674.765	4094.7
675.386	3994.7
676.005	4118.2
676.625	4150.7
677.244	4121.2
677.862	4088.2
678.483	4035.7
679.101	4104.7
679.72	4024.7
680.34	4031.7
680.958	4011.2
681.577	4052.7
682.197	4092.2
682.815	4081.7
683.433	4029.7
684.053	4226.7
684.672	4120.2
685.289	4232.2
685.91	4329.7
686.527	4272.7
687.145	4364.7
687.763	4224.2
688.381	4104.7
689.001	4216.2
689.619	4287.7
690.236	4186.7
690.854	4237.7
691.471	4380.2
692.091	4150.2
692.709	4146.7
693.326	4290.2
693.943	4184.2
694.561	4234.7
695.178	4324.2
695.796	4255.2
696.415	4285.7
697.032	4309.2
697.649	4308.7
698.266	4415.7
698.884	4317.2
699.501	4396.2
700.118	4344.7
700.735	4430.7
701.352	4361.2
701.968	4359.7
702.585	4287.7
703.202	4346.7
703.819	4339.7
704.436	4394.7
705.052	4315.7
705.669	4323.2
706.286	4425.7
706.902	4276.2
707.519	4272.7
708.135	4435.2
708.752	4382.7
709.368	4339.7
709.984	4396.2
710.599	4403.7
711.215	4484.7
711.831	4350.2
712.447	4329.7
713.063	4389.7
713.68	4324.7
714.296	4446.2
714.909	4374.7
715.526	4492.7
716.141	4479.7
716.757	4392.2
717.373	4356.7
717.987	4353.7
718.603	4436.2
719.219	4340.2
719.834	4385.2
720.448	4352.7
721.063	4384.7
721.679	4444.2
722.295	4359.7
722.908	4371.2
723.523	4199.7
724.139	4400.2
724.752	4320.7
725.367	4374.7
725.983	4428.7
726.596	4352.2
727.211	4281.7
727.826	4390.2
728.439	4420.2
729.054	4389.2
729.667	4324.7
730.282	4420.7
730.897	4399.7
731.51	4318.2
732.125	4368.2
732.738	4377.7
733.353	4299.7
733.965	4204.7
734.58	4348.2
735.195	4313.7
735.807	4338.7
736.422	4265.2
737.034	4161.7
737.647	4320.2
738.261	4264.2
738.874	4244.7
739.488	4306.7
740.1	4250.2
740.715	4174.7
741.327	4128.7
741.941	4073.7
742.553	4039.2
743.165	3934.7
743.779	3993.7
744.391	3947.7
745.005	4067.7
745.617	4076.7
746.229	4050.7
746.843	4073.7
747.455	4106.7
748.067	4210.2
748.68	4067.7
749.292	4066.7
749.904	4008.7
750.515	4101.7
751.129	3994.7
751.74	4040.2
752.352	4039.7
752.965	4084.7
753.577	3987.7
754.188	4023.7
754.799	3966.7
755.411	3937.7
756.024	3917.7
756.635	3897.2
757.246	3971.7
757.857	3837.2
758.468	3857.7
759.079	3714.2
759.692	3801.2
760.303	3682.7
760.914	3696.7
761.525	3789.2
762.136	3871.7
762.747	3754.7
763.357	3733.2
763.968	3693.7
764.579	3712.2
765.189	3703.7
765.802	3576.7
766.413	3687.7
767.023	3633.2
767.633	3573.7
768.244	3558.7
768.854	3492.7
769.465	3472.7
770.075	3484.7
770.685	3422.7
771.295	3507.7
771.906	3528.7
772.514	3359.7
773.124	3427.2
773.734	3248.2
774.344	3301.7
774.954	3302.2
775.564	3185.7
776.173	3296.7
776.783	3220.2
777.393	3194.7
778.003	3206.2
778.61	3131.7
779.22	3189.2
779.83	3138.2
780.439	2993.7
781.049	3070.7
781.659	3130.7
782.266	3022.2
782.875	2946.7
783.485	2918.7
784.094	2934.7
784.701	2940.2
785.311	2921.7
785.92	2840.7
786.529	2903.7
787.136	2861.2
787.745	2848.2
788.354	2694.7
788.961	2848.2
789.57	2784.7
790.179	2748.7
790.786	2776.2
791.395	2649.7
792.004	2732.2
792.611	2600.2
793.219	2670.2
793.828	2619.2
794.435	2604.2
795.043	2611.2
795.65	2583.7
796.258	2501.7
796.867	2526.7
797.473	2502.2
798.082	2503.2
798.688	2481.7
799.296	2469.7
799.903	2212.7
800.511	2424.2
801.117	2458.7
801.725	2397.7
802.331	2380.7
802.94	2415.7
803.546	2417.7
804.154	2385.7
804.759	2381.7
805.367	2310.7
805.973	2420.2
806.579	2334.2
807.187	2288.7
807.793	2345.7
808.4	2346.7
809.006	2315.7
809.612	2279.2
810.219	2305.2
810.825	2340.2
811.43	2228.2
812.038	2331.2
812.643	2284.2
813.249	2302.7
813.856	2360.2
814.461	2327.7
815.067	2328.7
815.672	2304.7
816.279	2321.7
816.884	2284.7
817.489	2260.7
818.094	2282.7
818.701	2290.2
819.306	2333.7
819.911	2285.2
820.516	2326.7
821.121	2272.7
821.728	2293.7
822.333	2264.2
822.937	2283.2
823.542	2221.2
824.147	2291.7
824.751	2273.7
825.358	2291.7
825.962	2265.7
826.567	2293.7
827.171	2274.7
827.776	2279.7
828.38	2365.7
828.984	2272.7
829.589	2317.2
830.193	2293.7
830.797	2330.7
831.401	2297.2
832.006	2271.7
832.61	2299.2
833.214	2295.7
833.818	2302.7
834.422	2335.7
835.026	2330.2
835.63	2381.7
836.233	2353.7
836.837	2324.2
837.441	2294.7
838.045	2315.2
838.648	2350.2
839.252	2327.7
839.856	2280.2
840.457	2399.7
841.061	2333.7
841.664	2344.7
842.268	2305.2
842.871	2358.2
843.474	2334.7
844.076	2325.7
844.679	2332.7
845.282	2288.7
845.886	2371.7
846.489	2375.2
847.09	2372.7
847.693	2385.7
848.296	2300.7
848.899	2380.2
849.5	2425.7
850.103	2410.7
850.706	2421.7
851.309	2390.7
851.909	2450.7
852.512	2375.7
853.115	2390.2
853.716	2433.2
854.318	2410.2
854.921	2332.7
855.521	2438.7
856.124	2370.7
856.727	2379.7
857.327	2394.7
857.929	2380.7
858.53	2427.2
859.132	2448.2
859.734	2413.2
860.335	2466.2
860.937	2466.2
861.537	2482.7
862.139	2487.7
862.739	2402.7
863.341	2438.7
863.941	2380.7
864.543	2344.7
865.143	2456.7
865.745	2425.7
866.345	2416.7
866.947	2488.7
867.546	2475.7
868.148	2493.2
868.748	2501.7
869.347	2536.7
869.949	2615.2
870.549	2584.7
871.15	2514.7
871.75	2567.7
872.349	2594.2
872.951	2578.2
873.55	2622.7
874.149	2653.2
874.751	2578.7
875.35	2577.7
875.949	2576.7
876.55	2616.7
877.149	2650.7
877.748	2690.7
878.347	2648.7
878.948	2630.2
879.547	2703.2
880.146	2776.7
880.745	2770.7
881.346	2750.7
881.945	2783.2
882.544	2745.2
883.142	2787.7
883.743	2776.7
884.342	2816.7
884.94	2824.2
885.539	2843.7
886.137	2832.2
886.736	2888.7
887.334	2884.7
887.935	2864.2
888.533	2906.7
889.132	2986.7
889.73	2989.2
890.328	3001.7
890.926	2999.2
891.525	3019.7
892.123	3086.7
892.721	3069.7
893.319	3035.7
893.917	3169.7
894.515	3153.7
895.113	3100.7
895.711	3174.7
896.309	3311.7
896.906	3175.2
897.504	3240.7
898.102	3278.2
898.7	3411.7
899.297	3183.7
899.895	3342.2
900.492	3384.7
901.09	3406.7
901.688	3401.7
902.283	3470.7
902.88	3528.2
903.478	3594.2
904.075	3658.2
904.672	3535.7
905.27	3684.2
905.867	3730.7
906.462	3757.7
907.059	3770.7
907.656	3762.2
908.254	3896.7
908.851	3905.7
909.446	3939.2
910.043	3862.7
910.639	4139.2
911.236	4066.7
911.831	4053.7
912.428	4230.2
913.025	4294.7
913.619	4203.7
914.216	4276.2
914.813	4285.2
915.407	4364.2
916.004	4373.7
916.6	4380.7
917.195	4554.2
917.791	4598.7
918.388	4742.2
918.982	4442.7
919.578	4689.2
920.173	4675.7
920.769	4848.2
921.365	4824.7
921.959	4901.7
922.556	4993.36
923.15	4934.73
923.746	5002.8
924.34	4863.42
924.936	5007.63
925.53	5203.13
926.126	5177.72
926.719	5284.57
927.315	5220.3
927.909	5428.32
928.505	5309.53
929.098	5578.49
929.694	5490.35
930.288	5552.65
930.881	5522.12
931.477	5682.12
932.07	5798.95
932.666	5805.5
933.259	5773.74
933.853	5732.13
934.448	5998.76
935.041	6039.2
935.635	6033.43
936.23	6099.14
936.823	6082.09
937.416	6027.13
938.011	6131.19
938.604	6194.99
939.197	6059.86
939.79	6173.58
940.385	6294.44
940.978	6414.67
941.571	6377.57
942.164	6478.71
942.759	6616.28
943.352	6550.22
943.944	6619.36
944.537	6747.67
945.13	6828.65
945.724	6873.92
946.317	6842.81
946.909	6925.9
947.502	6923.13
948.094	6954.91
948.687	7073.9
949.279	7129.41
949.873	7134.97
950.466	7230.32
951.058	7187.63
951.65	7203.71
952.242	7150.59
952.835	7158.88
953.427	7433.66
954.019	7405.5
954.611	7634.67
955.203	7718.44
955.795	7638.04
956.387	7613.05
956.978	7528.85
957.57	7715.04
958.162	7939.97
958.754	7778.42
959.346	7938.22
959.937	7932.86
960.529	7994.08
961.121	7948.3
961.712	7947.35
962.302	8058.22
962.893	8040.57
963.484	8122.78
964.076	8156.02
964.667	8349.7
965.259	8287.03
965.85	8225.1
966.439	8306.55
967.03	8333.63
967.622	8438.91
968.213	8427.95
968.804	8459.36
969.393	8494.18
969.984	8550.56
970.575	8461.16
971.166	8479.44
971.755	8593.77
972.346	8692.37
972.936	8663.25
973.527	8689.01
974.116	8835.79
974.707	8456.12
975.297	8644.4
975.886	8777.45
976.477	8840.29
977.067	8786.19
977.656	8940.06
978.246	9004.17
978.835	8986
979.425	8957.25
980.015	8899.02
980.604	8928.22
981.194	9006.59
981.782	9038.71
982.372	9121.19
982.961	9220.99
983.551	9203
984.141	9175.11
984.729	9007.95
985.319	9266.97
985.907	9177.93
986.497	9165.64
987.085	9271.43
987.673	9385.25
988.263	9470.36
988.85	9436.29
989.44	9306.93
990.028	9156.41
990.617	9491.4
991.205	9375.36
991.793	9557.42
992.382	9485.69
992.97	9533.15
993.559	9486.89
994.147	9391.8
994.734	9489.56
995.323	9451.17
995.911	9413.85
996.498	9485.86
997.087	9550.11
997.675	9710.1
998.262	9511.69
998.849	9500.71
999.438	9507.78
1000.03	9615.81
1000.61	9593.68
1001.2	9671.11
1001.79	9733.98
1002.37	9598.53
1002.96	9503.1
1003.55	9449.98
1004.14	9478.27
1004.72	9453.17
1005.31	9637.67
1005.9	9615.5
1006.48	9779.56
1007.07	9578.4
1007.66	9519.15
1008.25	9437.81
1008.83	9367.33
1009.42	9457.37
1010.01	9434.76
1010.59	9398.19
1011.18	9409.31
1011.76	9392.58
1012.35	9247.18
1012.94	9156.26
1013.52	9163.24
1014.11	9127.17
1014.7	9174.06
1015.28	9133.53
1015.87	9205.17
1016.45	9146.12
1017.04	9195.1
1017.63	9144.04
1018.21	9100.27
1018.8	8867.11
1019.38	9096.12
1019.97	9045.79
1020.55	9028.67
1021.14	9096.17
1021.73	9063.17
1022.31	8921.05
1022.89	8904.45
1023.48	9018.63
1024.07	9063.43
1024.65	8946.06
1025.24	8903.73
1025.82	8882.08
1026.41	8734.96
1026.99	8772.2
1027.58	8777.17
1028.16	8741.62
1028.74	8726.38
1029.33	8717.6
1029.91	8603.17
1030.5	8557.81
1031.08	8500.44
1031.67	8462.47
1032.25	8395.37
1032.84	8407.7
1033.42	8290.98
1034.01	8319.21
1034.59	8375.72
1035.17	8241.82
1035.76	8218.95
1036.34	8134.05
1036.93	7988.86
1037.51	8080.58
1038.09	7891.18
1038.68	8047.28
1039.26	7960.69
1039.84	8006
1040.43	7789.99
1041.01	7815.46
1041.6	7688.15
1042.18	7653.45
1042.76	7774.58
1043.34	7786.84
1043.93	7806.34
1044.51	7860.77
1045.09	7541.72
1045.68	7429.96
1046.26	7415.16
1046.84	7445.95
1047.43	7364.1
1048.01	7343.13
1048.59	7268.21
1049.17	7317.25
1049.76	7141.39
1050.34	7096.57
1050.92	6908.42
1051.51	6978
1052.09	6984.99
1052.67	6938.61
1053.25	6818.15
1053.83	6824.56
1054.42	6674.87
1055	6557.2
1055.58	6473.98
1056.16	6447.56
1056.74	6388.98
1057.33	6475.28
1057.91	6452.45
1058.49	6397.88
1059.07	6377.51
1059.65	6367.82
1060.24	6357.47
1060.82	6281.01
1061.4	6183.88
1061.98	6222.36
1062.56	6286.64
1063.14	6152.71
1063.72	6088.61
1064.3	5920.24
1064.89	5878.47
1065.47	5951.88
1066.05	5762.11
1066.63	5832.4
1067.21	5803.21
1067.79	5712.41
1068.37	5678.28
1068.95	5728.98
1069.53	5663.51
1070.11	5514.53
1070.69	5549.18
1071.27	5530.84
1071.86	5510.47
1072.44	5319.97
1073.02	5378.42
1073.6	5284.15
1074.18	5198.34
1074.76	5200.23
1075.34	5089.43
1075.92	5101.64
1076.5	5232.53
1077.08	5043.69
1077.66	5210.32
1078.24	5130.04
1078.82	4987.68
1079.4	4950.48
1079.98	4990.81
1080.55	4857.81
1081.13	4856.48
1081.71	4914.96
1082.29	4799.32
1082.87	4719.86
1083.45	4664.5
1084.03	4644.28
1084.61	4577.29
1085.19	4655.26
1085.77	4541.5
1086.35	4544.06
1086.93	4452.66
1087.51	4467.17
1088.09	4355.39
1088.67	4343.75
1089.24	4233.81
1089.82	4344.66
1090.4	4273.35
1090.98	4289.86
1091.56	4230.12
1092.14	4012.06
1092.71	4125.72
1093.29	4120.14
1093.87	4150.24
1094.45	4084.67
1095.03	3996.89
1095.61	3935.07
1096.18	4044.85
1096.76	3933.98
1097.34	3779.86
1097.92	3805.32
1098.49	3878.93
1099.04	3788.43
1099.63	3746.93
1100.22	3800.93
1100.8	3757.93
1101.39	3730.43
1101.97	3704.43
1102.56	3608.93
1103.15	3601.43
1103.73	3627.43
1104.31	3579.93
1104.9	3580.43
1105.49	3491.93
1106.07	3517.93
1106.66	3413.93
1107.24	3438.93
1107.83	3352.93
1108.41	3338.93
1109	3263.43
1109.58	3132.93
1110.17	3233.93
1110.75	3122.93
1111.33	3066.93
1111.92	3058.43
1112.5	3065.93
1113.09	3115.93
1113.67	3088.43
1114.26	3057.43
1114.84	3047.93
1115.43	3022.43
1116.01	3052.43
1116.59	2926.93
1117.18	2986.43
1117.76	2908.93
1118.35	2934.43
1118.93	2822.43
1119.51	2981.93
1120.1	2925.43
1120.68	2773.93
1121.27	2842.93
1121.85	2823.93
1122.43	2789.43
1123.02	2767.93
1123.6	2682.43
1124.18	2732.93
1124.77	2715.43
1125.35	2702.93
1125.93	2638.43
1126.52	2650.43
1127.1	2577.93
1127.68	2542.93
1128.26	2554.93
1128.85	2537.93
1129.43	2507.43
1130.01	2484.93
1130.6	2499.93
1131.18	2466.93
1131.76	2424.43
1132.34	2458.93
1132.93	2380.93
1133.51	2400.93
1134.09	2317.93
1134.67	2323.93
1135.26	2327.93
1135.84	2252.43
1136.42	2318.93
1137	2294.43
1137.59	2236.93
1138.17	2208.43
1138.75	2199.93
1139.33	2201.93
1139.91	2180.93
1140.49	2134.93
1141.08	2166.93
1141.66	2054.93
1142.24	2121.43
1142.82	2025.43
1143.4	1994.93
1143.99	2059.93
1144.57	2074.43
1145.15	2010.93
1145.73	1979.93
1146.31	2025.43
1146.89	1963.93
1147.47	1916.93
1148.05	1945.93
1148.64	1901.93
1149.22	1876.93
1149.8	1895.93
1150.38	1886.93
1150.96	1783.93
1151.54	1820.93
1152.12	1759.43
1152.7	1840.43
1153.28	1809.93
1153.86	1774.43
1154.44	1746.43
1155.02	1762.93
1155.6	1777.93
1156.18	1721.93
1156.76	1756.93
1157.34	1708.93
1157.92	1655.43
1158.5	1666.43
1159.08	1699.43
1159.66	1688.43
1160.24	1707.93
1160.82	1660.93
1161.4	1681.43
1161.98	1600.93
1162.56	1613.93
1163.14	1670.43
1163.72	1652.93
1164.3	1586.93
1164.88	1616.93
1165.46	1590.93
1166.04	1614.93
1166.62	1598.93
1167.2	1542.93
1167.78	1537.93
1168.36	1509.93
1168.94	1569.43
1169.52	1499.93
1170.09	1441.93
1170.67	1417.93
1171.25	1413.43
1171.83	1369.43
1172.41	1407.43
1172.99	1413.93
1173.57	1442.93
1174.15	1465.43
1174.72	1493.93
1175.3	1491.93
1175.88	1466.43
1176.46	1436.93
1177.04	1414.43
1177.62	1373.93
1178.19	1472.93
1178.77	1434.93
1179.35	1473.93
1179.93	1424.43
1180.51	1445.93
1181.08	1443.43
1181.66	1367.43
1182.24	1406.43
1182.82	1365.93
1183.4	1383.43
1183.97	1374.93
1184.55	1415.43
1185.13	1382.93
1185.7	1327.43
1186.28	1313.43
1186.86	1373.93
1187.44	1349.93
1188.02	1337.93
1188.59	1347.43
1189.17	1369.93
1189.75	1328.43
1190.32	1341.43
1190.9	1356.93
1191.48	1383.43
1192.05	1339.93
1192.63	1269.93
1193.21	1318.93
1193.78	1307.43
1194.36	1311.43
1194.94	1409.43
1195.51	1342.43
1196.09	1280.93
1196.67	1287.93
1197.24	1313.93
1197.82	1339.43
1198.4	1310.43
1198.97	1323.43
1199.55	1300.43
1200.12	1315.93
1200.7	1305.43
1201.28	1274.93
1201.85	1292.93
1202.43	1280.43
1203	1304.43
1203.58	1298.93
1204.16	1165.93
1204.73	1261.43
1205.31	1230.93
1205.88	1267.43
1206.46	1262.93
1207.03	1287.93
1207.61	1290.93
1208.18	1297.93
1208.76	1314.93
1209.33	1227.93
1209.91	1280.93
1210.48	1281.93
1211.06	1276.93
1211.63	1269.93
1212.21	1284.43
1212.78	1277.43
1213.36	1297.93
1213.93	1289.43
1214.51	1274.93
1215.08	1232.93
1215.66	1261.93
1216.23	1280.43
1216.8	1234.93
1217.38	1265.43
1217.95	1214.93
1218.53	1260.43
1219.1	1239.43
1219.68	1264.93
1220.25	1214.93
1220.83	1262.43
1221.4	1193.93
1221.97	1265.93
1222.55	1240.43
1223.12	1234.93
1223.69	1200.93
1224.27	1235.43
1224.84	1151.93
1225.41	1215.93
1225.99	1215.43
1226.56	1227.93
1227.13	1242.43
1227.71	1191.93
1228.28	1256.93
1228.85	1255.93
1229.43	1244.93
1230	1215.43
1230.57	1210.93
1231.15	1242.43
1231.72	1188.43
1232.29	1247.43
1232.87	1232.43
1233.44	1206.93
1234.01	1146.93
1234.58	1107.93
1235.16	1008.93
1235.73	1226.43
1236.3	1256.93
1236.87	1278.93
1237.45	1242.43
1238.02	1169.93
1238.59	1157.93
1239.16	1206.43
1239.74	1171.43
1240.31	1198.93
1240.88	1189.43
1241.45	1223.93
1242.03	1201.93
1242.6	1166.93
1243.17	1188.93
1243.74	1230.93
1244.31	1199.93
1244.88	1202.43
1245.46	1210.93
1246.03	1186.43
1246.6	1186.93
1247.17	1208.93
1247.74	1150.93
1248.31	1157.43
1248.88	1195.93
1249.45	1192.93
1250.03	1236.43
1250.6	1235.43
1251.17	1168.43
1251.74	1153.93
1252.31	1164.43
1252.88	1171.93
1253.45	1203.93
1254.02	1218.93
1254.59	1202.93
1255.17	1211.43
1255.74	1209.43
1256.31	1158.93
1256.88	1191.93
1257.45	1217.93
1258.02	1190.93
1258.59	1199.93
1259.16	1185.93
1259.73	1196.93
1260.3	1131.43
1260.87	1194.93
1261.44	1159.43
1262.01	1209.43
1262.58	1165.93
1263.15	1182.93
1263.72	1166.43
1264.29	1144.93
1264.86	1161.93
1265.43	1216.93
1266	1216.93
1266.57	1184.93
1267.14	1130.93
1267.71	1165.93
1268.28	1185.43
1268.85	1156.93
1269.41	1163.43
1269.98	1222.93
1270.55	1181.43
1271.12	1173.43
1271.69	1159.93
1272.26	1146.93
1272.83	1146.43
1273.4	1149.93
1273.97	1168.93
1274.54	1167.93
1275.1	1204.93
1275.67	1153.93
1276.24	1192.93
1276.81	1156.93
1277.38	1193.43
1277.95	1190.43
1278.52	1137.43
1279.09	1108.93
1279.65	1121.93
1280.22	1168.43
1280.79	1169.93
1281.36	1165.93
1281.93	1152.93
1282.49	1119.93
1283.06	1153.93
1283.63	1220.93
1284.2	1111.93
1284.77	1193.43
1285.33	1144.43
1285.9	1108.93
1286.47	1099.93
1287.04	1132.43
1287.6	1152.43
1288.17	1152.43
1288.74	1152.93
1289.31	1139.43
1289.87	1141.93
1290.44	1185.43
1291.01	1144.43
1291.58	1173.43
1292.14	1191.93
1292.71	1177.43
1293.28	1161.93
1293.84	1127.93
1294.41	1210.43
1294.98	1152.93
1295.54	1173.93
1296.11	1114.43
1296.68	1154.93
1297.25	1108.93
1297.81	1200.93
1298.38	1144.43
1298.94	1131.93
1299.51	1160.93
1300.08	1122.93
1300.64	1150.93
1301.21	1141.43
1301.78	1127.43
1302.34	1042.93
1302.91	1168.93
1303.47	1155.43
1304.04	1097.93
1304.61	1129.43
1305.17	1163.43
1305.74	1153.43
1306.3	1176.93
1306.87	1096.93
1307.43	1166.43
1308	1162.43
1308.57	1097.93
1309.13	1136.93
1309.7	1167.43
1310.26	1153.93
1310.83	1132.93
1311.39	1164.93
1311.96	1131.93
1312.52	1131.43
1313.09	1161.43
1313.65	1121.93
1314.22	1109.43
1314.78	1151.93
1315.35	1171.93
1315.91	1188.93
1316.48	1182.93
1317.04	1148.43
1317.61	1162.43
1318.17	1112.93
1318.74	1129.93
1319.3	1185.43
1319.86	1105.93
1320.43	1130.93
1320.99	1207.43
1321.56	1163.43
1322.12	1117.93
1322.68	1189.43
1323.25	1107.43
1323.81	1154.93
1324.38	1145.93
1324.94	1122.93
1325.51	1150.93
1326.07	1129.93
1326.63	1127.43
1327.2	1114.93
1327.76	1135.43
1328.32	1165.93
1328.89	1144.43
1329.45	1145.93
1330.01	1192.93
1330.58	1110.43
1331.14	1137.93
1331.7	1098.93
1332.27	1146.93
1332.83	1139.93
1333.39	1149.93
1333.96	1155.93
1334.52	1145.93
1335.08	1176.93
1335.65	1146.43
1336.21	1154.93
1336.77	1105.43
1337.33	1151.93
1337.9	1173.93
1338.46	1213.43
1339.02	1193.93
1339.58	1098.93
1340.15	1083.93
1340.71	1257.93
1341.27	1146.93
1341.83	1145.93
1342.4	1130.93
1342.96	1142.93
1343.52	1069.93
1344.08	1128.93
1344.64	1161.43
1345.21	1113.93
1345.77	1133.93
1346.33	1125.93
1346.89	1132.93
1347.45	1154.93
1348.01	1134.93
1348.58	1149.43
1349.14	1149.93
1349.7	1157.93
1350.26	1111.93
1350.82	1169.43
1351.38	1123.93
1351.95	1099.93
1352.51	1138.93
1353.07	1177.93
1353.63	1149.93
1354.19	1123.93
1354.75	1184.93
1355.31	1168.43
1355.87	1119.93
1356.43	1113.43
1357	1097.93
1357.56	1103.43
1358.12	1087.93
1358.68	1100.43
1359.24	1105.43
1359.8	1106.43
1360.36	1129.93
1360.92	1115.93
1361.48	1176.93
1362.04	1089.93
1362.6	1193.93
1363.16	1177.43
1363.72	1182.93
1364.28	1078.93
1364.84	1084.93
1365.4	1110.43
1365.96	1117.43
1366.52	1101.43
1367.08	1185.93
1367.64	1179.93
1368.2	1154.93
1368.76	1138.43
1369.32	1113.93
1369.88	1025.93
1370.44	1068.93
1371	1097.93
1371.56	1143.93
1372.11	1151.93
1372.67	1160.93
1373.23	1120.93
1373.79	1128.93
1374.35	1154.93
1374.91	1158.43
1375.47	1126.43
1376.03	1125.93
1376.59	1107.43
1377.15	1139.43
1377.7	1139.43
1378.26	1180.43
1378.82	1124.43
1379.38	1162.43
1379.94	1154.93
1380.5	1143.43
1381.06	1102.43
1381.61	1171.93
1382.17	1261.93
1382.73	1095.93
1383.29	1176.93
1383.85	1148.93
1384.41	1132.93
1384.96	1110.93
1385.52	1133.93
1386.08	1122.93
1386.64	1133.43
1387.2	1118.43
1387.75	1163.43
1388.31	1117.93
1388.87	1141.93
1389.43	1105.43
1389.98	1100.93
1390.54	1116.93
1391.1	1125.43
1391.66	1148.93
1392.22	1145.93
1392.77	1101.93
1393.33	1155.93
1393.89	1095.43
1394.44	1161.43
1395	1113.93
1395.56	1144.43
1396.12	1139.43
1396.67	1130.93
1397.23	1130.93
1397.79	1131.93
1398.34	1096.93
1398.9	1155.93
1399.46	1091.93
1400.01	1091.43
1400.57	1140.43
1401.12	1106.43
1401.68	1123.43
1402.24	1140.93
1402.79	1086.93
1403.35	1096.43
1403.91	1159.93
1404.46	1087.93
1405.02	1121.93
1405.57	1129.93
1406.13	1139.43
1406.69	1095.93
1407.24	1177.93
1407.8	1120.43
1408.36	1142.43
1408.91	1123.43
1409.47	1106.93
1410.02	1169.93
1410.58	1117.93
1411.13	1138.93
1411.69	1103.93
1412.24	1146.93
1412.8	1099.43
1413.35	1082.93
1413.91	1135.93
1414.46	1131.93
1415.02	1146.93
1415.57	1183.93
1416.13	1159.43
1416.68	1115.93
1417.24	1150.93
1417.8	1131.43
1418.35	1114.43
1418.91	1100.93
1419.46	1163.93
1420.01	1104.43
1420.57	1088.93
1421.12	1112.93
1421.68	1147.43
1422.23	1111.43
1422.79	1085.93
1423.34	1142.93
1423.89	1093.93
1424.45	1099.93
1425	1114.93
1425.56	1100.93
1426.11	1075.93
1426.67	1064.93
1427.22	1079.93
1427.77	1086.93
1428.33	1090.93
1428.88	1079.93
1429.43	1156.93
1429.99	1145.43
1430.54	1116.93
1431.09	1120.93
1431.65	1124.93
1432.2	1173.43
1432.76	1109.43
1433.31	1111.43
1433.86	1136.43
1434.42	1122.93
1434.97	1119.93
1435.52	1120.93
1436.07	1129.43
1436.63	1110.93
1437.18	1077.93
1437.73	1116.43
1438.29	1106.43
1438.84	1158.93
1439.39	1129.43
1439.95	1148.43
1440.5	1109.93
1441.05	1144.43
1441.6	1133.93
1442.15	1109.93
1442.71	1083.93
1443.26	1157.93
1443.81	1107.93
1444.36	979.432
1444.92	979.432
1445.47	1100.93
1446.02	1077.93
1446.57	1134.93
1447.13	1068.93
1447.68	1121.93
1448.23	1118.43
1448.78	1091.93
1449.33	1104.93
1449.88	1041.93
1450.44	1072.93
1450.99	1129.43
1451.54	1098.43
1452.09	1075.93
1452.64	1098.93
1453.19	1045.43
1453.74	1122.43
1454.3	1052.93
1454.85	1076.93
1455.4	1111.93
1455.95	1074.93
1456.5	1065.93
1457.05	1114.43
1457.6	1058.43
1458.15	1047.93
1458.7	1087.43
1459.25	1038.93
1459.8	1117.93
1460.36	1044.93
1460.91	1125.43
1461.46	1107.93
1462.01	1075.43
1462.56	1132.43
1463.11	1088.93
1463.66	1094.93
1464.21	1055.93
1464.76	1076.43
1465.31	1116.93
1465.86	1047.43
1466.41	1112.43
1466.96	1050.43
1467.51	1025.93
1468.06	1035.93
1468.61	1080.43
1469.16	1095.93
1469.71	1076.93
1470.26	1060.93
1470.81	1047.93
1471.36	1094.93
1471.91	1027.93
1472.46	1080.43
1473.01	1063.93
1473.56	1042.93
1474.11	1074.93
1474.66	1075.93
1475.2	1082.93
1475.75	1081.93
1476.3	1087.93
1476.85	1028.43
1477.4	1087.93
1477.95	1064.93
1478.5	1068.93
1479.05	1110.43
1479.6	1008.93
1480.15	952.432
1480.7	1093.93
1481.24	1053.93
1481.79	1091.93
1482.34	1033.93
1482.89	1052.93
1483.44	1036.43
1483.99	1070.93
1484.53	1085.43
1485.08	1080.93
1485.63	1049.93
1486.18	1061.93
1486.73	1088.43
1487.27	1054.93
1487.82	1090.93
1488.37	1063.93
1488.92	1026.43
1489.47	1099.93
1490.01	1072.43
1490.56	1034.93
1491.11	1060.93
1491.66	1076.93
1492.21	1048.93
1492.75	1063.93
1493.3	1052.43
1493.85	1093.43
1494.39	1076.93
1494.94	1021.93
1495.49	1025.43
1496.04	1075.93
1496.58	1017.93
1497.13	1031.93
1497.68	1029.93
1498.22	1025.93
1498.77	1095.93
1499.32	1040.43
1499.87	1068.43
