19.3994	9688.11
20.0758	10226.6
20.7522	10536.1
21.4285	11149.6
22.1048	11550.1
22.7811	11780.1
23.4573	12193.1
24.1334	12677.6
24.8095	12782.6
25.4855	13250.1
26.1615	13537.6
26.8375	13519.1
27.5134	14079.1
28.1893	13984.1
28.8651	14101.1
29.5408	14399.1
30.2166	14953.1
30.8922	15239.1
31.5679	15287.1
32.2434	15797.1
32.919	15948.1
33.5945	16118.1
34.2699	16434.1
34.9453	16787.1
35.6206	16931.1
36.2959	17009.1
36.9712	16991.6
37.6464	17222.6
38.3192	17217.1
38.9943	17719.1
39.6694	17914.1
40.3444	17982.6
41.0194	18201.1
41.6943	18159.1
42.3692	18159.1
43.0417	18223.1
43.7165	18558.6
44.3912	18822.1
45.0659	18845.6
45.7405	19024.1
46.4128	18827.1
47.0874	18956.1
47.7619	19085.6
48.4363	19099.6
49.1084	19200.6
49.7828	19213.6
50.4571	19067.6
51.1314	19033.6
51.8033	18941.1
52.4775	19097.6
53.1516	19106.1
53.8234	19191.6
54.4974	19347.6
55.1714	19364.1
55.843	19548.1
56.5169	19617.1
57.1908	19459.6
57.8623	19634.1
58.536	19642.1
59.2074	19514.6
59.8811	19509.1
60.5547	19656.1
61.2259	20272.1
61.8995	20330.1
62.5706	20230.1
63.2441	20608.6
63.9174	20045.1
64.5885	19921.6
65.2618	19622.1
65.9327	19511.1
66.6059	19378.1
67.2767	19339.1
67.9498	19393.1
68.6206	19201.6
69.2936	19050.1
69.9643	18897.6
70.6372	18880.1
71.3077	19052.6
71.9783	19654.2
72.651	19761.2
73.3215	19695.5
73.9941	19471.7
74.6645	19289.3
75.3371	20619.1
76.0073	20576.1
76.6775	20094.1
77.3499	19571.6
78.02	19452.1
78.6901	19125.6
79.3624	18854.6
80.0324	18877.6
80.7023	18873.6
81.3745	18783.6
82.0443	18773.6
82.7141	18564.1
83.3861	18655.1
84.0558	18371.1
84.7254	18229.1
85.3973	18249.1
86.0668	18384.6
86.7364	18560.6
87.4058	18480.1
88.0775	18327.1
88.7469	18254.6
89.4162	18408.6
90.0855	18201.1
90.7547	18447.6
91.4261	18421.1
92.0953	18446.1
92.7644	18165.1
93.4334	17970.6
94.1024	17881.1
94.7713	17806.1
95.4425	18097.1
96.1114	18151.1
96.7802	18125.6
97.449	17835.1
98.1177	17469.1
98.7863	17622.1
99.455	17536.1
100.124	17559.1
100.792	17838.6
101.461	17828.6
102.131	17744.1
102.8	17510.1
103.468	17537.1
104.136	17622.1
104.805	17706.1
105.473	17496.1
106.141	17284.1
106.809	17028.1
107.477	16970.1
108.145	16902.1
108.813	16992.6
109.481	17232.1
110.147	17287.1
110.814	17315.1
111.482	17924.1
112.15	17782.1
112.818	17277.1
113.485	17542.1
114.153	17314.1
114.821	17150.6
115.488	17037.6
116.156	16607.6
116.821	16490.6
117.488	16304.1
118.155	16281.6
118.823	16393.6
119.49	16367.1
120.157	16183.1
120.822	16009.6
121.489	16093.1
122.156	16006.6
122.823	16159.1
123.49	16144.6
124.155	16136.1
124.822	16169.1
125.488	16244.1
126.155	15951.1
126.82	16054.6
127.486	16018.1
128.153	16105.1
128.817	16105.1
129.484	16078.1
130.15	16034.1
130.817	15612.6
131.481	15662.6
132.147	15618.6
132.811	15710.1
133.478	15943.6
134.144	15786.1
134.808	15651.6
135.474	15562.1
136.14	15520.1
136.804	15430.1
137.47	15533.6
138.133	15468.6
138.799	15305.6
139.463	15246.1
140.129	15157.1
140.795	15049.1
141.458	15064.1
142.124	14961.1
142.787	15182.6
143.453	15120.1
144.116	14920.1
144.781	15140.6
145.445	14810.6
146.11	14826.1
146.773	14947.1
147.436	14879.1
148.101	14882.1
148.764	14708.6
149.429	14246.1
150.092	14690.1
150.757	14594.1
151.42	14542.1
152.083	14719.6
152.748	14763.1
153.41	14414.1
154.075	14473.1
154.738	14541.1
155.4	14546.6
156.065	14481.1
156.727	14533.1
157.39	14359.1
158.054	14325.1
158.717	14136.6
159.379	14375.6
160.041	14455.6
160.705	14283.6
161.367	14341.6
162.03	14199.6
162.692	14152.1
163.356	14036.6
164.018	13945.1
164.679	13721.6
165.341	13880.1
166.005	14013.1
166.667	13963.6
167.329	13928.6
167.99	13885.6
168.652	13868.6
169.313	13824.1
169.977	13912.1
170.639	14320.6
171.3	14257.1
171.961	14009.1
172.623	14051.1
173.284	13981.6
173.945	13886.1
174.606	13731.1
175.267	13935.1
175.931	14168.1
176.592	14018.1
177.253	13911.1
177.914	13680.1
178.575	13786.1
179.236	13916.1
179.896	13935.1
180.557	13954.1
181.218	13893.1
181.879	13881.1
182.539	13677.1
183.2	13860.1
183.86	13747.1
184.521	13696.1
185.181	13700.1
185.839	13674.6
186.5	13581.1
187.16	13528.1
187.82	13576.1
188.48	13643.1
189.141	13831.6
189.801	13730.1
190.461	13933.6
191.121	13650.1
191.779	13862.6
192.439	13721.6
193.098	13874.1
193.758	14007.1
194.418	14234.1
195.078	14021.1
195.735	13981.1
196.395	13877.1
197.055	13955.1
197.714	13961.6
198.374	13909.1
199.031	14164.1
199.691	13788.6
200.35	13770.1
201.009	13792.1
201.666	13892.1
202.326	13966.6
202.985	14053.1
203.642	14059.6
204.301	13982.6
204.96	14067.1
205.617	13917.6
206.276	13983.6
206.935	14013.6
207.591	14181.1
208.25	14194.1
208.909	14031.1
209.566	14162.1
210.224	13876.6
210.881	14072.1
211.539	14224.6
212.196	14221.1
212.854	14413.1
213.513	14211.1
214.169	14286.6
214.827	14330.6
215.483	13975.1
216.142	14246.1
216.798	14331.1
217.456	14383.6
218.112	14527.1
218.77	14345.6
219.426	14140.1
220.084	14228.6
220.74	14377.6
221.398	14419.1
222.053	14430.1
222.709	14578.6
223.367	14297.1
224.022	14566.1
224.68	14612.1
225.336	14293.1
225.991	14356.1
226.649	14391.1
227.304	14341.1
227.961	14402.1
228.617	14240.1
229.272	14407.1
229.929	14326.6
230.584	14539.6
231.239	14429.1
231.897	14536.1
232.551	14727.6
233.206	14783.6
233.861	14837.6
234.518	14844.1
235.173	14819.1
235.828	15169.1
236.482	15045.1
237.139	15165.1
237.794	15174.1
238.449	15053.1
239.103	14893.1
239.757	15225.1
240.414	15371.1
241.069	15342.6
241.723	15236.1
242.377	15177.1
243.031	15305.6
243.686	15019.6
244.342	15342.1
244.996	15435.1
245.65	15560.1
246.304	15541.1
246.958	15540.1
247.612	15467.1
248.266	15279.1
248.92	15416.1
249.573	15703.6
250.227	15666.1
250.881	15577.6
251.535	15991.6
252.188	15553.1
252.842	15781.1
253.495	15794.1
254.149	15949.6
254.802	15974.1
255.456	15992.6
256.109	15930.1
256.762	15942.1
257.415	16016.1
258.069	16172.1
258.722	16048.1
259.375	16488.6
260.028	16236.1
260.681	16307.1
261.334	16366.6
261.987	16242.1
262.64	16363.6
263.29	16522.6
263.943	16458.1
264.596	16581.1
265.249	16623.6
265.901	16509.1
266.554	16350.1
267.204	16341.6
267.857	16582.1
268.509	16690.6
269.162	16722.6
269.814	16834.1
270.464	16536.1
271.117	16705.1
271.769	16735.6
272.421	16772.1
273.071	16879.1
273.723	17009.1
274.375	17138.1
275.025	16864.6
275.677	16917.1
276.329	16728.1
276.979	16946.6
277.631	17058.6
278.283	17361.6
278.932	17530.6
279.584	17441.6
280.236	17427.1
280.885	17170.1
281.537	17397.1
282.188	17522.1
282.838	17747.6
283.489	17814.6
284.138	17621.1
284.79	17494.1
285.439	17462.6
286.09	17635.1
286.739	17569.6
287.39	17677.1
288.041	17772.1
288.69	17771.1
289.341	17729.6
289.99	17519.1
290.639	17509.1
291.29	17757.1
291.939	17884.1
292.589	18058.1
293.238	17656.1
293.889	17832.1
294.537	17871.3
295.188	17895.9
295.836	17921
296.485	17558.6
297.135	17817.1
297.784	18050.1
298.434	18071.1
299.082	18028.1
299.73	17998.6
300.381	18324.1
301.029	18382.1
301.677	18532.6
302.327	18748.1
302.975	18486.6
303.623	18248.6
304.271	18293.1
304.921	18305.1
305.568	18439.1
306.216	18574.6
306.866	18805.6
307.513	18599.1
308.161	18617.6
308.809	18505.6
309.456	18596.6
310.106	19078.6
310.753	18649.1
311.4	18784.6
312.048	18728.1
312.695	18689.1
313.344	18733.6
313.992	18754.1
314.639	18875.6
315.286	19074.6
315.933	19154.1
316.58	19154.6
317.227	18984.6
317.874	18978.1
318.521	19258.1
319.17	19101.1
319.816	19396.1
320.463	19347.1
321.11	19401.1
321.757	19276.1
322.403	19343.1
323.05	19183.1
323.696	19400.1
324.343	19400.1
324.989	19502.1
325.636	19598.1
326.282	19688.6
326.928	19474.1
327.574	19459.1
328.221	19528.1
328.867	19625.1
329.511	20029.6
330.157	19917.1
330.803	19735.1
331.449	19869.1
332.095	19536.6
332.741	19635.1
333.387	19629.1
334.032	20046.1
334.678	20305.6
335.322	20246.1
335.967	19857.1
336.613	19843.6
337.259	20101.1
337.904	20035.1
338.547	20378.1
339.193	20199.1
339.838	20313.1
340.484	20367.1
341.129	20468.1
341.772	20128.1
342.417	20264.1
343.062	20589.1
343.705	20687.1
344.351	20797.1
344.996	20639.6
345.641	20636.6
346.283	20745.1
346.928	20812.1
347.573	20681.1
348.216	21025.6
348.861	21064.6
349.505	21085.1
350.148	21010.1
350.793	21107.6
351.435	21074.1
352.08	21107.1
352.724	21155.1
353.367	21376.6
354.011	21433.1
354.653	21235.1
355.298	21220.1
355.94	21459.1
356.584	21454.1
357.226	21523.6
357.87	21713.6
358.512	21569.1
359.156	21620.1
359.798	21441.1
360.442	21651.6
361.084	21919.1
361.728	22001.1
362.37	21825.1
363.013	22005.1
363.655	21941.1
364.299	21832.6
364.94	21773.1
365.582	21828.6
366.225	22065.1
366.867	22532.6
367.51	22366.1
368.152	22184.1
368.793	22518.6
369.436	22232.6
370.078	22264.1
370.719	22460.1
371.362	22692.6
372.003	22987.1
372.644	22799.6
373.287	22685.1
373.928	22328.6
374.569	22852.1
375.21	22728.1
375.853	22647.6
376.493	23103.1
377.134	23235.6
377.775	23245.1
378.418	23045.6
379.058	23043.1
379.699	22779.1
380.339	23113.1
380.98	23280.1
381.62	23567.6
382.263	23488.1
382.903	23493.1
383.543	23329.1
384.183	23582.6
384.823	23246.1
385.464	23783.6
386.104	23771.1
386.744	23796.1
387.386	23729.6
388.026	23727.1
388.666	23681.6
389.306	23927.6
389.945	23819.1
390.585	24151.6
391.225	24257.1
391.865	24007.6
392.504	23953.6
393.144	24043.1
393.784	23879.1
394.423	24204.1
395.063	24232.1
395.702	24540.1
396.341	24446.1
396.981	24471.6
397.62	23981.1
398.259	24237.1
398.896	24171.1
399.536	25015.1
400.175	24699.1
400.814	24868.1
401.453	24777.1
402.092	24589.1
402.731	24637.1
403.37	24597.1
404.006	24893.1
404.645	25312.1
405.284	25182.1
405.923	25010.1
406.562	24888.1
407.2	25060.1
407.837	24966.1
408.475	25023.1
409.114	25361.6
409.752	25386.1
410.388	25343.1
411.027	25286.6
411.665	25273.1
412.301	25538.1
412.94	25441.1
413.578	25556.6
414.216	25695.1
414.852	25917.6
415.49	25811.6
416.128	25571.1
416.764	25571.6
417.402	25961.6
418.04	26119.1
418.676	26238.6
419.314	26236.6
419.949	26114.1
420.587	26010.6
421.225	25968.1
421.86	26050.1
422.498	26030.1
423.133	26213.1
423.771	26490.1
424.406	26095.6
425.043	26514.4
425.679	26539.8
426.316	26293.1
426.951	26631.1
427.589	26835.6
428.224	27111.1
428.861	27175.1
429.496	26896.6
430.133	26866.1
430.768	26798.6
431.405	26870.1
432.04	27395.1
432.674	27367.1
433.311	27403.1
433.946	27415.1
434.583	27353.1
435.217	27404.6
435.852	27339.1
436.489	27650.6
437.123	27649.6
437.758	27874.1
438.394	27663.1
439.028	27666.1
439.663	27611.1
440.299	27594.1
440.933	27727.6
441.568	27959.1
442.202	28205.1
442.838	27994.1
443.472	27847.1
444.106	27860.6
444.74	27738.1
445.376	27967.1
446.01	27934.1
446.644	28288.6
447.277	28056.1
447.911	28285.1
448.547	28237.1
449.181	27739.6
449.814	28095.1
450.448	27993.1
451.081	28315.6
451.715	28400.1
452.348	28611.1
452.984	28186.1
453.617	28267.6
454.251	27951.1
454.884	28272.1
455.517	28423.1
456.15	28494.1
456.784	28188.1
457.417	28334.1
458.05	28050.6
458.683	27902.1
459.316	28141.1
459.949	28340.1
460.582	28439.6
461.214	28097.1
461.847	28007.1
462.48	27671.1
463.113	27669.1
463.745	27732.6
464.378	27841.1
465.011	27619.1
465.643	28321.6
466.276	28044.1
466.906	28009.6
467.538	27647.1
468.171	27750.1
468.803	27627.1
469.435	27652.6
470.068	27794.1
470.7	28052.1
471.33	27479.1
471.962	27618.1
472.594	27482.1
473.226	27405.6
473.858	27871.1
474.488	27846.1
475.12	27856.1
475.752	27990.1
476.384	27928.1
477.013	27526.1
477.645	27622.1
478.277	27631.6
478.908	28014.1
479.538	27949.6
480.169	27641.1
480.801	27776.1
481.43	27696.6
482.062	27411.1
482.693	27546.6
483.322	27468.1
483.954	27737.1
484.585	28049.1
485.214	27846.6
485.845	27396.1
486.474	27313.6
487.105	27087.6
487.736	27212.1
488.365	27108.1
488.996	27036.1
489.625	26850.6
490.256	26362.1
490.885	26383.6
491.515	25929.1
492.144	26008.6
492.775	25859.1
493.403	25968.1
494.034	25524.6
494.662	25197.1
495.293	24923.1
495.921	24455.1
496.552	24219.1
497.18	24101.1
497.81	24030.1
498.439	23964.6
499.067	23403.1
499.697	22949.6
500.325	22405.1
500.955	22254.1
501.583	21857.6
502.211	21798.6
502.841	21699.1
503.469	21213.1
504.097	20818.1
504.727	20575.6
505.355	20096.6
505.982	19853.1
506.61	19687.1
507.24	19617.1
507.867	19446.1
508.495	18995.1
509.124	18365.6
509.752	18217.1
510.379	18049.1
511.007	17870.1
511.634	17629.1
512.263	17520.1
512.891	17378.6
513.518	16889.6
514.145	16327.1
514.772	16172.1
515.399	15991.1
516.028	15141.1
516.655	15692.6
517.282	15461.6
517.909	15134.1
518.536	14952.1
519.163	14593.1
519.789	14460.6
520.416	14461.6
521.043	14203.6
521.669	14082.1
522.298	13758.1
522.925	13649.1
523.551	13549.1
524.178	13163.1
524.804	13243.1
525.431	13014.6
526.057	13123.1
526.683	12945.1
527.31	12782.1
527.934	12885.1
528.56	12490.6
529.186	12250.6
529.812	12113.1
530.438	12212.6
531.064	12317.1
531.69	12050.6
532.316	11855.1
532.942	11653.6
533.568	11440.1
534.194	11279.1
534.817	11459.6
535.443	11451.6
536.069	11351.1
536.694	11049.1
537.32	10539.1
537.943	10930.1
538.569	11070.6
539.194	10962.1
539.82	10951.6
540.445	10809.1
541.068	10826.1
541.694	10606.1
542.319	10532.6
542.944	10428.6
543.567	10534.1
544.192	10336.1
544.817	10493.1
545.44	10311.6
546.065	10405
546.69	10243.1
547.313	9977.65
547.938	10147.5
548.563	10206.5
549.185	10080.7
549.81	10068
550.433	10123.3
551.057	9991.16
551.682	9957.31
552.305	9795.06
552.929	9926.66
553.551	9911.12
554.176	10029.1
554.798	10012.9
555.423	9798.67
556.047	9727.11
556.669	9725.67
557.293	9748.36
557.915	9856.56
558.537	9787.75
559.162	9855.2
559.784	9903.44
560.408	9830.4
561.03	9729.98
561.654	9833.83
562.275	9464.08
562.899	9683.09
563.521	9771.44
564.143	9959.06
564.766	9840.1
565.388	9920.68
566.009	9753.75
566.633	9643.26
567.255	9761.89
567.878	9731.5
568.5	9845.34
569.121	9869.4
569.742	9757.36
570.366	9642.01
570.987	9641.78
571.608	9625.95
572.231	9647.88
572.852	9764.98
573.473	9762.31
574.094	9660.77
574.717	9639.62
575.338	9496.98
575.959	9619.6
576.58	9503.02
577.201	9533
577.822	9661.46
578.445	9570.84
579.065	9567.95
579.686	9496.35
580.306	9360.32
580.927	9359.73
581.548	9306.73
582.168	9350.18
582.791	9135.9
583.411	9320.41
584.031	9396.32
584.652	9288.7
585.272	9204.9
585.892	9393.7
586.512	9377.23
587.132	9455.8
587.753	9364.59
588.373	9326.1
588.993	9302.66
589.613	9256.81
590.233	9266.15
590.852	9340.22
591.472	9262.17
592.092	9281.16
592.712	9287.46
593.332	9082.58
593.951	9042.41
594.569	9145.84
595.188	9043.9
595.808	8992.71
596.427	8962.5
597.047	9003.33
597.666	8884.98
598.286	8792.33
598.905	8712.15
599.522	8644.96
600.142	8706.74
600.761	8637.98
601.38	8661.96
601.999	8562.6
602.616	8462.16
603.235	8379.87
603.854	8284.88
604.473	8167.08
605.09	8129.81
605.709	8120.78
606.328	8164.98
606.947	7875.72
607.563	7896.13
608.182	7786.54
608.801	7747.22
609.417	7654.76
610.036	7577.11
610.655	7584.91
611.271	7580.78
611.89	7464.9
612.508	7375.32
613.124	7240.76
613.743	7149.68
614.359	7189.39
614.977	7081.87
615.595	7131.57
616.212	7010.12
616.83	6968.81
617.446	6889.03
618.064	6725.06
618.68	6736.27
619.298	6731.19
619.914	6617.54
620.532	6646.57
621.147	6570.52
621.765	6411.18
622.381	6383.63
622.999	6275.27
623.614	6288.97
624.23	6345.53
624.847	6173.83
625.463	6303.68
626.08	6050.69
626.696	6121.88
627.311	6049.54
627.929	5980.37
628.544	5920.76
629.161	5913.36
629.776	5826.41
630.392	5839.05
631.009	5740.09
631.624	5706.39
632.239	5752.48
632.854	5727.33
633.471	5634.7
634.086	5691.27
634.701	5634.22
635.318	5648.81
635.932	5567.62
636.547	5543.01
637.162	5450.62
637.777	5363.74
638.393	5334.16
639.008	5306.8
639.622	5309.58
640.237	5242.31
640.851	5112.46
641.468	5141.73
642.082	5121.46
642.697	5105.77
643.311	5139.08
643.925	5185.95
644.539	5017.19
645.154	5113
645.768	5065.36
646.382	4926.73
646.996	5064.53
647.612	5018.93
648.226	5109.28
648.84	4995.22
649.454	5036.97
650.068	4973.74
650.682	4894.92
651.295	4875.06
651.909	4875.65
652.523	4882.71
653.136	4859.6
653.75	4866.7
654.361	4899.72
654.975	4799.03
655.589	4839.33
656.202	4850.32
656.815	4630.86
657.429	4677.64
658.042	4696.64
658.655	4783.51
659.269	4610.01
659.882	4639.12
660.493	4628.86
661.106	4584.76
661.719	4496.28
662.332	4537.96
662.945	4624.15
663.556	4624.28
664.169	4593.15
664.782	4621.37
665.395	4627.31
666.007	4311.29
666.618	4500.99
667.231	4572.23
667.843	4572.6
668.454	4546.93
669.067	4648.73
669.679	4507.6
670.292	4438.19
670.902	4471.92
671.514	4470.84
672.125	4585.64
672.423	4382.64
673.044	4543.64
673.665	4474.64
674.286	4524.14
674.907	4410.64
675.528	4481.64
676.148	4531.64
676.769	4513.14
677.388	4436.64
678.008	4454.14
678.629	4489.64
679.249	4279.64
679.87	4294.64
680.49	4412.64
681.111	4439.64
681.731	4475.64
682.349	4481.64
682.97	4374.14
683.59	4296.14
684.21	4355.14
684.83	4368.64
685.448	4389.64
686.068	4313.64
686.688	4399.64
687.308	4372.64
687.926	4422.64
688.546	4437.64
689.166	4357.64
689.786	4466.64
690.404	4402.64
691.023	4170.64
691.643	4312.64
692.26	4327.64
692.88	4271.64
693.5	4380.64
694.117	4293.64
694.737	4381.64
695.356	4524.64
695.973	4388.64
696.593	4273.64
697.21	4336.14
697.829	4357.64
698.449	4377.14
699.066	4390.64
699.685	4359.64
700.302	4362.64
700.921	4378.14
701.538	4385.64
702.157	4322.14
702.774	4343.64
703.393	4327.64
704.009	4307.64
704.628	4282.64
705.245	4484.64
705.864	4393.14
706.48	4447.64
707.099	4369.14
707.716	4439.14
708.334	4428.14
708.951	4386.14
709.569	4423.64
710.185	4421.64
710.802	4365.64
711.42	4455.64
712.036	4393.64
712.653	4433.64
713.271	4383.64
713.887	4458.64
714.505	4476.64
715.121	4432.14
715.737	4441.64
716.355	4428.14
716.971	4418.14
717.587	4436.64
718.203	4298.64
718.821	4452.14
719.437	4537.14
720.052	4461.14
720.67	4493.64
721.286	4436.64
721.901	4465.14
722.517	4505.14
723.132	4410.14
723.75	4528.14
724.365	4540.14
724.981	4496.14
725.596	4395.64
726.211	4410.64
726.829	4503.64
727.444	4444.64
728.059	4572.14
728.674	4561.14
729.289	4496.64
729.904	4528.64
730.519	4469.64
731.134	4396.64
731.751	4571.64
732.366	4407.14
732.981	4585.14
733.596	4433.64
734.211	4512.14
734.826	4593.14
735.44	4610.14
736.055	4522.14
736.669	4522.64
737.284	4660.14
737.899	4663.64
738.513	4648.14
739.128	4583.14
739.742	4613.14
740.356	4325.64
740.971	4456.64
741.585	4594.64
742.199	4582.64
742.813	4539.64
743.427	4417.14
744.039	4613.14
744.654	4430.64
745.268	4535.64
745.882	4572.64
746.496	4604.64
747.109	4709.14
747.723	4645.64
748.337	4612.64
748.949	4603.64
749.563	4745.64
750.176	4737.64
750.79	4825.64
751.404	4737.64
752.015	4867.64
752.629	4807.64
753.242	4829.64
753.856	4695.64
754.467	4882.64
755.08	4806.64
755.694	4818.64
756.307	4826.14
756.918	4903.14
757.531	4831.64
758.145	4828.64
758.756	4972.14
759.369	4830.64
759.982	4969.64
760.593	4996.14
761.206	5128.64
761.819	5015.64
762.43	5075.14
763.042	5055.64
763.655	4906.14
764.266	5092.14
764.879	5145.64
765.489	5057.14
766.102	5162.64
766.713	5160.64
767.325	5197.64
767.938	5160.64
768.548	5193.14
769.161	5199.14
769.771	5359.14
770.383	5287.14
770.993	5384.64
771.606	5379.64
772.216	5308.14
772.828	5324.64
773.438	5334.14
774.048	5370.64
774.66	5391.64
775.27	5427.64
775.882	5506.64
776.492	5478.64
777.104	5499.64
777.714	5600.64
778.324	5578.14
778.936	5547.14
779.545	5585.64
780.155	5589.64
780.767	5679.14
781.376	5661.14
781.986	5505.64
782.597	5716.64
783.207	5572.64
783.816	5720.64
784.427	5796.64
785.037	5824.14
785.646	5804.64
786.257	5685.64
786.867	5630.64
787.476	5810.14
788.085	5808.14
788.694	5861.14
789.305	5830.14
789.914	5761.14
790.523	5693.14
791.132	5736.14
791.741	5925.64
792.352	5889.14
792.961	5919.64
793.569	5860.14
794.178	5906.64
794.787	5961.64
795.395	5791.64
796.004	5877.64
796.615	5846.14
797.223	5848.64
797.832	5805.14
798.44	5927.64
799.048	5718.64
799.657	5859.64
800.265	5861.64
800.873	5807.64
801.482	5797.14
802.09	5794.14
802.698	5603.64
803.306	5752.64
803.914	5694.64
804.522	5575.64
805.13	5493.14
805.738	5427.14
806.346	5293.14
806.954	5413.64
807.562	5481.64
808.17	5732.64
808.777	5666.64
809.385	5629.64
809.993	5657.14
810.598	5537.14
811.206	5649.64
811.813	5583.14
812.421	5629.14
813.028	5579.14
813.636	5536.64
814.243	5607.14
814.849	5394.14
815.456	5433.64
816.063	5408.14
816.67	5325.64
817.278	5487.64
817.883	5421.64
818.49	5301.64
819.097	5206.14
819.704	5256.14
820.309	5168.64
820.916	5221.64
821.523	5092.64
822.13	5116.64
822.734	5091.64
823.341	5036.64
823.948	5021.64
824.553	4964.14
825.159	4848.14
825.766	4876.64
826.37	4854.64
826.977	4780.64
827.583	4826.64
828.188	4855.14
828.794	4704.64
829.399	4631.14
830.005	4634.64
830.609	4495.14
831.216	4574.64
831.822	4561.64
832.426	4494.64
833.032	4392.64
833.636	4355.64
834.242	4311.14
834.846	4148.14
835.452	4208.64
836.056	4262.64
836.662	4275.64
837.266	4159.14
837.872	4128.14
838.475	4002.14
839.081	3924.64
839.685	3866.64
840.288	3854.64
840.894	3812.64
841.497	3865.64
842.103	3638.64
842.707	3757.14
843.31	3756.64
843.915	3597.64
844.519	3639.14
845.124	3691.14
845.727	3626.64
846.331	3511.64
846.936	3525.64
847.539	3431.64
848.142	3435.64
848.745	3402.64
849.35	3294.64
849.953	3431.64
850.556	3254.64
851.161	3318.64
851.764	3310.64
852.367	3337.64
852.97	3285.64
853.572	3340.64
854.177	3237.64
854.78	3311.64
855.382	3172.64
855.985	3201.64
856.587	3205.64
857.192	3108.64
857.794	3200.64
858.397	3181.64
858.999	3198.14
859.602	3254.64
860.204	3194.64
860.806	3130.64
861.408	3164.64
862.013	3100.64
862.615	3123.64
863.217	3073.64
863.819	3202.14
864.421	3153.64
865.023	3125.64
865.625	3185.64
866.227	3112.64
866.829	3199.14
867.431	3264.64
868.032	3144.14
868.634	3147.64
869.236	3140.64
869.838	3165.64
870.439	3174.14
871.041	3114.64
871.642	3096.14
872.244	3073.64
872.843	3069.14
873.445	3094.14
874.046	3121.64
874.648	3186.64
875.249	3127.64
875.85	3102.64
876.451	3106.64
877.053	3164.14
877.652	3204.64
878.253	3117.64
878.854	3174.64
879.455	3183.64
880.056	3152.64
880.655	3097.64
881.256	3218.64
881.857	3126.64
882.458	3259.14
883.056	3193.64
883.657	3257.64
884.258	3069.64
884.858	3211.14
885.457	3067.64
886.058	3129.64
886.658	3194.64
887.257	3094.64
887.857	3183.64
888.458	3245.64
889.056	3202.64
889.656	3280.14
890.257	3215.14
890.855	3172.64
891.455	3162.64
892.055	3252.64
892.654	3286.64
893.254	3179.64
893.852	3247.64
894.452	3286.14
895.052	3070.64
895.65	3184.64
896.25	3153.64
896.848	3294.14
897.448	3232.14
898.045	3263.64
898.645	3264.14
899.243	3242.64
899.842	3215.14
900.44	3242.14
901.04	3274.64
901.637	3187.64
902.235	3227.14
902.834	3345.64
903.432	3147.64
904.031	3275.64
904.628	3248.64
905.228	3233.64
905.825	3332.64
906.422	3288.64
907.022	3238.64
907.619	3371.14
908.216	3276.64
908.815	3270.64
909.412	3251.64
910.009	3232.64
910.608	3396.14
911.205	3402.14
911.802	3342.64
912.401	3402.64
912.997	3329.64
913.594	3377.64
914.191	3349.64
914.79	3390.64
915.386	3414.64
915.983	3326.64
916.58	3398.64
917.176	3405.64
917.775	3380.64
918.371	3463.64
918.967	3366.64
919.564	3368.64
920.16	3366.64
920.756	3384.64
921.355	3467.64
921.951	3515.64
922.547	3545.14
923.143	3476.64
923.739	3448.64
924.336	3412.14
924.932	3530.64
925.528	3466.64
926.123	3472.14
926.719	3414.64
927.315	3512.14
927.911	3497.14
928.507	3441.64
929.103	3601.14
929.698	3638.64
930.294	3595.64
930.89	3589.14
931.485	3604.64
932.081	3660.64
932.676	3689.14
933.272	3612.64
933.867	3700.64
934.463	3729.64
935.058	3770.64
935.653	3695.64
936.249	3701.64
936.844	3730.64
937.439	3744.14
938.032	3676.64
938.627	3730.14
939.222	3752.64
939.818	3884.14
940.413	3884.14
941.008	3787.14
941.6	3644.64
942.195	3898.14
942.79	3833.14
943.385	3805.64
943.98	3934.14
944.572	3896.64
945.167	3932.64
945.762	4054.64
946.357	3948.14
946.949	3963.64
947.544	3992.64
948.138	4016.14
948.73	4097.14
949.325	4102.64
949.919	4036.14
950.512	4039.14
951.106	4193.64
951.7	4049.64
952.292	4223.64
952.887	4231.64
953.481	4263.64
954.073	4220.64
954.667	4271.64
955.259	4262.64
955.853	4284.14
956.445	4257.14
957.039	4304.64
957.633	4384.14
958.225	4364.14
958.818	4407.14
959.41	4497.64
960.004	4411.64
960.596	4457.14
961.189	4505.14
961.781	4466.64
962.374	4525.64
962.966	4603.64
963.557	4617.64
964.151	4591.14
964.742	4598.64
965.336	4623.64
965.927	4713.14
966.52	4645.64
967.112	4763.64
967.703	4749.64
968.296	4787.64
968.887	4746.64
969.478	4775.64
970.071	4838.14
970.662	4875.64
971.253	4842.64
971.846	4885.14
972.437	4880.64
973.028	4915.64
973.621	4902.64
974.212	4911.64
974.802	4897.64
975.393	4916.64
975.986	4907.64
976.576	4986.64
977.167	4990.14
977.758	5172.64
978.348	5037.14
978.941	5096.14
979.531	5073.64
980.121	5086.64
980.712	4966.64
981.302	5092.64
981.892	5285.14
982.485	5166.64
983.075	5194.64
983.665	5158.14
984.255	5190.64
984.845	5285.14
985.435	5292.64
986.025	5189.64
986.615	5373.14
987.205	5294.64
987.795	5293.64
988.385	5380.64
988.975	5381.14
989.565	5319.64
990.154	5321.64
990.744	5414.64
991.334	5457.14
991.923	5481.14
992.513	5397.14
993.103	5406.64
993.692	5469.14
994.282	5395.14
994.871	5359.64
995.46	5560.14
996.05	5506.64
996.639	5546.64
997.229	5532.64
997.818	5519.64
998.405	5510.14
998.994	5503.14
999.583	5464.64
1000.17	5612.64
1000.76	5513.14
1001.35	5500.14
1001.94	5620.64
1002.53	5428.64
1003.12	5585.64
1003.7	5679.64
1004.29	5521.64
1004.88	5696.64
1005.47	5615.64
1006.06	5708.14
1006.65	5587.14
1007.23	5675.64
1007.82	5629.14
1008.41	5564.64
1009	5742.64
1009.58	5699.64
1010.17	5813.14
1010.76	5786.64
1011.35	5736.64
1011.94	5674.64
1012.52	5771.64
1013.11	5813.64
1013.7	5790.14
1014.29	5842.64
1014.87	5763.64
1015.46	5754.64
1016.05	5788.64
1016.63	5783.64
1017.22	5735.64
1017.81	6008.64
1018.4	5843.64
1018.98	5903.14
1019.57	5904.14
1020.16	5869.64
1020.74	5762.14
1021.33	5704.14
1021.92	5833.64
1022.5	6028.64
1023.09	5763.64
1023.67	5954.64
1024.26	5949.64
1024.85	5886.64
1025.44	5919.14
1026.02	5873.64
1026.61	5850.64
1027.19	5924.64
1027.78	5933.14
1028.37	6132.14
1028.95	6031.14
1029.54	6134.64
1030.12	6049.64
1030.71	5895.14
1031.29	5899.64
1031.88	5901.14
1032.47	5988.14
1033.05	6074.64
1033.64	6039.14
1034.22	5986.14
1034.81	5911.14
1035.39	5955.64
1035.98	6065.14
1036.56	5942.64
1037.15	6004.64
1037.73	6033.14
1038.32	6020.14
1038.9	6036.14
1039.49	6011.64
1040.07	5899.14
1040.66	5915.14
1041.24	6000.64
1041.83	6024.94
1042.41	6007.23
1043	6035.79
1043.58	6001.92
1044.17	6070.31
1044.75	5985.87
1045.33	6026.42
1045.92	5935.83
1046.5	5974.01
1047.09	6064.47
1047.67	6047.95
1048.25	6059.08
1048.84	5869.83
1049.42	6087.61
1050.01	6017.45
1050.59	6023.82
1051.17	6024.29
1051.76	6100.67
1052.34	6184.84
1052.93	6079.36
1053.51	6125.77
1054.09	6066.12
1054.68	6060.28
1055.26	6090.12
1055.84	6064.38
1056.42	6139.48
1057.01	6132.15
1057.59	6193.81
1058.17	6143.06
1058.76	6058.9
1059.34	6130.99
1059.92	6134.87
1060.51	6074.05
1061.09	6173.81
1061.67	6211.94
1062.25	6169
1062.84	6199.92
1063.42	6130.19
1064	6173.22
1064.58	6173.58
1065.17	6178.47
1065.75	6281.73
1066.33	6247.35
1066.91	6245.12
1067.49	6239.43
1068.08	6234.16
1068.66	6171.49
1069.24	6096.31
1069.82	5976.3
1070.41	6298.08
1070.99	6253.76
1071.57	6245.68
1072.15	6211.75
1072.73	6164.23
1073.31	6206.1
1073.89	6143.48
1074.48	6237.1
1075.06	6250.19
1075.64	6356.54
1076.22	6426.8
1076.8	6328.29
1077.38	6330.56
1077.96	6407.26
1078.55	6352.2
1079.13	6354.34
1079.71	6365.09
1080.29	6428.44
1080.87	6506.59
1081.45	6476.21
1082.03	6503.68
1082.61	6353.53
1083.19	6479.27
1083.77	6513.83
1084.35	6535.36
1084.93	6607.15
1085.51	6664.63
1086.09	6557.63
1086.67	6515.26
1087.25	6585.53
1087.83	6487.6
1088.41	6631.87
1088.99	6610.11
1089.57	6722.49
1090.15	6728.06
1090.73	6599.87
1091.31	6659.2
1091.89	6638.61
1092.47	6603.66
1093.05	6763.73
1093.63	6698.12
1094.21	6815.44
1094.79	6872.76
1095.37	6847.52
1095.95	6784.41
1096.53	6857.14
1097.11	6813.71
1097.69	6951.07
1098.27	7015.21
1098.85	7010.79
1099.42	6840.26
1100	6960.57
1100.58	6929.34
1101.16	6996.72
1101.74	6965.4
1102.32	7095.21
1102.9	7151.01
1103.48	7202.06
1104.05	7231.13
1104.63	7207.37
1105.21	7108.83
1105.79	7212.19
1106.37	7209.96
1106.95	7256.98
1107.52	7220.31
1108.1	7263.58
1108.68	7288.2
1109.26	7397.46
1109.84	7303.18
1110.41	7275.76
1110.99	7308.31
1111.57	7317.11
1112.15	7428.32
1112.73	7483.45
1113.3	7449.51
1113.88	7446.88
1114.46	7511.66
1115.03	7482.17
1115.61	7457.15
1116.19	7502.11
1116.77	7526.91
1117.34	7578.16
1117.92	7618.41
1118.5	7573.94
1119.08	7462.63
1119.65	7465.94
1120.23	7480.49
1120.81	7405.49
1121.38	7496.12
1121.96	7565.81
1122.54	7664.31
1123.11	7657.79
1123.69	7622.69
1124.27	7612.97
1124.84	7539.39
1125.42	7582.18
1126	7509.34
1126.57	7648.12
1127.15	7670.66
1127.72	7628.99
1128.3	7530.29
1128.88	7522.14
1129.45	7398.13
1130.03	7432.36
1130.6	7458.69
1131.18	7434.98
1131.76	7451.15
1132.33	7466.89
1132.91	7450.92
1133.48	7425.13
1134.06	7328.1
1134.63	7369.18
1135.21	7534.61
1135.78	7483.13
1136.36	7569.98
1136.94	7584.87
1137.51	7609.99
1138.09	7560.93
1138.66	7423.74
1139.24	7546.02
1139.81	7601.18
1140.39	7521.42
1140.96	7513.57
1141.53	7649.54
1142.11	7486.36
1142.68	7487.56
1143.26	7478.71
1143.83	7474.3
1144.41	7412.6
1144.98	7487.41
1145.56	7499.2
1146.13	7552.77
1146.71	7473.25
1147.28	7425.07
1147.85	7422.54
1148.43	7273.2
1149	7334.37
1149.58	7332.63
1150.15	7379.88
1150.73	7427.37
1151.3	7461.61
1151.87	7389.78
1152.45	7292.81
1153.02	7257.4
1153.59	7333.55
1154.17	7157.14
1154.74	7346.9
1155.31	7396.42
1155.89	7218.66
1156.46	7326.21
1157.03	7159.98
1157.61	7146.8
1158.18	7027.89
1158.75	7161.15
1158.97	7168.15
1159.55	7136.15
1160.14	7166.65
1160.72	7198.65
1161.3	7072.15
1161.88	7114.65
1162.46	7045.65
1163.05	7097.65
1163.63	7078.65
1164.21	7050.65
1164.79	6957.15
1165.37	7170.65
1165.95	6964.15
1166.53	6891.65
1167.11	6754.65
1167.7	6832.65
1168.28	6840.65
1168.86	6876.65
1169.44	6770.65
1170.02	6785.15
1170.6	6722.65
1171.18	6674.65
1171.76	6621.65
1172.35	6497.15
1172.93	6478.15
1173.51	6657.15
1174.09	6574.15
1174.67	6491.15
1175.25	6616.15
1175.83	6492.65
1176.41	6474.65
1176.99	6456.65
1177.57	6474.15
1178.15	6571.65
1178.73	6638.65
1179.31	6480.65
1179.89	6346.65
1180.47	6339.65
1181.05	6313.65
1181.63	6215.15
1182.21	6282.65
1182.79	6411.65
1183.37	6320.15
1183.95	6312.15
1184.53	6306.15
1185.11	6171.65
1185.69	6172.65
1186.27	6025.65
1186.85	6224.15
1187.43	6122.65
1188.01	6206.65
1188.58	5980.15
1189.16	5959.65
1189.74	5781.65
1190.32	5836.65
1190.9	5796.15
1191.48	5906.65
1192.06	5781.65
1192.64	5846.65
1193.22	5861.65
1193.8	5850.15
1194.37	5759.15
1194.95	5600.65
1195.53	5711.65
1196.11	5738.15
1196.69	5782.65
1197.27	5711.65
1197.85	5690.15
1198.42	5612.65
1199	5638.65
1199.58	5441.65
1200.16	5500.15
1200.74	5476.15
1201.31	5542.15
1201.89	5583.65
1202.47	5464.65
1203.05	5241.65
1203.63	5245.15
1204.2	5139.65
1204.78	5169.65
1205.36	5108.65
1205.94	5218.15
1206.51	5125.15
1207.09	5286.65
1207.67	5175.65
1208.25	5200.65
1208.82	4996.65
1209.4	4943.65
1209.98	4982.65
1210.56	4943.15
1211.13	4835.15
1211.71	4934.15
1212.29	5034.65
1212.86	4860.65
1213.44	4818.65
1214.02	4780.65
1214.59	4781.15
1215.17	4864.65
1215.75	4821.65
1216.32	4771.15
1216.9	4729.65
1217.48	4788.15
1218.05	4622.65
1218.63	4570.65
1219.21	4508.15
1219.78	4455.65
1220.36	4470.15
1220.93	4476.65
1221.51	4499.15
1222.09	4504.65
1222.66	4375.15
1223.24	4350.65
1223.81	4340.15
1224.39	4259.65
1224.97	4131.15
1225.54	4224.65
1226.12	4231.65
1226.69	4124.65
1227.27	4166.65
1227.84	4101.65
1228.42	4041.65
1228.99	3909.65
1229.57	3995.65
1230.15	4047.65
1230.72	4053.15
1231.3	4074.65
1231.87	3941.65
1232.44	3979.65
1233.02	3916.65
1233.6	3881.65
1234.17	4005.65
1234.75	3969.15
1235.32	3940.65
1235.89	3893.65
1236.47	3901.15
1237.04	3824.15
1237.62	3794.65
1238.19	3757.15
1238.77	3756.15
1239.34	3844.15
1239.92	3800.15
1240.49	3683.15
1241.06	3580.65
1241.64	3582.65
1242.21	3566.65
1242.79	3533.15
1243.36	3647.65
1243.93	3606.15
1244.51	3585.65
1245.08	3562.15
1245.66	3533.65
1246.23	3520.15
1246.8	3525.15
1247.38	3477.65
1247.95	3532.65
1248.52	3498.65
1249.1	3445.65
1249.67	3505.65
1250.24	3491.65
1250.82	3429.15
1251.39	3453.65
1251.96	3377.65
1252.54	3370.65
1253.11	3432.65
1253.68	3383.65
1254.26	3361.65
1254.83	3459.15
1255.4	3410.65
1255.97	3348.65
1256.55	3317.65
1257.12	3363.65
1257.69	3346.65
1258.27	3417.65
1258.84	3392.65
1259.41	3297.65
1259.98	3421.15
1260.55	3379.65
1261.13	3324.65
1261.7	3409.15
1262.27	3360.15
1262.84	3324.15
1263.41	3382.15
1263.99	3365.65
1264.56	3292.65
1265.13	3298.65
1265.7	3252.15
1266.27	3302.65
1266.85	3358.15
1267.42	3326.65
1267.99	3419.65
1268.56	3337.65
1269.13	3241.65
1269.7	3262.65
1270.28	3284.15
1270.85	3215.15
1271.42	3338.15
1271.99	3349.65
1272.56	3405.15
1273.13	3371.15
1273.7	3324.65
1274.27	3349.15
1274.85	3304.65
1275.41	3222.65
1275.99	3339.65
1276.56	3298.65
1277.13	3376.15
1277.7	3258.65
1278.27	3353.65
1278.84	3310.15
1279.41	3362.65
1279.98	3375.65
1280.55	3348.65
1281.12	3275.15
1281.69	3369.65
1282.26	3327.65
1282.83	3276.65
1283.4	3278.65
1283.97	3186.15
1284.54	3206.65
1285.11	3114.15
1285.68	3011.65
1286.25	3177.65
1286.82	3183.65
1287.39	3197.65
1287.96	3260.65
1288.53	3250.65
1289.1	3232.15
1289.67	3275.15
1290.24	3314.65
1290.81	3319.15
1291.38	3423.65
1291.95	3398.15
1292.52	3255.65
1293.09	3326.65
1293.65	3254.65
1294.22	3354.15
1294.79	3253.65
1295.36	3314.65
1295.93	3251.65
1296.5	3437.65
1297.07	3379.65
1297.64	3332.15
1298.21	3166.65
1298.78	3296.15
1299.34	3230.65
1299.91	3295.15
1300.48	3328.65
1301.05	3342.65
1301.62	3259.15
1302.19	3314.15
1302.75	3280.15
1303.32	3316.65
1303.89	3320.65
1304.46	3368.65
1305.03	3307.65
1305.59	3313.15
1306.16	3075.65
1306.73	3180.65
1307.3	3218.65
1307.87	3378.15
1308.43	3356.15
1309	3364.65
1309.57	3339.65
1310.14	3396.15
1310.7	3335.15
1311.27	3320.65
1311.84	3336.65
1312.4	3274.15
1312.97	3385.65
1313.54	3302.65
1314.11	3358.65
1314.67	3439.15
1315.24	3404.65
1315.81	3308.65
1316.38	3429.15
1316.94	3342.65
1317.51	3316.65
1318.08	3291.15
1318.64	3232.65
1319.21	3422.15
1319.77	3407.65
1320.34	3315.15
1320.91	3377.65
1321.48	3385.65
1322.04	3264.65
1322.61	3382.65
1323.18	3360.65
1323.74	3416.65
1324.31	3351.65
1324.87	3354.65
1325.44	3416.15
1326	3344.65
1326.57	3363.65
1327.14	3363.15
1327.7	3350.65
1328.27	3380.15
1328.83	3407.65
1329.4	3482.65
1329.97	3411.15
1330.53	3409.65
1331.1	3349.65
1331.66	3323.15
1332.23	3417.15
1332.79	3408.65
1333.36	3394.65
1333.92	3487.65
1334.49	3398.65
1335.05	3458.65
1335.62	3392.15
1336.18	3395.65
1336.75	3419.15
1337.31	3370.65
1337.88	3427.15
1338.44	3380.65
1339.01	3416.65
1339.57	3480.65
1340.14	3107.65
1340.7	3362.15
1341.27	3289.15
1341.83	3436.65
1342.39	3400.65
1342.96	3433.65
1343.52	3453.65
1344.09	3416.15
1344.65	3463.15
1345.22	3383.15
1345.78	3407.65
1346.35	3444.15
1346.91	3345.65
1347.47	3491.65
1348.04	3488.15
1348.6	3403.65
1349.16	3312.65
1349.73	3382.65
1350.29	3492.65
1350.86	3420.65
1351.42	3371.65
1351.98	3542.65
1352.55	3435.65
1353.11	3440.65
1353.67	3405.65
1354.23	3433.65
1354.8	3411.65
1355.36	3408.65
1355.92	3354.65
1356.49	3434.15
1357.05	3450.65
1357.61	3429.65
1358.18	3465.15
1358.74	3520.65
1359.3	3442.15
1359.87	3441.65
1360.43	3430.65
1360.99	3454.15
1361.55	3441.65
1362.11	3440.15
1362.68	3495.65
1363.24	3501.65
1363.8	3496.65
1364.36	3404.15
1364.93	3488.65
1365.49	3437.15
1366.05	3405.65
1366.61	3501.65
1367.17	3540.65
1367.74	3486.15
1368.3	3262.65
1368.86	3504.65
1369.42	3505.65
1369.98	3507.15
1370.55	3461.65
1371.11	3516.65
1371.67	3547.65
1372.23	3505.65
1372.79	3609.65
1373.35	3424.65
1373.91	3501.15
1374.48	3479.65
1375.04	3493.65
1375.6	3526.15
1376.16	3564.65
1376.72	3611.15
1377.28	3546.15
1377.84	3484.65
1378.4	3522.15
1378.96	3519.65
1379.53	3562.65
1380.09	3548.65
1380.65	3601.15
1381.21	3644.65
1381.77	3472.65
1382.33	3567.15
1382.89	3522.15
1383.45	3558.65
1384.01	3551.65
1384.57	3640.65
1385.13	3577.65
1385.69	3596.65
1386.25	3592.65
1386.81	3520.65
1387.37	3578.15
1387.93	3538.15
1388.49	3536.15
1389.05	3626.15
1389.61	3507.65
1390.17	3581.65
1390.73	3550.65
1391.29	3546.65
1391.85	3556.65
1392.41	3419.65
1392.97	3483.65
1393.53	3541.15
1394.09	3566.65
1394.65	3489.65
1395.21	3574.65
1395.77	3559.65
1396.33	3621.65
1396.88	3550.65
1397.44	3518.65
1398	3588.65
1398.56	3588.15
1399.12	3432.65
1399.68	3602.15
1400.24	3612.65
1400.8	3633.65
1401.36	3366.65
1401.91	3583.65
1402.47	3612.65
1403.03	3686.65
1403.59	3607.65
1404.15	3569.65
1404.71	3672.15
1405.26	3567.65
1405.82	3603.65
1406.38	3554.65
1406.94	3634.65
1407.5	3658.15
1408.06	3658.65
1408.61	3664.65
1409.17	3710.65
1409.73	3651.15
1410.29	3680.15
1410.85	3658.65
1411.4	3635.15
1411.96	3603.65
1412.52	3633.65
1413.08	3655.15
1413.63	3690.65
1414.19	3651.15
1414.75	3561.65
1415.31	3553.65
1415.86	3638.15
1416.42	3674.65
1416.98	3599.15
1417.53	3632.65
1418.09	3657.65
1418.65	3737.15
1419.21	3606.65
1419.76	3637.65
1420.32	3700.65
1420.88	3512.65
1421.43	3641.65
1421.99	3674.65
1422.55	3736.15
1423.1	3694.65
1423.66	3730.15
1424.22	3656.15
1424.77	3670.65
1425.33	3680.15
1425.89	3599.65
1426.44	3675.65
1427	3661.65
1427.55	3733.65
1428.11	3757.15
1428.67	3723.65
1429.22	3800.65
1429.78	3539.65
1430.33	3766.15
1430.89	3731.15
1431.44	3708.65
1432	3695.15
1432.56	3749.65
1433.11	3699.65
1433.67	3725.65
1434.22	3694.65
1434.78	3711.65
1435.34	3642.15
1435.89	3668.65
1436.44	3778.15
1437	3846.65
1437.56	3760.65
1438.11	3715.65
1438.67	3741.65
1439.22	3696.15
1439.78	3739.15
1440.33	3699.65
1440.89	3787.65
1441.44	3658.15
1441.99	3765.15
1442.55	3852.15
1443.11	3661.65
1443.66	3788.65
1444.21	3722.65
1444.77	3764.65
1445.32	3735.65
1445.88	3788.65
1446.43	3851.15
1446.98	3743.15
1447.54	3701.15
1448.09	3719.15
1448.65	3785.15
1449.2	3718.65
1449.76	3681.65
1450.31	3751.15
1450.86	3784.65
1451.42	3839.65
1451.97	3705.65
1452.52	3725.65
1453.08	3770.15
1453.63	3708.65
1454.19	3735.65
1454.74	3809.65
1455.29	3779.65
1455.85	3871.65
1456.4	3912.15
1456.95	3832.65
1457.51	3850.65
1458.06	3761.15
1458.61	3609.65
1459.17	3834.65
1459.72	3756.65
1460.27	3868.15
1460.82	3749.65
1461.38	3950.15
1461.93	3908.65
1462.48	3854.65
1463.04	3822.15
1463.59	3805.65
1464.14	3804.15
1464.69	3862.15
1465.25	3559.65
1465.8	3915.15
1466.35	3813.65
1466.9	3776.65
1467.46	3747.15
1468.01	3726.65
1468.56	3674.15
1469.11	3720.65
1469.66	3818.65
1470.22	3854.65
1470.77	3794.65
1471.32	3788.65
1471.87	3816.15
1472.42	3827.65
1472.98	3764.65
1473.53	3790.65
1474.08	3869.65
1474.63	3900.15
1475.18	3904.65
1475.73	3951.15
1476.28	3843.65
1476.84	3796.65
1477.39	3945.65
1477.94	3838.65
1478.49	3905.65
1479.04	3876.15
1479.59	3897.65
1480.14	3853.65
1480.7	3855.65
1481.25	3708.15
1481.8	3873.65
1482.35	3924.15
1482.9	3913.65
1483.45	3922.65
1484	3920.65
1484.55	3997.15
1485.1	3991.15
1485.65	3976.65
1486.2	3986.65
1486.75	3868.65
1487.3	3912.15
1487.85	3894.65
1488.4	3985.15
1488.95	3925.65
1489.5	3900.65
1490.05	3930.65
1490.6	3942.65
1491.15	3927.15
1491.7	3948.15
1492.25	3941.65
1492.8	3964.65
1493.35	3996.15
1493.9	3994.15
1494.45	3984.65
1495	3957.65
1495.55	3893.15
1496.1	3894.65
1496.65	3926.15
1497.2	3923.65
1497.75	3932.15
1498.3	4056.65
1498.85	3993.15
1499.4	3983.65
1499.95	3983.15
