19.3994	9069.29
20.0758	9291.79
20.7522	9753.79
21.4285	10073.3
22.1048	10302.3
22.7811	10608.3
23.4573	10814.3
24.1334	11210.8
24.8095	11503.8
25.4855	11712.8
26.1615	11998.3
26.8375	12170.3
27.5134	12622.3
28.1893	12862.3
28.8651	12659.3
29.5408	12916.3
30.2166	13290.8
30.8922	13453.3
31.5679	13890.3
32.2434	13849.8
32.919	14021.3
33.5945	14677.3
34.2699	14803.8
34.9453	15063.8
35.6206	15224.3
36.2959	15227.3
36.9712	15270.3
37.6464	15422.3
38.3192	15464.3
38.9943	15531.3
39.6694	15865.3
40.3444	16148.8
41.0194	16297.3
41.6943	16446.8
42.3692	16338.3
43.0417	16469.3
43.7165	16680.3
44.3912	16609.8
45.0659	16773.3
45.7405	16886.3
46.4128	16890.8
47.0874	16757.3
47.7619	16949.3
48.4363	16779.3
49.1084	17227.8
49.7828	17221.3
50.4571	17171.3
51.1314	16986.8
51.8033	16762.3
52.4775	17066.3
53.1516	16732.3
53.8234	17125.3
54.4974	17244.8
55.1714	16864.3
55.843	17307.3
56.5169	17544.3
57.1908	17341.8
57.8623	17220.3
58.536	17306.3
59.2074	17357.3
59.8811	17231.8
60.5547	17089.8
61.2259	17194.3
61.8995	17257.3
62.5706	17336.3
63.2441	17692.3
63.9174	17784.8
64.5885	17850.3
65.2618	17575.8
65.9327	17270.3
66.6059	17112.3
67.2767	16754.3
67.9498	16953.3
68.6206	16683.3
69.2936	16738.3
69.9643	16499.3
70.6372	16482.8
71.3077	16749.3
71.9783	16617.3
72.651	17177.8
73.3215	16943.1
73.9941	17007.7
74.6645	17132.7
75.3371	17171.3
76.0073	17017.9
76.6775	16792.5
77.3499	16611.1
78.02	17273.3
78.6901	17089.3
79.3624	16496.3
80.0324	16536.8
80.7023	16523.8
81.3745	16380.8
82.0443	16394.3
82.7141	16049.3
83.3861	16068.8
84.0558	16009.3
84.7254	15796.3
85.3973	15755.8
86.0668	15876.8
86.7364	15708.3
87.4058	15969.3
88.0775	15944.3
88.7469	16023.8
89.4162	15680.8
90.0855	15785.8
90.7547	15769.8
91.4261	15983.3
92.0953	15739.8
92.7644	15775.3
93.4334	15552.8
94.1024	15558.8
94.7713	15317.8
95.4425	15536.3
96.1114	15431.3
96.7802	15359.3
97.449	15417.3
98.1177	15319.3
98.7863	15362.3
99.455	15183.3
100.124	15147.8
100.792	15236.8
101.461	15235.3
102.131	15191.8
102.8	14886.8
103.468	14936.8
104.136	14958.3
104.805	14932.3
105.473	14978.8
106.141	14993.3
106.809	14772.3
107.477	14739.3
108.145	14684.3
108.813	14563.3
109.481	14626.8
110.147	14631.3
110.814	14713.3
111.482	14646.3
112.15	14614.5
112.818	14559.9
113.485	14685
114.153	14641.3
114.821	14601.7
115.488	14398.9
116.156	14266.8
116.821	14527.3
117.488	14204.8
118.155	13998.3
118.823	13960.3
119.49	13849.3
120.157	13916.3
120.822	13610.3
121.489	13529.3
122.156	13648.3
122.823	13842.8
123.49	13836.8
124.155	13863.3
124.822	13881.3
125.488	13923.3
126.155	13743.8
126.82	13738.3
127.486	13680.3
128.153	13659.3
128.817	13644.8
129.484	13688.3
130.15	13602.8
130.817	13487.8
131.481	13382.8
132.147	13503.8
132.811	13486.3
133.478	13617.3
134.144	13501.8
134.808	13176.3
135.474	13476.3
136.14	13092.3
136.804	13162.3
137.47	13264.3
138.133	13226.8
138.799	13111.3
139.463	13127.3
140.129	12991.3
140.795	12936.3
141.458	13001.8
142.124	12944.8
142.787	13107.3
143.453	13003.3
144.116	12923.3
144.781	12985.3
145.445	12836.8
146.11	12764.3
146.773	12855.3
147.436	12858.3
148.101	12860.3
148.764	12731.3
149.429	12695.3
150.092	12727.8
150.757	12626.8
151.42	12626.8
152.083	12602.3
152.748	12595.3
153.41	12556.3
154.075	12616.3
154.738	12604.8
155.4	12568.3
156.065	12602.3
156.727	12537.3
157.39	12648.3
158.054	12573.8
158.717	12411.3
159.379	12330.8
160.041	12397.8
160.705	12282.8
161.367	12385.3
162.03	12423.3
162.692	12360.3
163.356	12314.3
164.018	12244.8
164.679	11964.3
165.341	12171.8
166.005	11941.3
166.667	12051.8
167.329	12101.3
167.99	12191.3
168.652	12219.3
169.313	12183.6
169.977	12073.8
170.639	12173.3
171.3	12095.3
171.961	12288.3
172.623	12081.3
173.284	12183.3
173.945	12084.8
174.606	12076.8
175.267	12111.3
175.931	12246.3
176.592	12244.8
177.253	12257.3
177.914	12146.8
178.575	12028.3
179.236	12073.3
179.896	12026.8
180.557	11955.3
181.218	12032.8
181.879	12043.3
182.539	12036.3
183.2	11959.3
183.86	11981.3
184.521	11498.3
185.181	12007.3
185.839	11753.3
186.5	11797.3
187.16	11858.3
187.82	11837.8
188.48	11598.3
189.141	12135.3
189.801	11936.3
190.461	12022.3
191.121	11709.3
191.779	11786.8
192.439	11960.3
193.098	11779.3
193.758	12003.3
194.418	12326.3
195.078	12303.8
195.735	12080.3
196.395	12080.3
197.055	12205.3
197.714	12252.8
198.374	12175.3
199.031	12287.3
199.691	12154.3
200.35	12175.8
201.009	12116.8
201.666	11914.3
202.326	12039.3
202.985	12187.3
203.642	12111.8
204.301	12177.8
204.96	12000.3
205.617	12082.3
206.276	12052.8
206.935	12143.3
207.591	12387.3
208.25	12037.3
208.909	12307.8
209.566	12456.3
210.224	12226.3
210.881	12352.3
211.539	12208.3
212.196	12503.3
212.854	12546.3
213.513	12340.3
214.169	12315.8
214.827	12282.3
215.483	12334.8
216.142	12344.3
216.798	12317.3
217.456	12431.3
218.112	12508.3
218.77	12413.3
219.426	12205.3
220.084	12404.8
220.74	12375.3
221.398	12399.8
222.053	12349.3
222.709	12565.8
223.367	12509.8
224.022	12444.3
224.68	12539.8
225.336	12485.3
225.991	12386.8
226.649	12361.8
227.304	12452.8
227.961	12523.3
228.617	12417.3
229.272	12424.3
229.929	12440.3
230.584	12518.8
231.239	12480.3
231.897	12562.3
232.551	12731.3
233.206	12793.3
233.861	12919.8
234.518	12761.3
235.173	12735.8
235.828	12979.8
236.482	13117.3
237.139	13002.8
237.794	12952.3
238.449	13170.8
239.103	12969.3
239.757	12947.3
240.414	13004.3
241.069	12993.3
241.723	13088.8
242.377	13300.8
243.031	13120.3
243.686	12929.8
244.342	12955.3
244.996	12952.3
245.65	13015.3
246.304	13372.8
246.958	13097.3
247.612	13245.3
248.266	13107.3
248.92	13286.3
249.573	13388.3
250.227	13397.3
250.881	13474.8
251.535	13492.3
252.188	13449.8
252.842	13303.3
253.495	13386.3
254.149	13468.3
254.802	13576.3
255.456	13557.3
256.109	13597.8
256.762	13726.3
257.415	13477.3
258.069	13693.8
258.722	13720.3
259.375	13512.3
260.028	13599.8
260.681	13672.3
261.334	13660.8
261.987	13688.3
262.64	13660.3
263.29	13713.3
263.943	13913.3
264.596	13921.3
265.249	13958.3
265.901	13968.3
266.554	13659.3
267.204	13763.8
267.857	13776.3
268.509	13947.3
269.162	13968.3
269.814	14048.3
270.464	14011.3
271.117	13880.3
271.769	13922.3
272.421	13866.3
273.071	13834.3
273.723	14023.8
274.375	14240.3
275.025	13993.3
275.677	14214.8
276.329	14017.3
276.979	13987.3
277.631	14201.3
278.283	14350.3
278.932	14401.8
279.584	14239.3
280.236	14364.8
280.885	14424.8
281.537	14571.3
282.188	14308.3
282.838	14504.3
283.489	14568.3
284.138	14682.3
284.79	14630.3
285.439	14500.8
286.09	14408.3
286.739	14575.3
287.39	14623.8
288.041	14742.3
288.69	14687.3
289.341	14705.3
289.99	14643.8
290.639	14595.3
291.29	14606.3
291.939	14830.8
292.589	14633.3
293.238	14745.8
293.889	14609.3
294.537	14616.5
295.188	14648.8
295.836	14677.5
296.485	14687.5
297.135	14602.8
297.784	14626.8
298.434	14715.7
299.082	14618.3
299.73	14806.8
300.381	14973.3
301.029	14640.3
301.677	15066.8
302.327	15107.3
302.975	14773.3
303.623	15046.3
304.271	15089.8
304.921	15053.3
305.568	15008.3
306.216	15171.3
306.866	14888.3
307.513	14822.8
308.161	15217.3
308.809	14949.3
309.456	15013.3
310.106	15141.3
310.753	15309.3
311.4	15050.3
312.048	15098.3
312.695	15117.3
313.344	15183.8
313.992	15327.3
314.639	15191.3
315.286	15318.3
315.933	15363.8
316.58	15352.3
317.227	15325.8
317.874	15504.3
318.521	15309.3
319.17	15323.8
319.816	15465.3
320.463	15565.8
321.11	15661.3
321.757	15712.3
322.403	15505.8
323.05	15597.3
323.696	15698.8
324.343	15587.8
324.989	15619.8
325.636	15785.8
326.282	15714.3
326.928	15893.3
327.574	15382.3
328.221	15561.3
328.867	15608.3
329.511	15834.3
330.157	15895.3
330.803	15902.3
331.449	15847.3
332.095	15723.8
332.741	15736.8
333.387	15749.3
334.032	16011.3
334.678	16016.3
335.322	15852.3
335.967	16262.3
336.613	16130.3
337.259	16034.8
337.904	16016.8
338.547	15918.3
339.193	16198.8
339.838	16312.3
340.484	16364.3
341.129	16252.8
341.772	16390.3
342.417	16339.3
343.062	16289.3
343.705	16484.3
344.351	16690.8
344.996	16698.8
345.641	16484.3
346.283	16387.3
346.928	16323.8
347.573	16406.3
348.216	16634.8
348.861	16672.8
349.505	16706.8
350.148	16750.3
350.793	16593.8
351.435	16532.3
352.08	16694.8
352.724	16793.3
353.367	16738.3
354.011	16876.8
354.653	16841.3
355.298	16731.3
355.94	16945.8
356.584	16848.3
357.226	16870.8
357.87	16917.8
358.512	17016.3
359.156	17337.3
359.798	17216.8
360.442	16912.3
361.084	17132.3
361.728	17120.8
362.37	17194.8
363.013	17221.3
363.655	17422.8
364.299	17265.3
364.94	17272.3
365.582	17247.8
366.225	17315.3
366.867	17520.3
367.51	17382.3
368.152	17708.3
368.793	17424.3
369.436	17648.3
370.078	17438.3
370.719	17495.3
371.362	17511.3
372.003	17805.3
372.644	17879.8
373.287	17819.8
373.928	17858.8
374.569	18015.3
375.21	17756.3
375.853	17656.8
376.493	17930.8
377.134	18077.3
377.775	18050.3
378.418	18160.3
379.058	17937.8
379.699	17842.3
380.339	17765.3
380.98	18224.8
381.62	18148.3
382.263	18328.3
382.903	18269.3
383.543	18252.3
384.183	18052.3
384.823	18222.8
385.464	18207.3
386.104	18592.3
386.744	18484.3
387.386	18466.3
388.026	18457.8
388.666	18206.3
389.306	18552.3
389.945	18593.8
390.585	18703.3
391.225	18677.3
391.865	18707.3
392.504	18806.8
393.144	18722.8
393.784	18582.3
394.423	18559.3
395.063	18721.3
395.702	19147.8
396.341	18861.3
396.981	18960.3
397.62	18984.8
398.259	18933.8
398.896	19111.3
399.536	19128.3
400.175	18888.3
400.814	19216.3
401.453	19389.3
402.092	19177.3
402.731	19122.3
403.37	19148.3
404.006	19132.8
404.645	19389.8
405.284	19313.3
405.923	19440.8
406.562	19572.8
407.2	19339.3
407.837	19441.8
408.475	19303.8
409.114	19638.3
409.752	19540.3
410.388	19564.3
411.027	19547.3
411.665	19407.8
412.301	19346.3
412.94	19474.3
413.578	19704.3
414.216	19874.3
414.852	20023.8
415.49	19926.3
416.128	19850.3
416.764	19665.3
417.402	19782.8
418.04	19876.3
418.676	20192.8
419.314	20240.3
419.949	20075.3
420.587	20189.8
421.225	19836.3
421.86	20189.3
422.498	20157.8
423.133	20320.3
423.771	20257.3
424.406	20130.3
425.043	20330.3
425.679	20039.3
426.316	20147.3
426.951	20492.3
427.589	20635
428.224	20892.8
428.861	20960.3
429.496	20877.8
430.133	20751.3
430.768	21003.8
431.405	20791.8
432.04	21024.8
432.674	21185.3
433.311	21215.8
433.946	21562.8
434.583	21519.3
435.217	21259.3
435.852	21114.3
436.489	21021.3
437.123	21300.8
437.758	21529.3
438.394	21019.3
439.028	21496.3
439.663	21188.3
440.299	21180.3
440.933	21426.3
441.568	21474.3
442.202	21451.3
442.838	21827.8
443.472	21698.3
444.106	21825.3
444.74	21641.3
445.376	21790.8
446.01	21785.3
446.644	21916.3
447.277	21920.3
447.911	22021.3
448.547	21954.8
449.181	21718.3
449.814	21767.3
450.448	21899.3
451.081	21976.3
451.715	22218.8
452.348	22264.3
452.984	22187.8
453.617	21766.3
454.251	21928.3
454.884	21952.3
455.517	22039.3
456.15	22122.3
456.784	22388.8
457.417	22347.8
458.05	21823.8
458.683	22054.8
459.316	21786.3
459.949	21904.3
460.582	22390.3
461.214	22116.8
461.847	22087.8
462.48	22234.3
463.113	22091.3
463.745	21986.3
464.378	22181.3
465.011	22136.3
465.643	22038.3
466.276	22174.3
466.906	22213.3
467.538	22194.3
468.171	21899.3
468.803	21988.3
469.435	22225.3
470.068	22091.3
470.7	22233.3
471.33	22363.3
471.962	22228.8
472.594	22415.3
473.226	22247.8
473.858	22438.3
474.488	22313.3
475.12	22556.3
475.752	22645.3
476.384	22720.3
477.013	22465.3
477.645	22348.8
478.277	22401.8
478.908	22618.8
479.538	22686.3
480.169	22594.3
480.801	22612.3
481.43	22650.3
482.062	22237.3
482.693	22683.8
483.322	22503.8
483.954	22574.8
484.585	22533.3
485.214	22657.3
485.845	22383.3
486.474	22476.3
487.105	22225.3
487.736	22290.8
488.365	22055.3
488.996	22167.8
489.625	22123.3
490.256	22176.3
490.885	21449.3
491.515	21821.3
492.144	21595.3
492.775	21433.8
493.403	21301.8
494.034	21153.8
494.662	21280.8
495.293	20933.3
495.921	20744.3
496.552	20317.3
497.18	20305.8
497.81	20324.3
498.439	20219.3
499.067	19930.8
499.697	19848.3
500.325	19429.3
500.955	19209.3
501.583	18854.8
502.211	18779.3
502.841	18554.3
503.469	18428.3
504.097	18070.3
504.727	17856.8
505.355	17866.8
505.982	17417.3
506.61	17399.3
507.24	17212.3
507.867	17245.8
508.495	17029.8
509.124	16925.3
509.752	16569.8
510.379	16226.3
511.007	16119.3
511.634	16184.3
512.263	15773.3
512.891	15656.3
513.518	15500.3
514.145	15141.3
514.772	14692.8
515.399	14524.3
516.028	14526.3
516.655	14327.8
517.282	14104.3
517.909	14053.8
518.536	13609.3
519.163	13742.3
519.789	13515.3
520.416	13242.3
521.043	13187.3
521.669	13215.3
522.298	13023.3
522.925	12830.3
523.551	12867.8
524.178	12473.3
524.804	12389.8
525.431	12274.3
526.057	12240.3
526.683	12173.3
527.31	12091.8
527.934	12142.3
528.56	12005.8
529.186	11770.8
529.812	11561.3
530.438	11706.8
531.064	11671.8
531.69	11484.3
532.316	11246.3
532.942	11201.3
533.568	11108.8
534.194	11032.3
534.817	10863.8
535.443	10830.3
536.069	10895.3
536.694	10668.3
537.32	10808.8
537.943	10544.3
538.569	10574.8
539.194	10445.8
539.82	10335.8
540.445	10313.3
541.068	10460.3
541.694	10474.8
542.319	10332.3
542.944	10257.8
543.567	10158.3
544.192	10231.3
544.817	10325.3
545.44	10189.7
546.065	10193.2
546.69	9706.37
547.313	10033.2
547.938	9958.75
548.563	9910.31
549.185	9904.89
549.81	9978.42
550.433	9960.65
551.057	9983.99
551.682	9731.59
552.305	9968.76
552.929	9895.56
553.551	9801.9
554.176	9714.22
554.798	9879.05
555.423	9848.75
556.047	10037.7
556.669	9850.71
557.293	9794.01
557.915	9811.89
558.537	9783.98
559.162	9864.12
559.784	10143.8
560.408	10034.6
561.03	9985.71
561.654	10093.1
562.275	10013.2
562.899	10084.7
563.521	9884.6
564.143	10025
564.766	10225.2
565.388	10189.6
566.009	10127.9
566.633	10209.2
567.255	10135.4
567.878	10310.1
568.5	10088.7
569.121	10256.9
569.742	10204.2
570.366	10215.4
570.987	10157.6
571.608	10168.4
572.231	10249.6
572.852	10114.5
573.473	10367.2
574.094	10172.6
574.717	10168.2
575.338	10300
575.959	10057.9
576.58	10115.7
577.201	10040.7
577.822	10220.9
578.445	10215.8
579.065	10157.2
579.686	10142.4
580.306	9948.17
580.927	9798.67
581.548	9758.74
582.168	9974.65
582.791	9699.1
583.411	9948.79
584.031	9925.67
584.652	9839.19
585.272	9956.99
585.892	9739.92
586.512	9727.19
587.132	9819.45
587.753	9768.21
588.373	9778.75
588.993	9833.88
589.613	9684.11
590.233	9696.22
590.852	9652.74
591.472	9705.36
592.092	9619.72
592.712	9550.32
593.332	9581.01
593.951	9324.19
594.569	9419.83
595.188	9446.62
595.808	9279.67
596.427	9171.19
597.047	9053.86
597.666	9061.65
598.286	9056.93
598.905	9051.23
599.522	8847.32
600.142	8741.82
600.761	8785.49
601.38	8875.38
601.999	8764.31
602.616	8735.94
603.235	8472.26
603.854	8491.67
604.473	8390.56
605.09	8358.96
605.709	8399.09
606.328	8323.66
606.947	8111.43
607.563	7832.86
608.182	8053.97
608.801	8040.61
609.417	8005.2
610.036	7916.07
610.655	7788.18
611.271	7795.49
611.89	7813.14
612.508	7724.06
613.124	7557.54
613.743	7612.06
614.359	7501.06
614.977	7502.68
615.595	7375.65
616.212	7377.8
616.83	7284.04
617.446	7308.16
618.064	7126.77
618.68	7139.26
619.298	7082.52
619.914	7056.36
620.532	6996.19
621.147	6958.5
621.765	6894.89
622.381	6870.57
622.999	6783.82
623.614	6694.93
624.23	6679.35
624.847	6623.07
625.463	6650.42
626.08	6668.85
626.696	6522.69
627.311	6487.51
627.929	6405.77
628.544	6292.97
629.161	6301.94
629.776	6214.53
630.392	6169.51
631.009	6262.83
631.624	6160.65
632.239	6240.95
632.854	6076.12
633.471	6124.2
634.086	5992.72
634.701	6044.77
635.318	6052.7
635.932	5927.22
636.547	5800.16
637.162	5806.61
637.777	5675.83
638.393	5750.72
639.008	5722.12
639.622	5679.33
640.237	5662.5
640.851	5574.72
641.468	5538.26
642.082	5334.67
642.697	5451.6
643.311	5519.3
643.925	5418.11
644.539	5481.39
645.154	5504.03
645.768	5451.5
646.382	5304.2
646.996	5373.88
647.612	5387.08
648.226	5391.31
648.84	5249.24
649.454	5252.81
650.068	5269.28
650.682	5204.14
651.295	5257.07
651.909	5222.15
652.523	5205.77
653.136	5205.17
653.75	5099.98
654.361	5144.93
654.975	5035.37
655.589	4998.48
656.202	5098.34
656.815	4984
657.429	5070.18
658.042	5085.53
658.655	4959.43
659.269	4980.69
659.882	4969.38
660.493	4939.86
661.106	4962.95
661.719	4849.91
662.332	4880.36
662.945	4837.91
663.556	4871.74
664.169	4946.75
664.782	4946.37
665.395	4753.2
666.007	4857.03
666.618	4805.15
667.231	4814.37
667.843	4923.92
668.454	4793.27
669.067	4849.97
669.679	4758.91
670.292	4733.35
670.902	4755.63
671.514	4729.38
672.125	4715.96
672.423	4819.46
673.044	4768.46
673.665	4749.46
674.286	4758.46
674.907	4684.46
675.528	4688.46
676.148	4679.46
676.769	4729.46
677.388	4631.46
678.008	4695.96
678.629	4750.96
679.249	4770.46
679.87	4621.46
680.49	4618.46
681.111	4593.96
681.731	4719.46
682.349	4687.96
682.97	4737.46
683.59	4583.46
684.21	4554.46
684.83	4522.96
685.448	4497.46
686.068	4604.46
686.688	4511.96
687.308	4657.96
687.926	4619.96
688.546	4647.96
689.166	4670.46
689.786	4593.46
690.404	4536.46
691.023	4638.96
691.643	4613.46
692.26	4552.96
692.88	4579.96
693.5	4573.96
694.117	4444.46
694.737	4564.96
695.356	4510.96
695.973	4619.46
696.593	4598.46
697.21	4586.96
697.829	4536.46
698.449	4490.96
699.066	4599.46
699.685	4537.46
700.302	4565.46
700.921	4609.46
701.538	4662.96
702.157	4606.96
702.774	4502.96
703.393	4484.46
704.009	4547.96
704.628	4487.46
705.245	4476.46
705.864	4598.96
706.48	4522.96
707.099	4412.46
707.716	4555.46
708.334	4537.46
708.951	4645.96
709.569	4619.46
710.185	4587.96
710.802	4638.46
711.42	4681.96
712.036	4460.46
712.653	4713.46
713.271	4584.46
713.887	4694.46
714.505	4700.46
715.121	4437.96
715.737	4639.46
716.355	4557.46
716.971	4249.96
717.587	4566.96
718.203	4522.96
718.821	4596.46
719.437	4618.46
720.052	4452.46
720.67	4566.96
721.286	4426.96
721.901	4562.46
722.517	4675.46
723.132	4550.46
723.75	4680.46
724.365	4663.96
724.981	4568.46
725.596	4634.46
726.211	4613.46
726.829	4567.46
727.444	4590.96
728.059	4684.46
728.674	4678.46
729.289	4594.96
729.904	4650.96
730.519	4633.96
731.134	4545.96
731.751	4465.46
732.366	4555.46
732.981	4646.46
733.596	4750.46
734.211	4351.46
734.826	4603.46
735.44	4615.46
736.055	4545.46
736.669	4662.46
737.284	4607.96
737.899	4703.96
738.513	4627.96
739.128	4661.96
739.742	4621.46
740.356	4602.46
740.971	4595.96
741.585	4545.96
742.199	4620.96
742.813	4541.46
743.427	4605.46
744.039	4675.96
744.654	4558.96
745.268	4519.96
745.882	4510.46
746.496	4495.46
747.109	4563.46
747.723	4713.96
748.337	4609.46
748.949	4635.46
749.563	4722.96
750.176	4683.96
750.79	4742.46
751.404	4659.46
752.015	4719.96
752.629	4761.46
753.242	4661.46
753.856	4675.96
754.467	4762.46
755.08	4676.96
755.694	4664.46
756.307	4727.96
756.918	4836.96
757.531	4740.96
758.145	4872.96
758.756	4763.46
759.369	4733.46
759.982	4810.96
760.593	4744.46
761.206	4781.96
761.819	4892.46
762.43	4860.46
763.042	4793.46
763.655	4779.46
764.266	4769.46
764.879	4757.46
765.489	4818.46
766.102	4829.96
766.713	4939.96
767.325	4879.96
767.938	4897.46
768.548	4854.96
769.161	4891.96
769.771	4912.46
770.383	4950.96
770.993	4901.46
771.606	4965.96
772.216	4976.96
772.828	4923.96
773.438	4860.96
774.048	4883.96
774.66	5015.96
775.27	4895.46
775.882	5044.46
776.492	5067.96
777.104	5107.96
777.714	4886.46
778.324	4947.46
778.936	4991.96
779.545	5006.46
780.155	4864.46
780.767	5037.46
781.376	4955.46
781.986	5028.96
782.597	4966.46
783.207	5013.46
783.816	4928.46
784.427	4993.96
785.037	5012.46
785.646	5000.96
786.257	5001.46
786.867	5016.46
787.476	5089.46
788.085	4809.96
788.694	4959.96
789.305	5058.46
789.914	5033.46
790.523	5009.96
791.132	5028.46
791.741	4845.96
792.352	5038.46
792.961	5068.46
793.569	4912.46
794.178	4997.96
794.787	5010.46
795.395	4974.46
796.004	4962.46
796.615	5008.46
797.223	4976.96
797.832	4930.46
798.44	5006.46
799.048	4928.46
799.657	4982.96
800.265	4940.46
800.873	4878.96
801.482	4854.46
802.09	4789.96
802.698	4983.96
803.306	4811.96
803.914	4860.46
804.522	4629.46
805.13	4670.96
805.738	4573.46
806.346	4513.46
806.954	4568.46
807.562	4574.96
808.17	4613.46
808.777	4614.96
809.385	4688.46
809.993	4679.96
810.598	4565.46
811.206	4687.96
811.813	4469.46
812.421	4662.96
813.028	4529.96
813.636	4517.46
814.243	4517.46
814.849	4542.46
815.456	4545.96
816.063	4420.46
816.67	4452.46
817.278	4423.46
817.883	4447.46
818.49	4307.96
819.097	4444.96
819.704	4330.46
820.309	4218.96
820.916	4237.46
821.523	4192.96
822.13	4116.96
822.734	4161.96
823.341	4227.46
823.948	3953.46
824.553	4060.96
825.159	4069.46
825.766	4087.96
826.37	4026.96
826.977	3952.46
827.583	3953.96
828.188	3898.46
828.794	3923.46
829.399	3865.46
830.005	3628.96
830.609	3804.46
831.216	3714.46
831.822	3732.96
832.426	3651.46
833.032	3740.46
833.636	3620.46
834.242	3556.46
834.846	3501.46
835.452	3641.96
836.056	3535.96
836.662	3571.46
837.266	3491.96
837.872	3481.46
838.475	3385.46
839.081	3385.96
839.685	3277.46
840.288	3289.46
840.894	3213.96
841.497	3288.46
842.103	3319.96
842.707	3293.96
843.31	3229.46
843.915	3349.96
844.519	3265.46
845.124	3233.96
845.727	3193.96
846.331	3257.46
846.936	3247.46
847.539	3242.46
848.142	3051.46
848.745	3118.96
849.35	3272.96
849.953	2971.46
850.556	3218.46
851.161	3156.96
851.764	3185.46
852.367	3242.46
852.97	3136.96
853.572	3174.96
854.177	2923.46
854.78	3243.96
855.382	3182.46
855.985	3132.46
856.587	3107.46
857.192	3102.96
857.794	3172.96
858.397	3088.46
858.999	3186.46
859.602	3054.46
860.204	3105.46
860.806	3084.46
861.408	3050.46
862.013	3084.96
862.615	3061.46
863.217	3064.96
863.819	3194.96
864.421	3142.46
865.023	3100.46
865.625	3149.46
866.227	3103.46
866.829	3083.46
867.431	3068.46
868.032	3108.96
868.634	3099.46
869.236	3042.46
869.838	3088.96
870.439	3113.96
871.041	3102.96
871.642	3087.46
872.244	3097.46
872.843	3113.46
873.445	3075.46
874.046	3051.46
874.648	3088.96
875.249	3087.96
875.85	3069.46
876.451	3053.96
877.053	3010.46
877.652	3132.46
878.253	3136.96
878.854	3090.46
879.455	3060.96
880.056	3089.46
880.655	3111.46
881.256	3122.46
881.857	3106.96
882.458	3068.46
883.056	3112.96
883.657	3091.46
884.258	3089.96
884.858	3064.46
885.457	3122.96
886.058	3092.96
886.658	3019.96
887.257	3055.96
887.857	3093.46
888.458	3127.46
889.056	3101.46
889.656	3122.96
890.257	3101.96
890.855	3086.46
891.455	3034.46
892.055	3125.46
892.654	3025.46
893.254	3123.96
893.852	3101.96
894.452	3147.96
895.052	3056.96
895.65	3156.46
896.25	3109.96
896.848	3143.46
897.448	3109.46
898.045	3123.46
898.645	3077.96
899.243	3100.46
899.842	3190.96
900.44	3184.46
901.04	3134.96
901.637	3121.46
902.235	3122.46
902.834	3170.46
903.432	3133.46
904.031	3134.46
904.628	3101.46
905.228	3103.96
905.825	3087.96
906.422	3169.46
907.022	3081.46
907.619	3162.96
908.216	3084.46
908.815	3166.46
909.412	3123.46
910.009	3101.46
910.608	3149.46
911.205	3155.96
911.802	3032.46
912.401	3175.46
912.997	3200.46
913.594	3153.96
914.191	3169.96
914.79	3194.46
915.386	3152.46
915.983	3182.46
916.58	3139.46
917.176	3192.96
917.775	3199.46
918.371	3111.46
918.967	3199.96
919.564	3166.96
920.16	3135.96
920.756	3191.96
921.355	3173.96
921.951	3154.96
922.547	3185.46
923.143	3138.46
923.739	3261.46
924.336	3155.46
924.932	3263.96
925.528	3195.46
926.123	3255.46
926.719	3217.96
927.315	3216.46
927.911	3119.46
928.507	3243.96
929.103	3186.46
929.698	3318.46
930.294	3260.46
930.89	3338.46
931.485	3256.46
932.081	3288.46
932.676	3326.96
933.272	3324.46
933.867	3224.46
934.463	3325.46
935.058	3410.46
935.653	3319.46
936.249	3259.96
936.844	3320.46
937.439	3368.46
938.032	3393.46
938.627	3395.46
939.222	3370.46
939.818	3481.96
940.413	3512.46
941.008	3512.96
941.6	3485.46
942.195	3483.46
942.79	3463.46
943.385	3588.46
943.98	3481.46
944.572	3560.46
945.167	3554.46
945.762	3551.46
946.357	3602.46
946.949	3634.46
947.544	3586.96
948.138	3658.96
948.73	3570.96
949.325	3698.96
949.919	3725.46
950.512	3607.46
951.106	3674.46
951.7	3675.96
952.292	3730.46
952.887	3744.96
953.481	3746.96
954.073	3770.96
954.667	3897.46
955.259	3843.96
955.853	3776.96
956.445	3771.46
957.039	3745.46
957.633	3870.46
958.225	3879.96
958.818	3957.96
959.41	3957.96
960.004	4001.46
960.596	3997.46
961.189	4034.46
961.781	4012.96
962.374	4027.46
962.966	4014.46
963.557	4063.96
964.151	4095.46
964.742	4047.46
965.336	4091.46
965.927	4085.46
966.52	4103.46
967.112	4152.46
967.703	4180.96
968.296	4332.96
968.887	4252.46
969.478	4195.46
970.071	4255.46
970.662	4295.46
971.253	4324.96
971.846	4323.46
972.437	4339.96
973.028	4417.46
973.621	4451.46
974.212	4417.46
974.802	4457.96
975.393	4453.96
975.986	4448.96
976.576	4428.46
977.167	4549.46
977.758	4680.46
978.348	4653.46
978.941	4455.46
979.531	4588.46
980.121	4575.46
980.712	4381.96
981.302	4473.46
981.892	4580.96
982.485	4769.46
983.075	4567.46
983.665	4697.46
984.255	4654.96
984.845	4688.56
985.435	4591.46
986.025	4456.46
986.615	4757.96
987.205	4800.46
987.795	4832.96
988.385	4763.46
988.975	4843.96
989.565	4873.46
990.154	4835.46
990.744	4864.46
991.334	4860.96
991.923	4984.46
992.513	4885.46
993.103	4961.46
993.692	4860.46
994.282	4901.46
994.871	4939.96
995.46	4976.96
996.05	5028.96
996.639	5066.46
997.229	5037.96
997.818	5010.46
998.405	5043.96
998.994	4967.46
999.583	4916.96
1000.17	5086.96
1000.76	5047.46
1001.35	4985.46
1001.94	5009.46
1002.53	4985.46
1003.12	5009.46
1003.7	5045.96
1004.29	5064.46
1004.88	5065.46
1005.47	5118.46
1006.06	5160.96
1006.65	5133.46
1007.23	5056.96
1007.82	5242.46
1008.41	5139.96
1009	5237.96
1009.58	5192.46
1010.17	5150.96
1010.76	5203.96
1011.35	5137.96
1011.94	5155.46
1012.52	5179.96
1013.11	5174.96
1013.7	5225.46
1014.29	5282.46
1014.87	5169.46
1015.46	5230.46
1016.05	5233.46
1016.63	5370.46
1017.22	5223.46
1017.81	5181.96
1018.4	5296.46
1018.98	5309.96
1019.57	5346.46
1020.16	5364.46
1020.74	5291.46
1021.33	5320.96
1021.92	5317.96
1022.5	5348.46
1023.09	5333.46
1023.67	5370.96
1024.26	5436.46
1024.85	5413.46
1025.44	5405.46
1026.02	5505.46
1026.61	5281.46
1027.19	5353.46
1027.78	5218.96
1028.37	5281.96
1028.95	5311.96
1029.54	5424.46
1030.12	5426.46
1030.71	5348.46
1031.29	5389.13
1031.88	5348.46
1032.47	5435.46
1033.05	5374.96
1033.64	5418.46
1034.22	5462.96
1034.81	5362.46
1035.39	5315.96
1035.98	5424.96
1036.56	5388.46
1037.15	5415.46
1037.73	5375.46
1038.32	5496.46
1038.9	5524.46
1039.49	5506.46
1040.07	5469.46
1040.66	5353.46
1041.24	5421.96
1041.83	5317.86
1042.41	5405.44
1043	5449.97
1043.58	5438.45
1044.17	5407.51
1044.75	5408.52
1045.33	5472.36
1045.92	5379.08
1046.5	5427.07
1047.09	5450.58
1047.67	5392.64
1048.25	5510.81
1048.84	5394.41
1049.42	5391.93
1050.01	5364.34
1050.59	5480.91
1051.17	5436.23
1051.76	5476.24
1052.34	5518.3
1052.93	5543.87
1053.51	5541.26
1054.09	5521.89
1054.68	5529.24
1055.26	5510.08
1055.84	5529.72
1056.42	5479.15
1057.01	5490.9
1057.59	5651.33
1058.17	5580.37
1058.76	5469.66
1059.34	5450.51
1059.92	5562.08
1060.51	5582.82
1061.09	5569.72
1061.67	5676.91
1062.25	5756.2
1062.84	5634.28
1063.42	5627.38
1064	5705.36
1064.58	5656.71
1065.17	5597.9
1065.75	5596.96
1066.33	5827.55
1066.91	5675.81
1067.49	5784.56
1068.08	5714.28
1068.66	5725.17
1069.24	5700.41
1069.82	5778.29
1070.41	5832.69
1070.99	5848.38
1071.57	5911.74
1072.15	5797
1072.73	5727.91
1073.31	5827.9
1073.89	5718.85
1074.48	5816.94
1075.06	5884.7
1075.64	5967.85
1076.22	6026.93
1076.8	5984.55
1077.38	6041.78
1077.96	5922.79
1078.55	6016.26
1079.13	5973.83
1079.71	6084.13
1080.29	6047.36
1080.87	6147.63
1081.45	6090.52
1082.03	6112.12
1082.61	6190.16
1083.19	6181.07
1083.77	6181.78
1084.35	6293.25
1084.93	6267.47
1085.51	6326.8
1086.09	6319.89
1086.67	6373.75
1087.25	6427.84
1087.83	6370.23
1088.41	6335.63
1088.99	6294.26
1089.57	6332.57
1090.15	6315.27
1090.73	6243.32
1091.31	6447.62
1091.89	6384.18
1092.47	6437.51
1093.05	6461.12
1093.63	6399.41
1094.21	6456.89
1094.79	6586.79
1095.37	6536.48
1095.95	6506.49
1096.53	6534.27
1097.11	6517.86
1097.69	6590.87
1098.27	6580.31
1098.85	6603.47
1099.42	6588.19
1100	6626.37
1100.58	6647.46
1101.16	6676.9
1101.74	6590.27
1102.32	6624.84
1102.9	6752.7
1103.48	6679.39
1104.05	6586.9
1104.63	6650.65
1105.21	6750.95
1105.79	6698.44
1106.37	6647.63
1106.95	6707.62
1107.52	6619.17
1108.1	6700.25
1108.68	6808.24
1109.26	6739.74
1109.84	6723.82
1110.41	6872.58
1110.99	6749.61
1111.57	6750.05
1112.15	6805.16
1112.73	6790.16
1113.3	6808.6
1113.88	6779.29
1114.46	6765.61
1115.03	6884.2
1115.61	6797.71
1116.19	6815.89
1116.77	6831.81
1117.34	6773.91
1117.92	6829.82
1118.5	6730.77
1119.08	6691.41
1119.65	6761.38
1120.23	6701.26
1120.81	6615.32
1121.38	6695.82
1121.96	6748.23
1122.54	6798.34
1123.11	6770.33
1123.69	6720.11
1124.27	6737.68
1124.84	6725.65
1125.42	6786.48
1126	6727.58
1126.57	6652.14
1127.15	6729.07
1127.72	6583.5
1128.3	6583.31
1128.88	6597.69
1129.45	6590.74
1130.03	6288.02
1130.6	6513.73
1131.18	6585.04
1131.76	6530.58
1132.33	6316.91
1132.91	6430.96
1133.48	6496.81
1134.06	6230.36
1134.63	6626.29
1135.21	6514.3
1135.78	6448.22
1136.36	6200.93
1136.94	6398.2
1137.51	6479.69
1138.09	6622.94
1138.66	6344.14
1139.24	6437.49
1139.81	6545.01
1140.39	6376.44
1140.96	6357.04
1141.53	6439.1
1142.11	6389.37
1142.68	6505.24
1143.26	6461.43
1143.83	6422.91
1144.41	6326.11
1144.98	6267.69
1145.56	6270.79
1146.13	6275.64
1146.71	6424.32
1147.28	6262.38
1147.85	6385.1
1148.43	6178.09
1149	5976.74
1149.58	6172.99
1150.15	6105.55
1150.73	6116.93
1151.3	6199.4
1151.87	6177.37
1152.45	6163.36
1153.02	6105.76
1153.59	6019.49
1154.17	6077.77
1154.74	5974.67
1155.31	6052.98
1155.89	5984.4
1156.46	6016.04
1157.03	5999.87
1157.61	5899.8
1158.18	5832.87
1158.75	5763.81
1158.97	5861.81
1159.55	5759.31
1160.14	5789.81
1160.72	5834.31
1161.3	5754.81
1161.88	5750.81
1162.46	5734.81
1163.05	5624.81
1163.63	5567.81
1164.21	5627.81
1164.79	5538.81
1165.37	5537.81
1165.95	5700.81
1166.53	5495.81
1167.11	5425.31
1167.7	5421.81
1168.28	5481.31
1168.86	5370.31
1169.44	5433.81
1170.02	5291.31
1170.6	5265.81
1171.18	5196.81
1171.76	5108.81
1172.35	5173.31
1172.93	5072.81
1173.51	5136.81
1174.09	5062.81
1174.67	5116.81
1175.25	5185.81
1175.83	5136.81
1176.41	5021.81
1176.99	4982.81
1177.57	5043.81
1178.15	4888.81
1178.73	4993.31
1179.31	4890.81
1179.89	4910.81
1180.47	4775.81
1181.05	4778.81
1181.63	4730.81
1182.21	4684.31
1182.79	4775.81
1183.37	4722.81
1183.95	4682.31
1184.53	4679.81
1185.11	4556.31
1185.69	4417.31
1186.27	4580.31
1186.85	4498.81
1187.43	4472.81
1188.01	4499.31
1188.58	4469.81
1189.16	4433.81
1189.74	4307.81
1190.32	4250.81
1190.9	4172.81
1191.48	4218.81
1192.06	4183.81
1192.64	3933.31
1193.22	3828.31
1193.8	4214.81
1194.37	4250.81
1194.95	4130.81
1195.53	4228.31
1196.11	4132.31
1196.69	4105.31
1197.27	4140.81
1197.85	4068.31
1198.42	4012.31
1199	3816.81
1199.58	3979.31
1200.16	3894.31
1200.74	3800.31
1201.31	3852.81
1201.89	3822.31
1202.47	3857.31
1203.05	3732.31
1203.63	3734.81
1204.2	3696.81
1204.78	3677.31
1205.36	3592.81
1205.94	3679.81
1206.51	3596.81
1207.09	3596.31
1207.67	3564.31
1208.25	3526.31
1208.82	3558.81
1209.4	3483.81
1209.98	3488.81
1210.56	3438.31
1211.13	3417.81
1211.71	3318.81
1212.29	3279.81
1212.86	3377.81
1213.44	3295.81
1214.02	3256.81
1214.59	3224.31
1215.17	3207.81
1215.75	3182.81
1216.32	3292.81
1216.9	3237.31
1217.48	3253.31
1218.05	3128.31
1218.63	3185.31
1219.21	3113.81
1219.78	3103.31
1220.36	3043.81
1220.93	2999.81
1221.51	3126.81
1222.09	3059.31
1222.66	3011.31
1223.24	3005.31
1223.81	2934.81
1224.39	2905.81
1224.97	2824.81
1225.54	2883.81
1226.12	2865.81
1226.69	2742.81
1227.27	2743.81
1227.84	2825.31
1228.42	2708.31
1228.99	2765.31
1229.57	2739.81
1230.15	2774.31
1230.72	2768.81
1231.3	2816.31
1231.87	2739.81
1232.44	2720.81
1233.02	2797.31
1233.6	2761.81
1234.17	2728.81
1234.75	2724.81
1235.32	2709.31
1235.89	2680.31
1236.47	2681.81
1237.04	2658.31
1237.62	2692.81
1238.19	2628.81
1238.77	2707.31
1239.34	2575.81
1239.92	2643.81
1240.49	2633.81
1241.06	2656.81
1241.64	2587.81
1242.21	2583.31
1242.79	2597.31
1243.36	2597.31
1243.93	2626.31
1244.51	2608.31
1245.08	2553.81
1245.66	2609.31
1246.23	2546.81
1246.8	2612.81
1247.38	2565.31
1247.95	2556.31
1248.52	2560.31
1249.1	2561.31
1249.67	2563.81
1250.24	2588.31
1250.82	2571.31
1251.39	2471.81
1251.96	2537.81
1252.54	2505.81
1253.11	2518.31
1253.68	2520.81
1254.26	2432.81
1254.83	2553.31
1255.4	2496.81
1255.97	2525.81
1256.55	2518.81
1257.12	2512.31
1257.69	2516.81
1258.27	2475.81
1258.84	2520.31
1259.41	2564.81
1259.98	2526.31
1260.55	2466.81
1261.13	2531.31
1261.7	2427.81
1262.27	2526.81
1262.84	2526.31
1263.41	2495.81
1263.99	2488.81
1264.56	2484.81
1265.13	2439.31
1265.7	2464.81
1266.27	2494.31
1266.85	2501.31
1267.42	2475.31
1267.99	2502.31
1268.56	2502.81
1269.13	2474.81
1269.7	2497.81
1270.28	2441.81
1270.85	2437.31
1271.42	2481.81
1271.99	2434.81
1272.56	2452.81
1273.13	2454.81
1273.7	2548.31
1274.27	2397.81
1274.85	2454.81
1275.41	2466.81
1275.99	2400.81
1276.56	2475.31
1277.13	2467.81
1277.7	2442.81
1278.27	2472.81
1278.84	2441.81
1279.41	2430.31
1279.98	2494.31
1280.55	2481.81
1281.12	2450.31
1281.69	2389.81
1282.26	2378.81
1282.83	2442.81
1283.4	2404.81
1283.97	2476.81
1284.54	2409.31
1285.11	2355.81
1285.68	2348.31
1286.25	2271.81
1286.82	2376.31
1287.39	2332.81
1287.96	2373.81
1288.53	2422.81
1289.1	2428.81
1289.67	2421.81
1290.24	2409.31
1290.81	2473.31
1291.38	2396.81
1291.95	2485.31
1292.52	2416.31
1293.09	2413.81
1293.65	2404.31
1294.22	2420.31
1294.79	2375.81
1295.36	2429.31
1295.93	2454.81
1296.5	2399.31
1297.07	2307.81
1297.64	2363.81
1298.21	2358.81
1298.78	2387.81
1299.34	2347.81
1299.91	2388.81
1300.48	2388.81
1301.05	2415.31
1301.62	2392.31
1302.19	2452.31
1302.75	2424.81
1303.32	2472.31
1303.89	2226.81
1304.46	2406.81
1305.03	2405.69
1305.59	2420.31
1306.16	2386.81
1306.73	2453.81
1307.3	2397.31
1307.87	2402.81
1308.43	2504.81
1309	2412.31
1309.57	2287.81
1310.14	2412.81
1310.7	2411.81
1311.27	2479.81
1311.84	2474.31
1312.4	2456.31
1312.97	2390.81
1313.54	2459.81
1314.11	2441.81
1314.67	2386.81
1315.24	2402.31
1315.81	2434.81
1316.38	2398.81
1316.94	2364.81
1317.51	2444.81
1318.08	2366.81
1318.64	2349.81
1319.21	2461.31
1319.77	2402.31
1320.34	2379.31
1320.91	2417.31
1321.48	2462.31
1322.04	2442.81
1322.61	2363.81
1323.18	2418.31
1323.74	2437.81
1324.31	2383.81
1324.87	2419.31
1325.44	2407.81
1326	2438.81
1326.57	2435.81
1327.14	2428.31
1327.7	2364.81
1328.27	2399.31
1328.83	2488.81
1329.4	2447.31
1329.97	2501.81
1330.53	2461.81
1331.1	2440.81
1331.66	2392.81
1332.23	2464.31
1332.79	2442.81
1333.36	2441.81
1333.92	2397.81
1334.49	2485.31
1335.05	2449.31
1335.62	2488.81
1336.18	2407.31
1336.75	2407.31
1337.31	2449.81
1337.88	2461.81
1338.44	2471.31
1339.01	2416.81
1339.57	2416.81
1340.14	2386.81
1340.7	2419.31
1341.27	2407.31
1341.83	2466.81
1342.39	2425.31
1342.96	2422.81
1343.52	2389.31
1344.09	2428.81
1344.65	2379.81
1345.22	2366.81
1345.78	2421.31
1346.35	2383.31
1346.91	2415.81
1347.47	2359.81
1348.04	2426.31
1348.6	2480.31
1349.16	2418.81
1349.73	2390.81
1350.29	2438.81
1350.86	2362.31
1351.42	2418.81
1351.98	2433.81
1352.55	2401.31
1353.11	2305.81
1353.67	2461.81
1354.23	2424.81
1354.8	2431.31
1355.36	2408.31
1355.92	2428.81
1356.49	2335.81
1357.05	2465.81
1357.61	2449.81
1358.18	2473.81
1358.74	2386.31
1359.3	2442.81
1359.87	2456.31
1360.43	2430.31
1360.99	2454.31
1361.55	2387.81
1362.11	2445.81
1362.68	2486.31
1363.24	2475.31
1363.8	2416.81
1364.36	2382.81
1364.93	2394.81
1365.49	2443.81
1366.05	2402.31
1366.61	2472.81
1367.17	2410.31
1367.74	2408.31
1368.3	2449.81
1368.86	2446.31
1369.42	2467.81
1369.98	2382.81
1370.55	2475.81
1371.11	2398.81
1371.67	2444.81
1372.23	2459.81
1372.79	2442.81
1373.35	2449.31
1373.91	2443.81
1374.48	2372.81
1375.04	2430.81
1375.6	2467.81
1376.16	2504.81
1376.72	2400.31
1377.28	2447.31
1377.84	2453.31
1378.4	2457.31
1378.96	2383.81
1379.53	2484.81
1380.09	2456.31
1380.65	2406.81
1381.21	2466.31
1381.77	2517.81
1382.33	2433.31
1382.89	2411.31
1383.45	2460.81
1384.01	2398.81
1384.57	2431.31
1385.13	2439.81
1385.69	2417.31
1386.25	2465.81
1386.81	2438.31
1387.37	2369.31
1387.93	2449.31
1388.49	2447.31
1389.05	2429.31
1389.61	2458.81
1390.17	2449.31
1390.73	2388.81
1391.29	2484.31
1391.85	2419.81
1392.41	2366.31
1392.97	2483.31
1393.53	2492.81
1394.09	2424.81
1394.65	2434.81
1395.21	2512.81
1395.77	2381.31
1396.33	2404.31
1396.88	2426.31
1397.44	2427.31
1398	2438.81
1398.56	2277.31
1399.12	2397.81
1399.68	2291.81
1400.24	2392.31
1400.8	2411.81
1401.36	2433.31
1401.91	2404.31
1402.47	2426.81
1403.03	2456.81
1403.59	2412.81
1404.15	2463.81
1404.71	2533.31
1405.26	2465.81
1405.82	2476.81
1406.38	2428.81
1406.94	2467.31
1407.5	2391.31
1408.06	2467.31
1408.61	2462.81
1409.17	2457.81
1409.73	2404.81
1410.29	2475.81
1410.85	2478.31
1411.4	2486.81
1411.96	2450.81
1412.52	2494.31
1413.08	2458.81
1413.63	2494.81
1414.19	2465.81
1414.75	2472.31
1415.31	2478.81
1415.86	2439.81
1416.42	2491.81
1416.98	2454.81
1417.53	2442.31
1418.09	2463.14
1418.65	2518.31
1419.21	2470.31
1419.76	2511.81
1420.32	2486.81
1420.88	2473.31
1421.43	2489.31
1421.99	2492.31
1422.55	2351.81
1423.1	2469.31
1423.66	2488.81
1424.22	2480.81
1424.77	2467.72
1425.33	2482.81
1425.89	2486.81
1426.44	2530.81
1427	2453.81
1427.55	2458.81
1428.11	2450.81
1428.67	2547.81
1429.22	2500.31
1429.78	2488.81
1430.33	2464.81
1430.89	2494.81
1431.44	2333.81
1432	2525.81
1432.56	2463.31
1433.11	2440.31
1433.67	2576.81
1434.22	2483.81
1434.78	2510.81
1435.34	2498.81
1435.89	2415.81
1436.44	2484.81
1437	2509.81
1437.56	2501.81
1438.11	2443.31
1438.67	2455.81
1439.22	2512.31
1439.78	2459.31
1440.33	2534.31
1440.89	2515.81
1441.44	2515.81
1441.99	2476.81
1442.55	2472.81
1443.11	2410.81
1443.66	2492.31
1444.21	2465.31
1444.77	2521.81
1445.32	2490.81
1445.88	2463.31
1446.43	2473.31
1446.98	2452.31
1447.54	2455.31
1448.09	2423.31
1448.65	2487.81
1449.2	2479.31
1449.76	2488.81
1450.31	2510.81
1450.86	2491.31
1451.42	2465.81
1451.97	2436.31
1452.52	2481.31
1453.08	2439.81
1453.63	2483.81
1454.19	2481.81
1454.74	2459.81
1455.29	2447.31
1455.85	2505.81
1456.4	2509.81
1456.95	2531.31
1457.51	2529.81
1458.06	2497.81
1458.61	2470.31
1459.17	2514.81
1459.72	2482.81
1460.27	2474.81
1460.82	2467.31
1461.38	2536.31
1461.93	2460.81
1462.48	2482.31
1463.04	2559.31
1463.59	2526.31
1464.14	2528.81
1464.69	2523.31
1465.25	2535.81
1465.8	2519.31
1466.35	2499.81
1466.9	2518.31
1467.46	2444.81
1468.01	2479.81
1468.56	2492.81
1469.11	2420.81
1469.66	2478.31
1470.22	2411.81
1470.77	2465.81
1471.32	2539.81
1471.87	2514.81
1472.42	2504.31
1472.98	2518.31
1473.53	2433.81
1474.08	2404.81
1474.63	2559.81
1475.18	2463.31
1475.73	2527.31
1476.28	2573.81
1476.84	2537.31
1477.39	2515.81
1477.94	2512.81
1478.49	2512.81
1479.04	2549.81
1479.59	2587.81
1480.14	2503.81
1480.7	2466.81
1481.25	2550.31
1481.8	2541.31
1482.35	2520.31
1482.9	2426.31
1483.45	2560.81
1484	2497.81
1484.55	2559.81
1485.1	2523.31
1485.65	2535.31
1486.2	2491.31
1486.75	2529.81
1487.3	2467.81
1487.85	2576.31
1488.4	2608.31
1488.95	2493.31
1489.5	2546.81
1490.05	2552.81
1490.6	2416.31
1491.15	2532.31
1491.7	2495.31
1492.25	2573.81
1492.8	2543.31
1493.35	2537.31
1493.9	2478.81
1494.45	2518.31
1495	2519.81
1495.55	2584.31
1496.1	2534.81
1496.65	2512.31
1497.2	2505.81
1497.75	2475.81
1498.3	2550.81
1498.85	2471.81
1499.4	2616.31
1499.95	2454.31
