19.3994	9680.75
20.0758	10050.2
20.7522	10407.2
21.4285	11015.7
22.1048	11383.2
22.7811	11688.7
23.4573	12166.7
24.1334	12383.7
24.8095	12505.2
25.4855	12833.2
26.1615	13231.2
26.8375	13445.2
27.5134	13713.7
28.1893	13575.2
28.8651	14096.2
29.5408	14362.2
30.2166	14566.7
30.8922	15006.7
31.5679	15250.2
32.2434	15374.7
32.919	15592.2
33.5945	15830.2
34.2699	15866.2
34.9453	15822.2
35.6206	16455.7
36.2959	16659.7
36.9712	16548.7
37.6464	16608.7
38.3192	16531.7
38.9943	16580.2
39.6694	16887.2
40.3444	17051.7
41.0194	17115.2
41.6943	17158.2
42.3692	17180.2
43.0417	17266.2
43.7165	17030.2
44.3912	17411.2
45.0659	17578.2
45.7405	17564.2
46.4128	17777.2
47.0874	17446.2
47.7619	17749.7
48.4363	17544.7
49.1084	17722.2
49.7828	17715.2
50.4571	17726.2
51.1314	17484.2
51.8033	17347.7
52.4775	17210.2
53.1516	17323.2
53.8234	17566.2
54.4974	17540.2
55.1714	17552.7
55.843	17677.2
56.5169	17857.7
57.1908	17529.2
57.8623	17477.7
58.536	17634.2
59.2074	17590.2
59.8811	17644.7
60.5547	17210.2
61.2259	17556.2
61.8995	17510.2
62.5706	17183.2
63.2441	17412.2
63.9174	17419.2
64.5885	17179.7
65.2618	16981.2
65.9327	16942.7
66.6059	16917.2
67.2767	16955.2
67.9498	16754.7
68.6206	16865.2
69.2936	16906.7
69.9643	16687.7
70.6372	16501.7
71.3077	16544.7
71.9783	16715.2
72.651	17288.2
73.3215	17300.2
73.9941	17074.2
74.6645	16899.2
75.3371	16897.7
76.0073	16688.2
76.6775	16483.2
77.3499	16310.2
78.02	16140.2
78.6901	16258.2
79.3624	16372.7
80.0324	16281.2
80.7023	16178.7
81.3745	16088.2
82.0443	16175.2
82.7141	16092.2
83.3861	15919.2
84.0558	15966.7
84.7254	15861.2
85.3973	15407.2
86.0668	15708.2
86.7364	15747.7
87.4058	15915.2
88.0775	15816.7
88.7469	15741.2
89.4162	15598.2
90.0855	15689.2
90.7547	15727.2
91.4261	15810.7
92.0953	15696.7
92.7644	15716.7
93.4334	15650.7
94.1024	15445.7
94.7713	15310.2
95.4425	15104.2
96.1114	15165.2
96.7802	15373.2
97.449	15362.7
98.1177	15178.2
98.7863	15085.2
99.455	14876.7
100.124	14909.2
100.792	15013.2
101.461	15115.7
102.131	15114.2
102.8	15122.2
103.468	14913.2
104.136	14745.2
104.805	14776.7
105.473	14871.7
106.141	14796.7
106.809	14600.2
107.477	14555.2
108.145	14493.2
108.813	14396.2
109.481	14262.2
110.147	14312.2
110.814	14407.2
111.482	14536.2
112.15	14557.7
112.818	14495.2
113.485	14194.2
114.153	14178.7
114.821	14024.2
115.488	14084.7
116.156	14023.7
116.821	13681.2
117.488	13836.7
118.155	13625.2
118.823	13635.2
119.49	13449.2
120.157	13758.7
120.822	13563.2
121.489	13297.2
122.156	13330.7
122.823	13410.2
123.49	13503.7
124.155	13504.5
124.822	13707.2
125.488	13591.2
126.155	13598.2
126.82	13427.2
127.486	13474.2
128.153	13422.2
128.817	13375.2
129.484	13567.2
130.15	13248.7
130.817	13335.2
131.481	13170.2
132.147	12789.2
132.811	13118.7
133.478	13077.2
134.144	13082.7
134.808	13146.2
135.474	13205.7
136.14	12966.2
136.804	12825.7
137.47	12795.2
138.133	12675.2
138.799	12702.2
139.463	12982.2
140.129	12658.2
140.795	12629.2
141.458	12713.7
142.124	12599.7
142.787	12789.2
143.453	12714.2
144.116	12646.2
144.781	12555.2
145.445	12610.2
146.11	12513.2
146.773	12542.2
147.436	12516.7
148.101	12505.2
148.764	12430.2
149.429	12508.2
150.092	12289.2
150.757	12411.2
151.42	12240.7
152.083	12308.2
152.748	12377.2
153.41	12416.2
154.075	12277.2
154.738	12236.7
155.4	12144.7
156.065	11836.2
156.727	12215.2
157.39	12252.2
158.054	12163.7
158.717	12150.2
159.379	12082.2
160.041	11936.2
160.705	11874.2
161.367	11893.2
162.03	12060.2
162.692	12046.2
163.356	12030.2
164.018	11893.2
164.679	11706.2
165.341	11735.2
166.005	11816.2
166.667	11667.2
167.329	11787.2
167.99	11847.2
168.652	12052.7
169.313	11945.2
169.977	11894.2
170.639	11825.2
171.3	12038.7
171.961	11920.2
172.623	12025.2
173.284	12059.2
173.945	11908.7
174.606	11595.2
175.267	11860.2
175.931	11862.7
176.592	11811.7
177.253	11897.2
177.914	11761.7
178.575	11651.2
179.236	11699.2
179.896	11688.2
180.557	11772.2
181.218	11889.2
181.879	11860.2
182.539	11636.2
183.2	11723.7
183.86	11792.2
184.521	11673.7
185.181	11713.2
185.839	11587.2
186.5	11715.2
187.16	11704.2
187.82	11525.2
188.48	11679.2
189.141	11721.2
189.801	11930.2
190.461	11907.2
191.121	11825.2
191.779	11859.7
192.439	11724.7
193.098	11708.7
193.758	11695.2
194.418	11904.2
195.078	11702.2
195.735	11900.2
196.395	11786.2
197.055	11812.2
197.714	11838.7
198.374	11820.2
199.031	11809.2
199.691	12047.7
200.35	12075.2
201.009	11837.2
201.666	11857.2
202.326	11769.7
202.985	11946.7
203.642	11593.2
204.301	11988.2
204.96	12167.2
205.617	12113.2
206.276	11904.7
206.935	11978.2
207.591	12157.7
208.25	11865.2
208.909	12074.2
209.566	12201.2
210.224	12233.2
210.881	12289.2
211.539	12038.7
212.196	12232.7
212.854	12270.2
213.513	12258.2
214.169	12123.2
214.827	12212.7
215.483	12195.2
216.142	12138.2
216.798	11965.2
217.456	12228.2
218.112	12418.7
218.77	12098.2
219.426	11962.2
220.084	12163.2
220.74	12273.2
221.398	12237.2
222.053	12314.2
222.709	12417.2
223.367	12481.2
224.022	12569.7
224.68	12393.2
225.336	12435.2
225.991	12297.2
226.649	12242.2
227.304	12148.7
227.961	12387.2
228.617	12338.7
229.272	12191.7
229.929	12361.2
230.584	12270.2
231.239	12396.2
231.897	12532.2
232.551	12426.2
233.206	12754.2
233.861	12855.7
234.518	12768.2
235.173	12793.2
235.828	12709.7
236.482	12837.2
237.139	13077.2
237.794	12797.2
238.449	13015.7
239.103	12904.2
239.757	13062.2
240.414	12886.2
241.069	13017.2
241.723	13216.7
242.377	13143.2
243.031	13260.2
243.686	13032.2
244.342	12881.2
244.996	13004.2
245.65	13104.2
246.304	13144.7
246.958	13291.7
247.612	13307.2
248.266	13225.7
248.92	13273.2
249.573	13349.2
250.227	13221.2
250.881	13258.2
251.535	13463.2
252.188	13406.2
252.842	13276.2
253.495	13438.2
254.149	13535.7
254.802	13563.2
255.456	13533.2
256.109	13684.7
256.762	13622.7
257.415	13579.7
258.069	13646.2
258.722	13768.7
259.375	13637.2
260.028	13770.2
260.681	13796.7
261.334	13927.7
261.987	14020.7
262.64	13837.2
263.29	13607.2
263.943	13951.2
264.596	14067.2
265.249	14175.2
265.901	14086.2
266.554	14150.7
267.204	13959.2
267.857	13915.2
268.509	14021.2
269.162	14092.7
269.814	14116.7
270.464	14223.7
271.117	14075.2
271.769	14081.2
272.421	14166.7
273.071	14003.2
273.723	14259.2
274.375	14324.2
275.025	14458.2
275.677	14339.2
276.329	14412.7
276.979	14355.2
277.631	14305.2
278.283	14482.2
278.932	14461.7
279.584	14509.2
280.236	14668.2
280.885	14549.2
281.537	14565.7
282.188	14425.2
282.838	14506.2
283.489	14777.2
284.138	14814.2
284.79	14874.7
285.439	14844.2
286.09	14701.2
286.739	14886.2
287.39	14847.2
288.041	14751.2
288.69	15138.2
289.341	14985.7
289.99	14830.7
290.639	14919.2
291.29	14998.2
291.939	14760.2
292.589	14777.2
293.238	14946.7
293.889	14767.2
294.537	14914.5
295.188	14946.9
295.836	14971.6
296.485	14972.2
297.135	14619.2
297.784	14753.2
298.434	14929.2
299.082	15180.7
299.73	15010.2
300.381	15183.7
301.029	15355.7
301.677	15194.2
302.327	15366.7
302.975	15437.2
303.623	15474.2
304.271	15492.7
304.921	15323.2
305.568	15191.7
306.216	15307.2
306.866	15376.2
307.513	15539.2
308.161	15281.2
308.809	15300.2
309.456	15356.7
310.106	15444.7
310.753	15274.2
311.4	15264.2
312.048	15160.2
312.695	15592.7
313.344	15738.2
313.992	15503.2
314.639	15561.2
315.286	15523.2
315.933	15570.2
316.58	15843.2
317.227	15473.2
317.874	15919.2
318.521	15805.7
319.17	15764.2
319.816	15688.2
320.463	15867.2
321.11	15964.2
321.757	16101.7
322.403	16157.2
323.05	16129.2
323.696	15908.7
324.343	15943.2
324.989	16005.2
325.636	16208.2
326.282	15995.2
326.928	16318.2
327.574	16209.2
328.221	16105.2
328.867	15989.2
329.511	16270.2
330.157	16394.2
330.803	16343.7
331.449	16225.2
332.095	16337.2
332.741	16173.2
333.387	16267.7
334.032	16341.2
334.678	16657.2
335.322	16582.2
335.967	16747.2
336.613	16651.7
337.259	16808.7
337.904	16875.2
338.547	16503.2
339.193	16780.7
339.838	16724.2
340.484	16917.2
341.129	16951.2
341.772	16913.7
342.417	16826.7
343.062	16742.2
343.705	17041.2
344.351	16985.2
344.996	17105.7
345.641	17162.7
346.283	16983.2
346.928	17213.2
347.573	17177.2
348.216	17349.2
348.861	17324.2
349.505	17300.2
350.148	17541.7
350.793	17351.2
351.435	17164.2
352.08	17374.2
352.724	17454.2
353.367	17558.2
354.011	17741.2
354.653	17509.7
355.298	17766.2
355.94	17666.2
356.584	17766.2
357.226	17715.2
357.87	17945.7
358.512	18010.2
359.156	18034.2
359.798	18073.2
360.442	17858.2
361.084	17722.2
361.728	18036.2
362.37	17967.7
363.013	18025.2
363.655	18272.2
364.299	18446.7
364.94	18198.7
365.582	18188.7
366.225	18217.2
366.867	18456.2
367.51	18497.7
368.152	18483.7
368.793	18679.2
369.436	18543.2
370.078	18521.2
370.719	18555.2
371.362	18565.2
372.003	18837.2
372.644	18980.2
373.287	18679.2
373.928	18798.7
374.569	18977.7
375.21	19013.7
375.853	18798.7
376.493	18839.2
377.134	19075.2
377.775	19111.2
378.418	19374.2
379.058	19035.7
379.699	19085.2
380.339	19073.2
380.98	19250.2
381.62	19294.2
382.263	19376.2
382.903	19481.7
383.543	19401.7
384.183	19347.2
384.823	19060.2
385.464	19415.2
386.104	19540.2
386.744	19796.7
387.386	19593.2
388.026	19804.2
388.666	19659.2
389.306	19592.7
389.945	19653.7
390.585	19686.2
391.225	19809.2
391.865	19957.7
392.504	20135.2
393.144	19777.2
393.784	19907.2
394.423	19750.2
395.063	19914.2
395.702	20079.2
396.341	20244.7
396.981	20293.2
397.62	20264.2
398.259	20134.2
398.896	20145.2
399.536	20200.2
400.175	20236.7
400.814	20424.2
401.453	20427.7
402.092	20494.2
402.731	20422.2
403.37	20491.2
404.006	20467.7
404.645	20551.2
405.284	20663.2
405.923	20966.2
406.562	20765.2
407.2	20710.2
407.837	20564.2
408.475	20903.7
409.114	20726.2
409.752	21121.2
410.388	21074.2
411.027	21099.2
411.665	21157.7
412.301	21015.2
412.94	21042.2
413.578	20931.2
414.216	21115.2
414.852	21336.2
415.49	21513.7
416.128	21324.2
416.764	21217.2
417.402	21217.7
418.04	21244.2
418.676	21213.2
419.314	21650.7
419.949	21740.2
420.587	21547.2
421.225	21519.2
421.86	21586.7
422.498	21513.7
423.133	21451.2
423.771	21631.2
424.406	21377.2
425.043	21412.7
425.679	21557.2
426.316	21737.2
426.951	21723.2
427.589	21782.2
428.224	22018.7
428.861	22333.2
429.496	22409.7
430.133	22190.2
430.768	22278.2
431.405	22243.2
432.04	22344.7
432.674	22344.2
433.311	22495.2
433.946	22443.2
434.583	22947.2
435.217	22782.2
435.852	22515.2
436.489	22724.2
437.123	22693.2
437.758	22834.2
438.394	22904.7
439.028	22875.7
439.663	22924.2
440.299	22875.2
440.933	22682.2
441.568	22980.2
442.202	22839.2
442.838	22886.2
443.472	23215.7
444.106	23068.2
444.74	23176.2
445.376	22960.7
446.01	22891.2
446.644	22834.7
447.277	23166.2
447.911	23236.7
448.547	23163.2
449.181	23338.2
449.814	22991.2
450.448	22944.2
451.081	23063.2
451.715	23366.7
452.348	23332.2
452.984	23324.2
453.617	22929.2
454.251	23075.2
454.884	22992.2
455.517	23078.7
456.15	22913.7
456.784	23262.7
457.417	23217.2
458.05	23271.2
458.683	23119.7
459.316	23136.2
459.949	23047.7
460.582	23127.7
461.214	22916.2
461.847	23181.2
462.48	23217.2
463.113	23118.2
463.745	23038.2
464.378	22681.2
465.011	22751.2
465.643	23081.2
466.276	23212.7
466.906	23135.2
467.538	23299.2
468.171	23140.2
468.803	22760.2
469.435	22776.2
470.068	23076.7
470.7	22734.2
471.33	22977.2
471.962	23232.7
472.594	23301.7
473.226	23194.7
473.858	22939.2
474.488	22865.2
475.12	23484.2
475.752	23557.7
476.384	23656.2
477.013	23301.2
477.645	23337.2
478.277	23410.7
478.908	23320.2
479.538	23511.2
480.169	23890.2
480.801	23814.2
481.43	23754.2
482.062	23637.2
482.693	23597.7
483.322	23270.2
483.954	23588.2
484.585	23733.2
485.214	23394.2
485.845	23609.7
486.474	23245.2
487.105	23196.2
487.736	23101.2
488.365	22844.7
488.996	22788.2
489.625	22896.7
490.256	22927.2
490.885	22428.2
491.515	22059.2
492.144	22291.7
492.775	21925.2
493.403	21323.2
494.034	21793.7
494.662	21322.2
495.293	21318.2
495.921	21168.2
496.552	20925.2
497.18	20637.2
497.81	20322.2
498.439	20185.2
499.067	20080.7
499.697	19764.2
500.325	19506.2
500.955	19168.7
501.583	18915.7
502.211	18232.2
502.841	18291.7
503.469	18057.2
504.097	17722.2
504.727	17576.2
505.355	17262.2
505.982	17044.2
506.61	16600.2
507.24	16425.7
507.867	16464.2
508.495	16195.7
509.124	15861.2
509.752	15377.2
510.379	15507.2
511.007	15159.2
511.634	14811.2
512.263	14605.2
512.891	14283.2
513.518	14228.2
514.145	13987.2
514.772	13785.2
515.399	13371.2
516.028	13149.2
516.655	12936.7
517.282	12898.7
517.909	12867.7
518.536	12637.7
519.163	12365.2
519.789	12292.2
520.416	12177.2
521.043	11962.2
521.669	11844.7
522.298	11653.2
522.925	11657.7
523.551	11476.2
524.178	11256.2
524.804	10997.2
525.431	10977.7
526.057	10802.2
526.683	10738.2
527.31	10768.2
527.934	10656.2
528.56	10451.2
529.186	10404.2
529.812	10259.2
530.438	10099.2
531.064	10205.2
531.69	10157.2
532.316	9988.75
532.942	10075.2
533.568	9806.25
534.194	9721.75
534.817	9536.25
535.443	9612.25
536.069	9573.25
536.694	9191.25
537.32	9425.25
537.943	9186.25
538.569	9275.25
539.194	9229.25
539.82	9079.75
540.445	9224.75
541.068	9057.75
541.694	9073.25
542.319	8945.25
542.944	8909.25
543.567	8848.75
544.192	8824.25
544.817	8891.25
545.44	8834.63
546.065	8877.57
546.69	8750.59
547.313	8652.58
547.938	8723.74
548.563	8528.34
549.185	8484.15
549.81	8492.87
550.433	8628.76
551.057	8646.59
551.682	8333.9
552.305	8554.4
552.929	8544.29
553.551	8320.54
554.176	8500.49
554.798	8521.52
555.423	8514.27
556.047	8473.8
556.669	8451.37
557.293	8286.48
557.915	8521.75
558.537	8515.33
559.162	8450.47
559.784	8244.99
560.408	8534.43
561.03	8553.7
561.654	8520.69
562.275	8331.55
562.899	8373.18
563.521	8354.21
564.143	8545.31
564.766	8685.17
565.388	8516.34
566.009	8611.08
566.633	8487.11
567.255	8489.94
567.878	8403.73
568.5	8580.69
569.121	8533.39
569.742	8654.29
570.366	8626.62
570.987	8513.24
571.608	8577.89
572.231	8228.59
572.852	8530.79
573.473	8502.99
574.094	8634.26
574.717	8584.23
575.338	8516.45
575.959	8563.23
576.58	8566.13
577.201	8362.44
577.822	8609.07
578.445	8502.01
579.065	8512.14
579.686	8438.29
580.306	8342.02
580.927	8354.15
581.548	8252.58
582.168	8282.98
582.791	8339.7
583.411	8345.74
584.031	8384.49
584.652	8446.74
585.272	8515.93
585.892	8440.75
586.512	8308.28
587.132	8406.37
587.753	8404.53
588.373	8497.85
588.993	8468.19
589.613	8443.5
590.233	8465.03
590.852	8417.87
591.472	8370.99
592.092	8382.57
592.712	8532.62
593.332	8453.61
593.951	8473.33
594.569	8464.12
595.188	8283.28
595.808	8229.88
596.427	8282.94
597.047	8265.7
597.666	8273.34
598.286	8201.08
598.905	8080.21
599.522	7990.36
600.142	8079.49
600.761	7889.68
601.38	7801.9
601.999	7886.98
602.616	7769.21
603.235	7685.48
603.854	7605.63
604.473	7564.83
605.09	7254.81
605.709	7390.93
606.328	7278.45
606.947	7259.68
607.563	7171.24
608.182	7074.65
608.801	7058.24
609.417	6792.32
610.036	6824
610.655	6760.11
611.271	6760.46
611.89	6712.58
612.508	6605.73
613.124	6612.14
613.743	6506.26
614.359	6416.97
614.977	6328.69
615.595	6238.31
616.212	6213.94
616.83	6090.95
617.446	6139.21
618.064	6023.07
618.68	5975.84
619.298	5906.02
619.914	5844.64
620.532	5760.68
621.147	5789.09
621.765	5647.84
622.381	5642.09
622.999	5613.25
623.614	5544.85
624.23	5271.36
624.847	5359
625.463	5361.43
626.08	5287.9
626.696	5270.93
627.311	5275.16
627.929	5171.05
628.544	5143.14
629.161	5080.94
629.776	5060.23
630.392	4988.75
631.009	5026.54
631.624	4915.51
632.239	4928.76
632.854	4879.8
633.471	4776.27
634.086	4868.98
634.701	4779.55
635.318	4704.39
635.932	4724.28
636.547	4602.9
637.162	4588.87
637.777	4411.18
638.393	4403.21
639.008	4476.36
639.622	4423.82
640.237	4436.5
640.851	4390.06
641.468	4438.86
642.082	4328.71
642.697	4272.89
643.311	4358.35
643.925	4282.08
644.539	4262.66
645.154	4220.85
645.768	4208.54
646.382	4220.16
646.996	4195.28
647.612	4216.92
648.226	4050.54
648.84	4135.37
649.454	4145.84
650.068	4111.22
650.682	4132.34
651.295	4058.77
651.909	3909.53
652.523	4030.75
653.136	4034.57
653.75	4009.06
654.361	4055.38
654.975	4139.83
655.589	4015.14
656.202	4009.24
656.815	3890.93
657.429	3934.42
658.042	3809.65
658.655	3883.66
659.269	3867.69
659.882	3802.4
660.493	3826.17
661.106	3802.43
661.719	3752.67
662.332	3772.61
662.945	3777.4
663.556	3782.91
664.169	3767.25
664.782	3822.61
665.395	3753.08
666.007	3673.84
666.618	3644.18
667.231	3703.1
667.843	3711.29
668.454	3742.59
669.067	3805.86
669.679	3711.09
670.292	3668.59
670.902	3649.25
671.514	3606.96
672.125	3723
672.423	3623.5
673.044	3677.5
673.665	3585.5
674.286	3673
674.907	3650.5
675.528	3628.5
676.148	3604.5
676.769	3577.5
677.388	3605.5
678.008	3639.5
678.629	3691
679.249	3616.5
679.87	3546
680.49	3511.5
681.111	3491
681.731	3583.5
682.349	3545
682.97	3570
683.59	3610.5
684.21	3548
684.83	3489.5
685.448	3431.5
686.068	3540.5
686.688	3588.5
687.308	3484.5
687.926	3538.5
688.546	3582.5
689.166	3571.5
689.786	3505.5
690.404	3543.5
691.023	3497
691.643	3547.5
692.26	3589.5
692.88	3552.5
693.5	3612.5
694.117	3508
694.737	3545
695.356	3485
695.973	3541.5
696.593	3625
697.21	3516.5
697.829	3530.5
698.449	3533.5
699.066	3421
699.685	3527.5
700.302	3578
700.921	3504.5
701.538	3573.5
702.157	3545.5
702.774	3480.5
703.393	3257.5
704.009	3378
704.628	3474.5
705.245	3459
705.864	3516.5
706.48	3557.5
707.099	3548
707.716	3529
708.334	3450.5
708.951	3501.5
709.569	3525.5
710.185	3580.5
710.802	3604
711.42	3515.5
712.036	3586.5
712.653	3512.5
713.271	3436
713.887	3545
714.505	3555.5
715.121	3630.5
715.737	3604
716.355	3586
716.971	3444
717.587	3479.5
718.203	3554
718.821	3554.5
719.437	3564.5
720.052	3565.5
720.67	3587.5
721.286	3487
721.901	3534
722.517	3544.5
723.132	3542.5
723.75	3663
724.365	3629.5
724.981	3625.5
725.596	3608.5
726.211	3656
726.829	3629.5
727.444	3540.5
728.059	3540
728.674	3587.5
729.289	3581.5
729.904	3607.5
730.519	3673.5
731.134	3618.5
731.751	3594
732.366	3649.5
732.981	3670.5
733.596	3693
734.211	3716.5
734.826	3574.5
735.44	3631.5
736.055	3468.5
736.669	3595
737.284	3693.5
737.899	3668.5
738.513	3706
739.128	3689.5
739.742	3726
740.356	3690.5
740.971	3634
741.585	3613.5
742.199	3607
742.813	3639
743.427	3633.5
744.039	3692
744.654	3676
745.268	3682.5
745.882	3572.5
746.496	3562.5
747.109	3632.5
747.723	3817.5
748.337	3749
748.949	3742.5
749.563	3808.5
750.176	3846
750.79	3770.5
751.404	3840
752.015	3886.5
752.629	3844
753.242	3914
753.856	3974.5
754.467	3837.5
755.08	3809
755.694	3853
756.307	3848.5
756.918	3872.5
757.531	3975
758.145	3936.5
758.756	3901
759.369	3962.5
759.982	3966
760.593	3969.5
761.206	4048.5
761.819	4009.5
762.43	4001.5
763.042	4110.5
763.655	4024.5
764.266	3949.5
764.879	4146.5
765.489	3977.5
766.102	4044.5
766.713	4106
767.325	4205.5
767.938	4202.5
768.548	4144.5
769.161	4199
769.771	4138
770.383	4154.5
770.993	4280
771.606	4324.5
772.216	4250
772.828	4342.5
773.438	4321
774.048	4343.5
774.66	4318
775.27	4323.5
775.882	4357.5
776.492	4510.5
777.104	4473
777.714	4397
778.324	4401.5
778.936	4445.5
779.545	4355.5
780.155	4412.5
780.767	4488.5
781.376	4559.5
781.986	4430.5
782.597	4399.5
783.207	4506.5
783.816	4497
784.427	4391.5
785.037	4590.5
785.646	4334
786.257	4564.5
786.867	4640
787.476	4614.5
788.085	4541.5
788.694	4592.5
789.305	4548
789.914	4593.5
790.523	4563.5
791.132	4635.5
791.741	4502.5
792.352	4654.5
792.961	4653
793.569	4654.5
794.178	4676
794.787	4646.5
795.395	4708.5
796.004	4639
796.615	4652.5
797.223	4708
797.832	4565
798.44	4607.5
799.048	4670
799.657	4641
800.265	4645
800.873	4641
801.482	4611.5
802.09	4526.5
802.698	4427.5
803.306	4533
803.914	4546
804.522	4462
805.13	4355.5
805.738	4357.5
806.346	4262
806.954	4381.5
807.562	4317.5
808.17	4419.5
808.777	4336.5
809.385	4398.5
809.993	4232
810.598	4372.5
811.206	4345.5
811.813	4392.5
812.421	4361.5
813.028	4389
813.636	4353
814.243	4341.5
814.849	4291.5
815.456	4236.5
816.063	4287.5
816.67	4268.5
817.278	4270.5
817.883	4167.5
818.49	4140.5
819.097	4129.5
819.704	4162.5
820.309	4078.5
820.916	4025.5
821.523	3965.5
822.13	3987.5
822.734	3967.5
823.341	3995
823.948	3974
824.553	3904.5
825.159	3738.5
825.766	3777.5
826.37	3756.5
826.977	3741.5
827.583	3745.5
828.188	3756.5
828.794	3669.5
829.399	3607
830.005	3642
830.609	3316.5
831.216	3560.5
831.822	3428.5
832.426	3462
833.032	3451
833.636	3317
834.242	3347
834.846	3271
835.452	3282.5
836.056	3201.5
836.662	3159
837.266	3172.5
837.872	3159.5
838.475	3045.5
839.081	3068.5
839.685	3019
840.288	2965.5
840.894	2936.5
841.497	2990
842.103	2958.5
842.707	2888.5
843.31	2879.5
843.915	2822
844.519	2750.5
845.124	2731.5
845.727	2805.5
846.331	2715.5
846.936	2708.5
847.539	2715
848.142	2737.5
848.745	2681
849.35	2603
849.953	2643.5
850.556	2570.5
851.161	2554.5
851.764	2543
852.367	2515
852.97	2490
853.572	2461
854.177	2481.5
854.78	2477.5
855.382	2547.5
855.985	2410
856.587	2497.5
857.192	2383
857.794	2485.5
858.397	2472.5
858.999	2414
859.602	2389.5
860.204	2457.5
860.806	2443.5
861.408	2480
862.013	2468.5
862.615	2438.5
863.217	2400.5
863.819	2455
864.421	2378.5
865.023	2426
865.625	2465.5
866.227	2531.5
866.829	2392
867.431	2415
868.032	2384
868.634	2397.5
869.236	2410
869.838	2443
870.439	2359.5
871.041	2427
871.642	2455.5
872.244	2384.5
872.843	2384
873.445	2385
874.046	2404
874.648	2327.5
875.249	2379
875.85	2373
876.451	2387.5
877.053	2354.5
877.652	2412
878.253	2364
878.854	2415
879.455	2425.5
880.056	2420.5
880.655	2296.5
881.256	2433.5
881.857	2382.5
882.458	2392
883.056	2395
883.657	2417.5
884.258	2442.5
884.858	2421.5
885.457	2364
886.058	2399.5
886.658	2391.5
887.257	2377
887.857	2384.5
888.458	2368.5
889.056	2398
889.656	2376
890.257	2369.5
890.855	2330.5
891.455	2415.5
892.055	2395.5
892.654	2388.5
893.254	2359.5
893.852	2416.5
894.452	2399.5
895.052	2401.5
895.65	2390.5
896.25	2344.5
896.848	2347
897.448	2391
898.045	2465.5
898.645	2426
899.243	2450.5
899.842	2418.5
900.44	2424
901.04	2410
901.637	2407
902.235	2412.5
902.834	2456.5
903.432	2382.5
904.031	2364.5
904.628	2414.5
905.228	2417
905.825	2360
906.422	2398.5
907.022	2449
907.619	2466.5
908.216	2429.5
908.815	2494
909.412	2421.5
910.009	2415
910.608	2401.5
911.205	2479
911.802	2447.5
912.401	2443.5
912.997	2460.5
913.594	2413.5
914.191	2422.5
914.79	2438.5
915.386	2450
915.983	2407.5
916.58	2424.5
917.176	2442.5
917.775	2455.5
918.371	2450.5
918.967	2490.5
919.564	2442
920.16	2446
920.756	2554.5
921.355	2438
921.951	2534
922.547	2452.5
923.143	2460.5
923.739	2432
924.336	2467.5
924.932	2520.5
925.528	2433.5
926.123	2515.5
926.719	2510.5
927.315	2489.5
927.911	2497
928.507	2483.5
929.103	2483
929.698	2551
930.294	2584.5
930.89	2520.5
931.485	2578
932.081	2591
932.676	2592.5
933.272	2543
933.867	2567
934.463	2632
935.058	2629.5
935.653	2637
936.249	2609.5
936.844	2541.5
937.439	2579.5
938.032	2578
938.627	2699
939.222	2671
939.818	2656.5
940.413	2676
941.008	2722.5
941.6	2702
942.195	2701.5
942.79	2678.5
943.385	2760.5
943.98	2749
944.572	2705.5
945.167	2774
945.762	2724
946.357	2721
946.949	2768.5
947.544	2762
948.138	2780
948.73	2855
949.325	2829
949.919	2779.5
950.512	2858
951.106	2825.5
951.7	2808.5
952.292	2862.5
952.887	2888.5
953.481	2933
954.073	2921.5
954.667	2974.5
955.259	2936.5
955.853	2990.5
956.445	2934.5
957.039	3012
957.633	2996
958.225	3028.5
958.818	3061.5
959.41	3093.5
960.004	2969.5
960.596	3068
961.189	3037.5
961.781	3076
962.374	3045.5
962.966	3091
963.557	3088.5
964.151	3212.5
964.742	3169
965.336	3125
965.927	3140.5
966.52	3268
967.112	3121.5
967.703	3266.5
968.296	3282.5
968.887	3260.5
969.478	3382.5
970.071	3354.5
970.662	3322.5
971.253	3335.5
971.846	3353
972.437	3370.5
973.028	3398
973.621	3430.5
974.212	3471.5
974.802	3400.5
975.393	3445
975.986	3325.5
976.576	3457.5
977.167	3474
977.758	3561.5
978.348	3544.5
978.941	3631.5
979.531	3511.5
980.121	3559
980.712	3597.5
981.302	3591.88
981.892	3580.5
982.485	3588.5
983.075	3738.5
983.665	3582
984.255	3608.5
984.845	3624.5
985.435	3678
986.025	3744.5
986.615	3714
987.205	3729.5
987.795	3794.5
988.385	3779.5
988.975	3739.5
989.565	3843
990.154	3800.5
990.744	3863
991.334	3902
991.923	3793.5
992.513	3906.5
993.103	3933.5
993.692	3961.5
994.282	3927.5
994.871	3936
995.46	3933.5
996.05	3960
996.639	4060.5
997.229	4003.5
997.818	3935.5
998.405	3990.5
998.994	3998.5
999.583	3880.5
1000.17	3993.5
1000.76	3984.5
1001.35	3984.5
1001.94	4000.5
1002.53	4047.5
1003.12	3908
1003.7	4032.5
1004.29	4046.5
1004.88	4040
1005.47	3912
1006.06	4073.5
1006.65	4220
1007.23	4124.5
1007.82	4170.5
1008.41	4039.5
1009	4126.5
1009.58	4124
1010.17	4175
1010.76	4053.5
1011.35	4107
1011.94	4108.5
1012.52	4164.5
1013.11	4147.5
1013.7	4235.5
1014.29	4236
1014.87	4187.5
1015.46	4232.5
1016.05	4315.5
1016.63	4250.5
1017.22	4289
1017.81	4315.5
1018.4	4279
1018.98	4220.5
1019.57	4375
1020.16	4320.5
1020.74	4343
1021.33	4265.5
1021.92	4306.5
1022.5	4310
1023.09	4302.5
1023.67	4280.5
1024.26	4265.5
1024.85	4331
1025.44	4316.5
1026.02	4401
1026.61	4261
1027.19	4365.5
1027.78	4215.5
1028.37	4372
1028.95	4446.5
1029.54	4345.5
1030.12	4533.5
1030.71	4398.5
1031.29	4389.5
1031.88	4294
1032.47	4302.5
1033.05	4369.5
1033.64	4401
1034.22	4371.5
1034.81	4495.5
1035.39	4384
1035.98	4386.5
1036.56	4380
1037.15	4361
1037.73	4357.5
1038.32	4427.5
1038.9	4357.5
1039.49	4359.5
1040.07	4407.5
1040.66	4372
1041.24	4284.5
1041.83	4351.63
1042.41	4341.19
1043	4366.17
1043.58	4400.23
1044.17	4439.1
1044.75	4324.2
1045.33	4391.35
1045.92	4289.83
1046.5	4265.26
1047.09	4328.43
1047.67	4342.64
1048.25	4411.79
1048.84	4474.12
1049.42	4389.13
1050.01	4404.45
1050.59	4356.83
1051.17	4454.95
1051.76	4487.91
1052.34	4438.09
1052.93	4381.55
1053.51	4381.16
1054.09	4390.34
1054.68	4356.45
1055.26	4324.56
1055.84	4365.67
1056.42	4407.15
1057.01	4360.71
1057.59	4410.02
1058.17	4397.35
1058.76	4437.71
1059.34	4434.21
1059.92	4394.16
1060.51	4410.22
1061.09	4317.43
1061.67	4386.79
1062.25	4409.88
1062.84	4462.01
1063.42	4435.88
1064	4433.51
1064.58	4344.71
1065.17	4354.45
1065.75	4459.93
1066.33	4376.52
1066.91	4437.38
1067.49	4564.36
1068.08	4436.22
1068.66	4374.93
1069.24	4423.39
1069.82	4479.16
1070.41	4422.47
1070.99	4392.71
1071.57	4524.37
1072.15	4496.2
1072.73	4449.55
1073.31	4487.79
1073.89	4465.37
1074.48	4440.53
1075.06	4437.75
1075.64	4434.25
1076.22	4535.27
1076.8	4461.48
1077.38	4522.2
1077.96	4520.5
1078.55	4502.63
1079.13	4456.69
1079.71	4549.85
1080.29	4589.93
1080.87	4571.24
1081.45	4641.34
1082.03	4601.61
1082.61	4533.94
1083.19	4581.87
1083.77	4614.75
1084.35	4577.37
1084.93	4678.3
1085.51	4688.85
1086.09	4681.34
1086.67	4704.91
1087.25	4713.19
1087.83	4673.9
1088.41	4727.72
1088.99	4690.53
1089.57	4707.17
1090.15	4805.83
1090.73	4845.83
1091.31	4747.68
1091.89	4736.71
1092.47	4815.26
1093.05	4832.46
1093.63	4863.89
1094.21	4893.51
1094.79	4911.02
1095.37	5038.51
1095.95	4963.16
1096.53	4959.51
1097.11	4995.63
1097.69	5015.11
1098.27	4967.63
1098.85	5014.5
1099.42	5125.01
1100	5186.88
1100.58	5171.89
1101.16	5129.7
1101.74	5233.38
1102.32	5231.76
1102.9	5179.89
1103.48	5180.59
1104.05	5157.14
1104.63	5360.12
1105.21	5302.86
1105.79	5386.18
1106.37	5358.27
1106.95	5297.41
1107.52	5361.13
1108.1	5373.14
1108.68	5391.22
1109.26	5429.94
1109.84	5518.36
1110.41	5483.95
1110.99	5456.64
1111.57	5488.82
1112.15	5434.75
1112.73	5462.13
1113.3	5571.75
1113.88	5584.22
1114.46	5584.84
1115.03	5610.13
1115.61	5658.62
1116.19	5599.91
1116.77	5612.07
1117.34	5555.35
1117.92	5609.41
1118.5	5692.4
1119.08	5751.77
1119.65	5662
1120.23	5590.41
1120.81	5594.28
1121.38	5630.25
1121.96	5634.72
1122.54	5738.21
1123.11	5786.8
1123.69	5788.1
1124.27	5791.66
1124.84	5724.84
1125.42	5662.82
1126	5666.15
1126.57	5828.26
1127.15	5719.49
1127.72	5667.04
1128.3	5749.86
1128.88	5723.34
1129.45	5692.73
1130.03	5724.15
1130.6	5686.6
1131.18	5750.04
1131.76	5668.55
1132.33	5768.67
1132.91	5769.56
1133.48	5720.02
1134.06	5687.04
1134.63	5801.13
1135.21	5661.48
1135.78	5771.91
1136.36	5765.24
1136.94	5828.08
1137.51	5890.01
1138.09	5905.54
1138.66	5829.86
1139.24	5772.37
1139.81	5833.03
1140.39	5810.27
1140.96	5756.56
1141.53	5796.48
1142.11	5843.9
1142.68	5765.27
1143.26	5775.87
1143.83	5837.21
1144.41	5717.76
1144.98	5800.42
1145.56	5807.34
1146.13	5852.24
1146.71	5762.22
1147.28	5752.75
1147.85	5794.42
1148.43	5523.64
1149	5622.89
1149.58	5611.18
1150.15	5721.4
1150.73	5663.34
1151.3	5807.1
1151.87	5766.11
1152.45	5720.72
1153.02	5743.68
1153.59	5707.72
1154.17	5617.39
1154.74	5584.44
1155.31	5665.56
1155.89	5685.63
1156.46	5722.77
1157.03	5619.43
1157.61	5617.38
1158.18	5497.98
1158.75	5514.36
1158.97	5441.36
1159.55	5450.36
1160.14	5546.86
1160.72	5695.36
1161.3	5531.86
1161.88	5524.36
1162.46	5547.36
1163.05	5410.36
1163.63	5364.36
1164.21	5565.36
1164.79	5405.36
1165.37	5451.36
1165.95	5440.86
1166.53	5339.36
1167.11	5357.86
1167.7	5283.36
1168.28	5217.36
1168.86	5180.36
1169.44	5337.36
1170.02	5201.86
1170.6	5274.36
1171.18	5120.36
1171.76	5133.86
1172.35	5017.36
1172.93	5068.36
1173.51	5037.36
1174.09	5112.86
1174.67	5152.36
1175.25	5045.86
1175.83	5126.86
1176.41	5082.36
1176.99	5008.36
1177.57	4958.86
1178.15	4997.36
1178.73	5029.36
1179.31	4992.36
1179.89	4973.36
1180.47	4881.36
1181.05	4791.36
1181.63	4807.86
1182.21	4836.86
1182.79	4763.36
1183.37	4833.86
1183.95	4730.86
1184.53	4774.86
1185.11	4734.36
1185.69	4774.36
1186.27	4595.36
1186.85	4628.36
1187.43	4533.36
1188.01	4596.86
1188.58	4484.36
1189.16	4525.86
1189.74	4473.86
1190.32	4464.36
1190.9	4387.86
1191.48	4319.36
1192.06	4335.36
1192.64	4340.86
1193.22	4348.36
1193.8	4324.86
1194.37	4312.36
1194.95	4233.36
1195.53	4216.36
1196.11	4141.86
1196.69	4083.36
1197.27	4182.36
1197.85	4179.36
1198.42	4089.36
1199	4113.36
1199.58	3967.36
1200.16	3958.36
1200.74	3914.86
1201.31	3957.36
1201.89	3954.86
1202.47	3909.36
1203.05	3895.86
1203.63	3804.86
1204.2	3768.86
1204.78	3801.36
1205.36	3575.36
1205.94	3656.36
1206.51	3713.36
1207.09	3758.36
1207.67	3630.36
1208.25	3649.36
1208.82	3535.36
1209.4	3575.36
1209.98	3551.86
1210.56	3472.36
1211.13	3456.36
1211.71	3490.36
1212.29	3458.86
1212.86	3433.36
1213.44	3402.36
1214.02	3345.86
1214.59	3289.86
1215.17	3253.86
1215.75	3236.36
1216.32	3250.86
1216.9	3222.86
1217.48	3189.86
1218.05	3166.86
1218.63	3086.36
1219.21	3100.86
1219.78	3040.86
1220.36	3036.36
1220.93	3001.86
1221.51	3007.86
1222.09	3010.86
1222.66	2986.36
1223.24	2883.86
1223.81	2840.36
1224.39	2790.36
1224.97	2758.36
1225.54	2777.86
1226.12	2675.36
1226.69	2747.36
1227.27	2683.36
1227.84	2674.86
1228.42	2681.36
1228.99	2642.86
1229.57	2635.36
1230.15	2587.36
1230.72	2574.86
1231.3	2592.36
1231.87	2611.36
1232.44	2497.36
1233.02	2580.86
1233.6	2522.86
1234.17	2530.36
1234.75	2496.86
1235.32	2485.36
1235.89	2499.86
1236.47	2475.86
1237.04	2458.36
1237.62	2433.36
1238.19	2443.36
1238.77	2369.86
1239.34	2204.36
1239.92	2358.86
1240.49	2312.36
1241.06	2355.36
1241.64	2286.86
1242.21	2252.36
1242.79	2262.86
1243.36	2253.36
1243.93	2264.36
1244.51	2280.86
1245.08	2215.36
1245.66	2256.86
1246.23	2163.86
1246.8	2222.36
1247.38	2157.86
1247.95	2198.36
1248.52	2130.86
1249.1	2112.36
1249.67	2172.36
1250.24	2132.36
1250.82	2123.86
1251.39	2150.86
1251.96	2123.36
1252.54	2106.36
1253.11	2084.86
1253.68	2089.86
1254.26	2125.86
1254.83	2074.36
1255.4	2088.86
1255.97	2099.86
1256.55	2040.36
1257.12	1981.36
1257.69	2056.36
1258.27	2035.36
1258.84	2061.36
1259.41	2033.36
1259.98	2069.86
1260.55	1996.36
1261.13	2083.36
1261.7	1988.86
1262.27	2029.36
1262.84	2034.36
1263.41	2032.86
1263.99	2047.86
1264.56	2047.86
1265.13	2019.86
1265.7	2043.36
1266.27	2001.36
1266.85	2012.86
1267.42	2046.86
1267.99	1982.36
1268.56	1961.36
1269.13	2057.36
1269.7	1980.36
1270.28	2006.36
1270.85	2006.36
1271.42	2063.86
1271.99	2009.36
1272.56	2007.36
1273.13	2036.86
1273.7	1992.36
1274.27	1953.36
1274.85	2061.86
1275.41	2001.36
1275.99	1998.36
1276.56	2062.86
1277.13	1997.86
1277.7	2067.36
1278.27	1996.86
1278.84	2034.36
1279.41	2028.36
1279.98	2020.86
1280.55	1973.86
1281.12	1966.36
1281.69	1954.36
1282.26	2039.36
1282.83	1910.36
1283.4	1987.86
1283.97	1962.36
1284.54	1956.86
1285.11	1892.36
1285.68	1923.86
1286.25	1873.86
1286.82	1918.36
1287.39	1965.36
1287.96	1908.36
1288.53	1955.36
1289.1	1935.36
1289.67	1982.36
1290.24	1932.86
1290.81	1962.86
1291.38	1995.36
1291.95	1983.86
1292.52	1966.86
1293.09	2054.86
1293.65	1971.36
1294.22	1995.36
1294.79	1978.86
1295.36	2028.86
1295.93	1962.36
1296.5	2018.86
1297.07	2004.36
1297.64	2003.86
1298.21	1914.86
1298.78	1936.86
1299.34	1861.36
1299.91	1942.36
1300.48	2006.86
1301.05	1955.86
1301.62	1851.36
1302.19	1854.36
1302.75	1919.86
1303.32	2026.86
1303.89	2005.36
1304.46	2008.86
1305.03	1992.86
1305.59	1962.36
1306.16	1963.86
1306.73	1980.36
1307.3	1951.36
1307.87	1963.86
1308.43	1956.36
1309	1953.86
1309.57	1975.36
1310.14	1938.36
1310.7	1986.36
1311.27	1879.36
1311.84	1942.36
1312.4	1967.86
1312.97	1945.86
1313.54	2012.36
1314.11	1955.36
1314.67	1898.36
1315.24	1967.36
1315.81	2016.86
1316.38	1955.36
1316.94	1933.36
1317.51	1902.36
1318.08	1959.36
1318.64	1987.86
1319.21	1958.86
1319.77	1994.86
1320.34	1960.86
1320.91	1949.36
1321.48	1982.36
1322.04	1967.36
1322.61	1991.36
1323.18	1904.36
1323.74	1969.86
1324.31	1993.86
1324.87	1963.36
1325.44	1983.36
1326	1996.86
1326.57	1961.86
1327.14	2003.36
1327.7	1965.86
1328.27	1970.86
1328.83	1933.86
1329.4	1934.36
1329.97	2024.36
1330.53	1995.36
1331.1	1948.36
1331.66	1927.86
1332.23	2009.86
1332.79	1956.86
1333.36	1987.36
1333.92	2024.86
1334.49	1991.36
1335.05	1978.36
1335.62	1978.36
1336.18	2022.36
1336.75	1975.86
1337.31	1996.36
1337.88	1951.86
1338.44	1965.36
1339.01	1899.36
1339.57	1997.36
1340.14	2001.36
1340.7	1993.36
1341.27	2002.86
1341.83	1998.36
1342.39	1978.86
1342.96	1976.36
1343.52	2025.36
1344.09	1978.36
1344.65	1992.36
1345.22	2012.86
1345.78	2005.86
1346.35	1960.36
1346.91	1980.36
1347.47	2025.36
1348.04	1989.86
1348.6	1979.36
1349.16	2007.36
1349.73	1929.36
1350.29	2033.36
1350.86	1973.36
1351.42	1944.36
1351.98	1963.86
1352.55	1961.86
1353.11	2014.36
1353.67	2028.86
1354.23	1971.86
1354.8	1963.36
1355.36	1969.36
1355.92	1981.86
1356.49	1998.36
1357.05	2002.86
1357.61	1968.36
1358.18	2012.36
1358.74	2009.36
1359.3	1976.86
1359.87	1976.36
1360.43	2019.86
1360.99	1966.86
1361.55	1993.36
1362.11	1920.36
1362.68	2011.36
1363.24	1969.36
1363.8	2057.36
1364.36	1964.36
1364.93	2012.36
1365.49	2015.86
1366.05	1947.36
1366.61	2036.36
1367.17	1992.36
1367.74	2023.36
1368.3	1999.36
1368.86	2012.36
1369.42	1957.36
1369.98	1955.36
1370.55	2039.36
1371.11	1997.86
1371.67	2047.86
1372.23	2003.36
1372.79	1999.86
1373.35	1997.36
1373.91	2011.36
1374.48	2022.36
1375.04	1991.36
1375.6	1939.36
1376.16	2020.86
1376.72	2066.36
1377.28	2020.86
1377.84	1977.36
1378.4	2003.36
1378.96	2019.36
1379.53	1976.36
1380.09	1988.36
1380.65	2032.36
1381.21	1976.36
1381.77	2016.86
1382.33	2050.36
1382.89	2034.36
1383.45	1986.86
1384.01	1916.86
1384.57	2003.86
1385.13	1919.36
1385.69	2051.36
1386.25	2009.36
1386.81	2066.36
1387.37	2069.36
1387.93	2000.36
1388.49	2058.36
1389.05	2012.36
1389.61	2015.36
1390.17	2026.86
1390.73	1990.36
1391.29	2020.86
1391.85	2019.36
1392.41	2065.86
1392.97	1992.86
1393.53	2026.86
1394.09	2040.36
1394.65	2021.86
1395.21	2003.86
1395.77	2026.36
1396.33	2081.86
1396.88	1973.36
1397.44	2081.36
1398	1988.36
1398.56	2000.86
1399.12	1969.36
1399.68	1946.36
1400.24	1987.36
1400.8	1978.86
1401.36	2005.36
1401.91	2016.36
1402.47	2021.86
1403.03	2017.36
1403.59	2050.36
1404.15	2061.36
1404.71	1986.36
1405.26	2085.86
1405.82	2036.36
1406.38	2082.36
1406.94	2112.36
1407.5	2031.86
1408.06	2055.36
1408.61	2016.36
1409.17	2080.36
1409.73	2011.36
1410.29	2052.36
1410.85	2061.86
1411.4	2064.36
1411.96	2034.36
1412.52	2063.86
1413.08	2017.36
1413.63	2008.86
1414.19	2039.86
1414.75	2034.86
1415.31	2081.86
1415.86	2054.86
1416.42	1991.36
1416.98	2113.36
1417.53	2069.36
1418.09	2029.86
1418.65	2106.36
1419.21	2078.86
1419.76	2097.36
1420.32	2086.86
1420.88	2036.36
1421.43	2143.86
1421.99	2069.86
1422.55	1888.36
1423.1	2106.36
1423.66	2054.36
1424.22	2079.36
1424.77	2071.86
1425.33	2107.86
1425.89	2084.36
1426.44	2086.86
1427	2076.36
1427.55	2076.36
1428.11	2069.36
1428.67	2089.86
1429.22	2054.36
1429.78	2098.36
1430.33	2055.86
1430.89	1973.36
1431.44	2049.36
1432	2080.36
1432.56	2101.36
1433.11	2072.86
1433.67	2016.36
1434.22	2093.86
1434.78	2123.86
1435.34	2157.36
1435.89	2106.86
1436.44	2111.36
1437	2085.36
1437.56	2127.36
1438.11	2123.86
1438.67	2079.36
1439.22	2121.36
1439.78	2124.36
1440.33	2076.36
1440.89	2103.86
1441.44	2180.36
1441.99	2131.86
1442.55	2148.36
1443.11	2101.86
1443.66	2120.86
1444.21	2117.36
1444.77	2155.36
1445.32	2101.86
1445.88	2121.36
1446.43	2078.36
1446.98	2025.36
1447.54	2139.36
1448.09	2106.36
1448.65	2083.36
1449.2	1975.86
1449.76	2094.36
1450.31	2157.36
1450.86	2103.86
1451.42	1889.36
1451.97	2135.86
1452.52	2153.36
1453.08	2157.36
1453.63	2098.36
1454.19	2178.86
1454.74	2121.36
1455.29	2109.36
1455.85	2115.36
1456.4	2155.86
1456.95	2148.86
1457.51	2125.36
1458.06	2095.86
1458.61	2156.36
1459.17	2138.86
1459.72	2119.36
1460.27	2150.36
1460.82	2194.36
1461.38	2139.36
1461.93	2114.86
1462.48	2107.36
1463.04	2089.36
1463.59	2152.36
1464.14	2142.36
1464.69	2117.86
1465.25	2107.36
1465.8	2191.36
1466.35	2153.36
1466.9	2128.86
1467.46	2089.36
1468.01	2120.86
1468.56	2078.36
1469.11	2097.36
1469.66	2063.36
1470.22	1843.36
1470.77	2180.86
1471.32	2103.36
1471.87	2103.36
1472.42	2180.86
1472.98	2156.36
1473.53	2097.36
1474.08	2162.36
1474.63	2185.36
1475.18	2195.86
1475.73	2131.36
1476.28	2186.36
1476.84	2148.36
1477.39	2159.36
1477.94	2135.36
1478.49	2095.36
1479.04	2178.86
1479.59	2114.86
1480.14	2190.36
1480.7	2183.36
1481.25	2137.36
1481.8	2173.36
1482.35	2201.36
1482.9	2107.36
1483.45	2182.36
1484	2153.36
1484.55	2116.36
1485.1	2225.36
1485.65	2133.36
1486.2	2133.86
1486.75	2237.36
1487.3	2143.36
1487.85	2247.36
1488.4	2226.36
1488.95	2215.86
1489.5	2202.86
1490.05	2205.36
1490.6	2219.86
1491.15	2157.86
1491.7	2175.36
1492.25	2152.36
1492.8	2110.36
1493.35	2138.36
1493.9	2181.36
1494.45	2227.36
1495	2156.36
1495.55	2187.36
1496.1	2204.36
1496.65	2193.36
1497.2	2159.86
1497.75	2237.86
1498.3	2210.86
1498.85	2177.86
1499.4	2162.36
1499.95	2187.86
