19.3994	3373.84
20.0758	3523.84
20.7522	3497.34
21.4285	3437.34
22.1048	3538.34
22.7811	3543.34
23.4573	3628.84
24.1334	3604.84
24.8095	3756.34
25.4855	3772.34
26.1615	3871.34
26.8375	3852.34
27.5134	4022.84
28.1893	4057.84
28.8651	4271.84
29.5408	4316.34
30.2166	4504.34
30.8922	4553.84
31.5679	4583.34
32.2434	4682.34
32.919	4843.84
33.5945	4933.34
34.2699	4891.34
34.9453	5142.84
35.6206	5077.34
36.2959	5194.34
36.9712	5332.34
37.6464	5477.34
38.3192	5685.34
38.9943	5749.05
39.6694	5866.84
40.3444	6149.34
41.0194	6142.84
41.6943	6250.34
42.3692	6426.34
43.0417	6439.84
43.7165	6470.34
44.3912	6536.34
45.0659	6639.34
45.7405	6792.34
46.4128	6796.34
47.0874	6935.84
47.7619	7193.34
48.4363	7115.84
49.1084	7029.34
49.7828	7316.34
50.4571	6929.34
51.1314	7328.84
51.8033	7501.34
52.4775	7627.84
53.1516	7616.34
53.8234	7658.34
54.4974	7727.34
55.1714	7601.84
55.843	7583.34
56.5169	7621.34
57.1908	7646.34
57.8623	7771.34
58.536	7775.34
59.2074	7626.34
59.8811	7710.84
60.5547	7646.34
61.2259	7789.84
61.8995	8064.34
62.5706	8031.34
63.2441	8190.34
63.9174	8169.34
64.5885	8033.84
65.2618	8033.34
65.9327	8049.34
66.6059	8179.34
67.2767	8142.84
67.9498	7928.34
68.6206	8087.84
69.2936	8060.34
69.9643	8211.84
70.6372	8262.84
71.3077	8274.34
71.9783	8068.84
72.651	7891.34
73.3215	7979.34
73.9941	7938.34
74.6645	7912.84
75.3371	8330.34
76.0073	8140.34
76.6775	8120.34
77.3499	8074.34
78.02	8101.84
78.6901	8339.34
79.3624	8407.34
80.0324	8137.95
80.7023	8132.36
81.3745	8502.34
82.0443	8310.34
82.7141	8051.84
83.3861	7710.34
84.0558	7848.34
84.7254	8128.84
85.3973	8139.34
86.0668	8004.34
86.7364	8294.34
87.4058	8138.34
88.0775	8039.34
88.7469	8076.34
89.4162	8036.34
90.0855	8139.34
90.7547	8097.84
91.4261	8112.34
92.0953	8032.84
92.7644	7953.34
93.4334	8021.84
94.1024	8088.34
94.7713	8035.34
95.4425	8001.8
96.1114	8050.34
96.7802	7926.34
97.449	8017.84
98.1177	7964.34
98.7863	7980.34
99.455	8113.34
100.124	8024.84
100.792	7893.34
101.461	7929.34
102.131	7855.34
102.8	7830.34
103.468	7736.84
104.136	7725.34
104.805	7932.34
105.473	7624.84
106.141	7686.34
106.809	7528.34
107.477	7698.34
108.145	7714.34
108.813	7627.34
109.481	7891.34
110.147	7866.34
110.814	7720.34
111.482	7779.34
112.15	7917.34
112.818	7719.34
113.485	7658.34
114.153	7706.34
114.821	7561.34
115.488	7506.34
116.156	7589.34
116.821	7449.34
117.488	7576.84
118.155	7904.34
118.823	8069.34
119.49	7991.34
120.157	7984.34
120.822	7679.84
121.489	7467.84
122.156	7370.34
122.823	7338.34
123.49	7338.84
124.155	7350.84
124.822	7208.34
125.488	7376.34
126.155	7429.16
126.82	7224.34
127.486	7397.84
128.153	7405.84
128.817	7200.34
129.484	7260.34
130.15	7299.84
130.817	7095.34
131.481	7388.84
132.147	7371.34
132.811	7317.34
133.478	7274.34
134.144	7227.34
134.808	7205.84
135.474	7241.34
136.14	7127.34
136.804	7241.34
137.47	7074.84
138.133	7128.34
138.799	6904.34
139.463	6965.34
140.129	6814.34
140.795	6991.34
141.458	6944.34
142.124	6941.34
142.787	6911.34
143.453	6890.84
144.116	6954.84
144.781	6903.34
145.445	6848.34
146.11	6758.84
146.773	6918.84
147.436	6821.84
148.101	6735.34
148.764	6869.34
149.429	6765.34
150.092	6831.84
150.757	6822.34
151.42	6728.96
152.083	6731.34
152.748	6737.84
153.41	6615.84
154.075	6723.34
154.738	6617.34
155.4	6637.34
156.065	6620.84
156.727	6608.34
157.39	6495.34
158.054	6500.34
158.717	6576.84
159.379	6553.84
160.041	6534.34
160.705	6484.34
161.367	6336.34
162.03	6464.34
162.692	6347.84
163.356	6357.34
164.018	6479.34
164.679	6357.84
165.341	6372.34
166.005	6324.34
166.667	6150.34
167.329	6201.84
167.99	6227.84
168.652	6247.84
169.313	6433.84
169.977	6309.34
170.639	6200.34
171.3	6186.34
171.961	6289.84
172.623	6225.34
173.284	6286.34
173.945	6201.34
174.606	6162.34
175.267	6163.34
175.931	6089.34
176.592	6190.34
177.253	6073.34
177.914	6112.84
178.575	6185.34
179.236	6131.34
179.896	6184.34
180.557	6194.84
181.218	6084.84
181.879	6059.34
182.539	6047.34
183.2	6056.34
183.86	6169.34
184.521	5919.34
185.181	6042.18
185.839	5954.84
186.5	5984.34
187.16	6017.34
187.82	5979.34
188.48	5868.34
189.141	6069.34
189.801	5956.34
190.461	5936.84
191.121	5956.34
191.779	5984.34
192.439	6009.34
193.098	6037.34
193.758	5980.84
194.418	5947.84
195.078	5851.34
195.735	5858.34
196.395	5945.84
197.055	6099.34
197.714	6022.34
198.374	5819.34
199.031	5909.84
199.691	5925.34
200.35	5934.84
201.009	5917.84
201.666	5942.84
202.326	5906.84
202.985	5787.34
203.642	5794.34
204.301	5786.84
204.96	5777.34
205.617	5914.34
206.276	5921.84
206.935	5607.34
207.591	5816.84
208.25	5878.34
208.909	5930.84
209.566	5670.34
210.224	5869.34
210.881	5966.34
211.539	5892.84
212.196	5923.84
212.854	5927.34
213.513	5837.5
214.169	5818.84
214.827	5897.34
215.483	5830.16
216.142	5862.84
216.798	5794.84
217.456	5880.84
218.112	5807.34
218.77	5812.34
219.426	5848.84
220.084	5996.34
220.74	5801.34
221.398	5885.34
222.053	5930.84
222.709	5916.84
223.367	5791.34
224.022	5843.84
224.68	5918.34
225.336	5813.34
225.991	5673.34
226.649	5842.84
227.304	5717.34
227.961	5740.84
228.617	5713.84
229.272	5725.34
229.929	5850.84
230.584	5841.34
231.239	5769.34
231.897	5693.34
232.551	5715.34
233.206	5865.34
233.861	5885.84
234.518	5906.84
235.173	6021.84
235.828	5842.87
236.482	5813.5
237.139	5842.39
237.794	5821.34
238.449	6019.84
239.103	5998.84
239.757	5965.34
240.414	5897.34
241.069	5998.84
241.723	5927.34
242.377	5898.34
243.031	5971.84
243.686	5894.84
244.342	5756.34
244.996	5868.34
245.65	5797.34
246.304	5873.34
246.958	5972.84
247.612	5932.34
248.266	5919.84
248.92	5986.34
249.573	5954.34
250.227	6022.84
250.881	5925.34
251.535	6013.34
252.188	6010.34
252.842	6024.34
253.495	6036.34
254.149	6011.34
254.802	6003.84
255.456	5928.34
256.109	5959.84
256.762	5997.34
257.415	6102.84
258.069	6139.34
258.722	6082.34
259.375	5999.34
260.028	6066.34
260.681	6079.84
261.334	6036.34
261.987	6067.47
262.64	6061.42
263.29	6078.37
263.943	6071.34
264.596	6158.34
265.249	6061.34
265.901	6184.34
266.554	6183.84
267.204	6133.34
267.857	6179.84
268.509	6131.84
269.162	6079.34
269.814	6096.34
270.464	6224.34
271.117	6085.84
271.769	6198.84
272.421	6139.34
273.071	6124.34
273.723	6167.34
274.375	6178.34
275.025	6168.34
275.677	6254.34
276.329	6206.84
276.979	6258.34
277.631	6288.34
278.283	6214.84
278.932	6300.34
279.584	6422.34
280.236	6299.34
280.885	6265.34
281.537	6272.34
282.188	6409.84
282.838	6326.84
283.489	6252.34
284.138	6388.34
284.79	6326.84
285.439	6361.84
286.09	6388.34
286.739	6355.34
287.39	6380.34
288.041	6292.34
288.69	6380.34
289.341	6542.34
289.99	6410.34
290.639	6345.27
291.29	6354.2
291.939	6457.34
292.589	6359.8
293.238	6389.7
293.889	6283.34
294.537	6338.34
295.188	6387.34
295.836	6269.34
296.485	6197.34
297.135	6237.34
297.784	6370.34
298.434	6467.34
299.082	6636.34
299.73	6609.84
300.381	6637.34
301.029	6547.84
301.677	6620.34
302.327	6609.84
302.975	6431.34
303.623	6574.34
304.271	6608.34
304.921	6610.84
305.568	6645.84
306.216	6552.34
306.866	6708.84
307.513	6645.34
308.161	6628.84
308.809	6739.34
309.456	6767.34
310.106	6818.84
310.753	6618.34
311.4	6660.84
312.048	6686.34
312.695	6730.34
313.344	6803.34
313.992	6846.84
314.639	6851.34
315.286	6676.34
315.933	6645.34
316.58	6818.34
317.227	6801.17
317.874	6540.34
318.521	6943.34
319.17	6994.34
319.816	6564.34
320.463	6880.34
321.11	6862.34
321.757	6843.34
322.403	6961.84
323.05	6956.34
323.696	6938.84
324.343	6900.34
324.989	6944.34
325.636	6755.34
326.282	6934.34
326.928	7078.34
327.574	7133.34
328.221	7038.34
328.867	7064.34
329.511	6971.34
330.157	7032.84
330.803	6991.34
331.449	7003.34
332.095	7103.34
332.741	7010.34
333.387	7068.34
334.032	7186.34
334.678	7044.34
335.322	7131.34
335.967	7024.84
336.613	7269.34
337.259	7226.34
337.904	7300.34
338.547	7110.34
339.193	7196.84
339.838	7290.34
340.484	7303.84
341.129	7296.34
341.772	7372.34
342.417	7473.34
343.062	7440.34
343.705	7319.39
344.351	7252.34
344.996	7056.34
345.641	7455.34
346.283	7091.84
346.928	7336.84
347.573	7086.84
348.216	7490.84
348.861	7227.34
349.505	7469.84
350.148	7524.34
350.793	7604.34
351.435	7621.34
352.08	7542.84
352.724	7542.34
353.367	7612.34
354.011	7471.34
354.653	7621.34
355.298	7577.34
355.94	7730.34
356.584	7724.84
357.226	7658.34
357.87	7732.34
358.512	7766.84
359.156	7760.34
359.798	7791.84
360.442	7766.34
361.084	7887.34
361.728	7945.84
362.37	7846.34
363.013	7845.34
363.655	7854.34
364.299	7905.34
364.94	7934.84
365.582	7812.34
366.225	7907.34
366.867	7964.84
367.51	7928.34
368.152	7870.34
368.793	8000.34
369.436	8215.34
370.078	8146.34
370.719	8067.14
371.362	8074.17
372.003	8150.34
372.644	8125.19
373.287	8242.34
373.928	8324.34
374.569	7847.34
375.21	8309.84
375.853	8255.34
376.493	8143.34
377.134	8127.34
377.775	8405.34
378.418	8340.34
379.058	8463.84
379.699	8402.84
380.339	8380.84
380.98	8435.34
381.62	8459.34
382.263	8517.84
382.903	8377.34
383.543	8418.34
384.183	8596.34
384.823	8676.84
385.464	8624.34
386.104	8553.34
386.744	8428.34
387.386	8661.84
388.026	8717.34
388.666	8699.34
389.306	8728.34
389.945	8760.84
390.585	8623.34
391.225	8679.84
391.865	8803.84
392.504	8917.34
393.144	8740.84
393.784	8960.34
394.423	8940.84
395.063	8902.84
395.702	8806.84
396.341	8869.34
396.981	9088.34
397.62	8997.34
398.259	8771.34
398.896	8974.34
399.536	9023.67
400.175	8975.84
400.814	8607.84
401.453	9141.84
402.092	9042.34
402.731	9247.34
403.37	9278.84
404.006	9140.55
404.645	9153.97
405.284	9165.83
405.923	9195.7
406.562	9382.34
407.2	9411.34
407.837	9418.84
408.475	9291.34
409.114	9443.34
409.752	9334.34
410.388	9389.34
411.027	9421.34
411.665	9320.34
412.301	9621.34
412.94	9478.06
413.578	9341.34
414.216	9325.84
414.852	9427.34
415.49	9600.34
416.128	9566.34
416.764	9744.34
417.402	9676.34
418.04	9656.34
418.676	9516.34
419.314	9597.34
419.949	9808.34
420.587	9765.34
421.225	9841.34
421.86	9983.34
422.498	9847.34
423.133	9932.34
423.771	9764.84
424.406	9817.34
425.043	9751.34
425.679	10088.3
426.316	10096.8
426.951	9877.34
427.589	10032.3
428.224	9902.34
428.861	10046.8
429.496	10268.8
430.133	10229.8
430.768	10407.8
431.405	10371.8
432.04	10371.8
432.674	10322.3
433.311	10398.3
433.946	10575.8
434.583	10703.3
435.217	10602.3
435.852	10747.8
436.489	10738.3
437.123	10629.8
437.758	10513.3
438.394	10672.3
439.028	10881.8
439.663	11000.3
440.299	10801.3
440.933	10726.3
441.568	10691.3
442.202	11033.3
442.838	10901.3
443.472	11001.8
444.106	11146.3
444.74	11212.3
445.376	11204.3
446.01	11215.3
446.644	11165.8
447.277	11144.3
447.911	11396.8
448.547	11404.3
449.181	11348.3
449.814	11376.3
450.448	11532.8
451.081	11348.3
451.715	11381.8
452.348	11497.7
452.984	11498.3
453.617	11692.3
454.251	11621.8
454.884	11723.3
455.517	11455.3
456.15	11621.8
456.784	11537.3
457.417	11784.3
458.05	11824.8
458.683	11929.3
459.316	11789.3
459.949	11921.3
460.582	11899.8
461.214	11835.3
461.847	12015.8
462.48	12147.8
463.113	12176.3
463.745	12091.8
464.378	12025.3
465.011	11989.3
465.643	12030.3
466.276	12012.3
466.906	12168.3
467.538	12235.8
468.171	12611.3
468.803	12426.3
469.435	12372.3
470.068	12069.3
470.7	12363.3
471.33	12296.3
471.962	12567.3
472.594	12584.3
473.226	12353.3
473.858	12575.8
474.488	12280.3
475.12	12374.3
475.752	12498.3
476.384	12717.8
477.013	12825.8
477.645	12711.3
478.277	12910.8
478.908	12607.4
479.538	12255.3
480.169	12361.6
480.801	12720.4
481.43	12700.7
482.062	12757.8
482.693	12823.5
483.322	12850.5
483.954	12825.9
484.585	12876.7
485.214	12890.9
485.845	12969.7
486.474	12941.7
487.105	12967.9
487.736	12801.9
488.365	12792.8
488.996	12777
489.625	13018.9
490.256	12957
490.885	13141.2
491.515	13038.1
492.144	12965.2
492.775	13008.5
493.403	12844
494.034	12756.2
494.662	12765.8
495.293	13080.3
495.921	13114.5
496.552	13092.2
497.18	12808.2
497.81	12639.5
498.439	12662
499.067	12660
499.697	12624.8
500.325	12687.2
500.955	12556.6
501.583	12417.7
502.211	12247.2
502.841	11932.2
503.469	11864.3
504.097	11801.2
504.727	11832.7
505.355	11741
505.982	11823.2
506.61	11640.7
507.24	11433.2
507.867	11381.2
508.495	11380.2
509.124	11299.9
509.752	11279.7
510.379	11191.7
511.007	11090.7
511.634	10934.5
512.263	10719
512.891	10666.6
513.518	10397.9
514.145	10087.5
514.772	9782.98
515.399	10292.7
516.028	10107.6
516.655	9966.81
517.282	9795.43
517.909	9654.95
518.536	9519.96
519.163	9555.8
519.789	9426.44
520.416	9370.36
521.043	9126.5
521.669	8875.56
522.298	8770.63
522.925	8840.85
523.551	8723.64
524.178	8604.82
524.804	8474.91
525.431	8287.39
526.057	8147.6
526.683	7957.11
527.31	7996.56
527.934	7983.31
528.56	7899.44
529.186	7682.05
529.812	7788.85
530.438	7508.64
531.064	7401.02
531.69	7417.41
532.316	7267.87
532.942	7355.6
533.568	7077.54
534.194	6889.24
534.817	6880.67
535.443	6873.05
536.069	6809.61
536.694	6701.24
537.32	6730.29
537.943	6532.26
538.569	6477.22
539.194	6432.44
539.82	6370.17
540.445	6474.37
541.068	6275.48
541.694	6021.67
542.319	6292.21
542.944	6094.18
543.567	6212.25
544.192	5864.73
544.817	5988.96
545.44	6015.14
546.065	5903.28
546.69	5884.83
547.313	5886.75
547.938	5855.83
548.563	5811.35
549.185	5783.91
549.81	5772.22
550.433	5718.86
551.057	5656.97
551.682	5692.79
552.305	5702.96
552.929	5607.86
553.551	5622.22
554.176	5496.46
554.798	5644.09
555.423	5480.11
556.047	5560.63
556.669	5564.61
557.293	5429.57
557.915	5529.17
558.537	5426.56
559.162	5471.56
559.784	5483.21
560.408	5492.8
561.03	5483.9
561.654	5477.3
562.275	5502.42
562.899	5425.19
563.521	5468.27
564.143	5379.62
564.766	5417.84
565.388	5432.61
566.009	5512.84
566.633	5416.72
567.255	5429.1
567.878	5477.03
568.5	5320.74
569.121	5425.55
569.742	5456.13
570.366	5420.88
570.987	5527.72
571.608	5439.79
572.231	5463.23
572.852	5460.73
573.473	5383.29
574.094	5434.03
574.717	5380.42
575.338	5351
575.959	5310.25
576.58	5289.5
577.201	5282.1
577.822	5219.2
578.445	5214.5
579.065	5282.59
579.686	5273.45
580.306	5278.69
580.927	5363.28
581.548	5221.52
582.168	5276.3
582.791	5342.71
583.411	5264.9
584.031	5158.55
584.652	5293.8
585.272	5305.88
585.892	5277.96
586.512	5244.56
587.132	5169.47
587.753	5114.88
588.373	5243.29
588.993	5196.31
589.613	5109.82
590.233	5163.45
590.852	4972.97
591.472	5134.49
592.092	5049.47
592.712	5023.54
593.332	5026.75
593.951	5009.57
594.569	4978.68
595.188	5016.95
595.808	4959.71
596.427	4941.19
597.047	4843.36
597.666	4877.61
598.286	4865.72
598.905	4765.06
599.522	4853.88
600.142	4797.45
600.761	4815.87
601.38	4715.77
601.999	4697.8
602.616	4679.27
603.235	4761.73
603.854	4628.76
604.473	4710.68
605.09	4654.33
605.709	4335.44
606.328	4465.37
606.947	4409.71
607.563	4518.93
608.182	4394.11
608.801	4350.46
609.417	4363.21
610.036	4325.14
610.655	4308.38
611.271	4278.99
611.89	3957.2
612.508	4337.86
613.124	4230.57
613.743	4206.04
614.359	4188.48
614.977	4176.94
615.595	4145.02
616.212	4083.38
616.83	3979.56
617.446	4037.91
618.064	4029.98
618.68	3855.35
619.298	3953.2
619.914	3895.08
620.532	3810.11
621.147	3791.88
621.765	3715.89
622.381	3759.82
622.999	3753.42
623.614	3727.42
624.23	3697.56
624.847	3725.54
625.463	3723.08
626.08	3584.98
626.696	3680.42
627.311	3617.89
627.929	3585.25
628.544	3567.35
629.161	3510.03
629.776	3475.38
630.392	3486.11
631.009	3402.32
631.624	3426.16
632.239	3479.69
632.854	3470.69
633.471	3383.35
634.086	3406.74
634.701	3362.51
635.318	3311.47
635.932	3328.68
636.547	3268.34
637.162	3266.03
637.777	3284.31
638.393	3210.12
639.008	3170.95
639.622	3159.82
640.237	3231.57
640.851	3175.17
641.468	3163.28
642.082	3144.37
642.697	3190.2
643.311	3073.75
643.925	3077.52
644.539	3126.03
645.154	3127.67
645.768	3051.45
646.382	2983.91
646.996	2778.69
647.612	2961.6
648.226	3023.75
648.84	2923.44
649.454	2976.11
650.068	2963.27
650.682	2910.96
651.295	2969.71
651.909	2896.21
652.523	2883.07
653.136	2835.35
653.75	2846.17
654.361	2818.18
654.975	2839.18
655.589	2815.37
656.202	2857.25
656.815	2808.23
657.429	2776.16
658.042	2739.94
658.655	2759.57
659.269	2747.43
659.882	2661.44
660.493	2733.2
661.106	2744.69
661.719	2692.1
662.332	2729.33
662.945	2772.39
663.556	2617.33
664.169	2687.29
664.782	2604.96
665.395	2598.63
666.007	2671.52
666.618	2559.73
667.231	2640.43
667.843	2579.48
668.454	2467.35
669.067	2537.15
669.679	2624.62
670.292	2530.92
670.902	2544.54
671.514	2563.01
672.125	2505.66
672.288	2545.16
672.907	2460.66
673.528	2471.66
674.146	2495.66
674.765	2476.16
675.386	2448.66
676.005	2439.16
676.625	2397.66
677.244	2362.16
677.862	2394.16
678.483	2353.16
679.101	2395.16
679.72	2310.66
680.34	2335.16
680.958	2326.66
681.577	2284.66
682.197	2300.66
682.815	2319.66
683.433	2312.66
684.053	2341.66
684.672	2339.66
685.289	2303.16
685.91	2306.66
686.527	2303.16
687.145	2308.66
687.763	2235.16
688.381	2305.66
689.001	2285.16
689.619	2200.66
690.236	2314.66
690.854	2228.16
691.471	2143.66
692.091	2273.16
692.709	2196.66
693.326	2257.66
693.943	2211.66
694.561	2238.16
695.178	2165.66
695.796	2163.16
696.415	2206.16
697.032	2134.66
697.649	2086.66
698.266	2139.66
698.884	2139.66
699.501	2129.66
700.118	2138.66
700.735	2117.16
701.352	2108.16
701.968	2167.16
702.585	2093.66
703.202	2146.66
703.819	2082.66
704.436	2124.16
705.052	2047.66
705.669	2065.66
706.286	2082.66
706.902	2023.66
707.519	2067.16
708.135	2085.16
708.752	2118.66
709.368	2080.66
709.984	2077.66
710.599	2030.66
711.215	2056.66
711.831	2116.66
712.447	2061.66
713.063	2092.16
713.68	2044.66
714.296	1991.16
714.909	2008.66
715.526	1960.66
716.141	2015.16
716.757	2009.66
717.373	2027.66
717.987	2115.66
718.603	1991.16
719.219	2067.66
719.834	2012.66
720.448	1999.66
721.063	2021.66
721.679	2060.66
722.295	1987.16
722.908	2032.16
723.523	1993.16
724.139	1972.66
724.752	2028.16
725.367	1914.66
725.983	2008.66
726.596	2035.66
727.211	2039.16
727.826	2009.66
728.439	2053.16
729.054	2021.66
729.667	2050.66
730.282	2067.16
730.897	2056.66
731.51	1987.66
732.125	1982.66
732.738	2014.66
733.353	2017.16
733.965	1973.16
734.58	2026.16
735.195	2026.66
735.807	1999.66
736.422	1997.16
737.034	1986.66
737.647	1994.66
738.261	1987.16
738.874	1959.66
739.488	2041.16
740.1	2009.66
740.715	1988.66
741.327	1985.66
741.941	1907.66
742.553	1893.66
743.165	1894.16
743.779	1898.66
744.391	1934.66
745.005	1973.66
745.617	2011.16
746.229	1898.16
746.843	1981.66
747.455	1960.66
748.067	1982.66
748.68	2015.66
749.292	2025.66
749.904	2029.16
750.515	2026.66
751.129	2022.16
751.74	1955.16
752.352	2012.66
752.965	2012.16
753.577	2042.66
754.188	2014.16
754.799	2056.16
755.411	1980.66
756.024	2041.66
756.635	2057.66
757.246	2017.16
757.857	2025.16
758.468	1989.66
759.079	2036.66
759.692	2044.66
760.303	2024.16
760.914	2011.66
761.525	2076.16
762.136	2012.66
762.747	2122.66
763.357	2077.16
763.968	2060.16
764.579	2068.16
765.189	2096.16
765.802	2062.66
766.413	2054.66
767.023	2092.66
767.633	2092.66
768.244	2096.66
768.854	2095.16
769.465	2070.66
770.075	2137.16
770.685	2124.16
771.295	2048.66
771.906	2096.16
772.514	2140.66
773.124	2100.66
773.734	2158.16
774.344	2076.16
774.954	2110.16
775.564	2075.66
776.173	2097.66
776.783	2109.66
777.393	2169.16
778.003	2151.66
778.61	2202.16
779.22	2218.66
779.83	2070.66
780.439	2133.66
781.049	2121.16
781.659	2164.66
782.266	2202.16
782.875	2135.66
783.485	2159.16
784.094	2140.66
784.701	2165.66
785.311	2103.16
785.92	2160.66
786.529	2154.16
787.136	2196.66
787.745	2164.16
788.354	2154.16
788.961	2145.66
789.57	2196.16
790.179	2189.66
790.786	2156.86
791.395	2200.66
792.004	2191.66
792.611	2203.66
793.219	2157.16
793.828	2188.16
794.435	2155.66
795.043	2126.66
795.65	2153.66
796.258	2165.66
796.867	2178.16
797.473	2022.66
798.082	2078.66
798.688	2152.66
799.296	2151.16
799.903	2147.16
800.511	2116.16
801.117	2145.66
801.725	2067.16
802.331	2063.66
802.94	2128.66
803.546	2058.66
804.154	2098.16
804.759	2077.16
805.367	2051.16
805.973	2090.16
806.579	2043.66
807.187	2038.66
807.793	2039.66
808.4	1999.66
809.006	1999.16
809.612	2030.66
810.219	1993.16
810.825	2029.66
811.43	1938.66
812.038	1910.66
812.643	1964.66
813.249	2024.16
813.856	1944.16
814.461	2021.66
815.067	1961.66
815.672	1939.16
816.279	1936.66
816.884	1910.16
817.489	1887.66
818.094	1902.66
818.701	1856.66
819.306	1881.66
819.911	1820.66
820.516	1835.16
821.121	1783.16
821.728	1803.16
822.333	1755.16
822.937	1811.66
823.542	1730.16
824.147	1740.16
824.751	1744.16
825.358	1751.16
825.962	1721.66
826.567	1671.66
827.171	1687.66
827.776	1659.16
828.38	1647.66
828.984	1647.66
829.589	1604.66
830.193	1606.66
830.797	1561.66
831.401	1551.66
832.006	1574.66
832.61	1566.66
833.214	1498.16
833.818	1533.16
834.422	1509.16
835.026	1455.66
835.63	1468.66
836.233	1478.16
836.837	1462.66
837.441	1456.16
838.045	1374.66
838.648	1438.16
839.252	1413.83
839.856	1397.16
840.457	1383.66
841.061	1370.16
841.664	1366.66
842.268	1359.16
842.871	1362.16
843.474	1311.16
844.076	1349.66
844.679	1282.66
845.282	1267.16
845.886	1314.66
846.489	1318.16
847.09	1294.66
847.693	1214.66
848.296	1287.16
848.899	1296.16
849.5	1260.16
850.103	1274.16
850.706	1270.66
851.309	1290.16
851.909	1214.16
852.512	1257.66
853.115	1285.16
853.716	1249.16
854.318	1249.66
854.921	1269.66
855.521	1275.66
856.124	1228.66
856.727	1192.66
857.327	1254.66
857.929	1205.16
858.53	1226.66
859.132	1238.16
859.734	1206.66
860.335	1220.16
860.937	1203.16
861.537	1215.16
862.139	1211.16
862.739	1217.66
863.341	1202.66
863.941	1224.16
864.543	1026.16
865.143	1219.16
865.745	1178.66
866.345	1211.66
866.947	1213.66
867.546	1201.16
868.148	1197.66
868.748	1230.16
869.347	1238.66
869.949	1188.66
870.549	1221.16
871.15	1232.16
871.75	1193.66
872.349	1260.16
872.951	1228.16
873.55	1086.16
874.149	1212.16
874.751	1274.66
875.35	1085.66
875.949	1225.16
876.55	1228.16
877.149	1221.66
877.748	1241.16
878.347	1238.16
878.948	1244.16
879.547	1221.16
880.146	1237.16
880.745	1220.66
881.346	1230.66
881.945	1219.66
882.544	1233.66
883.142	1247.66
883.743	1246.66
884.342	1265.66
884.94	1274.16
885.539	1256.16
886.137	1245.66
886.736	1221.16
887.334	1076.66
887.935	1250.66
888.533	1226.66
889.132	1261.66
889.73	1225.16
890.328	1268.66
890.926	1238.16
891.525	1241.16
892.123	1249.66
892.721	1252.66
893.319	1248.66
893.917	1253.16
894.515	1242.16
895.113	1252.66
895.711	1271.66
896.309	1272.16
896.906	1263.16
897.504	1210.66
898.102	1290.16
898.7	1273.66
899.297	1264.66
899.895	1280.66
900.492	1262.66
901.09	1265.16
901.688	1282.16
902.283	1284.66
902.88	1285.16
903.478	1301.16
904.075	1286.66
904.672	1288.16
905.27	1286.16
905.867	1323.66
906.462	1312.16
907.059	1305.66
907.656	1281.66
908.254	1280.66
908.851	1300.16
909.446	1244.66
910.043	1338.66
910.639	1306.16
911.236	1324.66
911.831	1187.16
912.428	1328.16
913.025	1333.66
913.619	1338.66
914.216	1331.66
914.813	1318.16
915.407	1306.66
916.004	1389.16
916.6	1380.66
917.195	1383.66
917.791	1343.16
918.388	1322.66
918.982	1378.16
919.578	1343.66
920.173	1368.66
920.769	1429.16
921.365	1360.66
921.959	1312.16
922.556	1375.5
923.15	1438.68
923.746	1397.82
924.34	1410.16
924.936	1415.98
925.53	1426.33
926.126	1443.64
926.719	1456.46
927.315	1408.78
927.909	1428.06
928.505	1468.87
929.098	1429.08
929.694	1421.73
930.288	1428.39
930.881	1471.21
931.477	1481.69
932.07	1474.36
932.666	1302.3
933.259	1487.55
933.853	1490.56
934.448	1499.43
935.041	1546.25
935.635	1580.66
936.23	1525.22
936.823	1554.62
937.416	1535.29
938.011	1527.49
938.604	1583.31
939.197	1562.15
939.79	1551.9
940.385	1543.77
940.978	1565.15
941.571	1602.1
942.164	1608.75
942.759	1603.67
943.352	1594.03
943.944	1639.75
944.537	1684.54
945.13	1606.23
945.724	1683.6
946.317	1673.88
946.909	1707.59
947.502	1697.16
948.094	1670.21
948.687	1706.8
949.279	1746.4
949.873	1744.2
950.466	1721.24
951.058	1780.44
951.65	1769.79
952.242	1792.39
952.835	1728.2
953.427	1805.78
954.019	1805.92
954.611	1828.58
955.203	1805.73
955.795	1797
956.387	1860.47
956.978	1777.06
957.57	1757.15
958.162	1784.55
958.754	1898.49
959.346	1786.58
959.937	1875.49
960.529	1898.21
961.121	1905.12
961.712	1936.62
962.302	1954.41
962.893	1867.77
963.484	1976.72
964.076	1978.91
964.667	1995.39
965.259	1958.34
965.85	2006.07
966.439	2002.39
967.03	2003.07
967.622	2001.73
968.213	2052.31
968.804	2080.39
969.393	2047.65
969.984	2063.96
970.575	2104.71
971.166	2075.43
971.755	1991.41
972.346	2139.87
972.936	2149.03
973.527	2108.85
974.116	2164.82
974.707	2109.22
975.297	2130.8
975.886	2147.18
976.477	2174.16
977.067	2176.44
977.656	2161.66
978.246	2235.71
978.835	2175.41
979.425	2209.26
980.015	2176.84
980.604	2201.54
981.194	2235.48
981.782	2271.01
982.372	2227.12
982.961	2264.69
983.551	2110.38
984.141	2269.85
984.729	2277.24
985.319	2262.1
985.907	2312.87
986.497	2332.23
987.085	2336.78
987.673	2373.18
988.263	2309.81
988.85	2376.84
989.44	2387.67
990.028	2394.47
990.617	2349.67
991.205	2434.04
991.793	2370.48
992.382	2478.55
992.97	2463.17
993.559	2519.66
994.147	2569.16
994.734	2441.68
995.323	2480.91
995.911	2475.31
996.498	2549.76
997.087	2586.35
997.675	2518.55
998.262	2599.52
998.849	2559.26
999.438	2591.47
1000.03	2607.66
1000.61	2619.28
1001.2	2645.81
1001.79	2614.05
1002.37	2666.39
1002.96	2702.43
1003.55	2678.02
1004.14	2669.47
1004.72	2591.98
1005.31	2711.34
1005.9	2723.13
1006.48	2738.99
1007.07	2788.38
1007.66	2813.96
1008.25	2780.23
1008.83	2788.9
1009.42	2844.71
1010.01	2834.15
1010.59	2880.93
1011.18	2922.71
1011.76	2924.83
1012.35	2902.52
1012.94	2905.9
1013.52	2950.49
1014.11	2934.63
1014.7	2874.29
1015.28	2932.62
1015.87	2956.81
1016.45	2986.56
1017.04	2986.08
1017.63	3037.23
1018.21	3097.74
1018.8	3053.58
1019.38	3153.71
1019.97	3234.41
1020.55	3238.75
1021.14	3306.3
1021.73	3318.83
1022.31	3364.75
1022.89	3296.32
1023.48	3357.34
1024.07	3432.51
1024.65	3388.5
1025.24	3392.99
1025.82	3514.96
1026.41	3469.43
1026.99	3560.45
1027.58	3574.43
1028.16	3554.88
1028.74	3664.69
1029.33	3710.58
1029.91	3729.56
1030.5	3819.52
1031.08	3634.57
1031.67	3819.61
1032.25	3837.17
1032.84	3845.55
1033.42	3905.4
1034.01	3990.59
1034.59	3900.21
1035.17	4022.61
1035.76	3896.71
1036.34	4056.92
1036.93	4119.17
1037.51	4150.85
1038.09	4220.65
1038.68	4245.57
1039.26	4354.18
1039.84	4349.59
1040.43	4446.33
1041.01	4468.01
1041.6	4396.17
1042.18	4299.37
1042.76	4437.24
1043.34	4555.4
1043.93	4582.87
1044.51	4698.84
1045.09	4685.56
1045.68	4640.97
1046.26	4738.76
1046.84	4775.08
1047.43	4761.9
1048.01	4826.48
1048.59	4933.23
1049.17	4875.18
1049.76	4917.78
1050.34	5035.56
1050.92	4955.99
1051.51	5120.81
1052.09	5058.68
1052.67	5140.69
1053.25	5030.66
1053.83	5179.39
1054.42	5136.37
1055	5221.56
1055.58	5162.13
1056.16	5090.5
1056.74	5249.63
1057.33	5417.34
1057.91	5323.95
1058.49	5408.79
1059.07	5509.1
1059.65	5482.28
1060.24	5502.35
1060.82	5240.51
1061.4	5641.21
1061.98	5611.16
1062.56	5602.72
1063.14	5563.48
1063.72	5681.69
1064.3	5595.06
1064.89	5630.71
1065.47	5600.12
1066.05	5611.08
1066.63	5672.26
1067.21	5811.73
1067.79	5818.39
1068.37	5836.38
1068.95	5795.07
1069.53	5773.18
1070.11	5780.48
1070.69	5783.99
1071.27	5805.58
1071.86	5992.32
1072.44	5823.01
1073.02	5846.46
1073.6	5815.51
1074.18	5871.58
1074.76	5885.18
1075.34	5838.92
1075.92	5820.42
1076.5	6003.59
1077.08	6066.43
1077.66	6106.34
1078.24	5974.69
1078.82	5969.18
1079.4	5914.36
1079.98	5957.72
1080.55	6046.87
1081.13	6014.96
1081.71	6090.61
1082.29	6083.17
1082.87	6200.41
1083.45	5992.02
1084.03	6007.36
1084.61	6030.86
1085.19	6014.16
1085.77	6101.67
1086.35	6046.51
1086.93	6151.37
1087.51	6062.11
1088.09	5888.95
1088.67	5839.05
1089.24	5953.73
1089.82	6062.7
1090.4	6103.66
1090.98	6093.17
1091.56	6036.84
1092.14	6015.54
1092.71	6020.78
1093.29	5979.51
1093.87	5977.68
1094.45	6063.26
1095.03	6032.18
1095.61	6045.84
1096.18	6163.29
1096.76	6045.51
1097.34	6044.43
1097.92	5926.48
1098.49	5940.08
1099.04	6022.58
1099.63	5926.58
1100.22	5927.58
1100.8	5879.08
1101.39	5991.08
1101.97	5775.08
1102.56	5867.58
1103.15	5764.08
1103.73	5861.58
1104.31	5872.08
1104.9	5832.08
1105.49	5757.08
1106.07	5329.58
1106.66	5791.58
1107.24	5608.58
1107.83	5224.08
1108.41	5641.58
1109	5699.58
1109.58	5461.08
1110.17	5590.58
1110.75	5586.58
1111.33	5483.08
1111.92	5404.08
1112.5	5403.58
1113.09	5331.58
1113.67	5280.58
1114.26	5428.58
1114.84	5487.58
1115.43	5402.08
1116.01	5350.08
1116.59	5302.58
1117.18	5250.08
1117.76	5393.58
1118.35	5283.58
1118.93	5346.58
1119.51	5206.08
1120.1	5318.08
1120.68	5219.58
1121.27	5093.08
1121.85	5170.58
1122.43	5117.58
1123.02	5100.58
1123.6	5123.08
1124.18	4863.08
1124.77	5023.58
1125.35	4987.58
1125.93	4829.08
1126.52	4810.58
1127.1	4812.08
1127.68	4997.08
1128.26	4839.08
1128.85	4882.58
1129.43	4736.08
1130.01	4677.08
1130.6	4710.08
1131.18	4273.08
1131.76	4664.58
1132.34	4644.08
1132.93	4616.58
1133.51	4588.08
1134.09	4604.08
1134.67	4471.08
1135.26	4315.08
1135.84	4320.08
1136.42	4387.58
1137	4396.08
1137.59	4368.08
1138.17	4379.08
1138.75	4315.58
1139.33	4309.08
1139.91	4200.08
1140.49	4172.08
1141.08	4132.58
1141.66	4181.58
1142.24	4217.58
1142.82	4147.58
1143.4	4078.08
1143.99	4012.58
1144.57	4018.08
1145.15	3916.58
1145.73	3891.08
1146.31	3992.58
1146.89	3882.08
1147.47	3865.06
1148.05	3999.08
1148.64	3800.58
1149.22	3682.08
1149.8	3785.08
1150.38	3645.58
1150.96	3689.58
1151.54	3524.08
1152.12	3693.58
1152.7	3660.58
1153.28	3523.58
1153.86	3497.08
1154.44	3526.11
1155.02	3505.58
1155.6	3521.58
1156.18	3385.58
1156.76	3396.08
1157.34	3460.58
1157.92	3356.58
1158.5	3263.08
1159.08	3311.58
1159.66	3291.08
1160.24	3329.58
1160.82	3341.08
1161.4	3365.58
1161.98	3196.08
1162.56	3222.08
1163.14	3169.08
1163.72	3102.08
1164.3	3115.08
1164.88	3132.58
1165.46	3053.08
1166.04	3083.58
1166.62	3089.08
1167.2	2979.08
1167.78	2901.58
1168.36	2878.08
1168.94	2895.08
1169.52	2886.6
1170.09	2762.58
1170.67	2723.08
1171.25	2691.08
1171.83	2608.58
1172.41	2688.08
1172.99	2673.08
1173.57	2721.58
1174.15	2738.08
1174.72	2717.08
1175.3	2437.58
1175.88	2756.08
1176.46	2669.58
1177.04	2587.08
1177.62	2590.08
1178.19	2587.58
1178.77	2567.08
1179.35	2563.08
1179.93	2565.58
1180.51	2529.58
1181.08	2460.58
1181.66	2417.08
1182.24	2397.08
1182.82	2446.58
1183.4	2355.08
1183.97	2410.58
1184.55	2362.58
1185.13	2322.58
1185.7	2300.08
1186.28	2266.58
1186.86	2301.58
1187.44	2227.58
1188.02	2239.58
1188.59	2206.08
1189.17	2215.58
1189.75	2158.58
1190.32	2212.08
1190.9	2178.58
1191.48	2159.58
1192.05	2159.58
1192.63	2089.58
1193.21	2109.58
1193.78	2024.08
1194.36	2098.08
1194.94	2043.58
1195.51	2023.08
1196.09	1997.58
1196.67	2012.58
1197.24	2013.08
1197.82	1952.58
1198.4	1875.58
1198.97	1876.08
1199.55	1918.08
1200.12	1871.08
1200.7	1935.08
1201.28	1922.08
1201.85	1825.08
1202.43	1791.08
1203	1866.58
1203.58	1822.58
1204.16	1864.58
1204.73	1882.58
1205.31	1810.58
1205.88	1777.58
1206.46	1737.58
1207.03	1684.08
1207.61	1734.58
1208.18	1725.58
1208.76	1641.08
1209.33	1712.08
1209.91	1691.58
1210.48	1647.58
1211.06	1657.08
1211.63	1645.08
1212.21	1666.08
1212.78	1699.08
1213.36	1662.58
1213.93	1602.08
1214.51	1535.08
1215.08	1556.08
1215.66	1551.58
1216.23	1563.08
1216.8	1601.58
1217.38	1525.58
1217.95	1473.58
1218.53	1466.08
1219.1	1496.08
1219.68	1471.08
1220.25	1327.08
1220.83	1476.08
1221.4	1484.08
1221.97	1447.08
1222.55	1452.08
1223.12	1439.11
1223.69	1414.08
1224.27	1446.08
1224.84	1419.08
1225.41	1426.58
1225.99	1437.08
1226.56	1411.08
1227.13	1400.08
1227.71	1409.08
1228.28	1381.08
1228.85	1332.08
1229.43	1364.58
1230	1328.58
1230.57	1342.08
1231.15	1272.08
1231.72	1368.58
1232.29	1271.08
1232.87	1316.08
1233.44	1279.08
1234.01	1217.08
1234.58	1280.08
1235.16	1294.08
1235.73	1244.58
1236.3	1273.08
1236.87	1204.08
1237.45	1274.08
1238.02	1237.08
1238.59	1258.08
1239.16	1254.58
1239.74	1206.08
1240.31	1243.58
1240.88	1273.08
1241.45	1255.08
1242.03	1216.58
1242.6	1220.58
1243.17	1242.08
1243.74	1219.58
1244.31	1229.08
1244.88	1165.08
1245.46	1218.08
1246.03	1186.08
1246.6	1188.08
1247.17	1192.08
1247.74	1238.08
1248.31	1233.08
1248.88	1226.08
1249.45	1242.08
1250.03	1208.08
1250.6	1198.08
1251.17	1190.08
1251.74	1155.08
1252.31	1185.08
1252.88	1175.08
1253.45	1135.08
1254.02	1195.58
1254.59	1153.08
1255.17	1210.08
1255.74	1205.08
1256.31	1179.58
1256.88	1133.08
1257.45	1167.58
1258.02	1210.58
1258.59	1188.08
1259.16	1054.08
1259.73	1168.08
1260.3	946.081
1260.87	1082.08
1261.44	1205.08
1262.01	1162.08
1262.58	1178.58
1263.15	1194.08
1263.72	1134.08
1264.29	1172.08
1264.86	1168.08
1265.43	1063.58
1266	1135.58
1266.57	1180.08
1267.14	1176.08
1267.71	1142.08
1268.28	1183.58
1268.85	1188.08
1269.41	1122.08
1269.98	1164.58
1270.55	1172.58
1271.12	1181.08
1271.69	1178.08
1272.26	1170.08
1272.83	1168.08
1273.4	1153.08
1273.97	1146.08
1274.54	1196.58
1275.1	1152.08
1275.67	1188.08
1276.24	1169.08
1276.81	1175.58
1277.38	1152.08
1277.95	1127.08
1278.52	1121.08
1279.09	1155.08
1279.65	1172.58
1280.22	1164.58
1280.79	1215.08
1281.36	1139.08
1281.93	1145.08
1282.49	1097.08
1283.06	1219.08
1283.63	1177.08
1284.2	1185.08
1284.77	1177.08
1285.33	1170.58
1285.9	1094.58
1286.47	1146.08
1287.04	1154.58
1287.6	1141.08
1288.17	1128.08
1288.74	1182.58
1289.31	1171.58
1289.87	1126.08
1290.44	1009.08
1291.01	1128.08
1291.58	1156.08
1292.14	1167.58
1292.71	1152.08
1293.28	1134.08
1293.84	1155.58
1294.41	1184.58
1294.98	1146.08
1295.54	1148.08
1296.11	1180.58
1296.68	1163.58
1297.25	1132.08
1297.81	1170.08
1298.38	1187.08
1298.94	1168.08
1299.51	1164.08
1300.08	1180.58
1300.64	1167.08
1301.21	1171.58
1301.78	1142.08
1302.34	1177.08
1302.91	1161.08
1303.47	1140.08
1304.04	1176.08
1304.61	1184.58
1305.17	1206.58
1305.74	1173.08
1306.3	1191.08
1306.87	1186.08
1307.43	1142.08
1308	1170.58
1308.57	1136.08
1309.13	1157.58
1309.7	1160.08
1310.26	1047.58
1310.83	1131.08
1311.39	1184.08
1311.96	1237.08
1312.52	1139.08
1313.09	1156.08
1313.65	1176.08
1314.22	1177.58
1314.78	1190.58
1315.35	1190.08
1315.91	1177.08
1316.48	1142.08
1317.04	1199.58
1317.61	1122.08
1318.17	1146.08
1318.74	1157.08
1319.3	1216.08
1319.86	1162.08
1320.43	1188.58
1320.99	1131.08
1321.56	1173.08
1322.12	1124.08
1322.68	1195.58
1323.25	1205.58
1323.81	1208.08
1324.38	1206.58
1324.94	1179.08
1325.51	1177.58
1326.07	1129.08
1326.63	1146.08
1327.2	1179.58
1327.76	1151.08
1328.32	1234.08
1328.89	1153.08
1329.45	1205.58
1330.01	1254.58
1330.58	1106.08
1331.14	1174.08
1331.7	1134.08
1332.27	1218.58
1332.83	1159.08
1333.39	1203.58
1333.96	1217.08
1334.52	1089.08
1335.08	1175.08
1335.65	1187.08
1336.21	1192.08
1336.77	1187.08
1337.33	1182.58
1337.9	1188.58
1338.46	1204.08
1339.02	1172.08
1339.58	1183.08
1340.15	1184.08
1340.71	1197.08
1341.27	1201.08
1341.83	1194.08
1342.4	1192.08
1342.96	1196.58
1343.52	1208.58
1344.08	1229.58
1344.64	1196.08
1345.21	1174.08
1345.77	1184.08
1346.33	1198.08
1346.89	1195.08
1347.45	1133.08
1348.01	1198.08
1348.58	1226.08
1349.14	1117.08
1349.7	1152.08
1350.26	1233.58
1350.82	1225.58
1351.38	1236.08
1351.95	1204.08
1352.51	1221.08
1353.07	1181.08
1353.63	1117.08
1354.19	1184.08
1354.75	950.081
1355.31	1202.08
1355.87	1230.08
1356.43	1169.08
1357	1181.08
1357.56	1181.08
1358.12	1172.08
1358.68	1158.08
1359.24	1216.58
1359.8	1209.08
1360.36	1209.08
1360.92	1232.08
1361.48	1221.08
1362.04	1174.08
1362.6	1190.08
1363.16	1266.08
1363.72	1156.08
1364.28	1142.08
1364.84	1197.08
1365.4	1220.58
1365.96	1203.08
1366.52	1180.08
1367.08	1212.08
1367.64	1200.08
1368.2	1212.08
1368.76	1246.08
1369.32	1243.08
1369.88	1207.08
1370.44	1217.08
1371	1223.08
1371.56	1204.08
1372.11	1133.08
1372.67	1186.08
1373.23	1260.58
1373.79	1247.58
1374.35	1227.08
1374.91	1222.58
1375.47	1096.08
1376.03	1163.08
1376.59	1196.08
1377.15	1209.08
1377.7	1187.08
1378.26	1187.08
1378.82	1037.58
1379.38	1217.08
1379.94	1237.08
1380.5	1194.08
1381.06	1231.58
1381.61	1220.08
1382.17	1211.08
1382.73	1209.08
1383.29	1172.08
1383.85	1230.08
1384.41	1201.08
1384.96	1181.08
1385.52	1224.08
1386.08	1206.08
1386.64	1203.58
1387.2	1245.58
1387.75	1203.08
1388.31	1233.08
1388.87	1161.08
1389.43	1145.08
1389.98	1231.08
1390.54	1196.08
1391.1	1231.08
1391.66	1229.08
1392.22	1216.08
1392.77	1202.08
1393.33	1250.58
1393.89	1230.08
1394.44	1176.08
1395	1232.58
1395.56	1080.08
1396.12	1247.58
1396.67	1181.08
1397.23	1241.08
1397.79	1250.08
1398.34	1181.08
1398.9	1175.08
1399.46	1176.08
1400.01	1228.58
1400.57	1265.08
1401.12	1189.08
1401.68	1228.08
1402.24	1204.08
1402.79	1229.08
1403.35	1206.08
1403.91	1220.58
1404.46	1190.08
1405.02	1177.08
1405.57	1215.08
1406.13	1213.58
1406.69	1198.08
1407.24	1197.08
1407.8	1201.58
1408.36	1206.08
1408.91	1230.08
1409.47	1233.08
1410.02	1201.08
1410.58	1215.58
1411.13	1191.08
1411.69	1259.08
1412.24	1240.58
1412.8	1250.08
1413.35	1205.58
1413.91	1209.08
1414.46	1201.58
1415.02	1231.08
1415.57	1218.08
1416.13	1221.08
1416.68	1208.08
1417.24	1204.08
1417.8	1256.08
1418.35	1246.08
1418.91	1233.58
1419.46	1018.08
1420.01	1223.58
1420.57	1230.08
1421.12	1188.08
1421.68	1163.08
1422.23	1181.08
1422.79	1247.58
1423.34	1148.08
1423.89	1195.58
1424.45	1196.08
1425	1178.08
1425.56	1227.08
1426.11	1215.08
1426.67	1183.08
1427.22	1227.58
1427.77	1228.08
1428.33	1207.08
1428.88	1262.58
1429.43	1180.08
1429.99	1252.58
1430.54	1148.08
1431.09	1249.08
1431.65	1251.08
1432.2	1240.58
1432.76	1224.58
1433.31	1245.58
1433.86	1230.08
1434.42	1206.08
1434.97	1240.58
1435.52	1207.08
1436.07	1228.08
1436.63	1255.08
1437.18	1247.58
1437.73	1257.08
1438.29	1260.58
1438.84	1244.08
1439.39	1210.08
1439.95	1161.58
1440.5	1261.58
1441.05	1255.58
1441.6	1247.08
1442.15	1247.08
1442.71	1132.58
1443.26	1218.58
1443.81	1202.08
1444.36	1201.08
1444.92	1283.58
1445.47	1247.58
1446.02	1287.58
1446.57	1228.08
1447.13	1258.08
1447.68	1200.08
1448.23	1183.08
1448.78	1240.08
1449.33	1226.08
1449.88	1275.08
1450.44	1256.08
1450.99	1215.08
1451.54	1264.08
1452.09	1283.08
1452.64	1255.58
1453.19	1225.08
1453.74	1247.58
1454.3	1269.08
1454.85	1275.08
1455.4	1258.08
1455.95	1262.08
1456.5	1260.08
1457.05	1192.08
1457.6	1267.08
1458.15	1215.08
1458.7	1259.08
1459.25	1213.08
1459.8	1256.58
1460.36	1192.08
1460.91	1268.08
1461.46	1238.08
1462.01	1301.08
1462.56	1290.08
1463.11	1309.58
1463.66	1249.08
1464.21	1230.08
1464.76	1256.08
1465.31	1245.08
1465.86	1248.08
1466.41	1259.08
1466.96	1283.58
1467.51	1165.58
1468.06	1258.08
1468.61	1283.08
1469.16	1254.08
1469.71	1276.58
1470.26	1246.08
1470.81	1263.08
1471.36	1271.58
1471.91	1250.58
1472.46	1242.08
1473.01	1255.08
1473.56	1310.58
1474.11	1258.08
1474.66	1275.08
1475.2	1301.58
1475.75	1246.08
1476.3	1240.08
1476.85	1248.08
1477.4	1213.08
1477.95	1293.58
1478.5	1277.08
1479.05	1251.08
1479.6	1260.58
1480.15	1244.08
1480.7	1288.08
1481.24	1266.58
1481.79	1145.08
1482.34	1118.08
1482.89	1286.08
1483.44	1259.08
1483.99	1252.08
1484.53	1263.58
1485.08	1279.08
1485.63	1269.58
1486.18	1270.58
1486.73	1259.08
1487.27	1163.58
1487.82	1257.08
1488.37	1312.58
1488.92	1284.08
1489.47	1293.08
1490.01	1277.08
1490.56	1255.08
1491.11	1270.08
1491.66	1274.08
1492.21	1286.58
1492.75	1321.08
1493.3	1317.58
1493.85	1302.08
1494.39	1278.08
1494.94	1266.08
1495.49	1322.58
1496.04	1300.08
1496.58	1271.08
1497.13	1298.08
1497.68	1306.08
1498.22	1331.08
1498.77	1283.08
1499.32	1258.08
1499.87	1255.08