19.3994	3854.83
20.0758	4105.33
20.7522	4176.83
21.4285	4375.83
22.1048	4336.83
22.7811	4335.83
23.4573	4441.33
24.1334	4409.83
24.8095	4644.33
25.4855	4776.33
26.1615	4876.83
26.8375	4968.33
27.5134	5157.83
28.1893	5209.83
28.8651	5316.83
29.5408	5408.83
30.2166	5532.83
30.8922	5724.83
31.5679	5650.83
32.2434	5819.83
32.919	5969.33
33.5945	5899.33
34.2699	6090.33
34.9453	6275.33
35.6206	6424.33
36.2959	6705.33
36.9712	6723.83
37.6464	6918.33
38.3192	6941.33
38.9943	7013.33
39.6694	7012.33
40.3444	7094.83
41.0194	7305.33
41.6943	7303.83
42.3692	7395.83
43.0417	7581.83
43.7165	7836.83
44.3912	7901.33
45.0659	7888.83
45.7405	7970.33
46.4128	8049.33
47.0874	8002.83
47.7619	8221.83
48.4363	8222.83
49.1084	8385.83
49.7828	8449.33
50.4571	8520.83
51.1314	8539.83
51.8033	8534.33
52.4775	8666.83
53.1516	8656.83
53.8234	8622.33
54.4974	8663.33
55.1714	8666.33
55.843	8681.83
56.5169	8622.83
57.1908	8677.33
57.8623	8448.83
58.536	9033.33
59.2074	9060.83
59.8811	9062.33
60.5547	8964.83
61.2259	9070.83
61.8995	9161.33
62.5706	9033.33
63.2441	8979.83
63.9174	8999.33
64.5885	9068.83
65.2618	9129.83
65.9327	9233.83
66.6059	9308.33
67.2767	9318.83
67.9498	9226.33
68.6206	9139.83
69.2936	9182.33
69.9643	8944.33
70.6372	9001.33
71.3077	8976.33
71.9783	9046.33
72.651	9130.83
73.3215	8906.83
73.9941	8993.83
74.6645	8931.33
75.3371	9127.33
76.0073	9394.83
76.6775	9493.33
77.3499	9673.33
78.02	9672.83
78.6901	9500.33
79.3624	9381.33
80.0324	9108.83
80.7023	9037.83
81.3745	9069.83
82.0443	9218.33
82.7141	9270.83
83.3861	9182.83
84.0558	9260.33
84.7254	9214.83
85.3973	9187.83
86.0668	8964.33
86.7364	9041.33
87.4058	9099.33
88.0775	9088.83
88.7469	8797.33
89.4162	8861.33
90.0855	8683.33
90.7547	9103.83
91.4261	9071.83
92.0953	9168.83
92.7644	9059.33
93.4334	9136.83
94.1024	9034.33
94.7713	9023.83
95.4425	9063.83
96.1114	9139.83
96.7802	8916.83
97.449	8975.33
98.1177	9046.83
98.7863	8805.83
99.455	8863.83
100.124	8773.83
100.792	8923.83
101.461	8787.83
102.131	8795.83
102.8	8643.33
103.468	8759.83
104.136	8690.83
104.805	8773.33
105.473	8748.83
106.141	8887.83
106.809	8767.33
107.477	8737.33
108.145	8752.83
108.813	8720.33
109.481	8707.33
110.147	8621.83
110.814	8644.83
111.482	8687.83
112.15	8641.33
112.818	8487.83
113.485	8554.83
114.153	8471.83
114.821	8576.83
115.488	8542.83
116.156	8499.33
116.821	8463.83
117.488	8497.83
118.155	8342.83
118.823	8455.83
119.49	8313.83
120.157	8378.33
120.822	8230.33
121.489	8270.83
122.156	8173.83
122.823	8188.83
123.49	8300.83
124.155	8312.83
124.822	8302.33
125.488	8344.83
126.155	8231.83
126.82	8309.33
127.486	8134.83
128.153	8315.33
128.817	8239.83
129.484	8342.33
130.15	8246.83
130.817	7814.83
131.481	8143.83
132.147	8175.33
132.811	8102.83
133.478	8237.83
134.144	8027.33
134.808	8280.83
135.474	8053.83
136.14	7998.83
136.804	8013.33
137.47	8022.83
138.133	7979.83
138.799	8065.83
139.463	8043.83
140.129	8029.83
140.795	7906.83
141.458	7987.33
142.124	7876.83
142.787	7957.83
143.453	7881.83
144.116	7817.33
144.781	7828.83
145.445	7797.83
146.11	7919.33
146.773	7952.83
147.436	7869.33
148.101	7799.83
148.764	7746.83
149.429	7635.83
150.092	7616.83
150.757	7653.83
151.42	7701.83
152.083	7675.83
152.748	7773.33
153.41	7606.33
154.075	7658.33
154.738	7758.33
155.4	7570.83
156.065	7689.33
156.727	7529.33
157.39	7702.33
158.054	7673.33
158.717	7507.83
159.379	7507.83
160.041	7636.83
160.705	7607.83
161.367	7499.83
162.03	7461.83
162.692	7482.83
163.356	7379.83
164.018	7278.83
164.679	7476.83
165.341	7419.83
166.005	7371.83
166.667	7244.83
167.329	7219.83
167.99	7355.83
168.652	7254.83
169.313	7279.83
169.977	7526.83
170.639	7506.83
171.3	7380.33
171.961	7409.83
172.623	7373.33
173.284	7401.33
173.945	7559.83
174.606	7316.83
175.267	7355.83
175.931	7289.83
176.592	7371.83
177.253	7281.83
177.914	7201.83
178.575	7227.83
179.236	7245.83
179.896	7335.83
180.557	7449.33
181.218	7305.83
181.879	7155.83
182.539	7258.83
183.2	7161.83
183.86	7348.83
184.521	7385.33
185.181	7323.83
185.839	7216.33
186.5	7230.83
187.16	7165.33
187.82	7181.83
188.48	7119.33
189.141	7317.83
189.801	7276.83
190.461	7198.83
191.121	7303.83
191.779	7211.83
192.439	7337.33
193.098	7202.33
193.758	7311.83
194.418	7272.83
195.078	7319.83
195.735	7342.83
196.395	7201.83
197.055	7335.83
197.714	7344.83
198.374	7350.83
199.031	7188.83
199.691	7375.83
200.35	7320.83
201.009	7166.83
201.666	7219.83
202.326	7147.33
202.985	7295.33
203.642	7272.33
204.301	7202.33
204.96	7212.83
205.617	7299.83
206.276	7211.83
206.935	7205.83
207.591	7413.83
208.25	7369.83
208.909	7411.83
209.566	7304.83
210.224	7207.83
210.881	7351.83
211.539	7287.83
212.196	7433.33
212.854	7342.83
213.513	7387.83
214.169	7236.83
214.827	7214.83
215.483	7314.33
216.142	7204.83
216.798	7306.83
217.456	7375.83
218.112	7335.83
218.77	7256.83
219.426	7445.83
220.084	7326.33
220.74	7430.83
221.398	7302.83
222.053	7347.83
222.709	7440.83
223.367	7303.83
224.022	7511.33
224.68	7426.83
225.336	7326.33
225.991	7403.83
226.649	7304.33
227.304	7433.33
227.961	7127.83
228.617	7265.83
229.272	7270.33
229.929	7308.33
230.584	7250.83
231.239	7275.83
231.897	7321.33
232.551	7417.33
233.206	7466.33
233.861	7505.83
234.518	7522.33
235.173	7539.83
235.828	7508.83
236.482	7526.83
237.139	7502.33
237.794	7555.83
238.449	7544.83
239.103	7607.83
239.757	7508.83
240.414	7756.83
241.069	7557.33
241.723	7551.83
242.377	7564.83
243.031	7737.83
243.686	7481.83
244.342	7654.33
244.996	7635.83
245.65	7697.83
246.304	7746.33
246.958	7553.83
247.612	7536.33
248.266	7403.33
248.92	7563.33
249.573	7652.83
250.227	7623.83
250.881	7615.83
251.535	7736.83
252.188	7743.83
252.842	7666.33
253.495	7788.33
254.149	7869.33
254.802	7690.83
255.456	7737.83
256.109	7749.33
256.762	7831.33
257.415	7814.83
258.069	7910.83
258.722	7895.33
259.375	7918.33
260.028	7887.33
260.681	7837.83
261.334	7954.83
261.987	7834.83
262.64	7906.83
263.29	7952.83
263.943	7896.83
264.596	7995.83
265.249	7868.83
265.901	8089.83
266.554	7911.33
267.204	7929.83
267.857	7947.83
268.509	8125.83
269.162	8007.83
269.814	8071.83
270.464	8001.83
271.117	8048.83
271.769	8013.33
272.421	8137.83
273.071	8199.83
273.723	8089.33
274.375	8161.33
275.025	8047.83
275.677	8113.33
276.329	8115.83
276.979	8107.83
277.631	8117.83
278.283	8213.83
278.932	8314.33
279.584	8148.83
280.236	8178.83
280.885	8268.83
281.537	8128.83
282.188	8224.83
282.838	8336.83
283.489	8258.83
284.138	8253.83
284.79	8279.83
285.439	8190.83
286.09	8200.83
286.739	8308.33
287.39	8316.83
288.041	8394.83
288.69	8420.33
289.341	8383.83
289.99	8423.83
290.639	8523.33
291.29	8277.83
291.939	8437.83
292.589	8479.83
293.238	8331.83
293.889	8173.83
294.537	8174.83
295.188	8002.33
295.836	8014.83
296.485	8044.83
297.135	8128.33
297.784	8261.83
298.434	8429.33
299.082	8526.33
299.73	8482.33
300.381	8468.33
301.029	8636.83
301.677	8501.83
302.327	8710.83
302.975	8667.83
303.623	8548.83
304.271	8605.83
304.921	8627.83
305.568	8724.33
306.216	8655.33
306.866	8685.83
307.513	8662.33
308.161	8656.83
308.809	8671.83
309.456	8684.83
310.106	8806.83
310.753	8765.83
311.4	8489.83
312.048	8765.33
312.695	8635.83
313.344	8626.83
313.992	8791.83
314.639	8782.33
315.286	8825.83
315.933	8786.33
316.58	8715.83
317.227	8739.83
317.874	8765.33
318.521	8785.83
319.17	8922.33
319.816	8975.83
320.463	9014.33
321.11	8901.33
321.757	8835.83
322.403	8875.33
323.05	8849.83
323.696	8882.83
324.343	8863.83
324.989	8772.83
325.636	8971.33
326.282	8983.33
326.928	8901.83
327.574	8931.83
328.221	8922.83
328.867	9077.83
329.511	9019.33
330.157	9101.83
330.803	8861.83
331.449	9056.33
332.095	8843.83
332.741	8953.83
333.387	9012.83
334.032	9102.83
334.678	9120.83
335.322	9006.33
335.967	9092.83
336.613	9058.33
337.259	9144.83
337.904	9233.33
338.547	9182.83
339.193	9243.33
339.838	9238.83
340.484	9236.83
341.129	9110.83
341.772	9183.83
342.417	9273.33
343.062	9209.83
343.705	9265.33
344.351	9344.33
344.996	9256.83
345.641	9259.33
346.283	9310.33
346.928	9315.33
347.573	9266.83
348.216	9314.83
348.861	9327.33
349.505	9334.83
350.148	9433.83
350.793	9298.83
351.435	9333.83
352.08	9350.83
352.724	9513.83
353.367	9451.83
354.011	9458.33
354.653	9346.83
355.298	9386.83
355.94	9249.83
356.584	9456.83
357.226	9560.33
357.87	9539.33
358.512	9482.83
359.156	9492.33
359.798	9566.83
360.442	9531.83
361.084	9521.83
361.728	9572.33
362.37	9663.33
363.013	9785.33
363.655	9603.83
364.299	9443.83
364.94	9546.33
365.582	9637.83
366.225	9561.33
366.867	9989.83
367.51	9782.83
368.152	9771.83
368.793	9634.33
369.436	9626.83
370.078	9673.33
370.719	9852.83
371.362	9952.83
372.003	9755.33
372.644	9885.83
373.287	9845.33
373.928	9651.33
374.569	9808.33
375.21	9815.33
375.853	9859.33
376.493	9974.33
377.134	9827.83
377.775	9905.33
378.418	9836.33
379.058	9828.83
379.699	9893.33
380.339	10038.3
380.98	10122.3
381.62	9995.83
382.263	9812.83
382.903	10056.8
383.543	9990.83
384.183	9956.83
384.823	9989.33
385.464	10069.3
386.104	10037.8
386.744	10055.3
387.386	10117.8
388.026	9912.83
388.666	10068.8
389.306	10210.3
389.945	10263.3
390.585	10298.8
391.225	10257.3
391.865	10162.8
392.504	10240.3
393.144	10186.8
393.784	10147.3
394.423	10335.8
395.063	10247.3
395.702	10354.3
396.341	10307.8
396.981	10289.3
397.62	10265.3
398.259	10317.8
398.896	10421.3
399.536	10493.3
400.175	10364.3
400.814	10411.3
401.453	10337.3
402.092	10272.3
402.731	10350.3
403.37	10419.8
404.006	10530.8
404.645	10536.3
405.284	10408.3
405.923	10528.8
406.562	10421.3
407.2	10420.8
407.837	10658.3
408.475	10606.3
409.114	10626.3
409.752	10564.8
410.388	10595.8
411.027	10557.3
411.665	10643.8
412.301	10737.8
412.94	10676.3
413.578	10686.3
414.216	10700.8
414.852	10837.8
415.49	10630.3
416.128	10621.8
416.764	10584.3
417.402	10618.3
418.04	10735.3
418.676	10837.3
419.314	10779.3
419.949	10881.8
420.587	10617.3
421.225	10809.3
421.86	10679.8
422.498	11078.3
423.133	10862.8
423.771	10938.8
424.406	10765.3
425.043	10733.3
425.679	10667.3
426.316	10820.8
426.951	10894.3
427.589	11104.3
428.224	11069.8
428.861	10961.3
429.496	10999.3
430.133	11048.3
430.768	11010.8
431.405	11186.8
432.04	11301.8
432.674	11239.3
433.311	11092.8
433.946	11128.8
434.583	11124.3
435.217	11225.3
435.852	11249.8
436.489	11334.8
437.123	11303.3
437.758	11315.3
438.394	11321.8
439.028	11285.3
439.663	11188.3
440.299	11460.8
440.933	11321.3
441.568	11437.8
442.202	11482.8
442.838	11316.3
443.472	11210.8
444.106	11258.8
444.74	11357.3
445.376	11362.8
446.01	11553.3
446.644	11474.3
447.277	11451.3
447.911	11377.3
448.547	11362.3
449.181	11387.3
449.814	11452.8
450.448	11568.3
451.081	11650.3
451.715	11527.8
452.348	11316.3
452.984	11221.8
453.617	11381.8
454.251	11366.8
454.884	11427.3
455.517	11527.3
456.15	11403.8
456.784	11581.3
457.417	11389.3
458.05	11345.3
458.683	11310.8
459.316	11453.3
459.949	11437.8
460.582	11612.8
461.214	11503.8
461.847	11450.3
462.48	11425.8
463.113	11210.8
463.745	11409.8
464.378	11351.8
465.011	11384.3
465.643	11457.8
466.276	11412.3
466.906	11351.3
467.538	11103.3
468.171	11220.8
468.803	11376.8
469.435	11340.3
470.068	11395.3
470.7	11167.8
471.33	11152.8
471.962	11157.8
472.594	11061.8
473.226	11209.8
473.858	11295.8
474.488	11216.8
475.12	11161.8
475.752	11095.8
476.384	10986.8
477.013	10831.3
477.645	10870.8
478.277	11103.3
478.908	11148.3
479.538	11037.3
480.169	10982.3
480.801	10794.8
481.43	10962.2
482.062	10933.5
482.693	10927.1
483.322	11041.6
483.954	10905.3
484.585	10972.9
485.214	10929.6
485.845	10887.7
486.474	10852.7
487.105	10875.7
487.736	10783.8
488.365	10719.6
488.996	10850.7
489.625	10834.5
490.256	10679.6
490.885	10712.9
491.515	10611.5
492.144	10797.1
492.775	10876.3
493.403	10574.7
494.034	10510.7
494.662	10654.9
495.293	10585.2
495.921	10529.3
496.552	10516.9
497.18	10580.6
497.81	10559.5
498.439	10504.9
499.067	10376.5
499.697	10336.1
500.325	10168.7
500.955	10157.8
501.583	10227.9
502.211	10199.4
502.841	10218.5
503.469	9945.79
504.097	9977.85
504.727	9830.14
505.355	9875.64
505.982	9897
506.61	9841.44
507.24	9780.99
507.867	9841.97
508.495	9654.9
509.124	9647.45
509.752	9632.64
510.379	9488.74
511.007	9551.57
511.634	9581.8
512.263	9552.77
512.891	9510.71
513.518	9258.83
514.145	9207.74
514.772	9194.93
515.399	9071.87
516.028	9154.45
516.655	9114.14
517.282	9006.51
517.909	8975.96
518.536	8847.71
519.163	8850.85
519.789	8675.77
520.416	8697.05
521.043	8581.51
521.669	8783.7
522.298	8607.75
522.925	8438.7
523.551	8515.73
524.178	8461.79
524.804	8484.51
525.431	8440.01
526.057	8327.81
526.683	8243.06
527.31	8317.65
527.934	8145.14
528.56	8136.1
529.186	8062.42
529.812	7990.65
530.438	7971.13
531.064	7968.8
531.69	7898.27
532.316	7805.1
532.942	7704.96
533.568	7674.02
534.194	7670.86
534.817	7660.14
535.443	7680.74
536.069	7499.15
536.694	7523.83
537.32	7503.73
537.943	7482.5
538.569	7465.26
539.194	7470.09
539.82	7424.15
540.445	7477.69
541.068	7325.32
541.694	7296.56
542.319	7161.35
542.944	7197.08
543.567	7173.29
544.192	7079.32
544.817	7155.79
545.44	7017.97
546.065	7135.72
546.69	7051.87
547.313	6913.51
547.938	6943.74
548.563	6863.84
549.185	6838.18
549.81	6826.46
550.433	6803.43
551.057	6732.49
551.682	6670.81
552.305	6648.18
552.929	6721.3
553.551	6727.82
554.176	6740.13
554.798	6649.17
555.423	6638.18
556.047	6580.35
556.669	6584.29
557.293	6551.74
557.915	6583.81
558.537	6488.9
559.162	6587.07
559.784	6514.25
560.408	6473.85
561.03	6466.74
561.654	6446.92
562.275	6420.98
562.899	6469.01
563.521	6445.77
564.143	6418.9
564.766	6371.01
565.388	6305.3
566.009	6349.84
566.633	6346.11
567.255	6291.05
567.878	6324.6
568.5	6322.1
569.121	6319.36
569.742	6312.64
570.366	6281.81
570.987	6227.18
571.608	6259.24
572.231	6267.61
572.852	6251.85
573.473	6142.35
574.094	6185.62
574.717	6173.95
575.338	6138.93
575.959	6154.87
576.58	6111.12
577.201	6131.34
577.822	6107.93
578.445	6083.2
579.065	5956.8
579.686	6005.07
580.306	6032.9
580.927	6023.47
581.548	5921.29
582.168	6009.88
582.791	6021.5
583.411	6013.45
584.031	6008.28
584.652	5756.22
585.272	5983.74
585.892	5949.71
586.512	6007.91
587.132	6007.33
587.753	6062.38
588.373	6062.72
588.993	5895.6
589.613	5986.93
590.233	5924.17
590.852	5931.01
591.472	5962.85
592.092	5970.65
592.712	5913.88
593.332	5907.56
593.951	5814.45
594.569	5772.76
595.188	5805.81
595.808	5862.65
596.427	5862.04
597.047	5830.44
597.666	5790.22
598.286	5769.1
598.905	5684.23
599.522	5700.25
600.142	5738.56
600.761	5630.09
601.38	5677.38
601.999	5620.99
602.616	5582.75
603.235	5482.02
603.854	5445.64
604.473	5487.71
605.09	5389.23
605.709	5415.32
606.328	5370.95
606.947	5374.08
607.563	5338.89
608.182	5338.73
608.801	5262.6
609.417	5232.58
610.036	5172.22
610.655	5150.18
611.271	5150.73
611.89	5136.39
612.508	5084.99
613.124	4931.31
613.743	4974.4
614.359	4958.56
614.977	4916.25
615.595	4974.64
616.212	4866.43
616.83	4843.56
617.446	4821.89
618.064	4746.68
618.68	4733.05
619.298	4567.98
619.914	4671.05
620.532	4618.08
621.147	4595.08
621.765	4485.23
622.381	4417.23
622.999	4509.28
623.614	4469.1
624.23	4455.05
624.847	4410.17
625.463	4457.44
626.08	4352.17
626.696	4299.69
627.311	4382.36
627.929	4266.19
628.544	4276.52
629.161	4266.85
629.776	4181.71
630.392	4255.41
631.009	4212.4
631.624	4187.14
632.239	4014.18
632.854	4030.94
633.471	4106.41
634.086	3934.23
634.701	3807.52
635.318	4024.5
635.932	4007.65
636.547	3868.25
637.162	3896.8
637.777	3906.65
638.393	3849.56
639.008	3909.99
639.622	3890.76
640.237	3851.59
640.851	3799.23
641.468	3708.85
642.082	3681.2
642.697	3689.31
643.311	3717.18
643.925	3688.75
644.539	3613.58
645.154	3636.31
645.768	3624.44
646.382	3615.52
646.996	3626.6
647.612	3607.27
648.226	3606.91
648.84	3553.77
649.454	3507.61
650.068	3486.12
650.682	3532.16
651.295	3522.33
651.909	3524.02
652.523	3501.67
653.136	3464.12
653.75	3403.73
654.361	3349.73
654.975	3338.22
655.589	3374.43
656.202	3343.07
656.815	3336.99
657.429	3301.79
658.042	3378.9
658.655	3305.57
659.269	3290.49
659.882	3242.31
660.493	3285.56
661.106	3286.11
661.719	3293.94
662.332	3212.42
662.945	3271.24
663.556	3259.51
664.169	3158.2
664.782	3144.92
665.395	3153.72
666.007	3127.13
666.618	3162.43
667.231	3161.94
667.843	3147.12
668.454	3106.38
669.067	3135.43
669.679	3131.2
670.292	3058.03
670.902	2978.74
671.514	3060.27
672.125	3042.42
672.288	3030.42
672.907	3064.92
673.528	3037.42
674.146	2962.42
674.765	3078.92
675.386	2793.92
676.005	3031.42
676.625	2929.42
677.244	3008.92
677.862	2888.42
678.483	2943.42
679.101	2875.42
679.72	2817.42
680.34	2915.42
680.958	2843.42
681.577	2945.42
682.197	2847.42
682.815	2911.92
683.433	2907.42
684.053	2921.92
684.672	2914.92
685.289	2932.42
685.91	2921.42
686.527	3020.42
687.145	2993.42
687.763	2896.42
688.381	2916.42
689.001	2926.42
689.619	2956.92
690.236	2968.42
690.854	2887.42
691.471	2903.92
692.091	2960.42
692.709	2908.92
693.326	2944.42
693.943	2921.42
694.561	2944.42
695.178	2880.42
695.796	2911.42
696.415	2954.42
697.032	2904.42
697.649	2954.92
698.266	2880.42
698.884	2882.92
699.501	2967.42
700.118	2933.42
700.735	2979.92
701.352	2805.42
701.968	2939.42
702.585	2944.92
703.202	2865.42
703.819	2763.42
704.436	2927.92
705.052	2912.42
705.669	2828.92
706.286	2914.42
706.902	2914.92
707.519	2900.92
708.135	2908.92
708.752	2845.92
709.368	2834.42
709.984	2861.42
710.599	2869.42
711.215	2786.42
711.831	2895.42
712.447	2902.42
713.063	2900.42
713.68	2917.42
714.296	2923.42
714.909	2970.42
715.526	2898.42
716.141	2899.42
716.757	2866.42
717.373	2860.42
717.987	2892.42
718.603	2815.42
719.219	2988.42
719.834	2936.92
720.448	2892.42
721.063	2925.92
721.679	2875.92
722.295	2878.42
722.908	2940.42
723.523	2885.92
724.139	2942.92
724.752	2893.42
725.367	2968.92
725.983	2941.92
726.596	2896.42
727.211	2956.92
727.826	3043.92
728.439	2962.92
729.054	2980.42
729.667	2938.92
730.282	2932.42
730.897	2936.42
731.51	2912.92
732.125	2922.42
732.738	2925.42
733.353	2945.42
733.965	2949.42
734.58	2929.92
735.195	2997.42
735.807	3005.92
736.422	2961.92
737.034	3041.42
737.647	3006.42
738.261	2916.42
738.874	2968.92
739.488	2966.42
740.1	2962.42
740.715	2989.42
741.327	2891.42
741.941	2844.42
742.553	2851.42
743.165	2756.92
743.779	2805.42
744.391	2800.92
745.005	2943.92
745.617	2964.42
746.229	2986.42
746.843	3069.92
747.455	3065.42
748.067	3063.92
748.68	2964.92
749.292	2949.42
749.904	3041.92
750.515	3046.42
751.129	3089.92
751.74	3123.42
752.352	3013.42
752.965	3010.42
753.577	3032.42
754.188	2953.42
754.799	3013.92
755.411	3143.42
756.024	3065.42
756.635	2987.42
757.246	3064.92
757.857	3035.42
758.468	3029.42
759.079	3047.42
759.692	3070.92
760.303	3099.92
760.914	3123.42
761.525	3171.92
762.136	3085.42
762.747	3069.42
763.357	3071.92
763.968	3059.92
764.579	3076.42
765.189	3146.92
765.802	3150.92
766.413	3183.42
767.023	3091.42
767.633	3136.42
768.244	3141.42
768.854	3129.42
769.465	3023.42
770.075	3109.42
770.685	3204.92
771.295	3152.42
771.906	3199.92
772.514	3142.42
773.124	3170.92
773.734	3141.42
774.344	3143.42
774.954	3257.42
775.564	3256.92
776.173	3189.92
776.783	3234.42
777.393	3213.42
778.003	3195.42
778.61	3231.92
779.22	3236.92
779.83	3313.92
780.439	3212.92
781.049	3275.92
781.659	3245.42
782.266	3239.42
782.875	3248.42
783.485	3252.42
784.094	3208.42
784.701	3279.42
785.311	3163.42
785.92	3231.42
786.529	3198.42
787.136	3238.42
787.745	3252.42
788.354	3241.42
788.961	3307.42
789.57	3245.42
790.179	3339.42
790.786	3319.42
791.395	3182.42
792.004	3254.42
792.611	3295.42
793.219	3181.42
793.828	3240.92
794.435	3220.42
795.043	3329.42
795.65	3214.42
796.258	3276.92
796.867	3268.92
797.473	3304.92
798.082	3019.42
798.688	3254.42
799.296	3277.42
799.903	3222.92
800.511	3232.42
801.117	3237.92
801.725	3277.42
802.331	3316.92
802.94	3238.42
803.546	3226.42
804.154	3221.42
804.759	3210.42
805.367	3205.42
805.973	3248.92
806.579	3183.42
807.187	3238.92
807.793	3211.42
808.4	3157.42
809.006	3119.42
809.612	3162.92
810.219	3138.42
810.825	3216.42
811.43	3087.92
812.038	3125.92
812.643	3122.42
813.249	3125.42
813.856	3053.42
814.461	3123.92
815.067	3056.42
815.672	3058.42
816.279	3079.42
816.884	3048.42
817.489	3098.42
818.094	3000.42
818.701	3028.92
819.306	2930.42
819.911	2974.92
820.516	2947.42
821.121	3021.92
821.728	2898.42
822.333	2950.42
822.937	2844.42
823.542	2869.92
824.147	2860.42
824.751	2920.42
825.358	2937.92
825.962	2806.42
826.567	2785.42
827.171	2827.92
827.776	2809.42
828.38	2780.92
828.984	2758.42
829.589	2728.42
830.193	2721.92
830.797	2724.92
831.401	2692.42
832.006	2586.42
832.61	2592.92
833.214	2594.42
833.818	2494.42
834.422	2517.42
835.026	2589.42
835.63	2487.42
836.233	2553.92
836.837	2471.92
837.441	2444.42
838.045	2447.42
838.648	2383.42
839.252	2487.92
839.856	2384.42
840.457	2384.42
841.061	2375.42
841.664	2244.42
842.268	2307.92
842.871	2258.42
843.474	2322.92
844.076	2273.42
844.679	2342.42
845.282	2229.92
845.886	2276.42
846.489	2171.42
847.09	2119.42
847.693	2170.42
848.296	2076.42
848.899	2190.42
849.5	2166.92
850.103	2081.42
850.706	2169.92
851.309	2117.42
851.909	2165.42
852.512	2099.42
853.115	2086.42
853.716	2047.42
854.318	2093.92
854.921	2022.42
855.521	2030.42
856.124	2036.42
856.727	2067.42
857.327	2025.42
857.929	2076.42
858.53	1986.42
859.132	2002.92
859.734	2062.42
860.335	2030.42
860.937	2052.42
861.537	2029.42
862.139	2025.42
862.739	2018.42
863.341	2011.42
863.941	1987.92
864.543	1978.42
865.143	1985.42
865.745	1988.42
866.345	1982.42
866.947	1996.42
867.546	1989.92
868.148	2078.42
868.748	2062.42
869.347	2048.42
869.949	1989.42
870.549	2005.42
871.15	2028.42
871.75	2046.42
872.349	1958.42
872.951	2027.42
873.55	2083.92
874.149	1955.42
874.751	1961.92
875.35	2018.92
875.949	2044.42
876.55	1970.42
877.149	1998.42
877.748	2027.42
878.347	1913.42
878.948	1997.42
879.547	2039.42
880.146	1964.42
880.745	2018.42
881.346	2044.42
881.945	2055.42
882.544	2053.42
883.142	2051.42
883.743	2048.42
884.342	2019.42
884.94	2025.42
885.539	1973.42
886.137	1941.42
886.736	1984.42
887.334	2022.92
887.935	2041.42
888.533	1943.42
889.132	1999.42
889.73	2039.92
890.328	2005.42
890.926	2032.42
891.525	2011.42
892.123	2056.42
892.721	2047.92
893.319	1977.42
893.917	2030.92
894.515	1976.42
895.113	2048.42
895.711	2078.42
896.309	2057.42
896.906	2077.42
897.504	2075.92
898.102	1995.42
898.7	2020.42
899.297	2010.42
899.895	2065.92
900.492	1997.42
901.09	2051.92
901.688	2020.42
902.283	2081.42
902.88	2016.42
903.478	2010.42
904.075	1979.42
904.672	2094.42
905.27	2027.42
905.867	2117.42
906.462	2028.42
907.059	1963.42
907.656	2041.42
908.254	2077.42
908.851	1937.42
909.446	2077.42
910.043	2093.42
910.639	2091.92
911.236	2068.92
911.831	2055.42
912.428	2040.42
913.025	2039.42
913.619	2077.92
914.216	2059.42
914.813	2143.92
915.407	2097.42
916.004	2143.42
916.6	2066.42
917.195	2117.42
917.791	2042.42
918.388	1991.92
918.982	2137.42
919.578	2016.42
920.173	2139.42
920.769	2107.42
921.365	2074.92
921.959	2117.92
922.556	2040.16
923.15	2147.14
923.746	2115.68
924.34	2142.35
924.936	2156.3
925.53	2145.64
926.126	2175.72
926.719	2155.95
927.315	2154.86
927.909	2236.69
928.505	2192.34
929.098	2256.57
929.694	2126.56
930.288	2211.06
930.881	2102.09
931.477	2195.66
932.07	2217.45
932.666	2251.7
933.259	2238.32
933.853	2224.06
934.448	2269.01
935.041	2236.24
935.635	2272.76
936.23	2252.86
936.823	2231.43
937.416	2214.73
938.011	2296.51
938.604	2257.77
939.197	2227.52
939.79	2181.81
940.385	2299.51
940.978	2251.84
941.571	2321.77
942.164	2301.69
942.759	2326.84
943.352	2324.59
943.944	2352.56
944.537	2364.97
945.13	2326.09
945.724	2374.5
946.317	2404.53
946.909	2440.98
947.502	2361.98
948.094	2431.82
948.687	2457.52
949.279	2386.98
949.873	2403.41
950.466	2419.91
951.058	2469.71
951.65	2501.49
952.242	2501.2
952.835	2500.75
953.427	2514.77
954.019	2475.67
954.611	2536.47
955.203	2560.92
955.795	2464.56
956.387	2507.51
956.978	2579.62
957.57	2573.36
958.162	2413.72
958.754	2398.46
959.346	2568.11
959.937	2607.01
960.529	2613.22
961.121	2717.18
961.712	2639.07
962.302	2690.98
962.893	2683.64
963.484	2678.89
964.076	2697.85
964.667	2679.93
965.259	2707.71
965.85	2640.46
966.439	2696.06
967.03	2754.4
967.622	2765.14
968.213	2741.89
968.804	2737.04
969.393	2751.88
969.984	2743.63
970.575	2820.89
971.166	2817.73
971.755	2770.85
972.346	2850.54
972.936	2796.06
973.527	2841.45
974.116	2773.06
974.707	2887.3
975.297	2849.03
975.886	2876.82
976.477	2882.12
977.067	2877.33
977.656	2911.23
978.246	2943.18
978.835	2833.53
979.425	2890.1
980.015	2904.01
980.604	2936.49
981.194	2923.68
981.782	2922.46
982.372	2904.53
982.961	2967.22
983.551	2938.28
984.141	2892.99
984.729	2978.68
985.319	2989.52
985.907	3021.31
986.497	2934.51
987.085	3045.72
987.673	2979.69
988.263	2944.33
988.85	3012.75
989.44	3061.98
990.028	3052.19
990.617	3030.79
991.205	3090.02
991.793	3024.25
992.382	3099.84
992.97	3079.72
993.559	3019.85
994.147	3129.92
994.734	3067.45
995.323	3127.59
995.911	3108.35
996.498	3126.11
997.087	3126.3
997.675	3093.83
998.262	3163.27
998.849	3183.79
999.438	3186.05
1000.03	3160.28
1000.61	3216.61
1001.2	3173.85
1001.79	3151.77
1002.37	3228.57
1002.96	3167.49
1003.55	3144.98
1004.14	3184.02
1004.72	3203.47
1005.31	3189.63
1005.9	3134.36
1006.48	3253.4
1007.07	3179.73
1007.66	3205.75
1008.25	3187.21
1008.83	3249.91
1009.42	3237.1
1010.01	3233.63
1010.59	3212.66
1011.18	3181.38
1011.76	3190.01
1012.35	3240.21
1012.94	3205.98
1013.52	3269.85
1014.11	3221.77
1014.7	3284.35
1015.28	3266.01
1015.87	3269.35
1016.45	3234.24
1017.04	3221.78
1017.63	3243.09
1018.21	3301.39
1018.8	3309.6
1019.38	3307.74
1019.97	3283.24
1020.55	3282.98
1021.14	3284.6
1021.73	3332.53
1022.31	3369.56
1022.89	3361.73
1023.48	3305.04
1024.07	3351.49
1024.65	3340.68
1025.24	3401.44
1025.82	3394.56
1026.41	3221.72
1026.99	3441.02
1027.58	3399.71
1028.16	3376.6
1028.74	3398.12
1029.33	3380.7
1029.91	3399.44
1030.5	3343.15
1031.08	3381.48
1031.67	3382.15
1032.25	3420.69
1032.84	3373.17
1033.42	3353.52
1034.01	3344.19
1034.59	3351.78
1035.17	3383.85
1035.76	3354
1036.34	3492.39
1036.93	3452.19
1037.51	3442.07
1038.09	3447.16
1038.68	3399.98
1039.26	3445.38
1039.84	3471.36
1040.43	3405.34
1041.01	3428.07
1041.6	3456.16
1042.18	3454.87
1042.76	3433.11
1043.34	3461.62
1043.93	3436.51
1044.51	3505.89
1045.09	3452.39
1045.68	3504.54
1046.26	3505.31
1046.84	3524.09
1047.43	3474.01
1048.01	3510.03
1048.59	3532.72
1049.17	3511.99
1049.76	3539.77
1050.34	3521.47
1050.92	3514.57
1051.51	3544.12
1052.09	3568.16
1052.67	3517.83
1053.25	3478.01
1053.83	3530.64
1054.42	3483.82
1055	3539.08
1055.58	3573.95
1056.16	3580.54
1056.74	3569.7
1057.33	3535.16
1057.91	3586.99
1058.49	3522.98
1059.07	3570.66
1059.65	3573.91
1060.24	3648.4
1060.82	3664.93
1061.4	3607.42
1061.98	3666.97
1062.56	3608.24
1063.14	3576.47
1063.72	3597.36
1064.3	3440.47
1064.89	3698.15
1065.47	3581.45
1066.05	3664.36
1066.63	3654.18
1067.21	3620.55
1067.79	3650.68
1068.37	3647.38
1068.95	3642.09
1069.53	3658.75
1070.11	3669.69
1070.69	3683.65
1071.27	3712.16
1071.86	3684.42
1072.44	3678.56
1073.02	3649.21
1073.6	3666.82
1074.18	3712.34
1074.76	3700.54
1075.34	3802.18
1075.92	3728.01
1076.5	3619.94
1077.08	3708.45
1077.66	3743.79
1078.24	3676.02
1078.82	3808.78
1079.4	3704.46
1079.98	3816.34
1080.55	3781.99
1081.13	3813.93
1081.71	3715.59
1082.29	3822.23
1082.87	3751.43
1083.45	3861.97
1084.03	3867.05
1084.61	3863.2
1085.19	3782.69
1085.77	3861.13
1086.35	3813.33
1086.93	3906.97
1087.51	3842.29
1088.09	3831.17
1088.67	3801.33
1089.24	3872.72
1089.82	3923.42
1090.4	3762.97
1090.98	3745.66
1091.56	3893.92
1092.14	3826.06
1092.71	3936.03
1093.29	3974.7
1093.87	3943.97
1094.45	3975.52
1095.03	3848.65
1095.61	3918.31
1096.18	3952.71
1096.76	3916.54
1097.34	3936.05
1097.92	3953.12
1098.49	3985.88
1099.04	3897.88
1099.63	3856.88
1100.22	3909.88
1100.8	4016.88
1101.39	3824.88
1101.97	3961.88
1102.56	3959.38
1103.15	3986.88
1103.73	3921.88
1104.31	3978.88
1104.9	3960.88
1105.49	3925.88
1106.07	3916.88
1106.66	3965.38
1107.24	3889.88
1107.83	3963.88
1108.41	3904.38
1109	3897.88
1109.58	3781.88
1110.17	3872.38
1110.75	3873.88
1111.33	3884.38
1111.92	3929.88
1112.5	3933.88
1113.09	3920.38
1113.67	3831.88
1114.26	3837.38
1114.84	3972.88
1115.43	3918.88
1116.01	4054.88
1116.59	4034.88
1117.18	3977.88
1117.76	4022.88
1118.35	4016.88
1118.93	3998.88
1119.51	3957.38
1120.1	3943.88
1120.68	4022.88
1121.27	4062.38
1121.85	3985.88
1122.43	3862.88
1123.02	3877.88
1123.6	3838.88
1124.18	3995.88
1124.77	3878.88
1125.35	3988.38
1125.93	3922.88
1126.52	3963.88
1127.1	4061.88
1127.68	3974.38
1128.26	3943.38
1128.85	3928.88
1129.43	3896.88
1130.01	3982.88
1130.6	3924.88
1131.18	3953.88
1131.76	3992.38
1132.34	3960.88
1132.93	3923.38
1133.51	3856.88
1134.09	3965.38
1134.67	3892.88
1135.26	3965.38
1135.84	3858.88
1136.42	3962.38
1137	3998.88
1137.59	3834.88
1138.17	3906.88
1138.75	3874.88
1139.33	3935.88
1139.91	3879.88
1140.49	3988.38
1141.08	3882.88
1141.66	3784.88
1142.24	3878.38
1142.82	3921.38
1143.4	3847.38
1143.99	3834.88
1144.57	3866.88
1145.15	3897.88
1145.73	3856.88
1146.31	3764.88
1146.89	3650.88
1147.47	3776.88
1148.05	3819.88
1148.64	3767.88
1149.22	3838.88
1149.8	3846.88
1150.38	3800.38
1150.96	3746.88
1151.54	3729.88
1152.12	3708.38
1152.7	3707.38
1153.28	3749.88
1153.86	3771.88
1154.44	3736.88
1155.02	3798.88
1155.6	3642.88
1156.18	3690.88
1156.76	3696.88
1157.34	3680.88
1157.92	3663.38
1158.5	3715.88
1159.08	3706.88
1159.66	3686.88
1160.24	3655.88
1160.82	3641.88
1161.4	3698.88
1161.98	3556.88
1162.56	3590.88
1163.14	3642.88
1163.72	3678.88
1164.3	3638.38
1164.88	3546.88
1165.46	3595.38
1166.04	3622.88
1166.62	3558.88
1167.2	3568.38
1167.78	3606.88
1168.36	3623.38
1168.94	3454.88
1169.52	3494.88
1170.09	3340.38
1170.67	3222.88
1171.25	3222.88
1171.83	3231.88
1172.41	3357.88
1172.99	3438.88
1173.57	3506.88
1174.15	3467.88
1174.72	3445.88
1175.3	3474.88
1175.88	3417.88
1176.46	3411.88
1177.04	3381.88
1177.62	3462.88
1178.19	3399.88
1178.77	3328.88
1179.35	3293.88
1179.93	3445.88
1180.51	3325.88
1181.08	3326.88
1181.66	3329.38
1182.24	3293.88
1182.82	3328.88
1183.4	3349.38
1183.97	3324.38
1184.55	3324.88
1185.13	3168.88
1185.7	3271.88
1186.28	3220.88
1186.86	3214.88
1187.44	3174.88
1188.02	3284.88
1188.59	3176.88
1189.17	3100.88
1189.75	3157.38
1190.32	3136.88
1190.9	3202.38
1191.48	3172.88
1192.05	3288.88
1192.63	3185.88
1193.21	3123.38
1193.78	3209.88
1194.36	3106.88
1194.94	3079.88
1195.51	3082.88
1196.09	3107.38
1196.67	3128.88
1197.24	3124.38
1197.82	2911.88
1198.4	3073.88
1198.97	3005.88
1199.55	2992.88
1200.12	3004.38
1200.7	2933.38
1201.28	2901.88
1201.85	2969.88
1202.43	2982.88
1203	2933.88
1203.58	2954.88
1204.16	2950.38
1204.73	2921.88
1205.31	2884.88
1205.88	2878.38
1206.46	2907.38
1207.03	2925.38
1207.61	2847.38
1208.18	2791.88
1208.76	2816.88
1209.33	2831.38
1209.91	2748.88
1210.48	2824.88
1211.06	2761.88
1211.63	2730.88
1212.21	2745.88
1212.78	2725.38
1213.36	2718.88
1213.93	2726.38
1214.51	2688.88
1215.08	2722.88
1215.66	2713.88
1216.23	2650.88
1216.8	2653.38
1217.38	2696.38
1217.95	2614.88
1218.53	2642.88
1219.1	2577.88
1219.68	2642.88
1220.25	2576.88
1220.83	2587.88
1221.4	2634.88
1221.97	2529.88
1222.55	2508.88
1223.12	2502.88
1223.69	2554.38
1224.27	2533.88
1224.84	2560.38
1225.41	2524.88
1225.99	2516.38
1226.56	2495.38
1227.13	2430.38
1227.71	2512.88
1228.28	2468.38
1228.85	2454.88
1229.43	2460.38
1230	2407.38
1230.57	2442.88
1231.15	2399.38
1231.72	2380.88
1232.29	2435.88
1232.87	2354.38
1233.44	2271.88
1234.01	2394.88
1234.58	2398.38
1235.16	2360.38
1235.73	2296.88
1236.3	2349.38
1236.87	2327.88
1237.45	2306.38
1238.02	2335.38
1238.59	2325.38
1239.16	2235.38
1239.74	2297.88
1240.31	2289.38
1240.88	2259.38
1241.45	2279.88
1242.03	2259.88
1242.6	2317.38
1243.17	2273.88
1243.74	2223.38
1244.31	2265.88
1244.88	2261.88
1245.46	2272.88
1246.03	2274.88
1246.6	2281.38
1247.17	2145.88
1247.74	2175.88
1248.31	2162.88
1248.88	2195.88
1249.45	2239.88
1250.03	2208.88
1250.6	2194.88
1251.17	2139.38
1251.74	2104.38
1252.31	2179.38
1252.88	2218.88
1253.45	2233.38
1254.02	2165.88
1254.59	2142.88
1255.17	2106.38
1255.74	2195.88
1256.31	2125.88
1256.88	2132.38
1257.45	2235.38
1258.02	2173.88
1258.59	2126.88
1259.16	2182.88
1259.73	2051.88
1260.3	2175.88
1260.87	2173.88
1261.44	2148.88
1262.01	2219.38
1262.58	2210.88
1263.15	1898.88
1263.72	2225.38
1264.29	2187.88
1264.86	2183.88
1265.43	2128.88
1266	2206.38
1266.57	2212.88
1267.14	2180.88
1267.71	2115.38
1268.28	2132.88
1268.85	2120.88
1269.41	2167.88
1269.98	2202.38
1270.55	2175.38
1271.12	2100.88
1271.69	2132.38
1272.26	2171.88
1272.83	2102.88
1273.4	2183.88
1273.97	2123.88
1274.54	2117.38
1275.1	2137.88
1275.67	2124.88
1276.24	2119.38
1276.81	2145.38
1277.38	2118.88
1277.95	2111.38
1278.52	2099.88
1279.09	2124.38
1279.65	2137.38
1280.22	2113.88
1280.79	2153.38
1281.36	2169.38
1281.93	2132.38
1282.49	2105.88
1283.06	2114.88
1283.63	2084.88
1284.2	2104.88
1284.77	2100.88
1285.33	2144.88
1285.9	2093.88
1286.47	2048.88
1287.04	2079.88
1287.6	2161.88
1288.17	2097.38
1288.74	2113.88
1289.31	2072.88
1289.87	2164.38
1290.44	2226.88
1291.01	2195.38
1291.58	2196.38
1292.14	2119.88
1292.71	2069.38
1293.28	2185.38
1293.84	2132.88
1294.41	2176.88
1294.98	2177.88
1295.54	2136.38
1296.11	2149.88
1296.68	2169.38
1297.25	2176.88
1297.81	2098.88
1298.38	2146.38
1298.94	2190.38
1299.51	2153.88
1300.08	2166.38
1300.64	2114.88
1301.21	2126.88
1301.78	2107.38
1302.34	2201.88
1302.91	2147.88
1303.47	2148.88
1304.04	2147.88
1304.61	2135.88
1305.17	2099.88
1305.74	2137.38
1306.3	2109.38
1306.87	2138.88
1307.43	2101.88
1308	2143.88
1308.57	2167.88
1309.13	2181.38
1309.7	2147.88
1310.26	2111.38
1310.83	2180.38
1311.39	2068.88
1311.96	2170.38
1312.52	2139.88
1313.09	2124.38
1313.65	2152.88
1314.22	2147.38
1314.78	2082.88
1315.35	2149.88
1315.91	2147.38
1316.48	2145.88
1317.04	2191.38
1317.61	2121.38
1318.17	2154.88
1318.74	2218.38
1319.3	2191.88
1319.86	2238.88
1320.43	2135.88
1320.99	2181.88
1321.56	2173.88
1322.12	2131.88
1322.68	2121.38
1323.25	2197.38
1323.81	1974.88
1324.38	2172.88
1324.94	2164.38
1325.51	2167.38
1326.07	2146.38
1326.63	2114.38
1327.2	2191.38
1327.76	2154.88
1328.32	2152.38
1328.89	2158.88
1329.45	2166.88
1330.01	2173.88
1330.58	2224.38
1331.14	2024.38
1331.7	2197.88
1332.27	2221.38
1332.83	2191.38
1333.39	2143.38
1333.96	2220.88
1334.52	2179.88
1335.08	2205.38
1335.65	2193.38
1336.21	2201.88
1336.77	2144.88
1337.33	2200.88
1337.9	2220.88
1338.46	2149.88
1339.02	2176.88
1339.58	2174.88
1340.15	2192.88
1340.71	2168.88
1341.27	2176.88
1341.83	2136.88
1342.4	2206.88
1342.96	2200.88
1343.52	2161.38
1344.08	2204.88
1344.64	2161.88
1345.21	2184.38
1345.77	2202.38
1346.33	2190.38
1346.89	2160.38
1347.45	2152.88
1348.01	2218.88
1348.58	2182.88
1349.14	2202.38
1349.7	2178.88
1350.26	2165.88
1350.82	2204.88
1351.38	2212.88
1351.95	2169.38
1352.51	2159.38
1353.07	2204.38
1353.63	2209.38
1354.19	2179.88
1354.75	2255.88
1355.31	2176.38
1355.87	2167.88
1356.43	2183.88
1357	2158.88
1357.56	2204.88
1358.12	2151.88
1358.68	2237.88
1359.24	2206.88
1359.8	2231.38
1360.36	2178.38
1360.92	2209.88
1361.48	2269.88
1362.04	2218.88
1362.6	2168.88
1363.16	2173.38
1363.72	2227.38
1364.28	2245.88
1364.84	2229.38
1365.4	2216.88
1365.96	2118.88
1366.52	2289.88
1367.08	2181.38
1367.64	2172.88
1368.2	2215.88
1368.76	2203.38
1369.32	2211.88
1369.88	2223.88
1370.44	2230.88
1371	2204.88
1371.56	2201.88
1372.11	2145.88
1372.67	2219.88
1373.23	2221.38
1373.79	2226.38
1374.35	2193.88
1374.91	2241.38
1375.47	2256.38
1376.03	2193.88
1376.59	2266.38
1377.15	2265.88
1377.7	2277.88
1378.26	2143.88
1378.82	2074.88
1379.38	2221.88
1379.94	2239.38
1380.5	2214.38
1381.06	2241.38
1381.61	2237.38
1382.17	2189.88
1382.73	2225.88
1383.29	2242.88
1383.85	2194.88
1384.41	2280.88
1384.96	2211.38
1385.52	2240.88
1386.08	2185.88
1386.64	2247.88
1387.2	2246.38
1387.75	2298.38
1388.31	2282.38
1388.87	2234.88
1389.43	2232.38
1389.98	2261.88
1390.54	2306.88
1391.1	2202.88
1391.66	2218.88
1392.22	2180.88
1392.77	2313.88
1393.33	2290.88
1393.89	2254.38
1394.44	2230.38
1395	2270.88
1395.56	2282.38
1396.12	2232.88
1396.67	2214.88
1397.23	2206.88
1397.79	2221.88
1398.34	2228.38
1398.9	2156.38
1399.46	2207.88
1400.01	2197.88
1400.57	2270.88
1401.12	2229.88
1401.68	2277.38
1402.24	2278.38
1402.79	2249.38
1403.35	2232.38
1403.91	2225.88
1404.46	2266.88
1405.02	2249.88
1405.57	2277.88
1406.13	2235.38
1406.69	2202.38
1407.24	2326.38
1407.8	2182.88
1408.36	2256.88
1408.91	2242.88
1409.47	2257.88
1410.02	2278.38
1410.58	2272.38
1411.13	2253.38
1411.69	2275.88
1412.24	2292.38
1412.8	2259.88
1413.35	2228.88
1413.91	2277.88
1414.46	2250.88
1415.02	2266.88
1415.57	2276.38
1416.13	2292.38
1416.68	2278.88
1417.24	2282.38
1417.8	2291.88
1418.35	2242.38
1418.91	2260.88
1419.46	2283.88
1420.01	2312.88
1420.57	2337.38
1421.12	2313.88
1421.68	2182.88
1422.23	2243.38
1422.79	2288.38
1423.34	2246.88
1423.89	2261.38
1424.45	2210.88
1425	2244.88
1425.56	2206.88
1426.11	2249.88
1426.67	2263.38
1427.22	2279.88
1427.77	2266.38
1428.33	2310.88
1428.88	2260.88
1429.43	2268.38
1429.99	2300.88
1430.54	2244.88
1431.09	2369.38
1431.65	2279.38
1432.2	2282.38
1432.76	2278.88
1433.31	2300.88
1433.86	2301.88
1434.42	2256.88
1434.97	2328.88
1435.52	2318.88
1436.07	2338.88
1436.63	2283.38
1437.18	2254.38
1437.73	2356.38
1438.29	2338.88
1438.84	2348.88
1439.39	2359.38
1439.95	2306.88
1440.5	2327.88
1441.05	2335.88
1441.6	2300.88
1442.15	2269.88
1442.71	2304.88
1443.26	2299.88
1443.81	2264.88
1444.36	2343.38
1444.92	2287.88
1445.47	2303.88
1446.02	2275.88
1446.57	2323.88
1447.13	2293.88
1447.68	2272.88
1448.23	2343.88
1448.78	2247.88
1449.33	2297.88
1449.88	2305.88
1450.44	2286.88
1450.99	2302.38
1451.54	2348.38
1452.09	2331.88
1452.64	2339.38
1453.19	2372.88
1453.74	2396.38
1454.3	2304.38
1454.85	2346.38
1455.4	2334.88
1455.95	2289.88
1456.5	2334.88
1457.05	2350.88
1457.6	2267.88
1458.15	2301.88
1458.7	2281.88
1459.25	2341.38
1459.8	2265.38
1460.36	2326.88
1460.91	2288.88
1461.46	2326.88
1462.01	2346.88
1462.56	2312.88
1463.11	2240.88
1463.66	2358.38
1464.21	2350.88
1464.76	2380.38
1465.31	2296.88
1465.86	2348.38
1466.41	2332.88
1466.96	2372.38
1467.51	2335.88
1468.06	2332.88
1468.61	2305.88
1469.16	2382.88
1469.71	2337.88
1470.26	2333.38
1470.81	2316.88
1471.36	2354.88
1471.91	2358.38
1472.46	2350.88
1473.01	2353.88
1473.56	2304.88
1474.11	2309.88
1474.66	2338.38
1475.2	2363.88
1475.75	2404.38
1476.3	2385.88
1476.85	2379.88
1477.4	2354.38
1477.95	2390.38
1478.5	2397.88
1479.05	2321.88
1479.6	2321.88
1480.15	2355.88
1480.7	2407.88
1481.24	2307.88
1481.79	2324.88
1482.34	2388.38
1482.89	2372.38
1483.44	2430.38
1483.99	2329.88
1484.53	2373.38
1485.08	2359.38
1485.63	2365.88
1486.18	2344.38
1486.73	2392.88
1487.27	2403.38
1487.82	2319.88
1488.37	2364.88
1488.92	2272.88
1489.47	2434.38
1490.01	2430.88
1490.56	2399.38
1491.11	2442.88
1491.66	2356.88
1492.21	2374.88
1492.75	2421.38
1493.3	2393.88
1493.85	2353.38
1494.39	2312.88
1494.94	2435.38
1495.49	2397.88
1496.04	2426.38
1496.58	2429.88
1497.13	2371.88
1497.68	2361.38
1498.22	2402.38
1498.77	2352.38
1499.32	2381.88
1499.87	2423.88