252.42298822141743, 0.6294235153736336
254.07506678150116, 0.6294235153736336
255.7271453415849, 0.6294235153736336
257.37922390166864, 0.6294235153736336
259.0313024617524, 0.6294235153736336
260.68338102183617, 0.6294235153736336
262.3354595819199, 0.6294235153736336
263.98753814200364, 0.6294235153736336
265.6396167020874, 0.6294235153736336
267.2916952621711, 0.6294235153736336
268.94377382225485, 0.6294235153736336
270.5958523823386, 0.6294235153736336
272.24793094242233, 0.6294235153736336
273.9000095025061, 0.6307200997208668
275.55208806258986, 0.6307200997208668
277.2041666226736, 0.6307200997208668
278.85624518275733, 0.6303959536340585
280.50832374284107, 0.6307200997208668
282.1604023029248, 0.6320166840681
283.81248086300855, 0.6316925379812917
285.4645594230923, 0.631044245807675
287.116637983176, 0.6323408301549083
288.76871654325976, 0.6333132684153331
290.4207951033435, 0.6339615605889497
292.07287366342723, 0.6346098527625663
293.724952223511, 0.6346098527625663
295.37703078359476, 0.6346098527625663
297.0291093436785, 0.6352581449361829
298.68118790376224, 0.6355822910229911
300.333266463846, 0.6359064371097995
301.9853450239297, 0.6359064371097995
303.6374235840135, 0.6372030214570327
305.28950214409724, 0.6381754597174576
306.941580704181, 0.6388237518910742
308.5936592642647, 0.6381754597174576
310.24573782434845, 0.6378513136306492
311.8978163844322, 0.6394720440646907
313.5498949445159, 0.6404444823251156
315.20197350459966, 0.6404444823251156
316.8540520646834, 0.639796190151499
318.50613062476714, 0.6407686284119238
320.1582091848509, 0.6420652127591571
321.8102877449346, 0.6423893588459654
323.46236630501835, 0.6423893588459654
325.1144448651021, 0.6423893588459654
326.7665234251858, 0.6423893588459654
328.4186019852696, 0.6423893588459654
330.07068054535335, 0.6427135049327737
331.7227591054371, 0.6436859431931985
333.37483766552083, 0.6446583814536234
335.02691622560457, 0.6456308197140483
336.67899478568836, 0.6462791118876648
338.3310733457721, 0.647575696234898
339.98315190585583, 0.647575696234898
341.63523046593957, 0.6478998423217063
343.2873090260233, 0.6485481344953229
344.93938758610705, 0.6488722805821312
346.5914661461908, 0.6488722805821312
348.2435447062745, 0.6491964266689394
349.89562326635826, 0.649844718842556
351.547701826442, 0.6514654492765974
353.19978038652573, 0.6517895953634059
354.85185894660947, 0.6521137414502141
356.5039375066932, 0.6527620336238307
358.15601606677694, 0.6527620336238307
359.8080946268607, 0.6527620336238307
361.4601731869445, 0.653086179710639
363.1122517470282, 0.6527620336238307
364.76433030711195, 0.6534103257974473
366.4164088671957, 0.6540586179710639
368.0684874272794, 0.655355202318297
369.7205659873632, 0.6566517866655301
371.37264454744695, 0.6569759327523386
373.0247231075307, 0.6576242249259551
374.6768016676144, 0.6582725170995716
376.32888022769816, 0.6592449553599966
377.9809587877819, 0.6592449553599966
379.63303734786564, 0.6592449553599966
381.2851159079494, 0.6605415397072297
382.9371944680331, 0.6618381240544629
384.58927302811685, 0.6618381240544629
386.2413515882006, 0.6618381240544629
387.8934301482843, 0.6618381240544629
389.54550870836806, 0.6631347084016961
391.1975872684518, 0.6641071466621209
392.8496658285356, 0.6637830005753127
394.6394176019596, 0.6642151953577237
396.15382294870307, 0.6663761692697789
397.8059015087868, 0.6660520231829707
399.45798006887054, 0.6663761692697789
401.11005862895433, 0.6670244614433956
402.76213718903807, 0.6683210457906288
404.4142157491218, 0.668645191877437
406.06629430920555, 0.6689693379642454
407.7183728692893, 0.6705900683982868
409.370451429373, 0.6715625066587116
411.02252998945676, 0.6731832370927531
412.6746085495405, 0.6728590910059449
414.32668710962423, 0.6738315292663697
415.97876566970797, 0.6757764057872195
417.6308442297917, 0.676424697960836
419.28292278987544, 0.6754522597004111
420.9350013499592, 0.6770729901344527
422.5870799100429, 0.6780454283948776
424.23915847012665, 0.6786937205684942
425.89123703021045, 0.6806385970893438
427.5433155902942, 0.681935181436577
429.1953941503779, 0.681935181436577
430.84747271046166, 0.681935181436577
432.4995512705454, 0.6829076196970019
434.15162983062913, 0.6835559118706185
435.80370839071287, 0.6858249344782765
437.45578695079666, 0.6864732266518931
439.1078655108804, 0.6877698109991264
440.75994407096414, 0.6880939570859346
442.4120226310479, 0.6890663953463595
444.0641011911316, 0.6903629796935926
445.71617975121535, 0.690687125780401
447.3682583112991, 0.6919837101276342
449.0203368713828, 0.6929561483880591
450.67241543146656, 0.6939285866484839
452.3244939915503, 0.6942527327352922
453.9765725516341, 0.6958734631693336
455.62865111171783, 0.6965217553429502
457.28072967180157, 0.6978183396901834
458.9328082318853, 0.6981424857769917
460.58488679196904, 0.7000873622978414
462.2369653520528, 0.7010598005582663
463.8890439121365, 0.7023563849054995
465.54112247222025, 0.7033288231659244
467.193201032304, 0.7036529692527327
468.8452795923877, 0.7052736996867741
470.4973581524715, 0.7065702840340073
472.14943671255526, 0.707218576207624
473.9391884859793, 0.7082990631636515
475.3159206193824, 0.7095956475108847
477.10567239280647, 0.71175662142294
478.7577509528902, 0.7127290596833649
480.40982951297394, 0.7143497901174063
482.0619080730577, 0.7156463744646395
483.7139866331414, 0.7162946666382561
485.36606519322515, 0.717267104898681
487.01814375330895, 0.7188878353327224
488.6702223133927, 0.7208327118535722
490.3223008734764, 0.7224534422876137
491.8367062202198, 0.7240741727216551
493.6264579936439, 0.7266673414161215
495.27853655372763, 0.7279639257633547
496.93061511381137, 0.7292605101105878
498.5826936738951, 0.7312053866314376
500.3724454473192, 0.7322858735874652
501.8868507940626, 0.7357434318467537
503.5389293541464, 0.7367158701071785
505.1910079142301, 0.740605623148878
506.98075968765414, 0.7422263535829196
508.4951650343976, 0.7449815953207901
510.1472435944813, 0.7483851292322772
511.79932215456506, 0.7525990283607848
513.4514007146488, 0.756975000532697
515.2411524880729, 0.7649165796595001
514.6904596347116, 0.7597302422705674
516.8932310481566, 0.7696707222660217
516.3425381947953, 0.7655648718331166
518.5453096082404, 0.7765858387845986
517.9946167548791, 0.7713995013956659
520.1973881683241, 0.7843653448679977
519.9220417416434, 0.7776663257406262
521.8494667284078, 0.7908482666041635
521.2987738750467, 0.7850136370416142
522.6755060084497, 0.7964667987755072
523.3638720751512, 0.8038141100764953
522.9508524351304, 0.7901999744305469
524.3275845685334, 0.80986483703025
524.1899113551931, 0.8012209413820288
525.9796631286172, 0.8193731222432933
525.8419899152768, 0.8128902005071275
525.428970275256, 0.8090004474654279
526.805702408659, 0.8262882387618702
527.6317416887009, 0.8344999396276802
527.0810488353397, 0.8187248300696767
527.9070881153816, 0.8252077518058425
529.1461470354443, 0.8427116404934903
529.1461470354443, 0.837849449191366
528.7331273954235, 0.8329872578892416
529.9721863154862, 0.847897977882423
530.798225595528, 0.8530843152713558
530.3852059555072, 0.843359932667107
531.7619380889103, 0.8582706526602885
531.6242648755699, 0.8504911465768894
533.414016648994, 0.8656179639612764
533.1386702223134, 0.858486750051494
535.0660952090777, 0.8714525935238258
534.5154023557166, 0.864429428309646
536.5805005558212, 0.8744779570007031
538.232579115905, 0.8757745413479363
539.8846576759887, 0.8751262491743197
541.5367362360724, 0.8741538109138948
543.0511415828158, 0.8710203987414147
544.1525272895384, 0.8671306456997151
545.6669326362818, 0.8660501587436875
545.6669326362818, 0.8611879674415631
547.3190111963655, 0.8602155291811382
547.1813379830253, 0.854813094401
548.833416543109, 0.8526521204889447
549.9348022498315, 0.847897977882423
550.623168316533, 0.8417392022330655
551.449207596575, 0.8446565170143401
552.2752468766168, 0.8388218874517909
553.9273254367006, 0.8375253031045578
553.9273254367006, 0.8326631118024332
555.5794039967843, 0.832338965715625
555.5794039967843, 0.8274767744135006
557.2314825568681, 0.8258560439794591
557.2314825568681, 0.821317998764143
558.7458879036114, 0.8191570248520877
559.847273610334, 0.8150511744191827
561.3616789570774, 0.8148350770279772
561.3616789570774, 0.8096487396390445
562.3253914504596, 0.8059750839885504
563.839796797203, 0.8031658179028787
563.839796797203, 0.7992760648611791
565.3542021439464, 0.7977633831227404
566.455587850669, 0.7930092405162188
567.832319984072, 0.7901999744305469
569.4843985441557, 0.787390708344875
570.5857842508783, 0.78328485791197
571.9625163842813, 0.7809077866087092
573.0639020910039, 0.7772341309582151
574.440634224407, 0.77507315704616
575.5420199311295, 0.772263890960488
577.0564252778729, 0.7713995013956659
578.7085038379566, 0.7701029170484328
580.3605823980404, 0.7684821866143913
582.0126609581241, 0.7665373100935415
583.8024127315482, 0.7638360927034724
585.1791448649512, 0.7616751187914171
586.9688966383753, 0.760378534444184
588.6209751984591, 0.758109511836526
590.2730537585428, 0.7564887814024844
591.9251323186265, 0.7555163431420595
593.5772108787103, 0.7532473205344015
595.229289438794, 0.75162659010036
596.8813679988777, 0.7500058596663186
597.7074072789196, 0.7464402527114273
599.3594858390034, 0.7436850109735569
600.873891185747, 0.7413619640180975
602.6636429591709, 0.7396331848884532
603.627355452553, 0.7359595292379593
605.0040875859563, 0.7348790422819316
606.1054732926787, 0.7309892892402321
607.4822054260819, 0.7296927048929989
608.5835911328043, 0.7258029518512994
609.9603232662075, 0.7240741727216551
611.8877482529717, 0.7210488092447778
613.264480386375, 0.7188878353327224
615.054232159799, 0.7162946666382561
616.0179446531811, 0.7126210109877621
617.3946767865843, 0.7111083292493234
618.3583892799666, 0.7081910144680488
620.0104678400503, 0.707218576207624
621.662546400134, 0.7059219918603907
622.6262588935161, 0.7022483362098968
624.1406642402596, 0.7020322388186913
625.7927428003434, 0.6994390701242248
627.5824945737673, 0.6964137066473475
629.0968999205109, 0.6952251709957171
630.7489784805946, 0.6929561483880591
632.263383827338, 0.6903629796935926
634.1908088141023, 0.6873376162167153
635.7052141608458, 0.6867973727387015
637.3572927209295, 0.6848524962178517
639.0093712810133, 0.6825834736101937
640.661449841097, 0.6812868892629604
642.3135284011807, 0.6786937205684942
643.9656069612645, 0.677397136221261
645.480012308008, 0.6748039675267946
647.4074372947723, 0.6717786040499172
648.7841694281755, 0.6694015327466564
650.5739212015994, 0.6673486075302039
652.2259997616832, 0.6670244614433956
653.8780783217669, 0.6657278770961623
655.5301568818506, 0.6641071466621209
657.1822354419344, 0.6624864162280795
658.8343140020181, 0.6615139779676547
660.4863925621019, 0.6602173936204214
662.1384711221856, 0.6582725170995716
663.7905496822693, 0.6573000788391468
665.4426282423532, 0.655355202318297
667.0947068024369, 0.6540586179710639
668.7467853625207, 0.6527620336238307
670.2611907092642, 0.6503849623205699
672.0509424826881, 0.6495205727557478
673.7030210427719, 0.6488722805821312
675.3550996028556, 0.6485481344953229
677.0071781629393, 0.647575696234898
678.6592567230231, 0.6469274040612814
680.3113352831068, 0.6453066736272399
681.9634138431907, 0.6436859431931985
683.6154924032744, 0.6427135049327735
685.2675709633581, 0.6423893588459653
686.9196495234419, 0.6423893588459653
688.5717280835256, 0.6423893588459653
690.2238066436094, 0.6414169205855403
691.8758852036931, 0.6397961901514989
693.5279637637768, 0.6394720440646906
695.1800423238606, 0.638823751891074
696.8321208839443, 0.6378513136306492
698.484199444028, 0.6378513136306492
700.1362780041118, 0.6378513136306492
701.7883565641955, 0.6372030214570326
703.4404351242792, 0.6362305831966077
705.092513684363, 0.6352581449361828
706.7445922444467, 0.6359064371097993
708.3966708045305, 0.6349339988493745
710.0487493646142, 0.6346098527625662
711.7008279246979, 0.6346098527625662
713.3529064847817, 0.6342857066757579
715.0049850448654, 0.6339615605889497
716.6570636049491, 0.6339615605889497
718.3091421650329, 0.6339615605889497
719.9612207251166, 0.6342857066757579
721.6132992852004, 0.6333132684153331
723.2653778452841, 0.6333132684153331
724.9174564053678, 0.6333132684153331
726.5695349654516, 0.6333132684153331
728.2216135255353, 0.6342857066757579
729.873692085619, 0.6346098527625662
731.5257706457028, 0.6346098527625662
733.1778492057865, 0.6346098527625662
734.8299277658703, 0.6346098527625662
736.482006325954, 0.6349339988493745
738.1340848860377, 0.6346098527625662
739.7861634461217, 0.6359064371097993
741.4382420062054, 0.6372030214570326
743.0903205662892, 0.6375271675438409
744.7423991263729, 0.638823751891074
746.3944776864566, 0.6394720440646906
748.0465562465404, 0.641092774498732
749.6986348066241, 0.6417410666723486
751.3507133667079, 0.6427135049327735
753.0027919267916, 0.6436859431931985
754.6548704868753, 0.6436859431931985
756.3069490469591, 0.6440100892800067
757.9590276070428, 0.6446583814536233
759.6111061671265, 0.646603257974473
761.2631847272103, 0.647575696234898
762.915263287294, 0.6482239884085146
764.5673418473777, 0.6488722805821311
766.2194204074615, 0.6488722805821311
767.8714989675452, 0.6488722805821311
769.523577527629, 0.6501688649293642
771.1756560877127, 0.6501688649293642
772.8277346477964, 0.6501688649293642
774.4798132078802, 0.6508171571029808
776.1318917679639, 0.6508171571029808
777.7839703280476, 0.6514654492765974
779.4360488881314, 0.6527620336238307
781.0881274482151, 0.6527620336238307
782.7402060082989, 0.6524378875370223
784.2546113550425, 0.6506010597117753
785.2183238484245, 0.6488722805821311
786.8704024085082, 0.6501688649293642
788.5224809685919, 0.6501688649293642
790.1745595286757, 0.6501688649293642
791.8266380887594, 0.6501688649293642
793.4787166488431, 0.6491964266689394
795.1307952089269, 0.6488722805821311
796.7828737690106, 0.647575696234898
798.4349523290944, 0.647575696234898
800.0870308891781, 0.646603257974473
801.7391094492618, 0.6462791118876647
803.3911880093458, 0.6456308197140481
805.0432665694295, 0.6440100892800067
806.6953451295133, 0.6433617971063901
808.347423689597, 0.6423893588459653
809.9995022496807, 0.6407686284119238
811.6515808097645, 0.6391478979778823
813.3036593698482, 0.6381754597174574
814.955737929932, 0.6372030214570326
816.6078164900157, 0.6365547292834159
818.2598950500994, 0.6359064371097993
819.9119736101832, 0.6346098527625662
821.5640521702669, 0.6336374145021413
823.2161307303506, 0.6333132684153331
824.8682092904344, 0.6326649762417165
826.5202878505181, 0.6320166840680999
828.1723664106019, 0.6307200997208666
829.8244449706856, 0.6294235153736335
831.4765235307693, 0.6294235153736335
833.1286020908531, 0.6294235153736335
834.7806806509368, 0.628775223200017
836.4327592110205, 0.6281269310264004
838.0848377711043, 0.6281269310264004
839.736916331188, 0.6281269310264004
841.3889948912718, 0.6281269310264004
843.0410734513555, 0.6281269310264004
844.6931520114392, 0.6281269310264004
846.345230571523, 0.6281269310264004
847.9973091316067, 0.6281269310264004
849.6493876916904, 0.6284510771132086
851.3014662517742, 0.6281269310264004
852.9535448118579, 0.6290993692868252
854.6056233719416, 0.6290993692868252
856.2577019320254, 0.628775223200017
857.9097804921091, 0.628775223200017
859.5618590521929, 0.6294235153736335
861.2139376122766, 0.6294235153736335
862.8660161723603, 0.6294235153736335
864.5180947324441, 0.6294235153736335
866.1701732925278, 0.6294235153736335
867.8222518526115, 0.6294235153736335
869.4743304126955, 0.6294235153736335
871.1264089727792, 0.6294235153736335
872.778487532863, 0.6297476614604418
874.4305660929467, 0.6294235153736335
876.0826446530305, 0.6307200997208666
877.7347232131142, 0.6307200997208666
879.3868017731979, 0.6297476614604418
881.0388803332817, 0.6303959536340584
882.6909588933654, 0.6313683918944832
884.3430374534491, 0.6320166840680999
885.9951160135329, 0.6320166840680999
887.6471945736166, 0.6323408301549082
889.2992731337004, 0.6329891223285247
890.9513516937841, 0.6329891223285247
892.6034302538678, 0.6333132684153331
894.2555088139516, 0.6333132684153331
895.9075873740353, 0.6333132684153331
897.559665934119, 0.6336374145021413
899.2117444942028, 0.6342857066757579
900.8638230542865, 0.6346098527625662
902.5159016143703, 0.6346098527625662
904.167980174454, 0.6346098527625662
905.8200587345377, 0.6346098527625662
907.4721372946215, 0.6346098527625662
909.1242158547052, 0.6362305831966077
910.7762944147889, 0.6372030214570326
912.4283729748727, 0.6372030214570326
914.0804515349564, 0.6375271675438409
915.7325300950401, 0.638823751891074
917.3846086551239, 0.6394720440646906
919.0366872152076, 0.6397961901514989
920.6887657752914, 0.6414169205855403
922.3408443353751, 0.6423893588459653
923.9929228954588, 0.6423893588459653
925.6450014555426, 0.6433617971063901
927.2970800156263, 0.644334235366815
928.94915857571, 0.6453066736272399
930.6012371357938, 0.6472515501480897
932.2533156958775, 0.647575696234898
933.9053942559615, 0.6491964266689394
935.4197996027049, 0.6501688649293642
937.209551376129, 0.6521137414502141
938.8616299362127, 0.6524378875370223
940.5137084962964, 0.6527620336238307
942.1657870563802, 0.6534103257974472
943.8178656164639, 0.6540586179710638
945.4699441765476, 0.6540586179710638
947.1220227366314, 0.6540586179710638
948.7741012967151, 0.6540586179710638
950.4261798567989, 0.6540586179710638
952.0782584168826, 0.6540586179710638
953.7303369769663, 0.6540586179710638
955.3824155370501, 0.6540586179710638
957.0344940971338, 0.6540586179710638
958.6865726572175, 0.6527620336238307
960.3386512173013, 0.6527620336238307
961.990729777385, 0.6527620336238307
963.6428083374688, 0.6534103257974472
965.2948868975525, 0.6527620336238307
966.9469654576362, 0.6527620336238307
968.59904401772, 0.6534103257974472
970.2511225778037, 0.6527620336238307
971.9032011378874, 0.6527620336238307
973.5552796979712, 0.6537344718842555
975.2073582580549, 0.6540586179710638
976.8594368181386, 0.6540586179710638
978.5115153782224, 0.6540586179710638
980.1635939383061, 0.6540586179710638
981.8156724983899, 0.6540586179710638
983.4677510584736, 0.6547069101446803
985.1198296185573, 0.6560034944919135
986.7719081786411, 0.6566517866655301
988.4239867387248, 0.6566517866655301
990.0760652988085, 0.6569759327523385
991.7281438588923, 0.657624224925955
993.380222418976, 0.6585966631863799
995.0323009790598, 0.6592449553599965
996.6843795391435, 0.6608656857940379
998.3364580992272, 0.6618381240544629
999.9885366593112, 0.662162270141271
1001.6406152193949, 0.6637830005753126
1003.1550205661383, 0.6655117797049568
1004.9447723395624, 0.6673486075302038
1006.5968508996461, 0.6689693379642453
1008.1112562463895, 0.670482019702684
1009.9010080198136, 0.6725349449191365
1011.6907597932375, 0.6739395779619723
1013.2051651399811, 0.6770729901344525
1014.8572437000648, 0.6786937205684941
1016.5093222601486, 0.6812868892629603
1018.1614008202323, 0.6829076196970019
1019.9511525936564, 0.6851766423046599
1021.4655579403998, 0.687445664912318
1023.1176365004835, 0.6916595640408257
1024.7697150605673, 0.6937665136050797
1026.421793620651, 0.6970079744731625
1028.0738721807347, 0.700897727514862
1029.7259507408185, 0.7049495535999657
1031.3780293009022, 0.7086772335982612
1033.030107860986, 0.7125669866399607
1034.6821864210697, 0.7158084475080435
1036.4719381944938, 0.7223453935920108
1035.9212453411326, 0.7175912509854891
1037.9863435412371, 0.7253707570688882
1039.7760953146612, 0.7320697761962596
1039.2254024613, 0.7279639257633546
1041.428173874745, 0.7368239188027812
1040.8774810213838, 0.731853678805054
1043.0802524348287, 0.742442450974125
1042.5295595814675, 0.7370400161939867
1044.7323309949124, 0.7471965935806466
1044.1816381415513, 0.7422263535829194
1046.3844095549962, 0.7528151257519904
1045.833716701635, 0.7474126909718521
1048.03648811508, 0.7592980474881562
1047.4857952617187, 0.7532473205344015
1049.6885666751637, 0.7644843848770889
1049.1378738218025, 0.7597302422705672
1051.3406452352474, 0.7701029170484327
1050.7899523818862, 0.7662131640067331
1052.1666845152893, 0.7765858387845985
1052.44203094197, 0.7707512092220492
1053.818763075373, 0.7826365657383533
1053.6810898620326, 0.7769099848714068
1055.4708416354567, 0.7895516822569302
1054.9201487820956, 0.782744614433956
1057.1229201955407, 0.7960346039930961
1056.5722273421793, 0.7908482666041634
1058.7749987556244, 0.8012209413820288
1058.224305902263, 0.7957104579062878
1059.6010380356663, 0.8077038631181946
1060.2894041023676, 0.8034899639896869
1061.25311659575, 0.8150511744191826
1061.1154433824095, 0.8093245935522362
1062.9051951558338, 0.8241272648498148
1062.6298487291529, 0.8167799535488268
1064.5572737159175, 0.8319067709332139
1064.2819272892366, 0.824991654414637
1066.2093522760013, 0.840982861363846
1065.9340058493203, 0.833635550062858
1067.861430836085, 0.8500589517944783
1067.7237576227446, 0.8440082248407235
1067.3107379827236, 0.8394701796254074
1069.3758361828284, 0.8569740683130552
1069.2381629694878, 0.8509233413593004
1070.3395486762106, 0.86302479526681
1070.614895102891, 0.8569740683130552
1071.9916272362943, 0.8725330804798532
1071.853954022954, 0.866698450917304
1071.440934382933, 0.8621604057019878
1073.643705796378, 0.8798803917808412
1073.3683593696974, 0.8727491778710588
1075.1581111431215, 0.8893886769938845
1075.1581111431215, 0.8842023396049519
1074.7450915031004, 0.8796642943896357
1076.1218236365037, 0.893710624817995
1076.9478629165455, 0.9019223256838051
1076.3971700631841, 0.8867955082994181
1077.4985557699067, 0.8941428196004061
1078.5999414766293, 0.9109984161144373
1078.462268263289, 0.9052718352474909
1078.0492486232679, 0.8997613517717499
1080.252020036713, 0.9200745065450695
1080.1143468233727, 0.9140237795913148
1079.7013271833516, 0.9094857343759987
1081.9040985967968, 0.9278540126284686
1081.628752170116, 0.9205067013274806
1083.5561771568805, 0.9347691291470455
1083.005484303519, 0.9279620613240713
1085.2082557169642, 0.9412520508832114
1084.6575628636028, 0.9360657134942787
1086.860334277048, 0.9490315569666103
1086.5849878503673, 0.942332537839239
1088.3747396237914, 0.9517867987044809
1090.026818183875, 0.9568110630500094
1091.8165699572992, 0.9628617900037643
1091.2658771039378, 0.9581076473972426
1093.1933020907022, 0.9650227639158195
1094.9830538641263, 0.9681561760882997
1096.63513242421, 0.9691286143487245
1098.2872109842938, 0.9688044682619162
1099.9392895443775, 0.9668595917410665
1101.5913681044613, 0.9652388613070251
1102.5550805978435, 0.961565205656531
1103.9318127312465, 0.9598364265268868
1105.033198437969, 0.9557305760939818
1106.5476037847125, 0.954217894355543
1106.5476037847125, 0.949679849140227
1108.1996823447962, 0.9490315569666103
1108.1996823447962, 0.9444935117512943
1109.7140876915396, 0.9429808300128556
1110.8154733982622, 0.9373622978415118
1111.641512678304, 0.9317437656701681
1112.3298787450055, 0.9263413308900299
1113.1559180250474, 0.9295827917581128
1114.1196305184296, 0.9222354804571249
1114.9456697984715, 0.9151042665473423
1115.2210162251522, 0.9218032856747138
1116.460075145215, 0.9146720717649314
1116.3224019318745, 0.9090535395935876
1118.1121537052986, 0.9081891500287654
1117.9744804919583, 0.9025706178574218
1119.0758661986808, 0.8980325726421057
1119.7642322653824, 0.8923059917751591
1120.5902715454242, 0.8952233065564338
1120.5902715454242, 0.8880920926466513
1121.8293304654871, 0.8906852613411177
1122.1046768921676, 0.8842023396049518
1123.0683893855498, 0.878853929172615
1124.7204679456336, 0.8764228335215527
1124.7204679456336, 0.8715606422194283
1125.684180439016, 0.8658340613524819
1126.3725465057173, 0.8705882039590035
1127.0609125724188, 0.8621604057019878
1128.1622982791416, 0.8582706526602883
1128.9883375591835, 0.8515716335329169
1129.676703625885, 0.8563257761394386
1130.3650696925863, 0.8478979778824229
1131.3287821859687, 0.8425495674500861
1132.1548214660106, 0.8365528648441327
1132.9808607460525, 0.840118471799024
1133.9445732394347, 0.833203355280447
1135.458978586178, 0.8323389657156248
1135.3213053728375, 0.8265043361530756
1136.4226910795603, 0.8232628752849926
1137.9370964263037, 0.8219662909377595
1137.9370964263037, 0.8167799535488268
1139.5891749863874, 0.8154833692015937
1139.5891749863874, 0.8112694700730858
1141.2412535464712, 0.810297031812661
1141.2412535464712, 0.8054348405105366
1142.893332106555, 0.8044624022501117
1142.7556588932146, 0.7990599674699734
1144.4077374532983, 0.7964667987755072
1145.5091231600209, 0.7919287535601911
1146.1974892267224, 0.785986075302039
1147.0235285067643, 0.7889033900833136
1147.9872410001465, 0.7826365657383533
1149.3639731335495, 0.7798272996526814
1150.465358840272, 0.7761536440021874
1151.1537249069736, 0.7704270631352409
1151.9797641870155, 0.7733443779165156
1152.9434766803977, 0.7666453587891442
1154.457882027141, 0.7649165796594999
1154.457882027141, 0.7597302422705672
1155.9722873738845, 0.757569268358512
1157.073673080607, 0.7528151257519904
1158.5880784273504, 0.7500058596663184
1158.5880784273504, 0.7457919605378107
1160.1024837740938, 0.7433068405389471
1161.2038694808164, 0.739200990106042
1162.7182748275598, 0.7376883083676034
1162.7182748275598, 0.7331502631522873
1164.2326801743031, 0.7309892892402319
1165.3340658810257, 0.7266673414161213
1166.848471227769, 0.7253707570688882
1166.848471227769, 0.7205085657667638
1168.3628765745125, 0.7186717379415168
1169.464262281235, 0.7141336927262008
1170.9786676279784, 0.7130532057701731
1170.9786676279784, 0.7088393066416653
1172.4930729747218, 0.7070024788164182
1173.5944586814444, 0.7031127257747187
1175.1088640281878, 0.7013839466450745
1175.1088640281878, 0.6971700475165667
1176.6232693749312, 0.6959815118649363
1177.7246550816537, 0.6927400509968533
1179.1013872150568, 0.690579077084798
1180.2027729217793, 0.686473226651893
1181.5795050551824, 0.6838800579574267
1182.680890761905, 0.6799903049157272
1184.057622895308, 0.678693720568494
1185.847374668732, 0.6761005518740277
1186.8110871621145, 0.6724268962235337
1188.4631657221983, 0.670482019702684
1189.9775710689414, 0.6683210457906286
1191.6296496290252, 0.6657278770961623
1193.4194014024495, 0.6624864162280794
1194.7961335358525, 0.6592449553599964
1196.5858853092766, 0.6579483710127633
1198.2379638693603, 0.6553552023182969
1199.890042429444, 0.6537344718842555
1201.6797942028682, 0.6510332544941864
1203.1941995496115, 0.6491964266689394
1204.8462781096953, 0.6478998423217062
1206.498356669779, 0.6469274040612814
1208.1504352298628, 0.6449825275404315
1209.8025137899465, 0.6430376510195818
1211.4545923500302, 0.6414169205855402
1213.106670910114, 0.6397961901514988
1214.7587494701977, 0.638823751891074
1216.4108280302814, 0.6381754597174574
1218.0629065903652, 0.6375271675438408
1219.714985150449, 0.6365547292834159
1221.3670637105326, 0.6349339988493745
1223.0191422706164, 0.6352581449361827
1224.6712208307001, 0.6346098527625661
1226.3232993907839, 0.6346098527625661
1227.9753779508676, 0.6339615605889496
1229.6274565109513, 0.633313268415333
1231.279535071035, 0.633313268415333
1232.9316136311188, 0.633313268415333
1234.5836921912025, 0.6326649762417165
1236.2357707512863, 0.6320166840680999
1237.88784931137, 0.6320166840680999
1239.5399278714538, 0.6320166840680999
1241.1920064315375, 0.6313683918944832
1242.8440849916215, 0.6310442458076749
1244.4961635517052, 0.6307200997208666
