253.2490275014593, 0.5179172615115808
254.90110606154303, 0.5172689693379642
256.55318462162677, 0.5175931154247726
258.2052631817105, 0.5179172615115808
259.85734174179424, 0.5179172615115808
261.50942030187804, 0.5182414075983891
263.1614988619618, 0.519213845858814
264.8135774220455, 0.5198621380324306
266.46565598212925, 0.5198621380324306
268.117734542213, 0.5211587223796638
269.7698131022967, 0.5211587223796638
271.42189166238046, 0.5205104302060473
273.07397022246425, 0.5211587223796638
274.726048782548, 0.5211587223796638
276.37812734263173, 0.5211587223796638
278.03020590271547, 0.5218070145532804
279.6822844627992, 0.5218070145532804
281.33436302288294, 0.5221311606400887
282.9864415829667, 0.5234277449873218
284.6385201430504, 0.5234277449873218
286.29059870313415, 0.5231035989005135
288.08035047655824, 0.5235357936829246
289.45708260996133, 0.5250484754213633
291.24683438338536, 0.5263450597685965
292.8989129434691, 0.5263450597685965
294.5509915035529, 0.5273174980290214
296.20307006363663, 0.5276416441158296
297.85514862372037, 0.5276416441158296
299.6449003971444, 0.527425546724624
301.15930574388784, 0.5289382284630628
302.8113843039716, 0.530234812810296
304.325789650715, 0.5304509102015016
306.1155414241391, 0.5315313971575291
307.76761998422285, 0.5315313971575291
309.4196985443066, 0.5315313971575291
311.0717771043903, 0.5315313971575291
312.72385566447406, 0.5328279815047623
314.3759342245578, 0.5331521275915706
316.02801278464153, 0.5338004197651872
317.68009134472527, 0.5344487119388037
319.332169904809, 0.5350970041124203
320.98424846489274, 0.5360694423728453
322.6363270249765, 0.5360694423728453
324.2884055850602, 0.5363935884596536
325.94048414514396, 0.5367177345464618
327.59256270522775, 0.5363935884596536
329.2446412653115, 0.5367177345464618
330.8967198253952, 0.538014318893695
332.54879838547896, 0.538014318893695
334.2008769455627, 0.5386626110673116
335.8529555056465, 0.5406074875881614
337.50503406573023, 0.5412557797617779
339.15711262581397, 0.5419040719353945
340.8091911858977, 0.5432006562826277
342.46126974598144, 0.5432006562826277
344.1133483060652, 0.5432006562826277
345.7654268661489, 0.5432006562826277
347.41750542623265, 0.5438489484562442
349.0695839863164, 0.5451455328034773
350.7216625464001, 0.5454696788902857
352.37374110648386, 0.5457938249770939
354.0258196665676, 0.5470904093243272
355.67789822665134, 0.5474145554111354
357.3299767867351, 0.5477387014979438
358.9820553468188, 0.548062847584752
360.6341339069026, 0.5493594319319852
362.14853925364605, 0.5498996754099991
363.9382910270701, 0.55033187019241
365.5903695871538, 0.5509801623660266
367.24244814723755, 0.5519526006264516
368.89452670732135, 0.5522767467132599
370.6842784807453, 0.5520606493220543
372.0610106141485, 0.5537894284516985
373.85076238757256, 0.5561664997549594
375.5028409476563, 0.5571389380153842
377.15491950774003, 0.5574630841021926
378.80699806782377, 0.5574630841021926
380.4590766279075, 0.5581113762758091
382.11115518799124, 0.559083814536234
383.62556053473463, 0.5602723501878644
385.4153123081587, 0.5607045449702754
387.06739086824246, 0.5613528371438921
388.7194694283262, 0.5610286910570838
390.37154798840993, 0.5616769832307003
391.8859533351534, 0.5639460058383584
393.67570510857746, 0.5652425901855915
395.3277836686612, 0.5655667362723998
396.97986222874493, 0.5658908823592081
398.6319407888287, 0.5658908823592081
400.42169256225276, 0.5663230771416192
401.9360979089962, 0.5681599049668662
403.58817646907994, 0.5704289275745242
405.2402550291637, 0.5704289275745242
406.8923335892474, 0.5707530736613325
408.54441214933115, 0.5710772197481409
410.1964907094149, 0.5717255119217575
411.986242482839, 0.572805998877785
413.362974616242, 0.5745347780074292
415.01505317632575, 0.5758313623546625
416.80480494974984, 0.5772359953974984
418.4568835098336, 0.5785325797447316
420.1089620699173, 0.5791808719183482
421.8987138433414, 0.5792889206139509
423.4131191900848, 0.5814498945260063
425.0651977501686, 0.5820981866996229
426.7172763102523, 0.5824223327864311
428.36935487033605, 0.5850155014808974
430.0214334304198, 0.5859879397413224
431.8111852038439, 0.5870684266973499
433.32559055058726, 0.5880948893055762
434.977669110671, 0.5902018388698301
436.62974767075474, 0.5913363501736592
438.1441530174982, 0.5926869588686937
439.93390479092227, 0.5940915919115297
441.585983351006, 0.596684760605996
443.23806191108974, 0.5986296371268458
444.8901404711735, 0.5986296371268458
446.5422190312572, 0.6005745136476954
448.3319708046813, 0.6026274388641479
449.8463761514247, 0.6047884127762033
451.49845471150843, 0.6051125588630115
453.15053327159217, 0.6080298736442862
454.80261183167596, 0.6090023119047111
456.31701717841935, 0.609542555382725
458.10676895184343, 0.6122437727727941
459.7588475119272, 0.6132162110332189
461.54859928535126, 0.6142966979892466
463.06300463209465, 0.616619744944706
464.7150831921784, 0.6196991327693848
466.2294885389218, 0.6212118145078236
468.01924031234586, 0.6226164475506595
469.5336456590893, 0.6251015675495231
471.3233974325134, 0.6274786388527838
472.9754759925971, 0.628775223200017
474.76522776602116, 0.6298557101560447
476.2796331127646, 0.6321787571115041
477.93171167284834, 0.6342857066757579
479.4461170195917, 0.6367708266746216
481.0981955796755, 0.6380674110218547
482.88794735309955, 0.6394720440646906
484.402352699843, 0.6419571640635542
486.3297776866074, 0.6441181379756096
487.70650982001047, 0.6458469171052538
489.3585883800942, 0.6471435014524869
491.2860133668586, 0.6493044753645422
492.6627455002617, 0.6510332544941865
494.45249727368576, 0.6524378875370224
495.96690262042915, 0.6549230075358861
497.75665439385324, 0.6560034944919135
499.5464061672773, 0.655787397100708
501.0608115140207, 0.6573000788391468
502.7128900741045, 0.6573000788391468
504.36496863418824, 0.6579483710127634
506.017047194272, 0.65859666318638
507.6691257543557, 0.65859666318638
509.32120431443946, 0.6592449553599966
510.9732828745232, 0.6598932475336131
512.6253614346069, 0.660865685794038
514.2774399946907, 0.6611898318808462
516.0671917681148, 0.659028857968791
517.4439239015178, 0.6581644684039689
518.4076363949, 0.656327640578722
520.0597149549837, 0.6573000788391468
521.7117935150675, 0.6569759327523386
523.3638720751512, 0.6573000788391468
525.015950635235, 0.655355202318297
526.5303559819783, 0.6531942284062418
527.6317416887009, 0.6501688649293643
529.0084738221041, 0.6493044753645422
530.798225595528, 0.6482239884085146
532.4503041556118, 0.6469274040612814
534.2400559290359, 0.6445503327580206
535.7544612757794, 0.6427135049327736
537.2688666225228, 0.6415249692811431
539.0586183959468, 0.6401203362383072
540.7106969560306, 0.6391478979778824
542.3627755161143, 0.6391478979778824
544.1525272895384, 0.6380674110218547
545.6669326362818, 0.6378513136306492
547.3190111963655, 0.6378513136306492
548.9710897564493, 0.6378513136306492
550.623168316533, 0.6384996058042658
552.2752468766168, 0.6391478979778824
553.9273254367006, 0.6407686284119238
555.5794039967843, 0.6417410666723486
557.3691557702083, 0.6428215536283763
558.8835611169518, 0.6446583814536233
560.5356396770355, 0.6453066736272399
562.1877182371193, 0.6459549658008565
563.839796797203, 0.6482239884085146
565.4918753572867, 0.6495205727557478
567.1439539173705, 0.6501688649293643
568.7960324774542, 0.6514654492765974
570.448111037538, 0.6521137414502141
572.1001895976217, 0.6521137414502141
573.7522681577054, 0.6524378875370224
575.4043467177892, 0.6521137414502141
576.9187520645326, 0.6506010597117753
578.5708306246163, 0.6510332544941865
580.3605823980404, 0.6521137414502141
582.0126609581241, 0.6521137414502141
583.6647395182079, 0.6524378875370224
585.3168180782916, 0.6521137414502141
586.9688966383753, 0.6521137414502141
588.7586484117994, 0.6510332544941865
590.2730537585428, 0.6495205727557478
591.9251323186265, 0.6488722805821312
593.5772108787103, 0.6482239884085146
595.3669626521344, 0.6458469171052538
596.8813679988777, 0.6453066736272399
598.6711197723018, 0.6432537484107874
600.0478519057051, 0.6415249692811431
601.1492376124274, 0.6387157031954713
602.6636429591709, 0.6384996058042658
604.1780483059144, 0.6363386318922104
605.2794340126368, 0.6335293658065386
606.9315125727205, 0.632881073632922
608.445917919464, 0.6308821727642708
609.9603232662075, 0.6285591258088115
611.0617089729299, 0.6257498597231397
612.4384411063331, 0.624669372767112
613.4021535997152, 0.6226164475506595
615.1919053731392, 0.6212118145078236
616.5686375065425, 0.6194830353781793
617.6700232132648, 0.6166737692925074
619.0467553466681, 0.6155932823364797
620.1481410533905, 0.6127840162508079
621.662546400134, 0.6114334075557732
623.1769517468774, 0.6091103606003139
624.9667035203015, 0.6080298736442862
626.4811088670449, 0.6052206075586144
627.5824945737673, 0.6030596336465591
628.9592267071705, 0.6019791466905314
630.060612413893, 0.5985215884312429
631.4373445472961, 0.5974411014752152
632.5387302540186, 0.5946318353895435
634.1908088141023, 0.5939835432159268
635.842887374186, 0.5926869588686937
637.2196195075892, 0.5909581797390495
638.3210052143118, 0.5881489136533776
639.6977373477148, 0.5870684266973499
640.661449841097, 0.5850155014808974
642.1758551878404, 0.5844752580028836
643.277240894563, 0.5814498945260063
644.653973027966, 0.5805855049611841
646.3060515880499, 0.5792889206139509
647.269764081432, 0.5765877032238818
648.7841694281755, 0.5753991675722514
649.8855551348979, 0.5732381936601961
651.3999604816413, 0.5723738040953741
652.9143658283848, 0.5702128301833187
654.0157515351073, 0.5674035640976469
655.3924836685104, 0.5663230771416192
657.3199086552747, 0.564162103229564
658.6966407886779, 0.5624333240999196
659.7980264954003, 0.5604884475790699
661.1747586288035, 0.5598401554054533
662.1384711221856, 0.5577872301890008
663.7905496822693, 0.5574630841021926
665.304955029013, 0.5559504023637538
667.2323800157772, 0.5537894284516985
668.7467853625207, 0.5529250388868765
670.2611907092642, 0.5507640649748211
672.0509424826881, 0.55033187019241
673.7030210427719, 0.5477387014979438
675.2174263895154, 0.5455777275858884
676.8695049495991, 0.5442811432386552
678.5215835096828, 0.542984558891422
680.3113352831068, 0.5428765101958193
681.9634138431907, 0.5422282180222027
683.6154924032744, 0.5412557797617779
685.2675709633581, 0.5399591954145446
686.9196495234419, 0.5389867571541198
688.5717280835256, 0.5380143188936949
690.086133430269, 0.5365016371552562
691.8758852036931, 0.5363935884596533
693.5279637637768, 0.5360694423728452
695.1800423238606, 0.5354211501992285
696.8321208839443, 0.5347728580256119
698.484199444028, 0.5338004197651871
700.1362780041118, 0.5328279815047622
701.7883565641955, 0.5328279815047622
703.4404351242792, 0.5321796893311457
705.092513684363, 0.5321796893311457
706.7445922444467, 0.5315313971575291
708.3966708045305, 0.5315313971575291
710.0487493646142, 0.5315313971575291
711.7008279246979, 0.5315313971575291
713.3529064847817, 0.5308831049839124
715.0049850448654, 0.5305589588971041
716.6570636049491, 0.5302348128102958
718.3091421650329, 0.5308831049839124
719.9612207251166, 0.5312072510707208
721.6132992852004, 0.5315313971575291
723.2653778452841, 0.5315313971575291
724.9174564053678, 0.5315313971575291
726.5695349654516, 0.5315313971575291
728.2216135255353, 0.5315313971575291
729.873692085619, 0.5315313971575291
731.5257706457028, 0.5315313971575291
733.1778492057865, 0.5318555432443373
734.8299277658703, 0.5321796893311457
736.482006325954, 0.5325038354179539
738.1340848860377, 0.5328279815047622
739.7861634461217, 0.5328279815047622
741.4382420062054, 0.5331521275915705
743.0903205662892, 0.5338004197651871
744.7423991263729, 0.5344487119388037
746.3944776864566, 0.5354211501992285
748.0465562465404, 0.5360694423728452
749.6986348066241, 0.5367177345464618
751.3507133667079, 0.5367177345464618
753.0027919267916, 0.5367177345464618
754.517197273535, 0.5369338319376673
756.3069490469591, 0.5380143188936949
757.9590276070428, 0.5380143188936949
759.6111061671265, 0.5380143188936949
761.2631847272103, 0.5380143188936949
762.915263287294, 0.5380143188936949
764.5673418473777, 0.5380143188936949
766.2194204074615, 0.5380143188936949
767.7338257542049, 0.5382304162849004
769.523577527629, 0.539310903240928
771.1756560877127, 0.5386626110673115
772.8277346477964, 0.5380143188936949
774.4798132078802, 0.5386626110673115
776.1318917679639, 0.5396350493277364
777.7839703280476, 0.5396350493277364
779.4360488881314, 0.5380143188936949
781.0881274482151, 0.5380143188936949
782.7402060082989, 0.5380143188936949
784.3922845683826, 0.5380143188936949
786.0443631284663, 0.5376901728068866
787.6964416885501, 0.5373660267200784
789.3485202486338, 0.5373660267200784
791.0005988087175, 0.5367177345464618
792.6526773688013, 0.5350970041124203
794.304755928885, 0.5344487119388037
796.0945077023091, 0.5330440788959678
797.7465862623928, 0.5317474945487346
799.2609916091362, 0.5315313971575291
800.91307016922, 0.5315313971575291
802.5651487293037, 0.5302348128102958
804.2172272893877, 0.5286140823762544
805.8693058494714, 0.5276416441158296
807.3837111962148, 0.5261289623773908
809.1734629696389, 0.5256967675949797
810.8255415297226, 0.5250484754213631
812.4776200898064, 0.52375189107413
814.1296986498901, 0.5224553067268969
815.6441039966335, 0.5209426249884581
817.2961825567172, 0.5196460406412249
819.0859343301413, 0.5198621380324304
820.738012890225, 0.5188896997720056
822.3900914503088, 0.5185655536851973
824.0421700103925, 0.5185655536851973
825.6942485704762, 0.5179172615115808
827.34632713056, 0.5179172615115808
828.9984056906437, 0.5175931154247724
830.6504842507275, 0.5166206771643476
832.3025628108112, 0.5166206771643476
833.9546413708949, 0.5166206771643476
835.6067199309787, 0.5166206771643476
837.2587984910624, 0.5172689693379642
838.9108770511461, 0.5172689693379642
840.5629556112299, 0.5172689693379642
842.2150341713136, 0.5166206771643476
843.8671127313974, 0.5166206771643476
845.5191912914811, 0.5172689693379642
847.1712698515648, 0.5172689693379642
848.8233484116486, 0.5169448232511559
850.4754269717323, 0.5169448232511559
852.127505531816, 0.5175931154247724
853.7795840918998, 0.518241407598389
855.4316626519835, 0.5185655536851973
857.0837412120673, 0.5185655536851973
858.735819772151, 0.518241407598389
860.3878983322347, 0.518241407598389
862.0399768923185, 0.5185655536851973
863.6920554524022, 0.5188896997720056
865.3441340124859, 0.5198621380324304
866.9962125725697, 0.5198621380324304
868.6482911326536, 0.5201862841192388
870.3003696927374, 0.5208345762928553
871.9524482528211, 0.5211587223796637
873.6045268129049, 0.5218070145532803
875.2566053729886, 0.5218070145532803
876.9086839330723, 0.5218070145532803
878.5607624931561, 0.5224553067268969
880.2128410532398, 0.5224553067268969
881.8649196133235, 0.5231035989005134
883.5169981734073, 0.5231035989005134
885.169076733491, 0.5234277449873217
886.8211552935747, 0.5240760371609383
888.4732338536585, 0.52375189107413
890.1253124137422, 0.5247243293345549
891.777390973826, 0.5263450597685964
893.4294695339097, 0.5263450597685964
895.0815480939934, 0.5263450597685964
896.7336266540772, 0.5276416441158296
898.3857052141609, 0.5279657902026378
900.0377837742446, 0.5289382284630627
901.6898623343284, 0.5299106667234876
903.3419408944121, 0.5308831049839124
904.9940194544959, 0.5315313971575291
906.5084248012392, 0.5317474945487346
908.160503361323, 0.5330440788959678
909.9502551347471, 0.5344487119388037
911.6023336948308, 0.5350970041124203
913.1167390415742, 0.5356372475904341
914.9064908149983, 0.5380143188936949
916.558569375082, 0.5396350493277364
918.2106479351658, 0.5409316336749695
920.0003997085898, 0.5416879745441889
921.5148050553332, 0.5435248023694359
923.166883615417, 0.5464421171507106
924.8189621755007, 0.5474145554111354
926.4710407355844, 0.5483869936715602
927.985446082328, 0.549899675409999
929.7751978557519, 0.5513043084528348
931.2896032024955, 0.5537894284516984
933.2170281892597, 0.5559504023637538
934.7314335360034, 0.5574630841021925
936.3835120960871, 0.559083814536234
938.0355906561708, 0.5607045449702754
939.6876692162546, 0.5620011293175086
941.3397477763383, 0.5626494214911252
942.991826336422, 0.5642701519251666
944.6439048965058, 0.5652425901855915
946.2959834565895, 0.5658908823592081
947.9480620166732, 0.566863320619633
949.600140576757, 0.5671874667064413
951.2522191368407, 0.5671874667064413
952.9042976969245, 0.5671874667064413
954.5563762570082, 0.5671874667064413
956.2084548170919, 0.5678357588800578
957.8605333771757, 0.5678357588800578
959.5126119372594, 0.5671874667064413
961.1646904973431, 0.5675116127932496
962.8167690574269, 0.5681599049668662
964.4688476175106, 0.569132343227291
966.2585993909347, 0.5689162458360855
967.7730047376781, 0.5707530736613324
969.4250832977618, 0.571401365834949
971.0771618578456, 0.5717255119217574
972.7292404179293, 0.572373804095374
974.381318978013, 0.5736703884426071
976.0333975380968, 0.5756152649634569
977.6854760981805, 0.5756152649634569
979.3375546582643, 0.5762635571370734
980.989633218348, 0.5769118493106901
982.6417117784317, 0.5788567258315398
984.2937903385155, 0.5808016023523896
985.8081956852591, 0.5810176997435952
987.5979474586829, 0.5820981866996228
989.2500260187667, 0.5824223327864311
990.9021045788504, 0.5850155014808973
992.6918563522745, 0.5870684266973498
994.2062616990179, 0.5889052545225969
995.996013472442, 0.5896615953918163
997.5104188191854, 0.5914984232170633
999.024824165929, 0.5926869588686936
1000.9522491526932, 0.594847932780749
1002.4666544994368, 0.596684760605996
1004.1187330595205, 0.5992779293004622
1005.6331384062639, 0.6015469519081202
1007.5605633930281, 0.6039240232113812
1009.0749687397717, 0.6057608510366281
1010.7270472998555, 0.6083540197310945
1012.3791258599392, 0.6119196266859857
1014.1688776333631, 0.6142966979892465
1015.6832829801067, 0.6161335258144935
1017.3353615401904, 0.6192129136391722
1018.9874401002742, 0.6222923014638511
1020.7771918736983, 0.6270464440703727
1020.2264990203369, 0.6229405936374677
1022.2915972204416, 0.6294235153736334
1023.9436757805254, 0.633313268415333
1025.5957543406091, 0.6372030214570326
1027.3855061140332, 0.6439020405844039
1027.2478329006929, 0.6384996058042657
1029.037584674117, 0.6475756962348979
1028.4868918207555, 0.6430376510195818
1030.6896632342007, 0.6523298388414196
1030.1389703808393, 0.6475756962348979
1032.3417417942844, 0.6573000788391467
1031.7910489409232, 0.6527620336238306
1033.9938203543682, 0.6616220266632572
1033.443127501007, 0.6573000788391467
1035.5082257011115, 0.6647554388357374
1037.2979774745356, 0.6706981170938895
1036.7472846211745, 0.6663761692697789
1038.9500560346194, 0.6758844544828221
1038.3993631812582, 0.6699417762246701
1040.602134594703, 0.6819351814365769
1040.3267881680224, 0.6754522597004111
1042.2542131547868, 0.6871215188255096
1041.9788667281061, 0.6806385970893438
1043.9062917148706, 0.6936044405616755
1043.6309452881899, 0.6871215188255096
1045.5583702749543, 0.6981424857769916
1045.0076774215931, 0.691983710127634
1047.0727756216977, 0.7012218736016704
1048.8625273951218, 0.7104600370757067
1048.587180968441, 0.7035449205571298
1050.5146059552055, 0.7156463744646394
1050.2392595285248, 0.708947355337268
1052.1666845152893, 0.7201844196799555
1051.615991661928, 0.7140256440305979
1053.6810898620326, 0.7226155153310176
1055.4708416354567, 0.7307731918490263
1055.3331684221164, 0.7250466109820799
1057.1229201955407, 0.7363917240203701
1056.8475737688598, 0.7294766075017932
1058.7749987556244, 0.7407136718444807
1058.224305902263, 0.7347709935863287
1060.4270773157082, 0.7467643987982355
1059.8763844623468, 0.7415780614093028
1061.9414826624513, 0.7519507361871682
1061.803809449111, 0.7459000092334134
1063.7312344358756, 0.7558404892288677
1063.1805415825143, 0.7513024440135516
1065.3833129959594, 0.7601624370529783
1064.832620142598, 0.7558404892288677
1067.0353915560431, 0.7662131640067331
1066.8977183427028, 0.7607026805309922
1068.6874701161269, 0.7696707222660216
1068.1367772627655, 0.7655648718331165
1070.2018754628702, 0.7720477935692824
1071.9916272362943, 0.7791790074790649
1071.7162808096136, 0.772696085742899
1073.643705796378, 0.7826365657383533
1073.0930129430167, 0.7778824231318318
1075.1581111431215, 0.7833929066075727
1076.8101897032052, 0.7863102213888473
1078.462268263289, 0.7885792439965054
1080.1143468233727, 0.7919827779079924
1081.628752170116, 0.7938736300810408
1083.4185039435401, 0.7950621657326712
1085.0705825036239, 0.7947380196458629
1086.7226610637076, 0.7950621657326712
1088.237066410451, 0.7932253379074242
1089.2007789038332, 0.7911724126909717
1090.852857463917, 0.7918207048645883
1092.642609237341, 0.7919287535601911
1094.2946877974248, 0.791064363995369
1095.6714199308278, 0.7893355848657247
1096.7728056375504, 0.7863102213888473
1098.1495377709534, 0.7852297344328196
1099.250923477676, 0.7815560787823257
1100.7653288244194, 0.780475591826298
1100.7653288244194, 0.7759375466109819
1102.4174073845031, 0.7759375466109819
1102.4174073845031, 0.7710753553088575
1104.0694859445869, 0.7713995013956658
1104.0694859445869, 0.7662131640067331
1105.7215645046706, 0.7662131640067331
1105.5838912913302, 0.7603785344441838
1106.6852769980528, 0.7558404892288677
1107.3736430647543, 0.7610268266178004
1108.1996823447962, 0.7530852474909973
1109.85176090488, 0.7532473205344015
1109.7140876915396, 0.7474126909718521
1110.8154733982622, 0.7437390353213581
1111.641512678304, 0.7381205031500144
1112.3298787450055, 0.7435229379301527
1113.1559180250474, 0.7347709935863287
1114.1196305184296, 0.7283961205457656
1114.8079965851311, 0.7331502631522873
1115.634035865173, 0.7245603918518675
1116.5977483585552, 0.7188878353327224
1117.2861144252568, 0.7240741727216551
1118.1121537052986, 0.7154843014212353
1119.0758661986808, 0.708515160554857
1119.7642322653824, 0.7137014979437897
1120.5902715454242, 0.7055978457735823
1121.5539840388064, 0.701167849253869
1123.0683893855498, 0.7007356544714579
1122.9307161722095, 0.6946849275177032
1124.0321018789323, 0.6894985901287705
1124.7204679456336, 0.6942527327352921
1125.5465072256754, 0.6856628614348723
1126.510219719058, 0.678693720568494
1127.1985857857592, 0.6838800579574267
1128.024625065801, 0.6751281136136027
1128.9883375591835, 0.6678888510082176
1129.676703625885, 0.6728590910059447
1130.5027429059269, 0.6647554388357374
1131.466455399309, 0.6585966631863798
1132.1548214660106, 0.6631347084016959
1132.9808607460525, 0.6551931292748927
1134.6329393061362, 0.6540586179710637
1134.4952660927956, 0.64844008579972
1135.5966517995184, 0.6430376510195818
1136.28501786622, 0.6482239884085145
1137.1110571462618, 0.6409307014553278
1138.074769639644, 0.6341776579801551
1138.7631357063456, 0.6391478979778822
1139.5891749863874, 0.631206318851079
1141.2412535464712, 0.63007180754725
1141.2412535464712, 0.6248854701583173
1142.893332106555, 0.6255337623319339
1142.7556588932146, 0.6199152301605902
1144.5454106666386, 0.6209957171166178
1144.4077374532983, 0.6151610875540685
1145.3714499466805, 0.6109471884255608
1146.1974892267224, 0.614512795380452
1147.1612017201046, 0.6073815814706696
1148.675607066848, 0.606733289297053
1148.675607066848, 0.6018710979949286
1150.1900124135914, 0.6006825623432981
1151.291398120314, 0.5965767119103931
1152.8058034670573, 0.5970089066928042
1152.8058034670573, 0.5918225693038714
1153.6318427470992, 0.587932816262172
1154.457882027141, 0.5911742771302548
1155.4215945205233, 0.5853396475677056
1156.9359998672667, 0.5853396475677056
1156.9359998672667, 0.5808016023523895
1158.5880784273504, 0.5808016023523895
1158.5880784273504, 0.5765877032238818
1160.1024837740938, 0.5751830701810459
1161.2038694808164, 0.5721577067041683
1162.7182748275598, 0.5710772197481407
1162.7182748275598, 0.5665391745328245
1164.2326801743031, 0.5669713693152356
1165.3340658810257, 0.5632977136647417
1166.848471227769, 0.5608666180136794
1168.3628765745125, 0.5583274736670145
1169.464262281235, 0.5557343049725483
1170.840994414638, 0.5546538180165206
1171.9423801213607, 0.5518445519308487
1173.3191122547637, 0.550764064974821
1174.4204979614863, 0.5479547988891491
1175.7972300948893, 0.5468743119331214
1177.7246550816537, 0.5444972406298607
1179.1013872150568, 0.5429845588914219
1180.065099708439, 0.5409316336749694
1181.5795050551824, 0.5403913901969557
1183.3692568286065, 0.5386626110673114
1185.1590086020306, 0.5369338319376672
1186.673413948774, 0.5349349310690161
1188.1878192955173, 0.5334762736783787
1189.9775710689414, 0.5321796893311456
1191.6296496290252, 0.531531397157529
1193.1440549757688, 0.5300187154190903
1194.9338067491929, 0.528289936289446
1196.5858853092766, 0.5276416441158295
1198.2379638693603, 0.5263450597685964
1199.890042429444, 0.5263450597685964
1201.5421209895278, 0.5260209136817879
1203.1941995496115, 0.5253726215081714
1204.8462781096953, 0.5250484754213631
1206.498356669779, 0.5237518910741299
1208.1504352298628, 0.5231035989005133
1209.8025137899465, 0.5231035989005133
1211.4545923500302, 0.5224553067268968
1213.106670910114, 0.5221311606400885
1214.7587494701977, 0.5211587223796637
1216.4108280302814, 0.5211587223796637
1218.0629065903652, 0.5211587223796637
1219.714985150449, 0.520510430206047
1221.3670637105326, 0.5192138458588138
1223.0191422706164, 0.5198621380324304
1224.6712208307001, 0.5198621380324304
1226.3232993907839, 0.5198621380324304
1227.9753779508676, 0.5192138458588138
1229.6274565109513, 0.5195379919456221
1231.279535071035, 0.5201862841192387
1232.9316136311188, 0.5201862841192387
1234.5836921912025, 0.5192138458588138
1236.2357707512863, 0.5192138458588138
1237.88784931137, 0.5192138458588138
1239.5399278714538, 0.5195379919456221
1241.1920064315375, 0.5195379919456221
1242.8440849916215, 0.5192138458588138
1244.4961635517052, 0.5188896997720056
1246.148242111789, 0.5185655536851972
1247.8003206718727, 0.5185655536851972
1249.0393795919354, 0.5185655536851972
