204.62745564325854, 0.2868035192903383
207.3633756071166, 0.2871412825487164
209.6018555775459, 0.2881545723238502
210.348015567689, 0.2846080581108815
212.08905554468961, 0.280386017381157
213.58137552497584, 0.2861279927735825
214.82497550854765, 0.28156818878547984
217.8096154691201, 0.2841014132233146
217.8096154691201, 0.2810615438979128
220.7942554296925, 0.2861279927735825
220.7942554296925, 0.2825814785606138
220.0480954395494, 0.2790349643476451
223.77889539026495, 0.2841014132233146
225.27121537055115, 0.28156818878547984
228.2558553311236, 0.2841014132233146
227.5096953409805, 0.2810615438979128
229.0020153212667, 0.2881545723238502
231.240495291696, 0.2841014132233146
231.240495291696, 0.2810615438979128
234.22513525226844, 0.28511470299844854
234.22513525226844, 0.2810615438979128
234.97129524241154, 0.2770083847973772
236.46361522269774, 0.2841014132233146
237.20977521284084, 0.2800482541227789
237.95593520298394, 0.2770083847973772
240.44313517012768, 0.280386017381157
243.17905513398568, 0.28207483367304675
244.92009511098627, 0.278697201089267
247.65601507484433, 0.2790349643476451
247.65601507484433, 0.27548845013467627
250.64065503541678, 0.2770083847973772
249.89449504527363, 0.27498180524710936
253.62529499598918, 0.27802167457251115
253.62529499598918, 0.27498180524710936
256.60993495656163, 0.2759950950222433
256.60993495656163, 0.2729552256968415
259.594574917134, 0.2759950950222433
259.594574917134, 0.2729552256968415
260.3407349072771, 0.2800482541227789
262.5792148777065, 0.27498180524710936
261.8330548875633, 0.2729552256968415
264.0715348579927, 0.27092864614657375
265.56385483827887, 0.27498180524710936
266.31001482842197, 0.27092864614657375
268.5484947988513, 0.2739685154719754
271.7818547561381, 0.27227969918008565
274.51777471999617, 0.2770083847973772
274.51777471999617, 0.2734618705844085
277.75113467728295, 0.2726174624384635
280.7357746378554, 0.2739685154719754
280.487054641141, 0.2694087114838728
283.7204145984278, 0.27194193592170757
283.4716946017134, 0.26788877682117196
286.45633456228586, 0.2739685154719754
286.45633456228586, 0.2699153563714398
289.44097452285826, 0.2699153563714398
292.4256144834307, 0.2689020665963059
292.4256144834307, 0.2658621972709041
295.4102544440031, 0.27194193592170757
295.4102544440031, 0.26788877682117196
294.66409445386, 0.26484890749577017
298.39489440457555, 0.2689020665963059
297.64873441443245, 0.26687548704603803
301.37953436514795, 0.2689020665963059
301.37953436514795, 0.2658621972709041
304.3641743257204, 0.2658621972709041
303.6180143355773, 0.2628223279455024
306.6026542961497, 0.2699153563714398
307.3488142862928, 0.2658621972709041
306.6026542961497, 0.2628223279455024
310.5821742435796, 0.2661999605292821
313.31809420743764, 0.26484890749577017
312.57193421729454, 0.2628223279455024
316.3027341680101, 0.26383561772063624
319.2873741285825, 0.26484890749577017
318.5412141384394, 0.2628223279455024
320.77969410886874, 0.25978245862010063
322.27201408915494, 0.26383561772063624
323.76433406944113, 0.26130239328280147
326.7489740300136, 0.2618090381703685
329.98233398730036, 0.26214680142874647
328.9874540004429, 0.2587691688449667
332.71825395115843, 0.26484890749577017
332.71825395115843, 0.2618090381703685
335.7028939117308, 0.2628223279455024
335.7028939117308, 0.25978245862010063
338.6875338723033, 0.2658621972709041
338.6875338723033, 0.2623156830579354
341.92089382959006, 0.2641733809790143
340.9260138427326, 0.26079574839523456
344.6568137934481, 0.26383561772063624
344.6568137934481, 0.26028910350766754
347.6414537540205, 0.26383561772063624
346.8952937638774, 0.25978245862010063
350.62609371459297, 0.26383561772063624
350.62609371459297, 0.26028910350766754
352.1184136948791, 0.25775587906983277
352.8645736850222, 0.2658621972709041
353.61073367516536, 0.2618090381703685
356.59537363573776, 0.26028910350766754
358.08769361602396, 0.26383561772063624
359.5800135963102, 0.26130239328280147
361.0723335765964, 0.2658621972709041
362.5646535568826, 0.2618090381703685
362.5646535568826, 0.2587691688449667
365.7980135141694, 0.2641733809790143
367.78777348788435, 0.26788877682117196
367.78777348788435, 0.26383561772063624
368.53393347802745, 0.26028910350766754
371.5185734385999, 0.2618090381703685
373.0108934188861, 0.26484890749577017
374.5032133991723, 0.26079574839523456
376.2442533761729, 0.26383561772063624
377.48785335974475, 0.2582625239573998
378.98017334003094, 0.2658621972709041
378.98017334003094, 0.2618090381703685
381.9648133006034, 0.2628223279455024
381.21865331046024, 0.26079574839523456
384.9494532611758, 0.2618090381703685
385.6956132513189, 0.2587691688449667
387.93409322174824, 0.2618090381703685
389.42641320203444, 0.2587691688449667
390.91873318232064, 0.2618090381703685
392.41105316260683, 0.2592758137325336
395.3956931231793, 0.2618090381703685
398.3803330837517, 0.2618090381703685
399.87265306403793, 0.2582625239573998
401.36497304432413, 0.26079574839523456
402.8572930246103, 0.25775587906983277
404.3496130048965, 0.26079574839523456
405.8419329851828, 0.25775587906983277
407.334252965469, 0.2618090381703685
408.8265729457552, 0.2592758137325336
410.31889292604137, 0.2628223279455024
413.3035328866138, 0.2618090381703685
413.3035328866138, 0.2587691688449667
416.2881728471862, 0.25978245862010063
416.2881728471862, 0.25623594440713193
419.521532804473, 0.2601202218784786
422.25745276833106, 0.2618090381703685
422.25745276833106, 0.2582625239573998
424.4959327387604, 0.26383561772063624
425.2420927289035, 0.25978245862010063
425.2420927289035, 0.25674258929469884
428.2267326894759, 0.26028910350766754
427.4805726993328, 0.25674258929469884
429.71905266976216, 0.2628223279455024
431.21137265004836, 0.2587691688449667
432.70369263033456, 0.2618090381703685
435.93705258762134, 0.26383561772063624
434.9421726007639, 0.25978245862010063
438.9216925481938, 0.2618090381703685
440.16529253176566, 0.25724923418226586
441.65761251205186, 0.2618090381703685
442.40377250219495, 0.25775587906983277
442.40377250219495, 0.2547160097444311
444.64225247262425, 0.26383561772063624
447.6268924331967, 0.2628223279455024
450.6115323937691, 0.26383561772063624
453.8448923510559, 0.26383561772063624
454.34233234448465, 0.2587691688449667
456.8295323116283, 0.26788877682117196
455.83465232477084, 0.26383561772063624
459.5654522754864, 0.2658621972709041
458.8192922853433, 0.2628223279455024
462.5500922360588, 0.26788877682117196
464.04241221634504, 0.26434226260820326
467.2757721736318, 0.2661999605292821
466.28089218677434, 0.2618090381703685
470.0116921374899, 0.2663688421584711
472.9963320980623, 0.2658621972709041
474.4886520783485, 0.2628223279455024
475.98097205863473, 0.2699153563714398
475.98097205863473, 0.2663688421584711
478.96561201920713, 0.2689020665963059
478.96561201920713, 0.26484890749577017
478.21945202906403, 0.2628223279455024
481.9502519797796, 0.2739685154719754
481.9502519797796, 0.2699153563714398
481.2040919896365, 0.26687548704603803
485.18361193706636, 0.2759950950222433
484.1887319502089, 0.27194193592170757
488.1682518976388, 0.2861279927735825
487.9195319009244, 0.2810615438979128
487.9195319009244, 0.2770083847973772
487.9195319009244, 0.2739685154719754
488.6656918910675, 0.30031404962545727
489.4118518812106, 0.2952476007497876
489.4118518812106, 0.291194441649252
490.1580118713537, 0.2861279927735825
490.1580118713537, 0.28207483367304675
490.9041718614968, 0.27802167457251115
490.9041718614968, 0.27498180524710936
493.8888118220693, 0.2759950950222433
496.87345178264167, 0.2830881234481807
496.87345178264167, 0.279541609235212
496.12729179249857, 0.2770083847973772
499.8580917432141, 0.2830881234481807
499.8580917432141, 0.2790349643476451
502.8427317037865, 0.2800482541227789
504.58377168078715, 0.2844391764816926
507.31969164464516, 0.2871412825487164
507.31969164464516, 0.2835947683357476
510.553051601932, 0.2901811518741181
510.3043316052176, 0.28562134788601545
513.5376915625044, 0.2884923355822283
516.2736115263625, 0.2901811518741181
516.2736115263625, 0.2866346376611494
517.7659315066487, 0.2942343109746538
519.2582514869349, 0.2906877967616851
520.7505714672211, 0.2942343109746538
523.7352114277935, 0.2982874700751894
523.7352114277935, 0.2952476007497876
526.719851388366, 0.2982874700751894
525.9736913982229, 0.2942343109746538
527.466011378509, 0.30234062917572513
529.7044913489384, 0.29879411496275643
531.445531325939, 0.30234062917572513
534.181451289797, 0.3048738536135599
535.9224912667976, 0.3087581310849066
538.6584112306557, 0.31348681670219813
538.6584112306557, 0.3094336576016625
537.9122512405125, 0.30740707805139467
541.8917711879425, 0.31450010647733206
540.8968912010849, 0.3114602371519303
543.8815311616573, 0.31450010647733206
543.8815311616573, 0.3114602371519303
546.3687311288011, 0.32057984512813553
546.1200111320867, 0.3165266860275999
549.3533710893736, 0.3185532655778678
548.358491102516, 0.315513396252466
552.0892910532316, 0.3236197144535373
551.3431310630884, 0.3185532655778678
551.3431310630884, 0.31450010647733206
555.073931013804, 0.32463300422867125
555.073931013804, 0.32159313490326946
558.3072909710908, 0.32463300422867125
559.5508909546626, 0.3296994531043408
561.0432109349488, 0.32463300422867125
562.7842509119495, 0.32868616332920686
561.7893709250919, 0.32159313490326946
565.5201708758075, 0.32868616332920686
565.5201708758075, 0.32463300422867125
568.5048108363799, 0.3256462940038052
568.5048108363799, 0.3226064246784034
571.4894507969523, 0.32463300422867125
571.4894507969523, 0.32159313490326946
574.4740907575248, 0.3226064246784034
574.4740907575248, 0.3190599104654347
577.4587307180972, 0.3185532655778678
577.4587307180972, 0.315513396252466
578.9510506983834, 0.3226064246784034
580.4433706786696, 0.31753997580273385
580.4433706786696, 0.31348681670219813
583.428010639242, 0.3114602371519303
582.6818506490989, 0.3094336576016625
585.1690506162427, 0.30639378827626074
587.9049705801007, 0.3043672087259929
587.9049705801007, 0.3013273394005912
590.1434505505299, 0.30234062917572513
590.8896105406731, 0.2982874700751894
592.6306505176736, 0.29490983749140964
595.3665704815317, 0.29220773142438594
595.3665704815317, 0.28866121721141724
598.3512104421042, 0.2871412825487164
597.605050451961, 0.28511470299844854
600.0922504191047, 0.28207483367304675
601.3358504026766, 0.2765017399098102
602.8281703829628, 0.2790349643476451
604.320490363249, 0.2729552256968415
605.8128103435351, 0.26839542170873887
605.0666503533921, 0.26484890749577017
607.3051303238213, 0.27092864614657375
608.7974503041075, 0.26484890749577017
608.0512903139645, 0.2628223279455024
611.78209026468, 0.2618090381703685
611.78209026468, 0.25775587906983277
613.2744102449662, 0.2547160097444311
614.7667302252524, 0.25674258929469884
616.2590502055386, 0.25319607508173014
619.243690166111, 0.25370271996929716
620.7360101463972, 0.25015620575632846
622.2283301266835, 0.24711633643092668
624.4668100971128, 0.24863627109362751
626.7052900675421, 0.2445831119930919
628.1976100478283, 0.24002330800498928
629.6899300281145, 0.24255653244282405
631.9284099985439, 0.24559640176822584
632.6745699886869, 0.2405299528925562
635.6592099492594, 0.2405299528925562
634.9130499591163, 0.23850337334228844
637.1515299295456, 0.23597014890445356
638.6438499098318, 0.23951666311742226
640.3848898868324, 0.23546350401688665
643.1208098506904, 0.23647679379202058
643.1208098506904, 0.23293027957905188
646.1054498112629, 0.23141034491635093
649.0900897718353, 0.2303970551412171
648.3439297816922, 0.22837047559094925
652.3234497291221, 0.23005929188283902
652.8208897225509, 0.23546350401688665
655.0593696929801, 0.22938376536608318
654.3132097028371, 0.22533060626554746
657.2978496634095, 0.2334369244666188
658.0440096535526, 0.22837047559094925
657.2978496634095, 0.2263438960406814
661.028649614125, 0.22786383070338223
662.5209695944112, 0.22431731649041353
665.5056095549836, 0.22533060626554746
667.2466495319842, 0.22161521042338983
669.9825694958423, 0.22533060626554746
669.9825694958423, 0.22127744716501185
669.2364095056992, 0.21823757783961006
672.9672094564147, 0.219250867614744
672.9672094564147, 0.2162109982893422
675.2056894268441, 0.2233040267152797
675.9518494169871, 0.219250867614744
675.9518494169871, 0.2157043534017753
679.185209374274, 0.21722428806447613
681.921129338132, 0.219250867614744
683.4134493184182, 0.21519770851420839
684.9057692987044, 0.2126644840763735
688.1391292559912, 0.21317112896394053
690.8750492198492, 0.21114454941367267
690.1288892297061, 0.20810468008827088
693.8596891804217, 0.2091179698634048
696.8443291409941, 0.20810468008827088
696.0981691508509, 0.20607810053800313
699.8289691015665, 0.20709139031313706
701.3212890818527, 0.20405152098773527
702.8136090621389, 0.20607810053800313
705.7982490227114, 0.20303823121260134
708.7828889832838, 0.2015182965499005
711.7675289438562, 0.19999836188719955
714.7521689044286, 0.19695849256179787
717.7368088650011, 0.19594520278666394
720.7214488255735, 0.19493191301153
723.7060887861459, 0.1944252681239631
726.6907287467184, 0.19290533346126215
729.6753687072908, 0.19189204368612822
732.9087286645776, 0.1908787539109944
731.91384867772, 0.1878388845855926
735.6446486284356, 0.18986546413586047
737.8831285988649, 0.18885217436072654
738.6292885890081, 0.18530566014775784
741.6139285495805, 0.18479901526019082
744.5985685101529, 0.18885217436072654
744.5985685101529, 0.18479901526019082
747.5832084707253, 0.18581230503532475
749.324248447726, 0.18142138267641106
752.060168411584, 0.1837857254850569
751.3140084214408, 0.18175914593478915
755.0448083721564, 0.18277243570992308
758.0294483327287, 0.18277243570992308
759.7704883097293, 0.1793948031261433
762.5064082735875, 0.18074585615965522
762.5064082735875, 0.17770598683425343
765.4910482341598, 0.17871927660938736
766.983368214446, 0.1766926970591195
768.4756881947322, 0.1797325663845213
771.709048152019, 0.17736822357587545
774.4449681158771, 0.17871927660938736
774.4449681158771, 0.17567940728398557
777.4296080764495, 0.1766926970591195
780.4142480370219, 0.17871927660938736
783.3988879975943, 0.1766926970591195
786.3835279581668, 0.17770598683425343
788.6220079285961, 0.18074585615965522
789.3681679187392, 0.17719934194668652
792.3528078793116, 0.17871927660938736
795.337447839884, 0.18074585615965522
795.337447839884, 0.17719934194668652
798.3220878004565, 0.18074585615965522
801.5554477577433, 0.1810836194180332
800.5605677708858, 0.17770598683425343
804.2913677216013, 0.1797325663845213
807.2760076821737, 0.18277243570992308
808.0221676723169, 0.1797325663845213
810.2606476427462, 0.18327908059748999
811.7529676230324, 0.18682559481045868
813.2452876033186, 0.1837857254850569
816.229927563891, 0.18682559481045868
819.4632875211779, 0.19121651716937238
818.4684075343204, 0.1878388845855926
822.1992074850359, 0.19290533346126215
822.1992074850359, 0.18986546413586047
825.1838474456083, 0.19493191301153
824.4376874554652, 0.19189204368612822
828.1684874061807, 0.2020249414374674
827.4223274160377, 0.19695849256179787
827.4223274160377, 0.19391862323639608
831.1531273667532, 0.20303823121260134
832.6454473470394, 0.20709139031313706
833.3916073371824, 0.20405152098773527
835.6300873076118, 0.21114454941367267
835.6300873076118, 0.20759803520070397
838.8634472648986, 0.21722428806447613
837.8685672780412, 0.21418441873907446
841.8480872254711, 0.22161521042338983
844.5840071893291, 0.22786383070338223
843.837847199186, 0.22431731649041353
846.3250471663297, 0.23174810817472902
849.0609671301877, 0.2374900835671545
848.3148071400446, 0.23445021424175272
850.8020071071883, 0.2418810059260682
853.5379270710463, 0.24964956086876144
852.7917670809032, 0.24559640176822584
852.7917670809032, 0.24255653244282405
855.278967048047, 0.25404048322767514
858.2636070086194, 0.2641733809790143
857.2687270217618, 0.25978245862010063
857.2687270217618, 0.2557292995195649
860.9995269724774, 0.2729552256968415
860.2533669823343, 0.26788877682117196
863.9841669330498, 0.27802167457251115
863.2380069429067, 0.2739685154719754
865.4764869133361, 0.28207483367304675
867.2175268903366, 0.28646575603196045
869.9534468541947, 0.28866121721141724
869.2072868640515, 0.28511470299844854
871.4457668344809, 0.30031404962545727
871.4457668344809, 0.29676753541248857
870.6996068443377, 0.29220773142438594
874.4304067950533, 0.30639378827626074
873.6842468049102, 0.30234062917572513
877.4150467556258, 0.3089270127140955
878.907366735912, 0.31348681670219813
880.3996867161982, 0.3185532655778678
881.8920066964844, 0.3160200411400329
885.1253666537712, 0.32294418793678137
884.1304866669137, 0.3185532655778678
888.1100066143435, 0.32497076748704923
887.1151266274861, 0.32159313490326946
889.3536065979155, 0.33476590198001044
889.3536065979155, 0.33121938776704163
892.5869665552021, 0.3351036652383884
891.5920865683447, 0.33172603265460865
895.3228865190603, 0.33476590198001044
895.3228865190603, 0.33172603265460865
898.3075264796327, 0.3367924815302782
899.7998464599189, 0.33983235085568
900.546006450062, 0.33476590198001044
902.7844864204914, 0.33881906108054605
904.2768064007776, 0.33527254686757735
906.017846377778, 0.33881906108054605
908.7537663416362, 0.3408456406308139
908.7537663416362, 0.3367924815302782
908.7537663416362, 0.3337526122048765
911.7384063022087, 0.33881906108054605
911.7384063022087, 0.33476590198001044
913.4794462792091, 0.3313882693962307
914.723046262781, 0.33577919175514426
916.2153662430673, 0.33223267754217556
918.4538462134966, 0.3327393224297426
919.2000062036396, 0.32868616332920686
920.9410461806402, 0.32497076748704923
923.6769661444984, 0.3256462940038052
925.4180061214988, 0.32057984512813553
926.6616061050707, 0.3150067513648991
928.1539260853569, 0.31753997580273385
928.4026460820712, 0.3111224738935523
931.1385660459293, 0.3124735269270642
931.1385660459293, 0.3084203678265286
931.1385660459293, 0.3053804985011268
934.1232060065017, 0.30740707805139467
933.3770460163587, 0.3053804985011268
935.615525986788, 0.30335391895085895
937.8540059572173, 0.3043672087259929
938.6001659473604, 0.29930075985032334
940.0924859276466, 0.2942343109746538
940.0924859276466, 0.2901811518741181
941.5848059079328, 0.2881545723238502
943.3258458849334, 0.29220773142438594
944.5694458685052, 0.2866346376611494
946.8079258389346, 0.2841014132233146
948.3002458192208, 0.2800482541227789
949.0464058093639, 0.2759950950222433
950.5387257896501, 0.2734618705844085
953.5233657502225, 0.2739685154719754
955.0156857305087, 0.2689020665963059
956.7567257075093, 0.2641733809790143
958.7464856812243, 0.2658621972709041
959.4926456713674, 0.2618090381703685
959.4926456713674, 0.2587691688449667
961.7311256417967, 0.25978245862010063
962.4772856319398, 0.25623594440713193
964.2183256089403, 0.2520139036774073
966.9542455727984, 0.2506628506438954
966.2080855826554, 0.24863627109362751
969.9388855333709, 0.24863627109362751
969.1927255432278, 0.24660969154335977
971.4312055136571, 0.24356982221795798
971.4312055136571, 0.2405299528925562
973.6696854840864, 0.24356982221795798
974.4158454742295, 0.24002330800498928
976.15688545123, 0.2361390305336426
978.8928054150881, 0.23546350401688665
978.8928054150881, 0.23242363469148486
981.8774453756606, 0.2334369244666188
983.3697653559468, 0.23090370002878402
984.862085336233, 0.22735718581581532
987.8467252968054, 0.22533060626554746
987.8467252968054, 0.22178409205257876
990.0852052672348, 0.22735718581581532
990.0852052672348, 0.2233040267152797
990.8313652573778, 0.2197575125023109
993.8160052179503, 0.22026415738987792
993.0698452278071, 0.21823757783961006
996.0544851883795, 0.219250867614744
996.8006451785227, 0.21519770851420839
998.2929651588089, 0.2121578391888066
999.039125148952, 0.21519770851420839
1001.2776051193813, 0.2126644840763735
1002.7699250996675, 0.2091179698634048
1003.5160850898106, 0.21317112896394053
1004.2622450799538, 0.20607810053800313
1005.75456506024, 0.2091179698634048
1007.2468850405262, 0.20658474542557004
1010.2315250010986, 0.20607810053800313
1013.216164961671, 0.2020249414374674
1013.216164961671, 0.1979717823369318
1016.2008049222435, 0.19999836188719955
1017.6931249025297, 0.19645184767423085
1020.6777648631021, 0.1979717823369318
1019.9316048729589, 0.19594520278666394
1023.6624048236745, 0.19594520278666394
1025.1547248039608, 0.19189204368612822
1026.6470447842469, 0.19391862323639608
1028.1393647645332, 0.19037210902342738
1031.1240047251056, 0.18935881924829345
1034.108644685678, 0.1878388845855926
1035.6009646659643, 0.18429237037262391
1038.5856046265367, 0.18530566014775784
1040.3266446035373, 0.18142138267641106
1043.3112845641097, 0.1810836194180332
1046.0472045279678, 0.18175914593478915
1045.3010445378247, 0.1797325663845213
1047.5395245082539, 0.17719934194668652
1049.0318444885402, 0.1797325663845213
1052.0164844491126, 0.17567940728398557
1055.001124409685, 0.17466611750885175
1054.254964419542, 0.17162624818344996
1057.9857643702574, 0.1726395379585839
1059.4780843505437, 0.17010631352074912
1062.462724311116, 0.17061295840831603
1065.4473642716885, 0.16757308908291424
1068.4320042322609, 0.1655465095326465
1071.6653641895477, 0.16487098301589054
1074.6500041501201, 0.16284440346562268
1077.3859241139783, 0.1625066402072447
1078.8782440942643, 0.1594667708818429
1081.8628840548367, 0.1584534811067091
1084.8475240154091, 0.1584534811067091
1087.8321639759818, 0.15642690155644123
1090.8168039365542, 0.1554136117813073
1090.0706439464109, 0.15338703223103944
1093.8014438971265, 0.1554136117813073
1093.0552839069835, 0.15338703223103944
1096.786083857699, 0.1554136117813073
1096.786083857699, 0.1518670975683386
1099.7707238182713, 0.15338703223103944
1099.0245638281283, 0.1513604526807717
1102.7553637788437, 0.15237374245590551
1105.7400037394161, 0.15237374245590551
1108.7246436999887, 0.15034716290563777
1111.7092836605611, 0.15237374245590551
1111.7092836605611, 0.14933387313050384
1114.6939236211335, 0.15034716290563777
1117.678563581706, 0.14984051801807075
1120.6632035422783, 0.14882722824293682
1123.6478435028507, 0.1483205833553699
1126.6324834634231, 0.14933387313050384
1129.6171234239955, 0.1483205833553699
1132.601763384568, 0.1483205833553699
1135.5864033451403, 0.14933387313050384
1134.8402433549973, 0.14730729358023598
1138.571043305713, 0.14781393846780289
1141.8044032629996, 0.14663176706348002
1144.5403232268577, 0.14730729358023598
1143.7941632367147, 0.14528071402996812
1147.52496318743, 0.14680064869266907
1150.5096031480025, 0.14781393846780289
1153.494243108575, 0.14730729358023598
1156.4788830691473, 0.14781393846780289
1159.4635230297197, 0.14730729358023598
1162.4481629902923, 0.14730729358023598
1165.4328029508647, 0.14629400380510205
1168.417442911437, 0.14730729358023598
1171.4020828720095, 0.14680064869266907
1174.3867228325819, 0.14730729358023598
1177.3713627931543, 0.1483205833553699
1178.8636827734406, 0.14578735891753514
1182.0970427307273, 0.14663176706348002
1185.0816826912996, 0.146969530321858
1187.8176026551578, 0.14781393846780289
1190.8022426157302, 0.14781393846780289
1193.7868825763026, 0.14933387313050384
1196.7715225368752, 0.14882722824293682
