203.63257565640106, 0.41785566354099146
205.87105562683038, 0.42140217775396016
207.3633756071166, 0.41785566354099146
209.1044155841172, 0.4219088226415272
208.8556955874028, 0.4158290839907236
211.84033554797523, 0.41785566354099146
214.82497550854765, 0.41684237376585753
216.31729548883388, 0.41380250444045585
217.8096154691201, 0.41785566354099146
219.3019354494063, 0.41380250444045585
219.3019354494063, 0.41076263511505406
222.28657540997872, 0.41380250444045585
222.28657540997872, 0.40974934533992013
221.5404154198356, 0.40670947601451846
225.27121537055115, 0.41684237376585753
225.27121537055115, 0.4127892146653219
225.27121537055115, 0.4087360555647862
228.50457532783793, 0.41211368814856597
227.50969534098044, 0.4087360555647862
231.240495291696, 0.41076263511505406
232.7328152719822, 0.40620283112695144
234.2251352522684, 0.40974934533992013
235.71745523255458, 0.4127892146653219
238.70209519312704, 0.411775924890188
238.70209519312704, 0.4087360555647862
241.93545515041382, 0.4100871085982981
240.94057516355633, 0.40670947601451846
244.67137511427188, 0.41076263511505406
243.92521512412878, 0.4087360555647862
246.16369509455808, 0.4056961862393845
247.65601507484433, 0.40974934533992013
249.39705505184492, 0.40637171275614037
252.3816950124173, 0.40806052904803036
255.11761497627538, 0.4077227657896523
254.37145498613228, 0.4046828964642506
258.10225493684777, 0.40670947601451846
258.10225493684777, 0.40316296180154965
261.3356148941346, 0.40366960668911667
264.0715348579926, 0.4077227657896523
264.0715348579926, 0.4041762515766836
267.30489481527945, 0.4019807903972268
270.04081477913746, 0.40366960668911667
270.04081477913746, 0.4006297373637149
273.0254547397099, 0.40366960668911667
273.0254547397099, 0.4006297373637149
276.0100947002823, 0.4016430271388488
276.0100947002823, 0.39860315781344713
278.99473466085476, 0.40366960668911667
278.24857467071166, 0.4006297373637149
281.23321463128406, 0.40366960668911667
281.97937462142716, 0.39961644758858095
283.4716946017134, 0.3970832231507462
284.9640145819996, 0.4016430271388488
286.7050545590002, 0.3979276312966912
285.7101745721427, 0.3945499987129114
287.94865454257206, 0.40265631691398274
289.44097452285826, 0.39910980270101404
290.93329450314445, 0.39556328848804534
290.93329450314445, 0.39252341916264355
293.9179344637169, 0.39556328848804534
293.17177447357375, 0.39252341916264355
296.9025744242893, 0.3935367089377775
298.3948944045755, 0.3910034844999427
299.88721438486175, 0.39556328848804534
301.37953436514795, 0.3915101293875096
301.37953436514795, 0.38847026006210794
302.87185434543414, 0.3945499987129114
304.36417432572034, 0.3904968396123758
306.1052143027209, 0.39387447219615546
308.841134266579, 0.3935367089377775
308.841134266579, 0.3899901947248088
309.5872942567221, 0.3864436805118401
311.82577422715144, 0.39252341916264355
311.07961423700834, 0.3904968396123758
314.81041418772384, 0.39252341916264355
314.81041418772384, 0.38897690494967485
318.0437741450106, 0.3918478926458877
320.7796941088687, 0.3915101293875096
320.7796941088687, 0.38847026006210794
323.76433406944113, 0.3915101293875096
323.76433406944113, 0.3879636151745409
326.9976940267279, 0.38948354983724187
326.7489740300135, 0.38492374584913924
326.00281403987043, 0.3823905214113045
329.9823339873003, 0.387794733545352
328.9874540004429, 0.3834038111864383
331.9720939610153, 0.3935367089377775
332.7182539511584, 0.3899901947248088
335.7028939117308, 0.3915101293875096
338.6875338723032, 0.3904968396123758
338.6875338723032, 0.386950325399407
341.67217383287567, 0.3915101293875096
341.67217383287567, 0.387456970286974
344.65681379344807, 0.387456970286974
344.65681379344807, 0.3844171009615722
347.6414537540205, 0.38847026006210794
350.6260937145929, 0.39252341916264355
349.8799337244498, 0.38948354983724187
353.8594536718797, 0.38982131309561985
356.59537363573776, 0.38948354983724187
359.5800135963102, 0.38847026006210794
362.813373553597, 0.387794733545352
361.8184935667395, 0.3844171009615722
365.54929351745506, 0.3915101293875096
364.80313352731196, 0.38847026006210794
367.78777348788435, 0.3915101293875096
368.53393347802745, 0.3879636151745409
371.76729343531423, 0.38982131309561985
370.7724134484568, 0.3864436805118401
373.0108934188861, 0.39556328848804534
374.5032133991723, 0.3904968396123758
374.5032133991723, 0.387456970286974
377.48785335974475, 0.38847026006210794
376.74169336960165, 0.3864436805118401
380.47249332031714, 0.3904968396123758
383.7058532776039, 0.38982131309561985
385.6956132513189, 0.3935367089377775
386.441773241462, 0.38948354983724187
389.67513319874877, 0.387794733545352
392.41105316260683, 0.38948354983724187
392.41105316260683, 0.3864436805118401
395.3956931231793, 0.3904968396123758
395.3956931231793, 0.386950325399407
398.62905308046606, 0.38948354983724187
397.6341730936086, 0.38543039073670615
399.1264930738948, 0.39556328848804534
401.36497304432413, 0.3915101293875096
401.36497304432413, 0.387456970286974
404.3496130048965, 0.3864436805118401
404.3496130048965, 0.3823905214113045
407.334252965469, 0.38847026006210794
407.334252965469, 0.3844171009615722
410.31889292604137, 0.38543039073670615
410.31889292604137, 0.38188387652373745
413.55225288332815, 0.38543039073670615
412.5573728964707, 0.3823905214113045
416.2881728471862, 0.386950325399407
415.5420128570431, 0.3834038111864383
415.5420128570431, 0.3803639418610366
419.521532804473, 0.387456970286974
418.52665281761557, 0.3844171009615722
422.25745276833106, 0.387456970286974
421.51129277818796, 0.3834038111864383
425.2420927289035, 0.38543039073670615
425.2420927289035, 0.3823905214113045
428.2267326894759, 0.3864436805118401
431.21137265004836, 0.387456970286974
432.70369263033456, 0.3844171009615722
434.44473260733514, 0.387456970286974
437.42937256790754, 0.38982131309561985
436.4344925810501, 0.3864436805118401
439.4191325416225, 0.3935367089377775
440.16529253176566, 0.38948354983724187
441.65761251205186, 0.386950325399407
443.14993249233805, 0.3904968396123758
446.1345724529105, 0.3915101293875096
446.1345724529105, 0.38847026006210794
449.1192124134829, 0.3915101293875096
449.1192124134829, 0.3879636151745409
452.10385237405535, 0.3915101293875096
453.59617235434155, 0.38948354983724187
455.08849233462774, 0.3945499987129114
455.83465232477084, 0.411775924890188
455.83465232477084, 0.4077227657896523
456.58081231491394, 0.40366960668911667
456.58081231491394, 0.39961644758858095
458.0731322952002, 0.3945499987129114
458.0731322952002, 0.3915101293875096
461.0577722557726, 0.39252341916264355
461.0577722557726, 0.38897690494967485
464.04241221634504, 0.3915101293875096
467.2757721736318, 0.3918478926458877
470.0116921374899, 0.3975898680383132
470.0116921374899, 0.3935367089377775
472.9963320980623, 0.3935367089377775
472.2501721079192, 0.3904968396123758
474.4886520783485, 0.3975898680383132
475.98097205863473, 0.3945499987129114
477.47329203892093, 0.39657657826317927
480.70665199620777, 0.3979276312966912
479.7117720093502, 0.3945499987129114
483.4425719600658, 0.39860315781344713
482.6964119699227, 0.3935367089377775
486.42721192063823, 0.39961644758858095
487.9195319009244, 0.4046828964642506
490.9041718614968, 0.4077227657896523
490.9041718614968, 0.4046828964642506
493.8888118220693, 0.4077227657896523
493.8888118220693, 0.4041762515766836
497.1221717793561, 0.40839829230640823
499.8580917432141, 0.40974934533992013
499.8580917432141, 0.40670947601451846
503.09145170050095, 0.41211368814856597
502.0965717136434, 0.4087360555647862
505.82737166435896, 0.41380250444045585
505.82737166435896, 0.41025599022748716
505.08121167421587, 0.40670947601451846
508.81201162493136, 0.4148157942155898
508.06585163478826, 0.4127892146653219
512.0453715822182, 0.41785566354099146
511.7966515855038, 0.41329585955288883
511.0504915953607, 0.41076263511505406
514.0351315559332, 0.42393540219179493
514.7812915460762, 0.4188689533161254
514.7812915460762, 0.4153224391031567
517.7659315066487, 0.4219088226415272
517.7659315066487, 0.4183623084285585
520.9992914639355, 0.4259619817420628
520.004411477078, 0.422922112416661
523.7352114277935, 0.42798856129233065
523.7352114277935, 0.42444204707936195
526.719851388366, 0.42798856129233065
525.9736913982229, 0.42494869196692886
529.7044913489384, 0.4300151408425985
532.6891313095108, 0.4310284306177323
535.6737712700832, 0.4340682999431341
537.1660912503694, 0.43812145904366984
538.6584112306557, 0.43558823460583496
540.1507312109419, 0.4401480385939376
541.6430511912281, 0.4442011976944733
543.3840911682287, 0.4482543567950089
542.3892111813711, 0.4411613283690715
546.3687311288011, 0.45028093634527677
545.3738511419436, 0.44622777724474116
549.1046510926591, 0.45332080567067856
548.358491102516, 0.44926764657014284
550.5969710729454, 0.4578806096587812
553.5816110335178, 0.46041383409661596
553.5816110335178, 0.45686731988364726
554.3277710236608, 0.45230751589554463
556.5662509940902, 0.46041383409661596
556.5662509940902, 0.45636067499608024
559.5508909546626, 0.4614271238717499
558.8047309645195, 0.45737396477121417
560.2970509448057, 0.4664935727474194
562.5355309152351, 0.4614271238717499
562.5355309152351, 0.4578806096587812
565.5201708758075, 0.46041383409661596
565.5201708758075, 0.45686731988364726
567.0124908560937, 0.46446699319715157
568.5048108363799, 0.46041383409661596
568.5048108363799, 0.45686731988364726
571.7381707936667, 0.46041383409661596
571.4894507969523, 0.45636067499608024
574.4740907575248, 0.4553473852209463
576.712570727954, 0.46041383409661596
577.4587307180972, 0.45686731988364726
579.1997706950978, 0.4526452791539226
581.1895306688127, 0.45230751589554463
581.1895306688127, 0.4482543567950089
581.9356906589558, 0.4447078425820402
583.6767306359565, 0.4404858018523157
585.6664906096713, 0.44217461814420544
586.4126505998145, 0.43862810393123675
587.9049705801007, 0.43558823460583496
589.3972905603869, 0.43204172039286626
589.3972905603869, 0.42798856129233065
592.3819305209593, 0.4264686266296298
593.8742505012455, 0.42089553286639325
596.858890461818, 0.41684237376585753
596.1127304716748, 0.4148157942155898
598.3512104421042, 0.41076263511505406
599.8435304223904, 0.4056961862393845
600.5896904125334, 0.40974934533992013
602.8281703829628, 0.4056961862393845
604.5692103599633, 0.4016430271388488
603.5743303731059, 0.39860315781344713
605.8128103435351, 0.39556328848804534
607.3051303238213, 0.39201677427507664
608.7974503041075, 0.38897690494967485
610.2897702843937, 0.38543039073670615
610.2897702843937, 0.38188387652373745
613.2744102449662, 0.38543039073670615
613.2744102449662, 0.38137723163617054
613.2744102449662, 0.37833736231076875
616.2590502055386, 0.37529749298536697
616.2590502055386, 0.3722576236599653
619.243690166111, 0.37428420321023315
619.243690166111, 0.37073768899726445
622.2283301266835, 0.3692177543345635
623.7206501069697, 0.3656712401215948
624.4668100971128, 0.3692177543345635
626.7052900675421, 0.3651645952340279
626.7052900675421, 0.3621247259086261
629.6899300281145, 0.36009814635835824
631.1822500084007, 0.35604498725782263
632.6745699886869, 0.3580715668080905
635.6592099492594, 0.35705827703295656
635.6592099492594, 0.35401840770755477
638.6438499098318, 0.35401840770755477
638.6438499098318, 0.3504718934945861
637.8976899196887, 0.3479386690567513
641.6284898704042, 0.35401840770755477
641.6284898704042, 0.34996524860701916
644.6131298309766, 0.34945860371945214
647.5977697915491, 0.34895195883188523
650.8311297488359, 0.34895195883188523
650.5824097521215, 0.3448987997313495
652.8208897225509, 0.34895195883188523
653.5670497126939, 0.3448987997313495
653.5670497126939, 0.34185893040594784
656.8004096699808, 0.34320998343945974
655.8055296831233, 0.33983235085568
659.7850496305532, 0.3448987997313495
659.5363296338388, 0.3403389957432469
662.5209695944112, 0.34236557529351475
661.7748096042681, 0.33881906108054605
665.5056095549836, 0.3408456406308139
667.2466495319842, 0.33746800804703414
669.9825694958423, 0.33983235085568
669.9825694958423, 0.3362858366427113
672.9672094564147, 0.33577919175514426
672.9672094564147, 0.33223267754217556
675.9518494169871, 0.3337526122048765
675.9518494169871, 0.3307127428794747
678.9364893775595, 0.33476590198001044
678.9364893775595, 0.33121938776704163
681.1749693479888, 0.3327393224297426
681.921129338132, 0.32868616332920686
684.1596093085612, 0.33476590198001044
684.9057692987044, 0.3296994531043408
684.1596093085612, 0.32767287355407293
686.3980892789906, 0.32513964911623816
687.8904092592768, 0.32767287355407293
690.8750492198492, 0.3256462940038052
690.1288892297061, 0.3236197144535373
693.8596891804217, 0.3226064246784034
694.6058491705647, 0.3195665553530016
696.8443291409941, 0.32159313490326946
699.8289691015665, 0.3185532655778678
702.8136090621389, 0.31753997580273385
705.7982490227114, 0.31450010647733206
707.2905690029976, 0.3119668820394973
710.27520896357, 0.3124735269270642
713.2598489241424, 0.3124735269270642
713.2598489241424, 0.3094336576016625
716.2444888847149, 0.3084203678265286
719.2291288452873, 0.3058871433886938
722.2137688058597, 0.3043672087259929
725.1984087664321, 0.30335391895085895
724.452248776289, 0.3013273394005912
728.1830487270046, 0.3013273394005912
727.4368887368614, 0.29930075985032334
731.167688687577, 0.29930075985032334
730.4215286974338, 0.2972741803000555
734.1523286481494, 0.29676753541248857
737.1369686087218, 0.2952476007497876
736.3908086185787, 0.29322102119951987
740.1216085692943, 0.29220773142438594
743.1062485298667, 0.2906877967616851
746.090888490439, 0.291194441649252
745.344728500296, 0.28916786209898415
747.8319284674396, 0.28646575603196045
750.5678484312978, 0.2861279927735825
750.5678484312978, 0.2830881234481807
753.5524883918702, 0.2861279927735825
755.0448083721564, 0.2825814785606138
758.0294483327287, 0.28156818878547984
761.0140882933011, 0.2800482541227789
763.9987282538737, 0.2790349643476451
766.983368214446, 0.2770083847973772
769.9680081750184, 0.2770083847973772
769.9680081750184, 0.2734618705844085
772.952648135591, 0.2759950950222433
772.2064881454478, 0.2729552256968415
776.1860080928777, 0.2746440419887314
778.9219280567357, 0.27498180524710936
782.1552880140225, 0.2739685154719754
784.8912079778806, 0.2739685154719754
786.3835279581668, 0.27194193592170757
787.875847938453, 0.2759950950222433
790.8604878990254, 0.27447516035954245
793.8451278595978, 0.2739685154719754
793.0989678694548, 0.27092864614657375
797.0784878168847, 0.27802167457251115
796.0836078300272, 0.27498180524710936
799.8144077807427, 0.2770083847973772
802.7990477413151, 0.27802167457251115
804.2913677216013, 0.2759950950222433
805.7836877018875, 0.279541609235212
808.76832766246, 0.28207483367304675
808.0221676723169, 0.2790349643476451
811.7529676230324, 0.2825814785606138
814.9863275803192, 0.28646575603196045
813.9914475934618, 0.2830881234481807
817.7222475441772, 0.28866121721141724
816.9760875540342, 0.28511470299844854
819.2145675244635, 0.29220773142438594
822.4479274817503, 0.2945720742330318
825.1838474456083, 0.3008206945130242
824.4376874554652, 0.2972741803000555
828.1684874061807, 0.30284727406329204
829.6608073864669, 0.30740707805139467
831.8992873568963, 0.31044694737679646
834.1377673273256, 0.31703333091516683
833.3916073371824, 0.31348681670219813
835.6300873076118, 0.32159313490326946
837.122407287898, 0.3509785383821531
837.122407287898, 0.3469253792816174
837.122407287898, 0.34287222018108177
837.122407287898, 0.33881906108054605
837.122407287898, 0.33476590198001044
837.122407287898, 0.3307127428794747
836.376247297755, 0.3266595837789391
840.1070472484704, 0.3332459673173095
839.3608872583274, 0.3296994531043408
841.8480872254711, 0.3371302447886563
843.3404072057573, 0.34320998343945974
844.5840071893291, 0.34895195883188523
846.0763271696153, 0.35300511793242084
845.3301671794721, 0.34591208950648344
847.8173671466159, 0.35705827703295656
848.3148071400446, 0.3519918281572869
850.5532871104739, 0.3651645952340279
849.8071271203308, 0.36111143613349217
852.0456070907601, 0.37428420321023315
851.299447100617, 0.3692177543345635
854.2840870611894, 0.38137723163617054
854.2840870611894, 0.3773240725356348
855.7764070414756, 0.38543039073670615
858.014887011905, 0.3915101293875096
857.2687270217618, 0.38847026006210794
858.761047002048, 0.39961644758858095
858.761047002048, 0.39556328848804534
860.9995269724774, 0.4056961862393845
860.9995269724774, 0.40265631691398274
861.7456869626205, 0.40974934533992013
864.2328869297642, 0.4161668472491017
863.2380069429067, 0.4127892146653219
867.2175268903366, 0.4300151408425985
866.9688068936223, 0.4254553368544959
866.2226469034791, 0.4219088226415272
868.7098468706228, 0.43643264275177995
870.6996068443377, 0.4401480385939376
870.6996068443377, 0.4371081692685359
872.9380868147671, 0.4482543567950089
872.9380868147671, 0.4447078425820402
874.4304067950533, 0.45230751589554463
875.9227267753395, 0.45686731988364726
877.4150467556258, 0.46041383409661596
879.1560867326262, 0.4685201522976873
878.1612067457688, 0.46446699319715157
881.8920066964844, 0.4725733113982229
881.8920066964844, 0.4690267971852542
883.3843266767706, 0.48169291937442815
882.6381666866274, 0.4766264704987586
882.6381666866274, 0.4654802829722855
884.8766466570568, 0.4867593682500977
885.6228066471999, 0.4827062091495621
887.8612866176292, 0.48878594780036555
887.8612866176292, 0.48574607847496387
890.8459265782017, 0.49283910690090127
890.0997665880585, 0.48878594780036555
892.3382465584879, 0.4968922660014369
893.8305665387741, 0.4938523966760352
895.5716065157745, 0.49891884555170474
898.3075264796327, 0.5029720046522403
898.3075264796327, 0.49891884555170474
898.3075264796327, 0.49537233133873604
901.2921664402052, 0.5049985842025082
900.546006450062, 0.5009454251019726
904.2768064007776, 0.5090517433030439
904.2768064007776, 0.5049985842025082
906.017846377778, 0.5012831883603505
905.0229663909206, 0.4979055557765708
906.5152863712069, 0.5070251637527761
908.7537663416362, 0.5029720046522403
908.7537663416362, 0.49993213532683867
911.7384063022087, 0.5049985842025082
911.7384063022087, 0.5009454251019726
914.723046262781, 0.5019587148771065
913.9768862726379, 0.49993213532683867
916.4640862397815, 0.4968922660014369
919.2000062036396, 0.494865686451169
919.2000062036396, 0.4908125273506334
921.438486174069, 0.4968922660014369
921.438486174069, 0.49283910690090127
922.184646164212, 0.48878594780036555
923.9256861412126, 0.48473278869982994
925.9154461149276, 0.4867593682500977
926.6616061050707, 0.48169291937442815
926.6616061050707, 0.4786530500490265
929.6462460656431, 0.4756131807236247
928.9000860755, 0.4735866011733568
931.1385660459293, 0.47054673184795515
931.1385660459293, 0.46750686252255336
934.1232060065017, 0.46750686252255336
934.1232060065017, 0.46345370342201764
935.615525986788, 0.458893899433915
937.1078459670742, 0.4614271238717499
937.3565659637885, 0.45500962196256833
939.3463259375035, 0.45636067499608024
940.0924859276466, 0.4512942261204107
940.0924859276466, 0.4482543567950089
942.330965898076, 0.45028093634527677
943.077125888219, 0.4467344221323081
944.5694458685052, 0.4411613283690715
947.5540858290777, 0.4371081692685359
947.5540858290777, 0.4330550101680002
946.8079258389346, 0.4310284306177323
950.5387257896501, 0.4290018510674646
949.792565799507, 0.4269752715171967
953.5233657502225, 0.422922112416661
953.5233657502225, 0.4198822430912593
955.7618457206519, 0.4198822430912593
958.0003256910812, 0.4148157942155898
958.0003256910812, 0.41076263511505406
960.2388056615105, 0.40974934533992013
960.9849656516536, 0.40620283112695144
962.7260056286541, 0.4019807903972268
961.7311256417967, 0.39860315781344713
965.4619255925122, 0.39961644758858095
965.4619255925122, 0.39556328848804534
965.4619255925122, 0.39252341916264355
968.4465655530846, 0.3945499987129114
968.4465655530846, 0.3904968396123758
968.4465655530846, 0.387456970286974
970.685045523514, 0.3915101293875096
971.4312055136571, 0.3864436805118401
972.9235254939433, 0.3823905214113045
975.1620054643726, 0.38543039073670615
975.9081654545157, 0.3803639418610366
975.9081654545157, 0.3768174276480679
978.1466454249451, 0.3773240725356348
978.8928054150881, 0.3737775583226661
980.6338453920887, 0.3692177543345635
982.6236053658037, 0.37124433388483136
983.3697653559468, 0.3661778850091618
983.3697653559468, 0.36313801568376003
985.608245326376, 0.3651645952340279
986.3544053165192, 0.3616180810210592
987.8467252968054, 0.3585782116956574
989.587765273806, 0.3553694607410667
992.323685237664, 0.3519918281572869
993.8160052179503, 0.3474320241691843
995.3083251982365, 0.34996524860701916
996.8006451785227, 0.34641873439405046
998.2929651588089, 0.34287222018108177
999.7852851390951, 0.33932570596811296
1001.2776051193813, 0.34287222018108177
1003.0186450963819, 0.33881906108054605
1005.75456506024, 0.3378057713054121
1005.0084050700968, 0.33577919175514426
1007.2468850405262, 0.3327393224297426
1008.9879250175267, 0.3293616898459628
1011.7238449813848, 0.32767287355407293
1011.7238449813848, 0.32463300422867125
1014.9572049386716, 0.32497076748704923
1017.6931249025297, 0.3226064246784034
1017.6931249025297, 0.3185532655778678
1019.9316048729589, 0.32463300422867125
1020.6777648631021, 0.32057984512813553
1022.1700848433883, 0.3165266860275999
1022.9162448335314, 0.32057984512813553
1025.1547248039608, 0.31450010647733206
1026.6470447842469, 0.31044694737679646
1026.6470447842469, 0.30740707805139467
1029.6316847448195, 0.31044694737679646
1029.6316847448195, 0.30740707805139467
1032.616324705392, 0.30740707805139467
1031.8701647152486, 0.3043672087259929
1035.6009646659643, 0.3043672087259929
1035.6009646659643, 0.3013273394005912
1038.5856046265367, 0.3013273394005912
1037.8394446363936, 0.29930075985032334
1041.570244587109, 0.2982874700751894
1043.0625645673954, 0.2947409558622207
1044.5548845476815, 0.2972741803000555
1047.5395245082539, 0.2942343109746538
1049.0318444885402, 0.2917010865368189
1050.5241644688263, 0.2881545723238502
1051.2703244589695, 0.29220773142438594
1053.5088044293989, 0.2881545723238502
1056.4934443899713, 0.2861279927735825
1059.4780843505437, 0.2830881234481807
1060.9704043308298, 0.2790349643476451
1062.462724311116, 0.2810615438979128
1065.4473642716885, 0.2790349643476451
1065.4473642716885, 0.2759950950222433
1068.4320042322609, 0.2759950950222433
1071.4166441928332, 0.2729552256968415
1074.4012841534059, 0.27194193592170757
1075.893604133692, 0.2689020665963059
1076.639764123835, 0.27194193592170757
1078.8782440942643, 0.26788877682117196
1080.3705640745507, 0.26484890749577017
1081.8628840548367, 0.26788877682117196
1083.355204035123, 0.26383561772063624
1086.3398439956954, 0.2628223279455024
1086.3398439956954, 0.25978245862010063
1089.573203952982, 0.25978245862010063
1092.3091239168402, 0.25978245862010063
1092.3091239168402, 0.25674258929469884
1095.2937638774126, 0.25775587906983277
1094.5476038872696, 0.2547160097444311
1098.2784038379853, 0.25674258929469884
1097.532243847842, 0.2547160097444311
1101.2630437985576, 0.25623594440713193
1104.24768375913, 0.25370271996929716
1107.2323237197024, 0.25370271996929716
1110.2169636802748, 0.255222654631998
1109.4708036901318, 0.25268943019416323
1113.2016036408472, 0.25268943019416323
1113.2016036408472, 0.24964956086876144
1116.1862436014196, 0.2516761404190293
1119.170883561992, 0.2516761404190293
1120.6632035422783, 0.24914291598119453
1123.6478435028507, 0.24964956086876144
1126.6324834634231, 0.2506628506438954
1125.88632347328, 0.24863627109362751
1129.6171234239955, 0.24964956086876144
1131.1094434042818, 0.24711633643092668
1131.8556033944249, 0.2516761404190293
1134.0940833648542, 0.2481296262060606
1137.0787233254266, 0.24762298131849358
1140.063363285999, 0.24762298131849358
1143.0480032465714, 0.24762298131849358
1146.0326432071438, 0.24508975688065882
1149.0172831677164, 0.24559640176822584
1152.250643125003, 0.24390758547633595
1154.9865630888612, 0.24356982221795798
1154.240403098718, 0.2405299528925562
1157.9712030494336, 0.24559640176822584
1157.2250430592906, 0.24154324266769012
1160.955843010006, 0.24306317733039107
1163.9404829705784, 0.24154324266769012
1166.9251229311508, 0.24154324266769012
1169.9097628917232, 0.2410365977801232
1169.1636029015801, 0.23850337334228844
1173.14312284901, 0.2401921896341782
1175.8790428128682, 0.2405299528925562
1175.132882822725, 0.23850337334228844
1178.8636827734406, 0.23850337334228844
1181.848322734013, 0.23951666311742226
1184.8329626945854, 0.2374900835671545
1188.066322651872, 0.23782784682553249
1190.0560826255871, 0.2405299528925562
1198.8876529477197, 0.23716012084592153
1194.4382647385985, 0.23716012084592153
