199.90177570568554, 0.6549654709223278
203.13513566297235, 0.6553032341807057
206.11977562354477, 0.6553032341807057
208.8556955874028, 0.6559787606974616
208.1095355972597, 0.65293889137206
211.09417555783213, 0.6549654709223278
213.33265552826145, 0.6514189567093591
214.82497550854765, 0.6549654709223278
216.56601548554823, 0.65125007508017
219.3019354494063, 0.6509123118217921
222.28657540997872, 0.6524322464844929
225.27121537055115, 0.6509123118217921
226.76353535083734, 0.6478724424963904
228.25585533112354, 0.6549654709223278
228.25585533112354, 0.6509123118217921
229.00201532126664, 0.6478724424963904
230.4943353015529, 0.6569920504725956
231.240495291696, 0.65293889137206
232.98153526869658, 0.6492234955299022
235.71745523255458, 0.65293889137206
235.71745523255458, 0.6493923771590913
238.70209519312704, 0.6504056669342251
241.6867351536995, 0.6509123118217921
240.94057516355633, 0.6478724424963904
244.67137511427188, 0.6509123118217921
246.41241509127246, 0.6475346792380123
249.14833505513053, 0.6478724424963904
249.14833505513053, 0.6438192833958547
252.3816950124173, 0.6488857322715242
251.38681502555983, 0.6458458629461226
255.36633497298976, 0.6451703364293666
258.10225493684777, 0.6478724424963904
258.10225493684777, 0.6443259282834217
261.0868948974202, 0.6488857322715242
261.0868948974202, 0.6448325731709885
264.0715348579926, 0.6488857322715242
264.0715348579926, 0.6453392180585555
267.05617481856507, 0.6468591527212564
268.54849479885127, 0.6438192833958547
270.04081477913746, 0.6468591527212564
271.5331347594237, 0.6433126385082877
273.0254547397099, 0.6458458629461226
276.0100947002823, 0.6448325731709885
278.99473466085476, 0.6448325731709885
281.23321463128406, 0.6468591527212564
281.97937462142716, 0.6433126385082877
284.9640145819996, 0.6412860589580198
286.4563345622858, 0.6448325731709885
287.94865454257206, 0.6412860589580198
289.44097452285826, 0.6448325731709885
291.1820144998588, 0.6407794140704529
293.9179344637169, 0.6438192833958547
293.9179344637169, 0.6407794140704529
296.9025744242893, 0.6428059936207208
298.6436144012899, 0.639090597778563
297.6487344144324, 0.6357129651947834
299.88721438486175, 0.6438192833958547
301.37953436514795, 0.6392594794077521
304.6128943224347, 0.6387528345201852
307.3488142862928, 0.639766124295319
306.6026542961497, 0.6377395447450511
309.5872942567221, 0.6428059936207208
310.3334542468652, 0.6392594794077521
313.31809420743764, 0.6407794140704529
313.31809420743764, 0.6377395447450511
316.30273416801003, 0.639766124295319
315.55657417786693, 0.6377395447450511
319.2873741285825, 0.6387528345201852
322.2720140891549, 0.6387528345201852
321.5258540990118, 0.6346996754196494
325.50537404644166, 0.639090597778563
328.2412940102997, 0.639766124295319
328.2412940102997, 0.6367262549699173
331.2259339708722, 0.6387528345201852
331.2259339708722, 0.6357129651947834
334.45929392815896, 0.639090597778563
333.4644139413015, 0.6346996754196494
337.195213892017, 0.639766124295319
336.4490539018739, 0.6377395447450511
340.4285738493038, 0.6387528345201852
339.4336938624463, 0.6346996754196494
343.16449381316187, 0.6407794140704529
343.16449381316187, 0.6372328998574842
346.1491337737343, 0.6417927038455868
346.1491337737343, 0.6382461896326181
345.40297378359116, 0.6357129651947834
349.1337737343067, 0.6387528345201852
352.1184136948791, 0.639766124295319
352.1184136948791, 0.6362196100823503
355.10305365545156, 0.6387528345201852
358.08769361602396, 0.6387528345201852
361.0723335765964, 0.639766124295319
361.0723335765964, 0.6367262549699173
364.0569735371688, 0.6387528345201852
365.54929351745506, 0.6428059936207208
365.54929351745506, 0.6357129651947834
367.2903334944556, 0.639090597778563
370.02625345831365, 0.6417927038455868
370.02625345831365, 0.6377395447450511
373.0108934188861, 0.6417927038455868
373.0108934188861, 0.6382461896326181
375.9955333794585, 0.6407794140704529
375.9955333794585, 0.6377395447450511
379.2288933367453, 0.6367262549699173
381.9648133006034, 0.6407794140704529
381.9648133006034, 0.6372328998574842
384.9494532611758, 0.6407794140704529
384.9494532611758, 0.6377395447450511
387.93409322174824, 0.6417927038455868
387.93409322174824, 0.6387528345201852
391.167453179035, 0.6387528345201852
390.17257319217754, 0.6346996754196494
393.9033731428931, 0.639766124295319
393.15721315274993, 0.6377395447450511
396.8880131034655, 0.6367262549699173
399.87265306403793, 0.6387528345201852
399.87265306403793, 0.6357129651947834
402.8572930246103, 0.6407794140704529
402.8572930246103, 0.6377395447450511
405.8419329851828, 0.6367262549699173
405.8419329851828, 0.6331797407569486
407.334252965469, 0.639766124295319
408.8265729457552, 0.6362196100823503
411.8112129063276, 0.6377395447450511
414.7958528669, 0.6372328998574842
417.7804928274725, 0.6377395447450511
418.52665281761557, 0.6407794140704529
421.01385278475925, 0.6370640182282952
423.7497727486173, 0.639766124295319
423.0036127584742, 0.6377395447450511
425.2420927289035, 0.6357129651947834
428.2267326894759, 0.6387528345201852
428.2267326894759, 0.6357129651947834
431.4600926467627, 0.6407794140704529
430.46521265990526, 0.6377395447450511
434.1960126106208, 0.6387528345201852
437.1806525711932, 0.6428059936207208
437.1806525711932, 0.639766124295319
439.4191325416225, 0.6488857322715242
440.16529253176566, 0.6448325731709885
440.16529253176566, 0.6412860589580198
443.14993249233805, 0.6428059936207208
446.1345724529105, 0.6428059936207208
446.1345724529105, 0.639766124295319
446.8807324430536, 0.6468591527212564
449.1192124134829, 0.6428059936207208
449.1192124134829, 0.639766124295319
451.3576923839122, 0.6488857322715242
452.10385237405535, 0.6448325731709885
451.3576923839122, 0.6417927038455868
455.08849233462774, 0.6438192833958547
454.34233234448465, 0.639766124295319
458.0731322952002, 0.6468591527212564
459.8141722722007, 0.6434815201374767
462.5500922360588, 0.6448325731709885
461.8039322459157, 0.6417927038455868
465.78345219334557, 0.6451703364293666
468.768092153918, 0.6471969159796344
467.77321216706054, 0.6438192833958547
471.5040121177761, 0.6488857322715242
471.5040121177761, 0.6453392180585555
474.4886520783485, 0.6478724424963904
473.7424920882054, 0.6458458629461226
477.47329203892093, 0.6498990220466582
480.4579319994934, 0.6493923771590913
483.4425719600658, 0.65293889137206
483.4425719600658, 0.6488857322715242
482.6964119699227, 0.6458458629461226
486.42721192063823, 0.6493923771590913
487.9195319009244, 0.65293889137206
491.15289185821126, 0.65293889137206
490.9041718614968, 0.6483790873839572
494.13753181878366, 0.6553032341807057
493.1426518319262, 0.651925601596926
496.87345178264167, 0.6539521811471938
496.12729179249857, 0.651925601596926
500.1068117399285, 0.6549654709223278
499.111931753071, 0.651925601596926
502.8427317037865, 0.6569920504725956
502.0965717136434, 0.6539521811471938
505.82737166435896, 0.6580053402477295
508.81201162493136, 0.6600319197979974
511.7966515855038, 0.6640850788985331
511.7966515855038, 0.6605385646855643
514.7812915460762, 0.663071789123399
514.7812915460762, 0.6600319197979974
518.0146515033631, 0.6650983686736669
517.0197715165056, 0.6620584993482652
520.7505714672211, 0.6640850788985331
523.7352114277935, 0.6640850788985331
526.719851388366, 0.6671249482239348
526.719851388366, 0.663071789123399
528.2121713686522, 0.6701648175493364
529.9532113456528, 0.6654361319320449
528.9583313587952, 0.6620584993482652
532.9378513062252, 0.6694892910325805
535.6737712700832, 0.6711781073244705
535.6737712700832, 0.6676315931115018
538.9071312273701, 0.6715158705828483
541.6430511912281, 0.6742179766498722
543.1353711715143, 0.6772578459752738
543.8815311616573, 0.6732046868747382
546.1200111320867, 0.6792844255255417
546.1200111320867, 0.67624455620014
549.1046510926591, 0.6833375846260774
549.1046510926591, 0.6792844255255417
548.358491102516, 0.67624455620014
552.338011049946, 0.6813110050758096
552.0892910532316, 0.6767512010877069
552.8354510433746, 0.6873907437266131
555.073931013804, 0.6833375846260774
555.073931013804, 0.6797910704131087
558.0585709743764, 0.6914439028271487
558.0585709743764, 0.6873907437266131
558.0585709743764, 0.6838442295136444
557.3124109842333, 0.6802977153006756
561.0432109349488, 0.688910678389314
560.2970509448057, 0.6863774539514791
564.2765708922357, 0.687728506984991
567.0124908560937, 0.6873907437266131
567.0124908560937, 0.6843508744012112
570.2458508133805, 0.6873907437266131
569.250970826523, 0.6833375846260774
572.9817707772385, 0.688404033501747
572.9817707772385, 0.6853641641763453
575.966410737811, 0.6863774539514791
575.966410737811, 0.6823242948509435
575.2202507476678, 0.6802977153006756
578.9510506983834, 0.6843508744012112
578.9510506983834, 0.6802977153006756
580.4433706786696, 0.67624455620014
581.1895306688127, 0.6833375846260774
581.9356906589558, 0.6792844255255417
583.428010639242, 0.675737911312573
586.4126505998145, 0.67624455620014
585.6664906096713, 0.6742179766498722
587.9049705801007, 0.6711781073244705
588.6511305702437, 0.6752312664250061
589.6460105571012, 0.6678004747406907
592.3819305209593, 0.6661116584488008
591.6357705308162, 0.6640850788985331
593.8742505012455, 0.6610452095731312
596.858890461818, 0.6600319197979974
596.1127304716748, 0.6580053402477295
599.0973704322472, 0.6569920504725956
599.8435304223904, 0.6534455362596269
602.0820103928197, 0.65293889137206
602.8281703829628, 0.6493923771590913
604.5692103599633, 0.6451703364293666
607.3051303238213, 0.6438192833958547
607.3051303238213, 0.639766124295319
610.2897702843937, 0.6407794140704529
610.2897702843937, 0.6377395447450511
613.2744102449662, 0.6372328998574842
614.7667302252524, 0.6336863856445155
616.2590502055386, 0.6357129651947834
617.7513701858248, 0.6311531612066807
620.7360101463972, 0.6286199367688459
621.4821701365404, 0.6326730958693816
623.7206501069697, 0.6255800674434442
622.9744901168266, 0.6235534878931763
626.9540100642565, 0.6225401981180425
625.959130077399, 0.6195003287926407
629.6899300281145, 0.6245667776683103
629.6899300281145, 0.6210202634553416
632.6745699886869, 0.6205136185677746
635.6592099492594, 0.6195003287926407
634.9130499591163, 0.6174737492423729
638.6438499098318, 0.6184870390175068
641.6284898704042, 0.6184870390175068
641.6284898704042, 0.6149405248045381
644.6131298309766, 0.6184870390175068
644.6131298309766, 0.6144338799169711
647.8464897882635, 0.6124073003667033
646.851609801406, 0.6093674310413015
650.8311297488359, 0.6144338799169711
649.8362497619784, 0.6113940105915694
653.5670497126939, 0.6154471696921051
653.5670497126939, 0.6113940105915694
656.5516896732663, 0.6124073003667033
659.5363296338388, 0.6124073003667033
659.5363296338388, 0.6093674310413015
662.5209695944112, 0.6124073003667033
661.7748096042681, 0.6093674310413015
665.5056095549836, 0.6108873657040024
668.4902495155561, 0.6088607861537345
671.4748894761285, 0.6063275617158999
674.7082494334153, 0.6083541412661677
673.7133694465577, 0.604300982165632
677.4441693972733, 0.6113940105915694
677.4441693972733, 0.6073408514910337
677.4441693972733, 0.604300982165632
680.4288093578458, 0.604300982165632
679.6826493677027, 0.6012611128402302
683.6621693151326, 0.604300982165632
686.3980892789906, 0.6032876923904981
686.3980892789906, 0.5997411781775294
689.382729239563, 0.6032876923904981
688.63656924942, 0.6002478230650963
692.3673692001355, 0.6022744026153641
692.3673692001355, 0.5987278884023954
695.3520091607079, 0.5992345332899625
694.6058491705647, 0.5972079537396946
698.3366491212803, 0.5982212435148284
701.3212890818527, 0.5982212435148284
701.3212890818527, 0.5951813741894267
704.3059290424252, 0.5961946639645607
707.2905690029976, 0.5961946639645607
710.27520896357, 0.5951813741894267
709.5290489734269, 0.5931547946391589
713.2598489241424, 0.5931547946391589
712.5136889339993, 0.591128215088891
716.2444888847149, 0.5926481497515919
719.2291288452873, 0.5921415048640251
722.2137688058597, 0.5921415048640251
722.2137688058597, 0.5891016355386232
725.1984087664321, 0.5891016355386232
724.452248776289, 0.5860617662132215
728.431768723719, 0.5884261090218672
731.167688687577, 0.5880883457634893
732.6600086678632, 0.5855551213256545
735.6446486284356, 0.5860617662132215
737.8831285988649, 0.5880883457634893
738.6292885890081, 0.5840351866629536
741.6139285495805, 0.5830218968878198
743.1062485298667, 0.5789687377872841
744.5985685101529, 0.5820086071126858
745.344728500296, 0.5860617662132215
746.090888490439, 0.5784620928997171
747.5832084707253, 0.5820086071126858
750.5678484312978, 0.5809953173375519
750.5678484312978, 0.5779554480121502
753.5524883918702, 0.5789687377872841
752.806328401727, 0.5769421582370162
756.5371283524426, 0.5769421582370162
759.7704883097293, 0.5742400521699924
762.5064082735875, 0.5749155786867484
762.5064082735875, 0.5713690644737797
765.4910482341598, 0.5728889991364805
764.7448882440167, 0.5708624195862128
768.4756881947322, 0.5698491298110788
771.4603281553046, 0.5698491298110788
774.4449681158771, 0.568329195148378
777.4296080764495, 0.567822550260811
776.6834480863064, 0.5647826809354093
780.4142480370219, 0.567822550260811
780.4142480370219, 0.5647826809354093
783.3988879975943, 0.5668092604856771
786.3835279581668, 0.5657959707105431
786.3835279581668, 0.5627561013851414
789.3681679187392, 0.5657959707105431
792.3528078793116, 0.5657959707105431
795.337447839884, 0.5657959707105431
798.3220878004565, 0.567822550260811
798.3220878004565, 0.5647826809354093
801.3067277610289, 0.5657959707105431
804.2913677216013, 0.5657959707105431
807.2760076821737, 0.5663026155981101
810.2606476427462, 0.5688358400359449
810.2606476427462, 0.5657959707105431
813.2452876033186, 0.5688358400359449
816.229927563891, 0.5718757093613467
819.2145675244635, 0.5728889991364805
818.4684075343204, 0.5688358400359449
822.1992074850359, 0.5739022889116145
825.4325674423227, 0.5762666317202603
828.1684874061807, 0.5804886724499849
831.1531273667532, 0.5820086071126858
830.40696737661, 0.5789687377872841
832.6454473470394, 0.5860617662132215
834.1377673273256, 0.5840351866629536
835.8788073043262, 0.5884261090218672
838.6147272681842, 0.5921415048640251
837.8685672780412, 0.5891016355386232
840.1070472484704, 0.5961946639645607
840.8532072386135, 0.5931547946391589
843.3404072057573, 0.5985590067732065
846.0763271696153, 0.604300982165632
845.3301671794721, 0.6012611128402302
847.5686471499015, 0.6083541412661677
850.8020071071883, 0.6127450636250813
849.8071271203308, 0.6083541412661677
853.5379270710463, 0.6174737492423729
856.5225670316188, 0.6250734225558772
855.7764070414756, 0.6205136185677746
858.014887011905, 0.6286199367688459
861.2482469691917, 0.6350374386780273
860.2533669823343, 0.6316598060942478
864.2328869297642, 0.639090597778563
863.2380069429067, 0.6357129651947834
866.9688068936223, 0.6448325731709885
866.2226469034791, 0.6417927038455868
868.4611268739085, 0.6493923771590913
870.202166850909, 0.65293889137206
872.9380868147671, 0.6600319197979974
872.191926824624, 0.6549654709223278
872.191926824624, 0.651925601596926
874.6791267917677, 0.6650983686736669
877.66376675234, 0.6715158705828483
876.6688867654826, 0.6681382379990687
880.3996867161982, 0.6732046868747382
881.8920066964844, 0.6772578459752738
883.3843266767706, 0.6813110050758096
882.6381666866274, 0.6742179766498722
884.8766466570568, 0.6853641641763453
885.6228066471999, 0.6813110050758096
888.1100066143435, 0.687728506984991
887.1151266274861, 0.6843508744012112
890.8459265782017, 0.6954970619276843
890.8459265782017, 0.6914439028271487
890.0997665880585, 0.688404033501747
893.8305665387741, 0.6965103517028183
893.0844065486309, 0.6924571926022827
897.0639264960608, 0.6998879842865979
896.0690465092034, 0.6954970619276843
899.7998464599189, 0.7041100250163227
899.0536864697758, 0.6995502210282201
899.0536864697758, 0.6965103517028183
902.7844864204914, 0.7076565392292914
902.7844864204914, 0.7041100250163227
905.7691263810638, 0.7106964085546932
905.7691263810638, 0.7071498943417245
905.0229663909206, 0.7046166699038896
908.7537663416362, 0.711709698329827
908.7537663416362, 0.7081631841168583
911.7384063022087, 0.711709698329827
910.9922463120655, 0.7086698290044253
914.9717662594953, 0.7096831187795591
913.9768862726379, 0.7066432494541575
917.7076862233534, 0.711709698329827
917.7076862233534, 0.7076565392292914
920.6923261839258, 0.7086698290044253
919.9461661937828, 0.7066432494541575
922.4333661609264, 0.7039411433871336
925.1692861247845, 0.7056299596790235
926.910326101785, 0.7022523270952439
928.9000860755, 0.7036033801287558
929.6462460656431, 0.6995502210282201
931.1385660459293, 0.6965103517028183
932.6308860262155, 0.6995502210282201
934.1232060065017, 0.6960037068152514
935.615525986788, 0.6985369312530861
935.615525986788, 0.6929638374898496
938.6001659473604, 0.6934704823774165
938.6001659473604, 0.6899239681644478
939.3463259375035, 0.6975236414779522
941.5848059079328, 0.6914439028271487
940.8386459177898, 0.688404033501747
944.5694458685052, 0.6904306130520148
943.8232858783622, 0.688404033501747
946.0617658487914, 0.6853641641763453
946.0617658487914, 0.6813110050758096
949.0464058093639, 0.6818176499633766
950.5387257896501, 0.6787777806379748
952.7772057600795, 0.6792844255255417
953.5233657502225, 0.675737911312573
955.0156857305087, 0.6711781073244705
956.5080057107949, 0.6742179766498722
959.7413656680817, 0.6732046868747382
959.4926456713674, 0.6686448828866356
962.7260056286541, 0.6711781073244705
962.4772856319398, 0.6661116584488008
962.4772856319398, 0.663071789123399
965.4619255925122, 0.6650983686736669
965.4619255925122, 0.6610452095731312
968.4465655530846, 0.6590186300228634
970.685045523514, 0.6590186300228634
971.4312055136571, 0.6554721158098947
974.4158454742295, 0.651925601596926
975.9081654545157, 0.6473657976088234
977.4004854348019, 0.6509123118217921
979.1415254118025, 0.6475346792380123
981.8774453756606, 0.6478724424963904
981.8774453756606, 0.6448325731709885
984.862085336233, 0.6438192833958547
986.3544053165192, 0.6392594794077521
989.587765273806, 0.6407794140704529
988.5928852869486, 0.6367262549699173
988.5928852869486, 0.6336863856445155
992.323685237664, 0.6367262549699173
995.3083251982365, 0.6357129651947834
995.3083251982365, 0.6316598060942478
994.5621652080933, 0.6296332265439799
998.2929651588089, 0.6316598060942478
997.5468051686657, 0.6296332265439799
1000.5314451292383, 0.6306465163191137
1001.2776051193813, 0.627100002106145
1004.5109650766681, 0.6249045409266882
1007.2468850405262, 0.6225401981180425
1008.7392050208124, 0.6189936839050738
1010.2315250010986, 0.6215269083429085
1011.9725649780992, 0.6171359859839949
1014.7084849419572, 0.6174737492423729
1014.7084849419572, 0.6144338799169711
1016.9469649123865, 0.6164604594672389
1017.6931249025297, 0.6129139452542702
1019.1854448828159, 0.6098740759288686
1022.1700848433883, 0.6103807208164355
1022.1700848433883, 0.6073408514910337
1025.1547248039608, 0.6063275617158999
1028.1393647645332, 0.6063275617158999
1027.3932047743901, 0.6032876923904981
1031.1240047251056, 0.6032876923904981
1032.616324705392, 0.5997411781775294
1035.6009646659643, 0.6002478230650963
1037.8394446363936, 0.6002478230650963
1038.5856046265367, 0.5967013088521276
1041.570244587109, 0.5951813741894267
1044.5548845476815, 0.5941680844142928
1047.5395245082539, 0.5951813741894267
1049.0318444885402, 0.5906215702013241
1052.0164844491126, 0.5901149253137572
1055.001124409685, 0.5880883457634893
1055.747284399828, 0.5850484764380876
1058.2344843669719, 0.5884261090218672
1060.2242443406867, 0.5880883457634893
1060.9704043308298, 0.5845418315505206
1063.9550442914024, 0.5840351866629536
1063.9550442914024, 0.5809953173375519
1066.9396842519748, 0.5820086071126858
1069.9243242125472, 0.5815019622251189
1072.9089641731196, 0.579982027562418
1075.893604133692, 0.579982027562418
1077.3859241139783, 0.5764355133494493
1080.3705640745507, 0.5759288684618824
1081.8628840548367, 0.5728889991364805
1083.355204035123, 0.5759288684618824
1085.0962440121236, 0.5725512358781026
1087.8321639759818, 0.5739022889116145
1087.0860039858385, 0.5708624195862128
1090.8168039365542, 0.5718757093613467
1093.8014438971265, 0.5708624195862128
1093.0552839069835, 0.5688358400359449
1096.786083857699, 0.5698491298110788
1096.039923867556, 0.5668092604856771
1099.7707238182713, 0.5708624195862128
1099.7707238182713, 0.567822550260811
1102.7553637788437, 0.567822550260811
1105.9887237361306, 0.5661337339689212
1108.7246436999887, 0.5657959707105431
1107.9784837098455, 0.5627561013851414
1111.7092836605611, 0.5657959707105431
1111.7092836605611, 0.5627561013851414
1114.6939236211335, 0.5657959707105431
1114.6939236211335, 0.5627561013851414
1117.678563581706, 0.5647826809354093
1116.932403591563, 0.5617428116100075
1120.6632035422783, 0.5637693911602754
1120.6632035422783, 0.5607295218348736
1122.9016835127077, 0.5637693911602754
1123.6478435028507, 0.5602228769473067
1126.6324834634231, 0.5602228769473067
1129.8658434207098, 0.5600539953181176
1128.8709634338525, 0.5566763627343378
1132.601763384568, 0.5592095871721727
1135.5864033451403, 0.5581962973970388
1138.8197633024272, 0.5583651790262278
1141.5556832662853, 0.5576896525094719
1144.789043223572, 0.5580274157678498
1147.52496318743, 0.5576896525094719
1150.5096031480025, 0.556169717846771
1153.494243108575, 0.555663072959204
1156.4788830691473, 0.5566763627343378
1159.4635230297197, 0.555663072959204
1162.4481629902923, 0.5571830076219049
1165.4328029508647, 0.556169717846771
1168.417442911437, 0.555663072959204
1171.4020828720095, 0.555663072959204
1174.3867228325819, 0.5576896525094719
1173.6405628424388, 0.5546497831840701
1177.3713627931543, 0.556169717846771
1180.3560027537267, 0.555663072959204
1183.340642714299, 0.5566763627343378
1186.3252826748717, 0.5576896525094719
1187.8176026551578, 0.5546497831840701
1189.309922635444, 0.5576896525094719
1192.2945625960165, 0.5576896525094719
1192.2945625960165, 0.5546497831840701
1195.2792025565889, 0.5576896525094719
1198.5125625138755, 0.5576896525094719
