205.87105562683035, 0.8434373690972361
205.87105562683035, 0.8398908548842674
208.8556955874028, 0.8414107895469682
208.8556955874028, 0.8378642753339995
208.1095355972597, 0.8343177611210308
211.8403355479752, 0.8434373690972361
211.8403355479752, 0.8393842099967004
213.33265552826143, 0.8353310508961648
213.33265552826143, 0.832291181570763
214.82497550854765, 0.8393842099967004
216.31729548883385, 0.8363443406712987
217.80961546912008, 0.8393842099967004
218.55577545926317, 0.8434373690972361
219.3019354494063, 0.8358376957837317
220.7942554296925, 0.8393842099967004
220.0480954395494, 0.832291181570763
221.5404154198356, 0.8363443406712987
223.7788953902649, 0.8383709202215666
226.76353535083734, 0.8373576304464325
226.76353535083734, 0.8343177611210308
229.74817531140974, 0.8393842099967004
229.74817531140974, 0.8353310508961648
229.00201532126664, 0.832291181570763
230.4943353015529, 0.8434373690972361
232.98153526869658, 0.8353310508961648
235.71745523255458, 0.8373576304464325
235.71745523255458, 0.8333044713458969
238.70209519312704, 0.8373576304464325
238.70209519312704, 0.8338111162334638
241.93545515041382, 0.8333044713458969
241.6867351536995, 0.8282380224702274
244.67137511427188, 0.8353310508961648
244.67137511427188, 0.831277891795629
243.92521512412878, 0.8272247326950934
247.65601507484433, 0.832291181570763
247.65601507484433, 0.8292513122453613
250.64065503541673, 0.831277891795629
250.64065503541673, 0.8272247326950934
251.38681502555983, 0.8353310508961648
253.8740149927035, 0.8292513122453613
252.87913500584602, 0.8262114429199595
256.6099349565616, 0.8353310508961648
256.6099349565616, 0.8317845366831961
255.86377496641848, 0.8282380224702274
259.594574917134, 0.832291181570763
259.594574917134, 0.8287446673577943
262.5792148777064, 0.8292513122453613
262.5792148777064, 0.8262114429199595
265.8125748349932, 0.8295890755037393
264.8176948481358, 0.8262114429199595
268.54849479885127, 0.8292513122453613
270.04081477913746, 0.8262114429199595
271.7818547561381, 0.8295890755037393
274.5177747199961, 0.8282380224702274
274.5177747199961, 0.8251981531448256
277.50241468056856, 0.8272247326950934
277.50241468056856, 0.8236782184821247
280.48705464114096, 0.8272247326950934
280.48705464114096, 0.8236782184821247
283.4716946017134, 0.8262114429199595
282.7255346115703, 0.8241848633696917
284.2178545918565, 0.8211449940442899
286.4563345622858, 0.8251981531448256
287.94865454257206, 0.8211449940442899
289.44097452285826, 0.8241848633696917
290.93329450314445, 0.819625059381589
292.42561448343065, 0.8221582838194239
292.42561448343065, 0.8170918349437543
295.4102544440031, 0.8211449940442899
295.4102544440031, 0.8181051247188882
298.3948944045755, 0.8221582838194239
298.3948944045755, 0.8181051247188882
297.6487344144324, 0.8150652553934864
301.37953436514795, 0.8211449940442899
302.87185434543414, 0.8175984798313212
304.36417432572034, 0.820131704269156
305.8564943060066, 0.8160785451686203
307.3488142862928, 0.8191184144940221
308.841134266579, 0.8160785451686203
310.3334542468652, 0.8181051247188882
313.31809420743764, 0.8140519656183525
314.06425419758074, 0.8089855167426829
316.5514541647244, 0.8150652553934864
315.55657417786693, 0.8120253860680847
319.5360941252968, 0.8154030186518644
318.5412141384394, 0.8120253860680847
320.7796941088687, 0.8211449940442899
322.52073408586926, 0.8170918349437543
321.5258540990118, 0.8130386758432187
325.50537404644166, 0.8170918349437543
325.25665404972733, 0.8125320309556516
324.51049405958423, 0.8099988065178169
326.7489740300135, 0.8221582838194239
327.4951340201566, 0.8170918349437543
328.2412940102997, 0.8135453207307856
331.2259339708722, 0.8140519656183525
334.21057393144457, 0.8170918349437543
333.4644139413015, 0.8140519656183525
337.195213892017, 0.8191184144940221
337.195213892017, 0.8155719002810534
340.4285738493038, 0.8170918349437543
343.16449381316187, 0.8170918349437543
343.16449381316187, 0.8140519656183525
346.1491337737343, 0.8181051247188882
346.1491337737343, 0.8150652553934864
349.1337737343067, 0.8181051247188882
349.1337737343067, 0.8140519656183525
352.1184136948791, 0.8160785451686203
352.1184136948791, 0.8130386758432187
355.3517736521659, 0.8174295982021322
354.35689366530846, 0.8130386758432187
354.35689366530846, 0.8089855167426829
358.08769361602396, 0.8191184144940221
358.08769361602396, 0.8155719002810534
359.5800135963102, 0.8130386758432187
361.32105357331073, 0.8170918349437543
364.0569735371688, 0.8170918349437543
363.3108135470257, 0.8130386758432187
367.04161349774125, 0.8170918349437543
367.04161349774125, 0.8130386758432187
370.02625345831365, 0.8170918349437543
370.02625345831365, 0.8130386758432187
373.0108934188861, 0.8160785451686203
374.5032133991723, 0.8120253860680847
375.9955333794585, 0.8191184144940221
375.9955333794585, 0.8150652553934864
378.98017334003094, 0.8170918349437543
378.98017334003094, 0.8140519656183525
381.9648133006034, 0.8181051247188882
381.9648133006034, 0.8145586105059195
384.9494532611758, 0.8170918349437543
384.9494532611758, 0.8140519656183525
387.93409322174824, 0.8170918349437543
387.93409322174824, 0.8140519656183525
390.91873318232064, 0.8150652553934864
390.17257319217754, 0.8110120962929508
393.9033731428931, 0.8150652553934864
395.3956931231793, 0.8130386758432187
396.8880131034655, 0.8160785451686203
400.12137306075226, 0.8150652553934864
399.87265306403793, 0.8099988065178169
399.1264930738948, 0.807972226967549
402.8572930246103, 0.8160785451686203
402.8572930246103, 0.8130386758432187
405.8419329851828, 0.8170918349437543
405.8419329851828, 0.8130386758432187
405.8419329851828, 0.8099988065178169
408.8265729457552, 0.8160785451686203
408.0804129556121, 0.8140519656183525
411.8112129063276, 0.8145586105059195
415.0445728636144, 0.8133764391015966
418.0292128241868, 0.8150652553934864
417.7804928274725, 0.8105054514053838
417.0343328373294, 0.807972226967549
420.76513278804487, 0.8130386758432187
422.25745276833106, 0.8160785451686203
425.49081272561784, 0.8174295982021322
424.4959327387604, 0.8130386758432187
424.4959327387604, 0.8099988065178169
428.2267326894759, 0.8170918349437543
428.2267326894759, 0.8135453207307856
431.4600926467627, 0.8211449940442899
431.21137265004836, 0.8165851900561873
430.46521265990526, 0.8140519656183525
434.1960126106208, 0.820131704269156
434.1960126106208, 0.8160785451686203
437.1806525711932, 0.8211449940442899
437.1806525711932, 0.8175984798313212
436.4344925810501, 0.8140519656183525
440.16529253176566, 0.8211449940442899
440.16529253176566, 0.8175984798313212
443.14993249233805, 0.8211449940442899
444.64225247262425, 0.8181051247188882
446.1345724529105, 0.8231715735945577
446.8807324430536, 0.820131704269156
449.1192124134829, 0.8231715735945577
452.3525723707697, 0.8235093368529358
451.3576923839122, 0.820131704269156
455.33721233134213, 0.8255359164032036
454.34233234448465, 0.8221582838194239
458.0731322952002, 0.8272247326950934
459.5654522754864, 0.8241848633696917
461.306492252487, 0.8272247326950934
464.04241221634504, 0.831277891795629
464.04241221634504, 0.8272247326950934
463.29625222620194, 0.8241848633696917
467.02705217691744, 0.831277891795629
467.02705217691744, 0.8282380224702274
470.0116921374899, 0.832291181570763
470.0116921374899, 0.8287446673577943
472.9963320980623, 0.8333044713458969
472.9963320980623, 0.8292513122453613
476.22969205534906, 0.8336422346042749
475.23481206849164, 0.8292513122453613
475.23481206849164, 0.8251981531448256
479.2143320159215, 0.8333044713458969
478.21945202906403, 0.8302646020204951
480.4579319994934, 0.8383709202215666
482.19897197649397, 0.8336422346042749
484.934891940352, 0.8353310508961648
486.42721192063823, 0.8383709202215666
487.9195319009244, 0.8353310508961648
489.4118518812106, 0.8393842099967004
490.1580118713537, 0.8363443406712987
492.3964918417831, 0.8424240793221022
495.38113180235547, 0.8434373690972361
496.12729179249857, 0.8393842099967004
498.3657717629279, 0.845463948647504
501.3504117235003, 0.8464772384226378
502.8427317037865, 0.8515436872983074
504.33505168407277, 0.8485038179729056
505.82737166435896, 0.8515436872983074
508.81201162493136, 0.8535702668485752
508.81201162493136, 0.8500237526356065
511.7966515855038, 0.8535702668485752
511.0504915953607, 0.8505303975231735
513.28897156579, 0.856610136173977
515.0300115427907, 0.8522192138150633
516.5223315230769, 0.8576234259491109
517.7659315066487, 0.8525569770734414
519.2582514869349, 0.8596500054993788
519.2582514869349, 0.855596846398843
522.2428914475073, 0.8616765850496466
521.4967314573643, 0.8586367157242448
523.7352114277935, 0.8647164543750483
525.4762514047941, 0.8596500054993788
524.4813714179367, 0.855596846398843
524.4813714179367, 0.8515436872983074
528.2121713686522, 0.8616765850496466
527.466011378509, 0.8586367157242448
529.7044913489384, 0.8657297441501822
530.4506513390814, 0.8616765850496466
532.6891313095108, 0.8657297441501822
533.435291299654, 0.8697829032507178
534.181451289797, 0.8626898748247804
535.9224912667976, 0.8657297441501822
538.6584112306557, 0.8677563237004501
538.6584112306557, 0.8642098094874814
541.8917711879425, 0.8701206665090959
540.8968912010849, 0.8667430339253162
544.6276911518005, 0.8768759316766553
544.6276911518005, 0.8733294174636865
543.8815311616573, 0.8697829032507178
547.6123311123729, 0.8738360623512536
548.358491102516, 0.8697829032507178
550.5969710729454, 0.8778892214517893
549.8508110828022, 0.8748493521263875
552.338011049946, 0.8819423805523249
553.5816110335178, 0.8768759316766553
555.3226510105184, 0.8839689601025927
555.073931013804, 0.8789025112269231
555.8200910039471, 0.8748493521263875
557.3124109842333, 0.8880221192031283
558.0585709743764, 0.8839689601025927
558.0585709743764, 0.880422445889624
561.0432109349488, 0.8859955396528605
561.0432109349488, 0.8829556703274588
564.2765708922357, 0.8859955396528605
563.2816909053781, 0.8829556703274588
566.2663308659505, 0.8920752783036641
567.0124908560937, 0.8870088294279944
566.2663308659505, 0.8849822498777267
568.7535308330943, 0.8822801438107029
570.7432908068092, 0.8880221192031283
571.4894507969523, 0.8839689601025927
571.4894507969523, 0.880422445889624
572.9817707772385, 0.8763692867890883
574.4740907575248, 0.879915801002057
576.2151307345254, 0.8762004051598994
578.9510506983834, 0.8758626419015214
578.9510506983834, 0.8728227725761196
581.9356906589558, 0.8707961930258519
581.9356906589558, 0.8677563237004501
584.1741706293851, 0.8697829032507178
584.9203306195283, 0.8657297441501822
584.9203306195283, 0.8626898748247804
587.9049705801007, 0.8606632952745127
587.1588105899575, 0.8586367157242448
589.3972905603869, 0.855596846398843
589.3972905603869, 0.8515436872983074
589.3972905603869, 0.8485038179729056
591.6357705308162, 0.855596846398843
591.6357705308162, 0.8515436872983074
592.3819305209593, 0.8474905281977717
593.8742505012455, 0.8424240793221022
595.3665704815317, 0.8388775651091335
596.858890461818, 0.8343177611210308
596.858890461818, 0.831277891795629
599.8435304223904, 0.8302646020204951
599.8435304223904, 0.8267180878075264
602.8281703829628, 0.8241848633696917
602.8281703829628, 0.820131704269156
604.320490363249, 0.8150652553934864
605.8128103435351, 0.8115187411805177
608.0512903139645, 0.8089855167426829
608.0512903139645, 0.8059456474172813
610.2897702843937, 0.8018924883167455
612.5282502548231, 0.7988526189913439
614.7667302252524, 0.7947994598908081
617.7513701858248, 0.7917595905654063
617.7513701858248, 0.7887197212400047
619.9898501562542, 0.7907463007902724
620.7360101463972, 0.7866931416897368
620.7360101463972, 0.7831466274767681
623.7206501069697, 0.784666562139469
623.7206501069697, 0.7806134030389333
625.4616900839703, 0.7772357704551536
628.1976100478283, 0.7796001132637994
628.1976100478283, 0.7755469541632637
630.4360900182577, 0.7785868234886655
631.1822500084007, 0.7745336643881298
631.1822500084007, 0.7709871501751611
633.4207299788301, 0.7745336643881298
634.1668899689732, 0.7694672155124602
635.6592099492594, 0.7659207012994915
637.1515299295456, 0.7704805052875942
638.6438499098318, 0.7674406359621924
637.8976899196887, 0.7633874768616568
641.6284898704042, 0.7684539257373263
641.6284898704042, 0.7649074115243576
644.6131298309766, 0.7644007666367907
646.1054498112629, 0.7674406359621924
646.1054498112629, 0.7623741870865228
649.0900897718353, 0.7644007666367907
649.0900897718353, 0.7613608973113889
652.3234497291221, 0.7610231340530109
655.0593696929801, 0.760347607536255
658.0440096535526, 0.760347607536255
658.0440096535526, 0.7568010933232863
661.028649614125, 0.760347607536255
660.2824896239819, 0.7562944484357194
663.2671295845544, 0.760347607536255
664.0132895746974, 0.7552811586605854
665.5056095549836, 0.7522412893351836
666.9979295352698, 0.7552811586605854
669.9825694958423, 0.7542678688854515
669.9825694958423, 0.7512279995600497
672.9672094564147, 0.7512279995600497
672.2210494662716, 0.748188130234648
675.9518494169871, 0.748188130234648
678.9364893775595, 0.7471748404595141
681.921129338132, 0.7451482609092462
684.9057692987044, 0.7451482609092462
684.9057692987044, 0.7421083915838445
688.1391292559912, 0.7424461548422225
687.1442492691338, 0.7390685222584428
690.8750492198492, 0.7421083915838445
690.8750492198492, 0.7390685222584428
693.8596891804217, 0.7390685222584428
693.1135291902785, 0.7370419427081749
696.8443291409941, 0.7370419427081749
696.0981691508509, 0.735015363157907
699.8289691015665, 0.735015363157907
699.0828091114234, 0.7329887836076392
702.8136090621389, 0.7340020733827732
704.3059290424252, 0.7309622040573714
705.7982490227114, 0.7329887836076392
708.7828889832838, 0.7309622040573714
708.0367289931406, 0.7289356245071036
711.7675289438562, 0.7299489142822375
713.2598489241424, 0.7264024000692688
716.2444888847149, 0.7258957551817018
719.2291288452873, 0.724882465406568
722.2137688058597, 0.723869175631434
723.9548087828603, 0.7204915430476544
726.6907287467184, 0.7208293063060323
725.9445687565752, 0.7188027267557644
729.6753687072908, 0.7177894369806306
731.167688687577, 0.7152562125427957
733.4061686580063, 0.7177894369806306
734.1523286481494, 0.7142429227676619
737.1369686087218, 0.7147495676552288
736.3908086185787, 0.7127229881049609
740.1216085692943, 0.7106964085546932
743.354968526581, 0.7096831187795591
746.090888490439, 0.7086698290044253
745.344728500296, 0.7066432494541575
747.5832084707253, 0.7036033801287558
750.5678484312978, 0.7046166699038896
750.5678484312978, 0.7015768005784879
753.5524883918702, 0.7015768005784879
756.5371283524426, 0.6995502210282201
758.2781683294431, 0.6958348251860623
760.2679283031581, 0.6975236414779522
761.0140882933011, 0.6939771272649835
763.9987282538737, 0.6924571926022827
766.983368214446, 0.6894173232768809
770.2167281717328, 0.6853641641763453
772.952648135591, 0.6853641641763453
774.4449681158771, 0.6828309397385104
777.4296080764495, 0.6802977153006756
780.4142480370219, 0.6792844255255417
781.9065680173081, 0.6767512010877069
784.8912079778806, 0.6772578459752738
784.8912079778806, 0.6742179766498722
787.875847938453, 0.6742179766498722
787.1296879483099, 0.6721913970996043
790.8604878990254, 0.6721913970996043
793.8451278595978, 0.6711781073244705
793.0989678694548, 0.6681382379990687
796.8297678201703, 0.6711781073244705
798.3220878004565, 0.6686448828866356
801.3067277610289, 0.6706714624369035
804.2913677216013, 0.6701648175493364
807.2760076821737, 0.6721913970996043
806.5298476920307, 0.6701648175493364
810.2606476427462, 0.6711781073244705
813.2452876033186, 0.6742179766498722
812.4991276131755, 0.6701648175493364
816.229927563891, 0.6752312664250061
819.2145675244635, 0.6782711357504079
819.2145675244635, 0.6747246215374392
818.4684075343204, 0.6721913970996043
822.1992074850359, 0.6782711357504079
825.1838474456083, 0.6818176499633766
826.6761674258945, 0.6843508744012112
829.6608073864669, 0.688404033501747
828.9146473963239, 0.6843508744012112
832.6454473470394, 0.6924571926022827
835.6300873076118, 0.6954970619276843
834.8839273174686, 0.6924571926022827
838.6147272681842, 0.6980302863655192
840.3557672451848, 0.7019145638368658
843.0916872090429, 0.7081631841168583
844.5840071893291, 0.7147495676552288
844.5840071893291, 0.7112030534422601
847.5686471499015, 0.7167761472054965
849.3096871269021, 0.7221803593395442
852.0456070907601, 0.7284289796195367
851.299447100617, 0.724882465406568
853.7866470677608, 0.7323132570908832
855.0302470513326, 0.7390685222584428
858.014887011905, 0.7441349711341123
857.2687270217618, 0.7400818120335767
859.5072069921912, 0.7522412893351836
858.761047002048, 0.748188130234648
860.9995269724774, 0.7568010933232863
862.740566949478, 0.760347607536255
865.4764869133361, 0.7669339910746255
864.7303269231929, 0.7623741870865228
866.9688068936223, 0.7745336643881298
866.2226469034791, 0.7704805052875942
868.4611268739085, 0.7796001132637994
869.9534468541947, 0.784666562139469
871.4457668344809, 0.7887197212400047
872.9380868147671, 0.7937861701156742
872.191926824624, 0.784666562139469
875.1765667851964, 0.7988526189913439
875.1765667851964, 0.7958127496659421
877.4150467556258, 0.8039190678670134
878.907366735912, 0.80949216163025
880.6484067129124, 0.8170918349437543
880.3996867161982, 0.8125320309556516
883.6330466734848, 0.8235093368529358
882.6381666866274, 0.820131704269156
886.368966637343, 0.8292513122453613
885.6228066471999, 0.8251981531448256
887.8612866176292, 0.8383709202215666
887.1151266274861, 0.8333044713458969
891.0946465749159, 0.8437751323556141
890.0997665880585, 0.8393842099967004
893.8305665387741, 0.8500237526356065
893.0844065486309, 0.8464772384226378
895.5716065157745, 0.8539080301069533
897.0639264960608, 0.8599877687577567
900.0485664566332, 0.8620143483080245
899.0536864697758, 0.8586367157242448
902.7844864204914, 0.8677563237004501
902.0383264303482, 0.8647164543750483
904.2768064007776, 0.8758626419015214
904.2768064007776, 0.8718094828009857
907.26144636135, 0.8758626419015214
908.7537663416362, 0.879915801002057
910.2460863219223, 0.8880221192031283
910.2460863219223, 0.8839689601025927
911.7384063022087, 0.880929090777191
914.723046262781, 0.8859955396528605
914.723046262781, 0.8829556703274588
917.7076862233534, 0.8870088294279944
916.9615262332103, 0.8849822498777267
919.2000062036396, 0.8824490254398918
920.6923261839258, 0.8859955396528605
922.184646164212, 0.8834623152150257
923.6769661444984, 0.8870088294279944
922.9308061543552, 0.879915801002057
925.1692861247845, 0.8824490254398918
926.6616061050707, 0.8849822498777267
928.1539260853569, 0.879915801002057
928.9000860755, 0.8839689601025927
929.6462460656431, 0.8758626419015214
931.1385660459293, 0.8789025112269231
932.6308860262155, 0.8743427072388206
934.1232060065017, 0.880929090777191
934.1232060065017, 0.8768759316766553
935.615525986788, 0.8728227725761196
936.3616859769311, 0.879915801002057
937.1078459670742, 0.8758626419015214
938.6001659473604, 0.8707961930258519
938.6001659473604, 0.8672496788128831
941.5848059079328, 0.868769613475584
941.5848059079328, 0.8652230992626153
940.8386459177898, 0.8626898748247804
943.8232858783622, 0.8697829032507178
944.5694458685052, 0.8657297441501822
944.5694458685052, 0.8621832299372135
947.5540858290777, 0.8667430339253162
947.5540858290777, 0.8631965197123475
950.5387257896501, 0.8616765850496466
950.5387257896501, 0.8576234259491109
953.5233657502225, 0.855596846398843
955.2644057272231, 0.8518814505566854
958.0003256910812, 0.8515436872983074
958.0003256910812, 0.8479971730853387
960.9849656516536, 0.8464772384226378
960.2388056615105, 0.84445065887237
962.7260056286541, 0.8414107895469682
962.4772856319398, 0.8373576304464325
965.4619255925122, 0.8403974997718343
965.4619255925122, 0.8363443406712987
967.7004055629416, 0.8393842099967004
968.4465655530846, 0.8343177611210308
968.4465655530846, 0.831277891795629
971.4312055136571, 0.831277891795629
971.4312055136571, 0.8282380224702274
974.4158454742295, 0.8262114429199595
974.4158454742295, 0.8231715735945577
977.4004854348019, 0.8221582838194239
978.8928054150881, 0.8175984798313212
980.3851253953743, 0.8135453207307856
983.6184853526611, 0.8130386758432187
983.3697653559468, 0.808478871855116
986.3544053165192, 0.8089855167426829
986.3544053165192, 0.8049323576421473
989.3390452770916, 0.8039190678670134
988.5928852869486, 0.8018924883167455
990.8313652573778, 0.7988526189913439
990.0852052672348, 0.7947994598908081
993.8160052179503, 0.7978393292162098
993.8160052179503, 0.7947994598908081
996.8006451785227, 0.7937861701156742
996.8006451785227, 0.7897330110151386
996.0544851883795, 0.7877064314648707
999.7852851390951, 0.7866931416897368
1002.7699250996675, 0.783653272364335
1005.0084050700968, 0.7826399825892012
1005.75456506024, 0.7790934683762324
1007.2468850405262, 0.7745336643881298
1007.9930450306692, 0.7785868234886655
1010.2315250010986, 0.7714937950627281
1011.7238449813848, 0.7674406359621924
1013.216164961671, 0.7694672155124602
1014.7084849419572, 0.7649074115243576
1015.4546449321003, 0.7684539257373263
1017.6931249025297, 0.7633874768616568
1017.6931249025297, 0.759334317761121
1020.6777648631021, 0.7573077382108533
1019.9316048729589, 0.7552811586605854
1023.6624048236745, 0.7552811586605854
1023.6624048236745, 0.7512279995600497
1026.6470447842469, 0.7492014200097818
1026.6470447842469, 0.7461615506843802
1029.6316847448195, 0.7441349711341123
1029.6316847448195, 0.7400818120335767
1029.6316847448195, 0.7370419427081749
1032.616324705392, 0.7400818120335767
1032.616324705392, 0.7360286529330411
1035.6009646659643, 0.7360286529330411
1037.0932846462504, 0.7319754938325054
1038.5856046265367, 0.7294422693946705
1041.570244587109, 0.7269090449568358
1040.824084596966, 0.724882465406568
1044.5548845476815, 0.723869175631434
1044.5548845476815, 0.7203226614184652
1046.7933645181108, 0.7218425960811662
1047.5395245082539, 0.7182960818681975
1050.5241644688263, 0.7147495676552288
1053.5088044293989, 0.7127229881049609
1055.001124409685, 0.7086698290044253
1056.4934443899713, 0.7106964085546932
1057.9857643702574, 0.7056299596790235
1059.4780843505437, 0.7025900903536217
1060.9704043308298, 0.7046166699038896
1062.462724311116, 0.7010701556909209
1063.9550442914024, 0.6975236414779522
1066.9396842519748, 0.6960037068152514
1069.9243242125472, 0.6924571926022827
1070.6704842026902, 0.688404033501747
1072.9089641731196, 0.6904306130520148
1075.147444143549, 0.6894173232768809
1075.893604133692, 0.6858708090639122
1078.8782440942643, 0.6873907437266131
1078.8782440942643, 0.6843508744012112
1081.1167240646937, 0.6873907437266131
1081.8628840548367, 0.6838442295136444
1083.355204035123, 0.6797910704131087
1086.3398439956954, 0.6782711357504079
1086.3398439956954, 0.6752312664250061
1089.573203952982, 0.6752312664250061
1092.3091239168402, 0.6732046868747382
1095.2937638774126, 0.6701648175493364
1096.786083857699, 0.6666183033363677
1099.7707238182713, 0.6661116584488008
1099.7707238182713, 0.6625651442358321
1102.7553637788437, 0.663071789123399
1102.7553637788437, 0.6600319197979974
1105.7400037394161, 0.663071789123399
1105.7400037394161, 0.6600319197979974
1108.7246436999887, 0.6590186300228634
1111.7092836605611, 0.6580053402477295
1112.4554436507042, 0.6539521811471938
1114.6939236211335, 0.6559787606974616
1117.678563581706, 0.6539521811471938
1120.6632035422783, 0.6524322464844929
1123.6478435028507, 0.6509123118217921
1126.6324834634231, 0.6509123118217921
1129.6171234239955, 0.6498990220466582
1130.3632834141386, 0.6458458629461226
1132.601763384568, 0.6488857322715242
1134.0940833648542, 0.6463525078336895
1137.0787233254266, 0.6468591527212564
1140.063363285999, 0.6458458629461226
1143.0480032465714, 0.6448325731709885
1143.7941632367147, 0.6417927038455868
1146.0326432071438, 0.6448325731709885
1149.0172831677164, 0.6438192833958547
1152.0019231282888, 0.6438192833958547
1154.9865630888612, 0.6438192833958547
1157.9712030494336, 0.6417927038455868
1161.2045630067203, 0.641454940587209
1163.9404829705784, 0.6428059936207208
1166.9251229311508, 0.6412860589580198
1169.9097628917232, 0.6412860589580198
1172.8944028522958, 0.6407794140704529
1175.8790428128682, 0.6407794140704529
1178.8636827734406, 0.6407794140704529
1181.10216274387, 0.6428059936207208
1181.848322734013, 0.639766124295319
1184.8329626945854, 0.639766124295319
1187.8176026551578, 0.640272769182886
1190.8022426157302, 0.639766124295319
1193.7868825763026, 0.639766124295319
1196.7715225368752, 0.6392594794077521
1199.7561624974476, 0.6417927038455868
