20.040655	1336.1567
20.649942	2176.1052
21.25923	3304.1497
21.868517	4753.5723
22.477806	6081.1719
23.087093	6729.77
23.696381	6888.646
24.305668	7011.1685
24.914955	7133.2031
25.524242	7273.1816
26.13353	7435.1621
26.742817	7523.4688
27.352106	7693.8779
27.961393	7736.0913
28.570681	7796.4419
29.179968	7852.001
29.789255	7855.168
30.398542	7922.0088
31.00783	8116.7432
31.617117	8124.9546
32.226406	8327.9268
32.835693	8370.3008
33.444981	8364.8223
34.054268	8417.0732
34.663555	8549.1289
35.272842	8643.5928
35.88213	8755.8125
36.491417	8906.8818
37.100704	8999.0098
37.709991	9100.8203
38.319279	8898.208
38.928566	8979.3408
39.537857	8966.1406
40.147144	8960.7705
40.756432	9053.4697
41.365719	9162.9092
41.975006	9205.8574
42.584293	9240.2939
43.193581	9311.5068
43.802868	9302.2861
44.412155	9428.6582
45.021442	9273.2686
45.63073	9354.3564
46.240017	9386.1016
46.849304	9332.0166
47.458591	9451.3193
48.067879	9559.4463
48.677166	9595.2314
49.286457	9608.5967
49.895744	9442.6963
50.505032	9548.4258
51.114319	9573.3242
51.723606	9598.8701
52.332893	9484.1797
52.942181	9443.3174
53.551468	9405.3125
54.160755	9404.6279
54.770042	9482.6289
55.37933	9571.9658
55.988617	9580.2588
56.597904	9546.1592
57.207191	9513.6348
57.816479	9420.7949
58.425766	9482.2627
59.035057	9626.6436
59.644344	9851.7041
60.253632	9900.7363
60.862919	9730.3203
61.472206	9497.3047
62.081493	9381.6719
62.690781	9417.8193
63.300068	9262.6455
63.909355	9467.0264
64.518646	9404.2773
65.12793	9438.8438
65.737221	9465.5947
66.346504	9393.873
66.955795	9364.5146
67.565079	9392.4111
68.17437	9345.6826
68.783653	9240.6543
69.392944	9291.041
70.002228	9362.2314
70.611519	9372.1875
71.220802	9268.8887
71.830093	9318.5371
72.439377	9245.7275
73.048668	9135.7139
73.657959	9094.0146
74.267242	9190.1016
74.876534	9332.1406
75.485817	9298.8525
76.095108	9216.5381
76.704391	8980.3711
77.313683	9083.0283
77.922966	9025.1348
78.532257	8995.0762
79.141541	9058.9883
79.750832	9078.3955
80.360115	8962.2168
80.969406	8859.2451
81.57869	8879.1689
82.187981	8865.6123
82.797272	8975.1777
83.406555	9119.5811
84.015846	9019.2588
84.62513	8878.5547
85.234421	8835.3398
85.843704	8831.3447
86.452995	8754.5381
87.062279	8631.2969
87.67157	8604.9141
88.280853	8685.5098
88.890144	8683.0684
89.499428	8689.4893
90.108719	8590.5771
90.718002	8524.2832
91.327293	8727.7334
91.936577	8732.3887
92.545868	8602.6152
93.155159	8588.0303
93.764442	8638.3809
94.373734	8612.1738
94.983017	8509.2803
95.592308	8369.5898
96.201591	8377.6885
96.810883	8433.2969
97.420166	8365.7041
98.029457	8431.1924
98.638741	8443.457
99.248032	8393.3691
99.857315	8264.0869
100.46661	8198.7402
101.07589	8204.2617
101.68518	8162.0811
102.29447	8164.2896
102.90376	8171.8232
103.51305	8100.4321
104.12233	8078.5693
104.73162	8056.7705
105.3409	8059.6328
105.9502	8165.1509
106.55948	8147.3608
107.16877	8123.2632
107.77805	8104.0884
108.38734	7999.3667
108.99663	7976.2788
109.60592	7866.3203
110.2152	7949.2974
110.82449	8001.9204
111.43378	7902.8223
112.04307	7829.2227
112.65236	7901.9165
113.26164	7840.7769
113.87093	7782.9482
114.48022	7806.4409
115.08951	7826.3848
115.69879	7843.7329
116.30808	7785.7383
116.91737	7818.54
117.52666	7785.5601
118.13594	7705.8145
118.74523	7657.8174
119.35452	7659.9551
119.96381	7668.915
120.57309	7663.9463
121.18238	7642.9346
121.79167	7605.2568
122.40096	7584.9644
123.01025	7610.2847
123.61953	7518.5767
124.22882	7410.1211
124.8381	7520.627
125.4474	7433.7886
126.05668	7438.2461
126.66597	7418.5645
127.27525	7433.5957
127.88454	7443.146
128.49384	7459.8491
129.10312	7483.9121
129.7124	7417.5015
130.32169	7341.6895
130.93098	7345.6348
131.54027	7370.7676
132.14955	7290.5737
132.75885	7233.8174
133.36813	7194.1821
133.97742	7224.8809
134.5867	7274.0303
135.196	7244.3701
135.80528	7193.188
136.41457	7189.0576
137.02385	7157.9165
137.63315	7194.7607
138.24243	7225.0742
138.85172	7219.5859
139.461	7168.0117
140.0703	7186.2314
140.67958	7071.6597
141.28886	7085.0342
141.89816	7094.4844
142.50745	7027.3833
143.11673	7015.1597
143.72601	7064.3823
144.33531	7027.3164
144.9446	7022.0742
145.55388	7014.3267
146.16316	7085.0459
146.77246	6941.3188
147.38174	6914.1821
147.99103	6922.3262
148.60031	6941.5898
149.20961	6949.7788
149.81889	6965.9927
150.42818	6952.499
151.03748	6888.7422
151.64676	6882.3691
152.25604	6866.0288
152.86533	6854.2241
153.47462	6969.4502
154.08391	7025.7993
154.69319	6965.8335
155.30247	6888.7344
155.91177	6851.7686
156.52106	6824.5669
157.13034	6781.5239
157.73962	6784.7075
158.34892	6849.1035
158.95821	6878.8491
159.56749	6915.8911
160.17679	6789.2998
160.78607	6771.2183
161.39536	6741.27
162.00464	6726.7866
162.61394	6778.1445
163.22322	6827.1162
163.8325	6817.1182
164.44179	6791.3486
165.05109	6745.5933
165.66037	6695.9443
166.26965	6743.1191
166.87894	6806.4575
167.48824	6772.9077
168.09752	6690.8555
168.7068	6802.228
169.31609	6785.1416
169.92538	6711.7515
170.53467	6717.1084
171.14395	6768.5449
171.75325	6756.1245
172.36253	6747.6738
172.97182	6782.644
173.5811	6774.4214
174.1904	6750.2207
174.79968	6667.624
175.40897	6653.4668
176.01825	6719.7397
176.62755	6791.3042
177.23683	6736.4082
177.84612	6744.542
178.4554	6755.6938
179.0647	6703.6631
179.67398	6661.3301
180.28326	6673.3081
180.89256	6660.1265
181.50185	6638.3945
182.11113	6776.2295
182.72041	6752.4678
183.32971	6759.4233
183.939	6792.0264
184.54828	6710.7305
185.15756	6736.2334
185.76686	6760.8188
186.37614	6799.9292
186.98543	6783.292
187.59471	6786.7969
188.20401	6817
188.81329	6793.0449
189.42258	6776.1943
190.03188	6745.1895
190.64116	6795.3491
191.25044	6769.1113
191.85973	6725.3862
192.46902	6728.8276
193.07831	6841.2729
193.68759	6794.772
194.29688	6798.4404
194.90617	6749.7656
195.51546	6765.7202
196.12474	6873.4028
196.73402	6872.9536
197.34332	6840.0859
197.95261	6816.1479
198.56189	6800.584
199.17119	6761.3359
199.78047	6843.4102
200.38976	6835.248
200.99904	6911.2827
201.60834	6916.6831
202.21762	6858.3027
202.8269	6782.4614
203.43619	6801.2456
204.04549	6824.3281
204.65477	6787.0552
205.26405	6872.9727
205.87334	6920.4517
206.48264	6907.1426
207.09192	6867.8262
207.7012	6912.0044
208.3105	6959.1118
208.91978	6922.0864
209.52907	6959.1553
210.13835	6974.1626
210.74765	6954.3315
211.35693	6926.0688
211.96622	6905.1631
212.5755	6921.6357
213.1848	6966.1602
213.79408	6962.814
214.40337	6984.938
215.01265	7068.1626
215.62195	7110.5869
216.23123	7044.1836
216.84052	6994.4521
217.4498	7033.707
218.0591	7133.0977
218.66838	7178.9009
219.27766	7220.499
219.88696	7237.6162
220.49625	7197.8721
221.10553	7150.1538
221.71481	7098.2319
222.32411	7069.543
222.9334	7130.1982
223.54268	7154.3066
224.15196	7064.125
224.76126	7207.7559
225.37054	7203.438
225.97983	7026.7319
226.58911	7098.4868
227.19841	7233.644
227.80769	7229.9146
228.41698	7212.2637
229.02628	7246.6675
229.63556	7218.0703
230.24484	7182.5415
230.85413	7238.5063
231.46342	7266.3184
232.07271	7285.0308
232.68199	7342.7617
233.29128	7379.5513
233.90057	7371.3296
234.50986	7378.2827
235.11914	7390.9702
235.72842	7367.3848
236.33772	7322.1504
236.94701	7376.4907
237.55629	7447.6313
238.16559	7423.6196
238.77487	7488.4863
239.38416	7435.1021
239.99344	7418.7588
240.60274	7346.4619
241.21202	7467.6484
241.8213	7514.1606
242.43059	7560.5874
243.03989	7508.7759
243.64917	7467.3618
244.25845	7549.2197
244.86774	7559.252
245.47704	7519.9282
246.08632	7540.7163
246.6956	7567.4116
247.3049	7616.209
247.91418	7632.2798
248.52347	7533.9971
249.13275	7587.2627
249.74205	7645.7622
250.35133	7506.5879
250.96062	7572.9917
251.5699	7662.1631
252.1792	7633.7842
252.78848	7667.9814
253.39777	7716.6348
254.00705	7678.9824
254.61635	7652.0991
255.22563	7698.3638
255.83492	7727.1694
256.44421	7745.4595
257.0535	7730.3608
257.66278	7801.3594
258.27206	7742.7896
258.88135	7662.0723
259.49063	7693.2681
260.09995	7635.3691
260.70923	7727.48
261.31851	7718.8491
261.9278	7774.6348
262.53708	7783.9429
263.14636	7712.1797
263.75565	7665.4473
264.36493	7706.54
264.97424	7810.0771
265.58353	7777.1016
266.19281	7770.0679
266.80209	7736.2104
267.41138	7872.7417
268.02066	7803.1968
268.62994	7762.6719
269.23926	7744.5313
269.84854	7758.7554
270.45782	7801.3652
271.06711	7840.8501
271.67639	7861.042
272.28568	7898.7397
272.89496	7887.8613
273.50424	7827.3433
274.11356	7814.5781
274.72284	7743.6479
275.33212	7907.936
275.94141	7860.5869
276.55069	7891.3867
277.15997	7898.3936
277.76926	7917.6089
278.37857	7890.9287
278.98785	7897.2974
279.59714	7931.4722
280.20642	7938.6699
280.8157	7952.4375
281.42499	7953.0308
282.03427	7945.8755
282.64355	7964.3999
283.25287	7953.1753
283.86215	7922.7798
284.47144	8005.3555
285.08072	7937.4766
285.69	8089.4072
286.29929	8040.5054
286.90857	7931.709
287.51788	7864.7856
288.12717	7893.1953
288.73645	7889.3213
289.34573	7949.3887
289.95502	7998.3711
290.5643	7961.5469
291.17358	7934.1855
291.78287	7951.1157
292.39218	7937.9624
293.00146	7934.3594
293.61075	7984.8359
294.22003	7967.8525
294.82932	8013.8687
295.4386	8028.0229
296.04788	7988.1802
296.6572	7866.877
297.26648	8025.8154
297.87576	8031.3081
298.48505	7983.4897
299.09433	8018.9155
299.70361	8043.7734
300.3129	8031.4429
300.92218	8040.3086
301.53149	7977.7188
302.14078	7891.6772
302.75006	7993.3164
303.35934	8052.8857
303.96863	8044.2861
304.57791	7971.4404
305.18719	7940.1392
305.79651	8035.2964
306.40579	7980.3584
307.01508	7992.9546
307.62436	7997.8818
308.23364	8003.874
308.84293	8062.6069
309.45221	8084.4097
310.06149	8043.8521
310.67081	7967.6919
311.28009	7899.9824
311.88937	7914.3467
312.49866	8008.1094
313.10794	8081.9761
313.71722	8139.3037
314.32651	8101.6709
314.93582	8110.833
315.5451	8098.3623
316.15439	8083.5806
316.76367	8064.4268
317.37296	8018.0483
317.98224	8078.4487
318.59152	8108.1362
319.20081	8069.4414
319.81012	7978.8291
320.4194	7941.8271
321.02869	7969.5913
321.63797	8021.4868
322.24725	8074.396
322.85654	8117.2788
323.46582	8132.9487
324.07513	7965.1016
324.68442	8010.5591
325.2937	8106.5601
325.90298	8052.1914
326.51227	8106.4971
327.12155	8172.6284
327.73083	8110.3872
328.34012	8138.2148
328.94943	8055.7295
329.55872	8087.6753
330.168	8117.6938
330.77728	8073.0645
331.38657	8027.293
331.99585	8067.0713
332.60513	8145.7456
333.21442	8141.7979
333.82373	8138.9365
334.43301	8185.8467
335.0423	8003.665
335.65158	7996.8701
336.26086	8241.8154
336.87015	8097.4253
337.47943	8339.3799
338.08875	8140.2969
338.69803	8248.0205
339.30731	8234.6299
339.9166	8138.5005
340.52588	8224.1006
341.13516	8276.5313
341.74445	8315.082
342.35373	8315.7568
342.96304	8256.5166
343.57233	8260.2666
344.18161	8282.7852
344.79089	8306.4619
345.40018	8289.0195
346.00946	8336.5381
346.61874	8323.5361
347.22806	8198.252
347.83734	8373.8457
348.44662	8355.1279
349.05591	8351.084
349.66519	8244.416
350.27448	8323.7646
350.88376	8393.8984
351.49304	8427.5293
352.10236	8347.5957
352.71164	8316.9424
353.32092	8361.4932
353.93021	8373.6406
354.53949	8390.8906
355.14877	8436.6455
355.75806	8462.8623
356.36737	8471.9668
356.97665	8473.4756
357.58594	8372.1602
358.19522	8395.3271
358.8045	8482.1172
359.41379	8590.2256
360.02307	8448.3281
360.63235	8437.2139
361.24167	8519.0811
361.85095	8556.4551
362.46024	8572.3906
363.06952	8529.2988
363.6788	8575.9805
364.28809	8619.7617
364.89737	8569.6445
365.50668	8520.4346
366.11597	8536.0332
366.72525	8596.292
367.33453	8605.627
367.94382	8589.2295
368.5531	8621.1611
369.16238	8640.6533
369.77167	8635.5273
370.38098	8688.1133
370.99026	8627.6709
371.59955	8641.0146
372.20883	8556.126
372.81812	8641.7852
373.4274	8713.0967
374.03668	8700.0498
374.646	8743.7266
375.25528	8748.6748
375.86456	8748.7383
376.47385	8763.1182
377.08313	8753.1113
377.69241	8717.2734
378.3017	8685.3213
378.91098	8771.7676
379.52029	8888.752
380.12958	8848.8496
380.73886	8791.2188
381.34814	8780.6631
381.95743	8844.0928
382.56671	8957.7559
383.17599	8978.8604
383.78531	8931.5068
384.39459	8873.8896
385.00388	8950.1406
385.61316	8942.7627
386.22244	8926.0342
386.83173	8929.8457
387.44101	8906.8877
388.05029	8959.1113
388.65961	9037.0625
389.26889	9030.166
389.87817	9008.3926
390.48746	9015.9277
391.09674	9017.3975
391.70602	9030.0273
392.31531	9006.667
392.92462	9032.7695
393.53391	9102.4111
394.14319	9072.2344
394.75247	9095.2051
395.36176	9058.6406
395.97104	9109.1445
396.58032	9180.8828
397.18961	9065.7314
397.79892	9148.1602
398.4082	9221.4531
399.01749	9252.8271
399.62677	9214.9316
400.23605	9189.0977
400.84534	9220.79
401.45462	9286.3838
402.06393	9309.3486
402.67322	9278.3184
403.2825	9251.6963
403.89178	9201.1045
404.50107	9188.9736
405.11035	9151.0459
405.71964	9210.9199
406.32892	9140.3574
406.93823	9339.7969
407.54752	9288.6299
408.1568	9368.2744
408.76608	9350.5654
409.37537	9342.2686
409.98465	9357.5059
410.59393	9457.417
411.20325	9415.9219
411.81253	9412.9863
412.42181	9446.4248
413.0311	9457.2822
413.64038	9470.8887
414.24966	9407.75
414.85895	9423.2676
415.46823	9531.2061
416.07755	9516.1924
416.68683	9544.4033
417.29611	9606.7578
417.9054	9555.333
418.51468	9616.2275
419.12396	9587.1416
419.73325	9621.8389
420.34256	9666.7402
420.95184	9681.6953
421.56113	9783.5635
422.17041	9704.4209
422.77969	9720.6592
423.38898	9726.2236
423.99826	9716.0576
424.60754	9766.3018
425.21686	9835.5684
425.82614	9892.1396
426.43542	9903.6006
427.04471	9892.5342
427.65399	9860.0771
428.26328	9857.7109
428.87256	9896.5059
429.48184	9939.3896
430.09116	9954.123
430.70044	9926.0244
431.30972	9935.5537
431.91901	9898.252
432.52829	9950.4482
433.13757	9974.5234
433.74686	10013.076
434.35617	9986.6699
434.96545	10142.773
435.57474	10175.574
436.18402	10079.522
436.7933	10074.031
437.40259	10159.223
438.01187	10038.113
438.62115	10044.147
439.23047	10134.019
439.83975	10214.462
440.44904	10235.476
441.05832	10240.407
441.6676	10218.479
442.27689	10194.172
442.88617	10161.905
443.49548	10207.071
444.10477	10362.676
444.71405	10431.438
445.32333	10367.48
445.93262	10291.753
446.5419	10324.932
447.15118	10354.49
447.76047	10299.464
448.36978	10308.724
448.97906	10397.151
449.58835	10451.981
450.19763	10434.482
450.80692	10340.469
451.4162	10359.256
452.02548	10423.195
452.6348	10444.211
453.24408	10555.433
453.85336	10550.494
454.46265	10540.723
455.07193	10634.021
455.68121	10559.79
456.2905	10616.009
456.89978	10594.348
457.50909	10540.772
458.11838	10598.876
458.72766	10652.217
459.33694	10669.363
459.94623	10667.857
460.55551	10740.565
461.16479	10861.229
461.77411	10876.247
462.38339	10779.884
462.99268	10909.591
463.60196	10963.847
464.21124	10984.092
464.82053	11064.12
465.42981	11097.103
466.03909	11012.508
466.64841	11126.006
467.25769	11277.898
467.86697	11245.253
468.47626	11266.978
469.08554	11384.358
469.69482	11203.085
470.30411	11263.384
470.91342	11403.47
471.52271	11339.727
472.13199	11463.31
472.74127	11639.346
473.35056	11680.02
473.95984	11649.048
474.56912	11602.752
475.17841	11596.38
475.78772	11652.948
476.397	11720.336
477.00629	11791.646
477.61557	11878.961
478.22485	11885.771
478.83414	11924.65
479.44342	11859.271
480.05273	11833.028
480.66202	11769.946
481.2713	11783.148
481.88058	11810.863
482.48987	11930.119
483.09915	11828.206
483.70844	11739.577
484.31772	11749.957
484.92703	11767.644
485.53632	11764.444
486.1456	11764.163
486.75488	11808.009
487.36417	11755.448
487.97345	11725.846
488.58273	11729.729
489.19205	11554.074
489.80133	11501.129
490.41061	11486.378
491.0199	11469.546
491.62918	11451.275
492.23846	11388.866
492.84775	11381.524
493.45703	11297.802
494.06635	11134.961
494.67563	11066.725
495.28491	11050.582
495.8942	11017.536
496.50348	10850.231
497.11276	10833.333
497.72205	10685.183
498.33136	10646.74
498.94064	10643.078
499.54993	10536.113
500.15921	10324.441
500.76849	10368.859
501.37778	10285.827
501.98706	10043.963
502.59634	10018.583
503.20566	9904.1807
503.81494	9803.1064
504.42422	9791.29
505.03351	9719.4111
505.64279	9584.4629
506.25208	9477.123
506.86136	9321.9111
507.47067	9257.2705
508.07996	9120.7158
508.68924	9000.9961
509.29852	8894.1895
509.90781	8848.1201
510.51709	8746.1748
511.12637	8606.5488
511.73566	8540.1563
512.34497	8474.9131
512.95422	8387.8135
513.56354	8268.5713
514.17279	8158.9829
514.7821	8082.0078
515.39142	8004.7847
516.00067	7878.4614
516.60999	7849.5039
517.21924	7754.1021
517.82855	7655.2505
518.43781	7518.1934
519.04712	7543.958
519.65643	7461.3296
520.26569	7412.624
520.875	7287.6455
521.48425	7200.9175
522.09357	7138.1777
522.70282	7054.1685
523.31213	7046.9966
523.92145	6983.7568
524.5307	6927.3608
525.14001	6935.6538
525.74927	6815.5498
526.35858	6754.3989
526.96783	6753.7266
527.57715	6711.7969
528.18646	6631.1191
528.79572	6627.4067
529.40503	6597.0903
530.01428	6510.603
530.6236	6443.4004
531.23285	6411.1274
531.84216	6375.4541
532.45142	6329.7422
533.06073	6308.6328
533.67004	6315.3296
534.2793	6298.623
534.88861	6237.2749
535.49786	6207.7241
536.10718	6117.7285
536.71643	6083.4512
537.32574	6116.3989
537.93506	6176.4106
538.54431	6214.2534
539.15363	6136.834
539.76288	6075.1353
540.37219	6040.6602
540.98145	6049.6938
541.59076	6048.9604
542.20007	6005.7173
542.80933	6060.4146
543.41864	6023.1523
544.02789	6050.9702
544.63721	6058.4121
545.24646	6041.3413
545.85577	5975.6152
546.46509	6004.8149
547.07434	6126.7607
547.68365	6052.4487
548.29291	6072.3911
548.90222	6090.2959
549.51147	6082.2534
550.12079	6077.0439
550.73004	6113.9077
551.33936	6153.2847
551.94867	6233.9546
552.55792	6230.7598
553.16724	6253.9004
553.77649	6315.7202
554.3858	6369.1255
554.99506	6367.5117
555.60437	6330.917
556.21368	6383.1147
556.82294	6431.5298
557.43225	6508.3247
558.0415	6569.9526
558.65082	6626.3159
559.26007	6668.3735
559.86938	6721.2744
560.4787	6758.8115
561.08795	6813.6387
561.69727	6875.5845
562.30652	6950.3921
562.91583	6987.5889
563.52509	7031.3662
564.1344	7006.0859
564.74365	7104.209
565.35297	7136.6553
565.96228	7193.312
566.57153	7244.5957
567.18085	7325.9595
567.7901	7306.915
568.39941	7288.0132
569.00867	7359.312
569.61798	7394.02
570.22729	7426.2358
570.83655	7460.7334
571.44586	7437.3633
572.05511	7485.9941
572.66443	7478.4634
573.27368	7432.3882
573.883	7557.5928
574.49231	7465.6357
575.10156	7414.9277
575.71088	7404.9517
576.32013	7397.6582
576.92944	7401.3569
577.5387	7387.8384
578.14801	7368.1079
578.75732	7304.2974
579.36658	7297.4497
579.97589	7272.9561
580.58514	7196.5142
581.19446	7183.6089
581.80371	7158.7295
582.41302	7059.0142
583.02228	7006.9365
583.63159	6982.4438
584.24091	6937.6953
584.85016	6858.6763
585.45947	6842.3633
586.06873	6747.6245
586.67804	6784.3423
587.28729	6715.6006
587.89661	6676.542
588.50592	6599.9863
589.11517	6495.4766
589.72449	6483.1387
590.33374	6445.7778
590.94305	6393.7236
591.55231	6310.8027
592.16162	6328.6719
592.77094	6224.168
593.38019	6108.7886
593.9895	6080.1821
594.59875	6034.0132
595.20807	5983.3315
595.81732	5949.3271
596.42664	5880.748
597.03595	5852.1655
597.6452	5772.9102
598.25452	5718.1826
598.86377	5640.8271
599.47308	5600.8213
600.08234	5624.7627
600.69165	5544.1348
601.3009	5523.4023
601.91022	5479.2417
602.51953	5376.4585
603.12878	5330.8555
603.7381	5296.0474
604.34735	5265.6128
604.95667	5231.4116
605.56592	5222.0518
606.17523	5130.2002
606.78455	5059.7393
607.3938	5030.3438
608.00311	5045.4307
608.61237	5004.4434
609.22168	4921.2539
609.83093	4891.189
610.44025	4832.4043
611.04956	4814.6343
611.65881	4787.0439
612.26813	4731.8408
612.87738	4726.5562
613.48669	4663.6255
614.09595	4650.6245
614.70526	4613.2393
615.31458	4602.0415
615.92383	4557.0913
616.53314	4526.1211
617.1424	4533.8726
617.75171	4479.7168
618.36096	4449.1128
618.97028	4476.3296
619.57953	4435.1177
620.18884	4386.5464
620.79816	4381.6792
621.40741	4330.5483
622.01672	4302.5146
622.62598	4303.5767
623.23529	4280.8145
623.84454	4227.437
624.45386	4249.1738
625.06317	4196.229
625.67242	4111.7319
626.28174	4143.1138
626.89099	4131.668
627.50031	4049.813
628.10956	4157.0347
628.71887	4109.2012
629.32819	4053.6379
629.93744	3977.5688
630.54675	4084.7107
631.15601	4027.157
631.76532	4011.0081
632.37457	4038.5432
632.98389	3975.5105
633.5932	3979.4746
634.20245	3949.7532
634.81177	3876.6873
635.42102	3917.6638
636.03033	3900.5054
636.63959	3855.7256
637.2489	3894.5354
637.85815	3882.1699
638.46747	3889.6985
639.07678	3853.5645
639.68604	3846.1091
640.29535	3812.9602
640.9046	3809.9407
641.51392	3804.5388
642.12317	3771.282
642.73248	3747.2146
643.3418	3713.8252
643.95105	3708.9521
644.56036	3740.1736
645.16962	3726.4009
645.77893	3699.5891
646.38818	3706.6018
646.9975	3714.1223
647.60681	3702.1538
648.21606	3678.8611
648.82538	3638.9646
649.43463	3670.4104
650.04395	3673.1323
650.6532	3679.3728
651.26251	3654.4688
651.87183	3638.0647
652.48108	3667.7483
653.09039	3585.8049
653.69965	3645.6545
654.30896	3586.637
654.91821	3593.4382
655.52753	3594.1438
656.13678	3616.9922
656.74609	3605.3174
657.35541	3601.842
657.96466	3606.3677
658.57397	3621.7087
659.18323	3572.7139
659.79254	3650.5959
660.40179	3572.8701
661.01111	3603.0977
661.62042	3596.3313
662.22968	3580.8584
662.83899	3554.7891
663.44824	3569.4731
664.05756	3594.5369
664.66681	3577.3567
665.27612	3552.0325
665.88544	3558.3452
666.49469	3594.0554
667.104	3585.6558
667.71326	3580.3372
668.32257	3570.156
668.93182	3545.9492
669.54114	3562.3113
670.15039	3549.2288
670.7597	3550.3535
671.36902	3585.592
671.97827	3591.6985
672.58759	3546.3328
673.19684	3567.0696
673.80615	3612.3347
674.41541	3568.1467
675.02472	3539.6382
675.63403	3584.116
676.24329	3633.5425
676.8526	3620.9226
677.46185	3567.7529
678.07117	3525.2415
678.68042	3513.0493
679.28973	3513.6743
679.89905	3533.4788
680.5083	3530.0288
681.11761	3557.0942
681.72687	3582.396
682.33618	3560.4839
682.94543	3529.7773
683.55475	3586.543
684.16406	3540.7632
684.77332	3521.0442
685.38263	3586.312
685.99188	3546.3115
686.6012	3540.1921
687.21045	3569.0229
687.81976	3468.375
688.42902	3518.114
689.03833	3568.0466
689.64764	3489.9487
690.2569	3556.2998
690.86621	3544.1023
691.47546	3497.6165
692.08478	3495.249
692.69403	3538.7061
693.30334	3457.7683
693.91266	3433.3418
694.52191	3468.9045
695.13123	3396.7759
695.74048	3497.0671
696.34979	3494.3806
696.95905	3444.5574
697.56836	3465.5969
698.17767	3533.3711
698.78693	3536.2314
699.39624	3469.5142
700.00549	3497.5654
700.61481	3506.4187
701.22406	3482.1941
701.83337	3390.0935
702.44269	3431.1653
703.05194	3501.5984
703.66125	3512.0264
704.27051	3459.928
704.87982	3467.9468
705.48907	3467.6929
706.09839	3453.6953
706.70764	3454.9551
707.31696	3443.6797
707.92627	3496.252
708.53552	3460.8516
709.14484	3408.4434
709.75409	3475.4805
710.3634	3449.3259
710.97266	3443.0542
711.58197	3478.335
712.19128	3455.8528
712.80054	3452.5002
713.40985	3456.4595
714.0191	3446.366
714.62842	3416.9392
715.23767	3456.8313
715.84698	3467.2385
716.4563	3397.938
717.06555	3431.6877
717.67487	3490.1868
718.28412	3499.1396
718.89343	3458.0164
719.50269	3429.3154
720.112	3425.3306
720.72131	3434.4155
721.33057	3435.8958
721.93988	3457.2383
722.54913	3403.4705
723.15845	3415
723.7677	3426.8511
724.37701	3376.448
724.98627	3357.5559
725.59558	3407.8667
726.2049	3435.6042
726.81415	3402.74
727.42346	3398.4634
728.03271	3389.3838
728.64203	3386.4634
729.25128	3402.8662
729.8606	3379.9436
730.46991	3431.7935
731.07916	3393.8894
731.68848	3407.54
732.29773	3354.3687
732.90704	3350.0393
733.5163	3380.4639
734.12561	3329.6938
734.73492	3406.0044
735.34418	3371.9038
735.95349	3420.4385
736.56274	3403.427
737.17206	3377.8809
737.78131	3356.3242
738.39063	3407.5364
738.99994	3356.345
739.60919	3313.7734
740.21851	3363.3757
740.82776	3356.5852
741.43707	3379.584
742.04633	3307.7546
742.65564	3321.2551
743.26489	3337.2732
743.87421	3298.8679
744.48352	3314.1104
745.09277	3318.6238
745.70209	3381.7083
746.31134	3369.5981
746.92065	3322.9136
747.52991	3318.1475
748.13922	3321.9377
748.74854	3338.5046
749.35779	3283.0659
749.9671	3273.9011
750.57635	3292.3481
751.18567	3339.481
751.79492	3270.8098
752.40424	3317.2468
753.01355	3298.8455
753.6228	3286.8179
754.23212	3291.5735
754.84137	3353.1416
755.45068	3310.4292
756.05994	3248.042
756.66925	3320.1643
757.2785	3277.8459
757.88782	3252.2893
758.49713	3249.9727
759.10638	3250.626
759.7157	3293.5103
760.32495	3252.8145
760.93427	3299.7229
761.54352	3224.1851
762.15283	3230.6563
762.76215	3195.5381
763.3714	3243.9941
763.98071	3248.2739
764.58997	3268.2671
765.19928	3243.6897
765.80853	3217.4231
766.41785	3244.4878
767.02716	3209.9568
767.63641	3246.761
768.24573	3219.5405
768.85498	3260.7375
769.46429	3270.5728
770.07355	3216.6709
770.68286	3243.2227
771.29218	3247.8625
771.90143	3232
772.51074	3192.2153
773.12	3218.5684
773.72931	3241.2625
774.33856	3174.2422
774.94788	3177.8425
775.55713	3226.7214
776.16644	3238.011
776.77576	3157.4431
777.38501	3187.8162
777.99432	3207.9841
778.60358	3227.5952
779.21289	3123.054
779.82214	3133.5371
780.43146	3201.0596
781.04077	3122.4224
781.65002	3193.2185
782.25934	3196.2009
782.86859	3133.8379
783.47791	3157.729
784.08716	3151.9412
784.69647	3165.833
785.30579	3114.6152
785.91504	3160.4861
786.52435	3109.04
787.13361	3104.3635
787.74292	3157.6108
788.35217	3135.8567
788.96149	3130.6179
789.5708	3091.6526
790.18005	3083.3696
790.78937	3074.2502
791.39862	3079.2312
792.00793	3083.1396
792.61719	3074.177
793.2265	3077.4553
793.83575	3042.5098
794.44507	3073.8892
795.05438	3028.9175
795.66364	3001.9702
796.27295	2977.5112
796.8822	3009.6296
797.49152	2948.2271
798.10077	2971.052
798.71008	2952.0632
799.3194	2894.9163
799.92865	2934.0974
800.53796	2915.0828
801.14722	2927.2703
801.75653	2929.4482
802.36578	2896.9573
802.9751	2935.8069
803.58441	2853.6199
804.19366	2826.7048
804.80298	2813.3657
805.41223	2845.2412
806.02155	2818.5034
806.6308	2834.7805
807.24011	2699.3135
807.84943	2744.0439
808.45868	2722.7893
809.06799	2754.9473
809.67725	2729.4268
810.28656	2780.6458
810.89581	2738.105
811.50513	2707.6296
812.11438	2688.0144
812.72369	2634.0503
813.33301	2656.1143
813.94226	2634.5801
814.55157	2619.6252
815.16083	2618.6443
815.77014	2627.6616
816.37939	2619.9111
816.98871	2593.8379
817.59802	2547.2354
818.20728	2596.635
818.81659	2560.4834
819.42584	2505.4155
820.03516	2512.8413
820.64441	2507.896
821.25372	2519.2253
821.86304	2574.6619
822.47229	2533.3777
823.0816	2502.7275
823.69086	2435.5151
824.30017	2427.3843
824.90942	2419.1418
825.51874	2460.3491
826.12805	2419.1897
826.7373	2423.9326
827.34662	2438.7009
827.95587	2382.0339
828.56519	2423.9758
829.17444	2412.2859
829.78375	2375.1252
830.39301	2344.4294
831.00232	2304.1963
831.61163	2332.1768
832.22089	2344.1624
832.8302	2368.4756
833.43945	2364.3896
834.04877	2358.2019
834.65802	2394.3325
835.26733	2354.9932
835.87665	2365.8247
836.4859	2348.9216
837.09521	2363.9065
837.70447	2371.4302
838.31378	2357.7998
838.92303	2348.6345
839.53235	2335.135
840.14166	2304.114
840.75092	2305.4102
841.36023	2299.4856
841.96948	2273.9756
842.5788	2308.9353
843.18805	2248.3079
843.79736	2285.4761
844.40668	2266.1921
845.01593	2297.0955
845.62524	2304.5537
846.2345	2317.9407
846.84381	2315.4873
847.45306	2300.7178
848.06238	2302.6133
848.67163	2304.7017
849.28094	2332.762
849.89026	2310.5479
850.49951	2331.6062
851.10883	2336.1653
851.71808	2321.9731
852.32739	2319.4019
852.93665	2295.8147
853.54596	2276.0249
854.15527	2294.0154
854.76453	2315.0942
855.37384	2296.1492
855.98309	2277.415
856.59241	2311.9902
857.20166	2288.8826
857.81097	2298.592
858.42029	2311.3472
859.02954	2304.626
859.63885	2283.937
860.24811	2290.05
860.85742	2287.3459
861.46667	2268.5815
862.07599	2286.3643
862.68524	2287.8926
863.29456	2309.8582
863.90387	2300.45
864.51312	2295.4243
865.12244	2292.9663
865.73169	2289.6321
866.341	2323.3022
866.95026	2327.4431
867.55957	2305.4167
868.16888	2293.0796
868.77814	2282.9546
869.38745	2301.158
869.9967	2286.6392
870.60602	2287.9688
871.21527	2316.9404
871.82458	2328.9226
872.4339	2323.7275
873.04315	2300.3374
873.65247	2306.5325
874.26172	2324.3442
874.87103	2339.1226
875.48029	2301.4807
876.0896	2325.9597
876.69891	2341.5532
877.30817	2297.3311
877.91748	2344.606
878.52673	2303.0381
879.13605	2368.5217
879.7453	2255.1833
880.35461	2317.4749
880.96387	2244.3638
881.57318	2292.3005
882.1825	2317.4949
882.79175	2323.188
883.40106	2319.4209
884.01031	2297.751
884.61963	2340.061
885.22888	2311.6497
885.8382	2307.5193
886.44751	2309.5281
887.05676	2339.5627
887.66608	2338.1133
888.27533	2310.991
888.88464	2306.79
889.4939	2317.8228
890.10321	2353.6548
890.71252	2291.3418
891.32178	2320.0869
891.93109	2320.333
892.54034	2300.5115
893.14966	2257.6099
893.75891	2328.2671
894.36823	2321.2847
894.97754	2292.8142
895.58679	2343.9363
896.19611	2306.6628
896.80536	2332.1377
897.41467	2327.7961
898.02393	2325.7415
898.63324	2343.2896
899.24249	2342.4268
899.85181	2314.7068
900.46112	2310.8081
901.07037	2337.8123
901.67969	2339.427
902.28894	2351.1179
902.89825	2372.3733
903.50751	2362.958
904.11682	2361.6685
904.72614	2356.1746
905.33539	2363.9805
905.9447	2326.1545
906.55396	2325.7991
907.16327	2354.9651
907.77252	2368.1377
908.38184	2367.7039
908.99115	2401.23
909.6004	2385.3748
910.20972	2378.7039
910.81897	2362.21
911.42828	2401.7234
912.03754	2386.1833
912.64685	2373.0945
913.25616	2391.717
913.86542	2392.9883
914.47473	2351.7607
915.08398	2443.1731
915.6933	2363.9951
916.30255	2455.196
916.91187	2419.9373
917.52112	2447.7046
918.13043	2417.2673
918.73975	2448.3496
919.349	2414.3406
919.95831	2409.7029
920.56757	2480.0718
921.17688	2467.1917
921.78613	2486.0232
922.39545	2510.8213
923.00476	2483.749
923.61401	2485.5112
924.22333	2488.2024
924.83258	2537.9866
925.44189	2548.2747
926.05115	2522.6045
926.66046	2529.594
927.26978	2522.2739
927.87903	2525.8628
928.48834	2547.1477
929.0976	2544.4614
929.70691	2543.7588
930.31616	2544.4702
930.92548	2566.0662
931.53479	2571.4224
932.14404	2596.0007
932.75336	2617.4954
933.36261	2635.8699
933.97192	2632.832
934.58118	2660.0664
935.19049	2657.27
935.79974	2647.3105
936.40906	2594.7634
937.01837	2676.897
937.62762	2706.1462
938.23694	2711.3743
938.84619	2747.3218
939.45551	2642.6309
940.06476	2756.1895
940.67407	2790.8335
941.28339	2712.9189
941.89264	2827.9048
942.50195	2783.4194
943.11121	2831.9702
943.72052	2789.5901
944.32977	2826.4604
944.93909	2817.4006
945.5484	2841.7476
946.15765	2886.1467
946.76697	2875.2192
947.37622	2881.7979
947.98553	2953.0693
948.59479	2954.8083
949.2041	2918.2393
949.81335	2950.5278
950.42267	2946.8059
951.03198	2949.6118
951.64124	2970.3689
952.25055	3017.0732
952.8598	3035.7964
953.46912	3003.01
954.07837	3010.397
954.68768	3063.0383
955.297	3117.0991
955.90625	3099.0391
956.51556	3109.4329
957.12482	3127.0708
957.73413	3139.5923
958.34338	3168.1135
958.9527	3137.3933
959.56201	3185.7339
960.17126	3120.2754
960.78058	3175.6614
961.38983	3261.4092
961.99915	3200.2676
962.6084	3229.791
963.21771	3232.4368
963.82703	3259.0088
964.43628	3285.4917
965.04559	3284.5957
965.65485	3324.0818
966.26416	3319.2314
966.87341	3346.584
967.48273	3334.6299
968.09198	3330.1345
968.70129	3346.5928
969.31061	3351.8704
969.91986	3367.6997
970.52917	3389.5522
971.13843	3430.2903
971.74774	3423.7107
972.35699	3450.1523
972.96631	3468.5298
973.57562	3471.4172
974.18488	3478.1409
974.79419	3528.2954
975.40344	3521.0823
976.01276	3529.5315
976.62201	3539.4507
977.23132	3515.7058
977.84064	3478.9651
978.44989	3531.5525
979.0592	3561.9016
979.66846	3549.0964
980.27777	3577.1226
980.88702	3591.8699
981.49634	3562.7964
982.10565	3624.5552
982.7149	3597.9478
983.32422	3605.0386
983.93347	3587.5649
984.54279	3614.4211
985.15204	3624.4678
985.76135	3636.6685
986.37061	3618.759
986.97992	3679.635
987.58923	3680.2083
988.19849	3668.8198
988.8078	3664.6599
989.41705	3703.176
990.02637	3707.0557
990.63562	3694.4385
991.24493	3718.3467
991.85425	3738.4612
992.4635	3736.1843
993.07281	3706.4189
993.68207	3738.9236
994.29138	3729.7542
994.90063	3744.0322
995.50995	3776.6462
996.11926	3750.5771
996.72852	3728.8005
997.33783	3742.9102
997.94708	3779.2351
998.5564	3778.4268
999.16565	3800.5696
999.77496	3816.4395
1000.3843	3811.1157
1000.9935	3769.759
1001.6028	3803.7656
1002.2121	3818.6121
1002.8214	3806.3579
1003.4307	3861.4556
1004.04	3822.8828
1004.6492	3887.2283
1005.2585	3906.3877
1005.8679	3849.1245
1006.4771	3834.064
1007.0864	3825.655
1007.6957	3879.3596
1008.305	3899.3372
1008.9142	3914.9463
1009.5236	3902.2478
1010.1329	3897.3501
1010.7421	3914.9392
1011.3514	3891.6345
1011.9607	3880.8606
1012.57	3902.2715
1013.1793	3914.8923
1013.7886	3942.0737
1014.3979	3968.2673
1015.0071	3937.5681
1015.6165	3945.8027
1016.2257	3930.9324
1016.835	3949.8083
1017.4443	3924.5354
1018.0536	3957.3687
1018.6629	3976.4109
1019.2722	3997.9937
1019.8815	4000.9141
1020.4907	3942.4778
1021.1	3976.27
1021.7093	3994.0559
1022.3186	3957.4202
1022.9279	4037.7856
1023.5372	4026.1704
1024.1465	4059.1504
1024.7557	4044.5498
1025.365	4039.8081
1025.9744	4023.0686
1026.5836	4023.5967
1027.1929	4062.4929
1027.8022	4079.0637
1028.4115	4070.0063
1029.0208	4078.8662
1029.63	4069.969
1030.2394	4112.6636
1030.8486	4081.6084
1031.4579	4072.6902
1032.0671	4050.9063
1032.6765	4051.8738
1033.2858	4090.1436
1033.895	4098.8135
1034.5044	4094.9092
1035.1136	4099.6172
1035.7229	4095.8452
1036.3322	4117.8965
1036.9415	4160.0815
1037.5508	4149.5845
1038.16	4167.918
1038.7694	4143.187
1039.3787	4133.4966
1039.9879	4226.5762
1040.5972	4202.4507
1041.2065	4195.4424
1041.8158	4245.6914
1042.425	4209.4604
1043.0344	4260.1313
1043.6437	4218.896
1044.2529	4243.7368
1044.8622	4278.7539
1045.4716	4288.1563
1046.0808	4331.7754
1046.6901	4319.6113
1047.2994	4340.7397
1047.9087	4330.0796
1048.5179	4366.373
1049.1272	4340.9941
1049.7366	4343.8711
1050.3458	4386.9048
1050.9551	4415.6616
1051.5645	4421.4585
1052.1737	4399.3574
1052.783	4431.9326
1053.3922	4451.6753
1054.0016	4431.3706
1054.6108	4469.4458
1055.2201	4457.436
1055.8295	4469.6162
1056.4387	4508.7578
1057.048	4538.7959
1057.6572	4507.353
1058.2666	4539.1533
1058.8759	4584.4365
1059.4851	4586.0562
1060.0945	4600.5708
1060.7037	4563.4766
1061.313	4619.2114
1061.9222	4609.9297
1062.5316	4669.6919
1063.1409	4654.4634
1063.7501	4682.0566
1064.3594	4697.707
1064.9688	4680.1284
1065.578	4739.4326
1066.1873	4736.7476
1066.7966	4736.6372
1067.4059	4708.3096
1068.0151	4730.8247
1068.6244	4730.5298
1069.2338	4791.8477
1069.843	4827.7109
1070.4523	4788.1328
1071.0616	4796.7271
1071.6709	4819.4326
1072.2802	4788.4404
1072.8894	4816.2544
1073.4988	4842.6123
1074.108	4875.0977
1074.7173	4883.6162
1075.3267	4892.0596
1075.9359	4873.0933
1076.5452	4882.8574
1077.1544	4864.7139
1077.7638	4866.0796
1078.373	4900.6045
1078.9823	4902.1509
1079.5917	4947.0205
1080.2009	4881.6665
1080.8102	4858.73
1081.4194	4885.8545
1082.0288	4931.5654
1082.6381	4860.248
1083.2473	4973.5635
1083.8567	4970.2388
1084.4659	5024.6367
1085.0752	4953.1904
1085.6844	4914.2949
1086.2938	4893.8286
1086.9031	4894.645
1087.5123	4952.4204
1088.1217	4943.6069
1088.731	4945.5605
1089.3402	4966.4639
1089.9495	4971.6167
1090.5588	4934.9629
1091.1681	4938.1836
1091.7773	4954.7739
1092.3867	4935.4937
1092.996	4955.2036
1093.6052	4941.5972
1094.2145	4974.6899
1094.8239	4861.2998
1095.4331	4897.9087
1096.0424	4933.1182
1096.6517	4892.436
1097.261	4908.1113
1097.8702	4839.2822
1098.4795	4911.9565
1099.0889	4920.4766
1099.6981	4855.5854
1100.3074	4865.2222
1100.9166	4876.6538
1101.526	4813.8438
1102.1353	4913.4082
1102.7445	4879.5601
1103.3539	4881.917
1103.9631	4832.6982
1104.5724	4764.1816
1105.1816	4728.0024
1105.791	4739.5303
1106.4003	4807.3931
1107.0095	4819.4146
1107.6189	4803.9272
1108.2281	4812.4312
1108.8374	4794.3643
1109.4467	4719.6812
1110.056	4677.0137
1110.6653	4708.3125
1111.2745	4727.5737
1111.8839	4677.397
1112.4932	4625.8726
1113.1024	4715.6079
1113.7117	4652.8086
1114.321	4665.3325
1114.9303	4656.3511
1115.5396	4588.5054
1116.1489	4612.1802
1116.7582	4628.7534
1117.3674	4616.396
1117.9767	4623.1401
1118.5861	4559.8926
1119.1953	4485.7939
1119.8046	4497.6187
1120.4139	4526.9756
1121.0232	4500.2354
1121.6324	4512.8442
1122.2417	4517.9199
1122.8511	4505.54
1123.4603	4475.9019
1124.0696	4397.5747
1124.679	4377.5742
1125.2882	4423.2236
1125.8975	4300.2446
1126.5067	4367.1411
1127.1161	4329.002
1127.7253	4288.5996
1128.3346	4274.855
1128.944	4227.9492
1129.5532	4264.8169
1130.1625	4314.7368
1130.7717	4226.2153
1131.3811	4177.9609
1131.9904	4195.4766
1132.5996	4185.9722
1133.2089	4117.6504
1133.8182	4134.8213
1134.4275	4106.5693
1135.0367	4043.7625
1135.6461	4016.0154
1136.2554	4045.9666
1136.8646	4029.2012
1137.4739	3959.8152
1138.0833	3974.6086
1138.6925	3929.7336
1139.3018	3920.7471
1139.9111	3962.5247
1140.5204	3957.137
1141.1296	3867.4565
1141.7389	3873.3601
1142.3483	3853.4121
1142.9575	3785.6074
1143.5668	3804.6201
1144.1761	3718.3123
1144.7854	3798.9624
1145.3947	3801.3831
1146.0039	3710.8311
1146.6133	3692.3772
1147.2225	3690.5771
1147.8318	3655.7205
1148.4412	3652.6436
1149.0504	3633.9717
1149.6597	3585.4827
1150.2689	3553.6653
1150.8783	3573.7544
1151.4875	3552.8445
1152.0968	3533.7454
1152.7062	3464.4102
1153.3154	3525.6035
1153.9247	3415.9011
1154.5339	3440.7219
1155.1433	3388.5667
1155.7526	3405.0474
1156.3618	3306.3787
1156.9712	3320.6711
1157.5804	3313.4717
1158.1897	3322.3225
1158.799	3298.3447
1159.4083	3286.0764
1160.0176	3281.2937
1160.6268	3252.8347
1161.2362	3188.5315
1161.8455	3173.2542
1162.4547	3191.7532
1163.064	3146.6729
1163.6733	3125.0728
1164.2826	3149.498
1164.8918	3148.865
1165.5012	3119.5977
1166.1105	3073.8359
1166.7197	3054.5435
1167.329	2997.2126
1167.9384	3067.3176
1168.5476	3011.1697
1169.1569	2981.269
1169.7661	2891.8074
1170.3755	2881.7383
1170.9847	2897.1487
1171.594	2865.4556
1172.2034	2889.2524
1172.8126	2883.207
1173.4219	2833.3057
1174.0311	2817.0715
1174.6405	2823.2288
1175.2498	2782.6729
1175.859	2735.5718
1176.4684	2724.76
1177.0776	2745.2207
1177.6869	2689.4766
1178.2961	2726.2341
1178.9055	2688.6042
1179.5148	2742.8076
1180.124	2664.3645
1180.7334	2629.2131
1181.3427	2612.1667
1181.9519	2607.2742
1182.5612	2620.4487
1183.1705	2597.5076
1183.7798	2590.4087
1184.389	2534.6563
1184.9984	2502.9707
1185.6077	2506.6201
1186.2169	2520.3809
1186.8262	2483.1008
1187.4355	2472.4778
1188.0448	2437.072
1188.6541	2444.8428
1189.2634	2464.167
1189.8727	2384.595
1190.4819	2443.2244
1191.0912	2388.3425
1191.7006	2352.1042
1192.3098	2351.084
1192.9191	2369.5977
1193.5284	2324.8567
1194.1377	2334.4912
1194.7469	2316.324
1195.3562	2289.8235
1195.9656	2285.4783
1196.5748	2270.8408
1197.1841	2270.5945
1197.7935	2215.6438
1198.4027	2238.9207
1199.012	2224.8723
1199.6212	2211
1200.2306	2177.5415
1200.8398	2239.2893
1201.4491	2177.3489
1202.0585	2178.0259
1202.6677	2160.5374
1203.277	2112.9988
1203.8862	2147.7468
1204.4956	2146.2253
1205.1049	2133.8311
1205.7141	2111.5337
1206.3234	2108.1958
1206.9327	2143.5967
1207.542	2149.0554
1208.1512	2115.2053
1208.7606	2102.8628
1209.3699	2048.8132
1209.9791	2076.0674
1210.5884	2059.9399
1211.1978	2040.2803
1211.807	2036.5549
1212.4163	2119.196
1213.0256	2082.5566
1213.6349	2022.9919
1214.2441	1997.9969
1214.8534	1994.8522
1215.4628	2019.1042
1216.072	2040.3097
1216.6813	2026.2501
1217.2906	1994.0415
1217.8999	2000.1997
1218.5092	2016.4186
1219.1184	1996.6941
1219.7278	1971.9854
1220.337	2019.4399
1220.9463	1992.9435
1221.5557	1965.5763
1222.1649	1939.723
1222.7742	1993.6769
1223.3834	2012.6617
1223.9928	1974.4248
1224.6021	1965.1072
1225.2113	1950.1415
1225.8207	1945.8756
1226.4299	1929.6698
1227.0392	1954.7939
1227.6484	1950.5764
1228.2578	1950.0848
1228.8671	1951.889
1229.4763	1957.9596
1230.0857	1972.5894
1230.6949	1935.2582
1231.3042	1949.9015
1231.9135	1982.6873
1232.5228	1928.8916
1233.1321	1931.025
1233.7413	1925.8434
1234.3507	1890.2628
1234.96	1923.4313
1235.5692	1936.757
1236.1785	1925.0614
1236.7878	1895.8214
1237.3971	1925.3958
1238.0063	1914.7695
1238.6156	1905.3235
1239.225	1924.6819
1239.8342	1926.2476
1240.4435	1915.8468
1241.0529	1926.0691
1241.6621	1911.766
1242.2714	1894.8883
1242.8806	1922.1954
1243.49	1898.6052
1244.0992	1898.8373
1244.7085	1880.5294
1245.3179	1860.2892
1245.9271	1868.7568
1246.5364	1891.0657
1247.1456	1862.5454
1247.755	1887.093
1248.3643	1903.5826
1248.9735	1870.9474
1249.5829	1878.0822
1250.1921	1906.4299
1250.8014	1871.2065
1251.4106	1889.4508
1252.02	1883.8755
1252.6293	1885.524
1253.2385	1868.0773
1253.8479	1847.2059
1254.4572	1863.63
1255.0664	1900.5092
1255.6757	1903.2228
1256.285	1880.9425
1256.8943	1877.425
1257.5035	1885.259
1258.1129	1867.3531
1258.7222	1848.8828
1259.3314	1854.392
1259.9407	1831.548
1260.55	1863.1442
1261.1593	1827.2134
1261.7686	1856.5262
1262.3779	1841.5664
1262.9872	1849.4493
1263.5964	1874.7069
1264.2057	1857.9418
1264.8151	1850.9968
1265.4243	1864.6543
1266.0336	1858.2041
1266.6429	1859.3523
1267.2522	1868.9547
1267.8615	1865.1158
1268.4707	1862.7931
1269.0801	1856.9047
1269.6893	1838.1187
1270.2986	1808.5648
1270.908	1823.4673
1271.5172	1831.8319
1272.1265	1842.438
1272.7357	1831.8341
1273.3451	1820.9417
1273.9543	1830.494
1274.5636	1842.67
1275.1729	1841.9781
1275.7822	1809.0847
1276.3915	1820.7942
1277.0007	1814.1898
1277.6101	1808.6217
1278.2194	1874.9851
1278.8286	1860.4996
1279.4379	1834.771
1280.0472	1845.8654
1280.6565	1842.0846
1281.2657	1837.0151
1281.8751	1814.6475
1282.4844	1826.5703
1283.0936	1854.8395
1283.7029	1865.4669
1284.3123	1860.3567
1284.9215	1803.6301
1285.5308	1799.5682
1286.1401	1821.8412
1286.7494	1846.4535
1287.3586	1847.485
1287.9679	1843.7644
1288.5773	1804.7131
1289.1865	1817.9818
1289.7958	1815.262
1290.4052	1818.6255
1291.0144	1793.8932
1291.6237	1805.9696
1292.2329	1802.3862
1292.8423	1816.5321
1293.4515	1802.2384
1294.0608	1822.4032
1294.6702	1791.7947
1295.2794	1768.7308
1295.8887	1813.7871
1296.4979	1802.5344
1297.1073	1802.271
1297.7166	1840.4125
1298.3258	1827.2347
1298.9352	1796.7255
1299.5444	1799.3445
1300.1537	1824.416
1300.7629	1818.1826
1301.3723	1783.1954
1301.9816	1803.0818
1302.5908	1799.3125
1303.2002	1798.8005
1303.8094	1815.9659
1304.4187	1791.0555
1305.028	1816.2474
1305.6373	1807.0059
1306.2466	1819.8915
1306.8558	1818.8475
1307.4652	1816.0623
1308.0745	1807.5209
1308.6837	1798.8728
1309.293	1805.244
1309.9023	1803.1094
1310.5116	1799.8981
1311.1208	1800.793
1311.7301	1810.0065
1312.3395	1817.3654
1312.9487	1779.6763
1313.558	1785.6403
1314.1674	1802.7296
1314.7766	1810.3491
1315.3859	1825.2341
1315.9951	1813.7153
1316.6045	1792.7291
1317.2137	1806.886
1317.823	1785.8838
1318.4324	1822.6398
1319.0416	1789.8691
1319.6509	1804.5034
1320.2601	1798.9012
1320.8695	1793.5366
1321.4788	1833.3257
1322.088	1801.5248
1322.6974	1787.207
1323.3066	1787.5269
1323.9159	1772.8888
1324.5251	1780.8203
1325.1345	1763.8431
1325.7438	1791.2905
1326.353	1807.1102
1326.9624	1774.4377
1327.5717	1819.6118
1328.1809	1797.4022
1328.7902	1753.217
1329.3995	1776.1976
1330.0088	1772.8551
1330.618	1755.7617
1331.2274	1773.1851
1331.8367	1798.1276
1332.4459	1792.7362
1333.0552	1814.4353
1333.6646	1793.6893
1334.2738	1817.0537
1334.8831	1802.4098
1335.4924	1782.135
1336.1017	1775.3824
1336.7109	1784.2697
1337.3202	1782.2684
1337.9296	1787.415
1338.5388	1801.4043
1339.1481	1806.2137
1339.7574	1797.3579
1340.3667	1796.0168
1340.976	1754.9998
1341.5852	1807.6903
1342.1946	1754.5925
1342.8038	1796.9142
1343.4131	1788.1879
1344.0223	1796.8983
1344.6317	1786.5359
1345.241	1755.1827
1345.8502	1767.2681
1346.4596	1769.3107
1347.0688	1724.7452
1347.6781	1766.2637
1348.2874	1774.5602
1348.8967	1781.2385
1349.506	1783.8428
1350.1152	1759.2009
1350.7246	1714.4615
1351.3339	1762.3877
1351.9431	1796.9329
1352.5524	1786.604
1353.1617	1769.5555
1353.771	1755.6104
1354.3802	1772.874
1354.9896	1778.9777
1355.5989	1780.1467
1356.2081	1801.3899
1356.8174	1809.8113
1357.4268	1778.5714
1358.036	1784.3916
1358.6453	1768.5901
1359.2546	1767.4574
1359.8639	1769.6969
1360.4731	1780.778
1361.0824	1770.4697
1361.6918	1748.1373
1362.301	1779.6456
1362.9103	1819.7577
1363.5197	1757.6587
1364.1289	1763.3153
1364.7382	1785.9932
1365.3474	1782.8102
1365.9568	1787.6749
1366.566	1762.1415
1367.1753	1759.3635
1367.7847	1768.8467
1368.3939	1766.8014
1369.0032	1806.3876
1369.6124	1788.1064
1370.2218	1791.7336
1370.8311	1787.7847
1371.4403	1788.5366
1372.0497	1763.2675
1372.6589	1769.1835
1373.2682	1783.9731
1373.8774	1754.9384
1374.4868	1731.1409
1375.0961	1718.2347
1375.7053	1768.6985
1376.3147	1750.77
1376.924	1751.8768
1377.5332	1757.6654
1378.1425	1772.583
1378.7518	1804.8586
1379.3611	1767.1823
1379.9703	1745.5009
1380.5796	1733.5856
1381.189	1766.3992
1381.7982	1784.8369
1382.4075	1792.7622
1383.0168	1762.3441
1383.6261	1749.5465
1384.2354	1779.1881
1384.8446	1764.8558
1385.454	1765.5564
1386.0632	1744.8109
1386.6725	1767.101
1387.2819	1744.7791
1387.8911	1767.0045
1388.5004	1770.1127
1389.1096	1763.1543
1389.719	1793.0614
1390.3282	1757.865
1390.9375	1758.4393
1391.5469	1749.9486
1392.1561	1752.0719
1392.7654	1755.4752
1393.3746	1737.6598
1393.984	1709.535
1394.5933	1741.411
1395.2025	1748.9369
1395.8119	1747.5702
1396.4211	1737.2297
1397.0304	1753.3198
1397.6396	1760.7717
1398.249	1742.7305
1398.8583	1758.0338
1399.4675	1777.0228
1400.0769	1773.9568
1400.6862	1767.1154
1401.2954	1754.1368
1401.9047	1741.312
1402.514	1728.839
1403.1233	1741.7958
1403.7325	1742.942
1404.3419	1768.6543
1404.9512	1766.9843
1405.5604	1760.4301
1406.1697	1750.5582
1406.7791	1743.7509
1407.3883	1747.829
1407.9976	1748.5107
1408.6069	1767.0447
1409.2162	1725.4441
1409.8254	1720.9167
1410.4347	1772.6906
1411.0441	1746.6125
1411.6533	1739.517
1412.2626	1769.7651
1412.8718	1769.7891
1413.4812	1738.749
1414.0905	1735.9088
1414.6997	1717.2212
1415.3091	1677.2618
1415.9183	1729.1283
1416.5276	1721.5559
1417.1368	1723.1558
1417.7462	1745.4333
1418.3555	1761.6198
1418.9647	1749.7649
1419.5741	1747.1241
1420.1833	1699.5243
1420.7926	1720.3923
1421.4019	1727.0483
1422.0112	1734.2653
1422.6205	1741.3705
1423.2297	1760.3264
1423.8391	1750.2162
1424.4484	1702.667
1425.0576	1763.6216
1425.6669	1737.9331
1426.2762	1723.4901
1426.8855	1734.9785
1427.4948	1703.6034
1428.1041	1741.4176
1428.7134	1734.9189
1429.3226	1746.295
1429.9319	1755.1411
1430.5413	1731.7257
1431.1505	1722.2167
1431.7598	1729.2512
1432.3691	1745.1266
1432.9784	1697.2006
1433.5876	1721.7627
1434.1969	1713.6997
1434.8063	1723.1277
1435.4155	1716.1066
1436.0248	1719.6687
1436.6342	1734.0956
1437.2434	1731.0918
1437.8527	1692.7163
1438.4619	1720.2988
1439.0713	1726.1013
1439.6805	1718.2281
1440.2898	1686.9238
1440.8992	1729.4135
1441.5084	1730.4607
1442.1177	1707.8312
1442.7269	1706.6506
1443.3363	1677.6895
1443.9456	1718.8641
1444.5548	1702.8013
1445.1642	1717.4893
1445.7734	1717.8719
1446.3827	1734.8179
1446.9919	1722.9452
1447.6013	1722.4294
1448.2106	1697.8195
1448.8198	1732.6722
1449.4291	1744.2037
1450.0385	1702.3866
1450.6477	1686.0077
1451.257	1749.6111
1451.8663	1758.9753
1452.4756	1743.2913
1453.0848	1729.7274
1453.6941	1697.3038
1454.3035	1728.4843
1454.9127	1704.979
1455.522	1703.6805
1456.1313	1707.047
1456.7406	1729.8383
1457.3499	1700.3239
1457.9591	1698.7346
1458.5685	1712.1295
1459.1777	1673.2994
1459.787	1707.7272
1460.3964	1694.7632
1461.0056	1705.1699
1461.6149	1716.015
1462.2241	1708.7185
1462.8335	1704.6415
1463.4427	1722.2737
1464.052	1685.995
1464.6614	1687.3317
1465.2706	1687.0568
1465.8799	1675.7021
1466.4891	1712.2078
1467.0985	1695.5446
1467.7078	1710.4473
1468.317	1705.2965
1468.9264	1694.2566
1469.5356	1681.5559
1470.1449	1690.7382
1470.7542	1695.6965
1471.3635	1703.5984
1471.9728	1727.2621
1472.582	1710.3713
1473.1914	1690.4904
1473.8007	1689.9183
1474.4099	1733.3184
1475.0192	1717.2699
1475.6285	1717.9612
1476.2378	1661.8107
1476.847	1678.3588
1477.4564	1692.2859
1478.0657	1690.548
1478.6749	1702.9547
1479.2842	1715.5172
1479.8936	1714.4275
1480.5028	1674.5878
1481.1121	1692.0048
1481.7214	1697.7719
1482.3307	1639.2062
1482.9399	1663.79
1483.5492	1688.0076
1484.1586	1671.156
1484.7678	1673.8975
1485.3771	1700.2007
1485.9863	1699.7393
1486.5957	1685.4
1487.205	1668.8517
1487.8142	1667.6818
1488.4236	1691.7671
1489.0328	1704.1133
1489.6421	1721.0251
1490.2513	1693.6859
1490.8607	1642.418
1491.47	1680.6144
1492.0792	1704.8364
1492.6886	1697.7028
1493.2979	1685.5634
1493.9071	1672.3522
1494.5164	1666.4639
1495.1257	1684.4568
1495.735	1699.0262
1496.3442	1691.3202
1496.9536	1675.1206
1497.5629	1700.0582
1498.1721	1668.6079
1498.7814	1687.3999
1499.3907	1658.4071
1500	1691.9579
