20.040655	2236.0356
20.649942	3167.5168
21.25923	4424.0615
21.868517	6043.0654
22.477806	7616.5356
23.087093	8477.3613
23.696381	8787.5986
24.305668	9000.5986
24.914955	9136.0781
25.524242	9391.6143
26.13353	9691.9697
26.742817	9727.9775
27.352106	9838.6963
27.961393	9860.9492
28.570681	9669.6572
29.179968	9601.5215
29.789255	9763.1064
30.398542	9969.0332
31.00783	10104.22
31.617117	10179.259
32.226406	10211.069
32.835693	10226.907
33.444981	10361.203
34.054268	10654.78
34.663555	10885.245
35.272842	11174.559
35.88213	11499.214
36.491417	11636.758
37.100704	11557.129
37.709991	11551.111
38.319279	11345.521
38.928566	11453.326
39.537857	11561.963
40.147144	11680.499
40.756432	11702.907
41.365719	11862.831
41.975006	12095.647
42.584293	12312.691
43.193581	12574.785
43.802868	12694.813
44.412155	12422.845
45.021442	12399.346
45.63073	12414.114
46.240017	12382.747
46.849304	12640.604
47.458591	12888.097
48.067879	13143.27
48.677166	13342.347
49.286457	13238.142
49.895744	12984.864
50.505032	13136.388
51.114319	13304.938
51.723606	13319.175
52.332893	13110.689
52.942181	13144.862
53.551468	13133.998
54.160755	13252.895
54.770042	13271.655
55.37933	13127.832
55.988617	13237.413
56.597904	13203.268
57.207191	13271.454
57.816479	13844.662
58.425766	14310.254
59.035057	14554.607
59.644344	14730.819
60.253632	14442.251
60.862919	13902.427
61.472206	13617.284
62.081493	13645.867
62.690781	13691.809
63.300068	13779.177
63.909355	13727.355
64.518646	13807.043
65.12793	13826.648
65.737221	13976.065
66.346504	14010.494
66.955795	14078.194
67.565079	14172.944
68.17437	14080.188
68.783653	13839.495
69.392944	13790.798
70.002228	13887.611
70.611519	14009.736
71.220802	14167.344
71.830093	14317.938
72.439377	14151.003
73.048668	14108.84
73.657959	14235.719
74.267242	14381.348
74.876534	14522.671
75.485817	14625.495
76.095108	14588.816
76.704391	14345.037
77.313683	14196.891
77.922966	14040.568
78.532257	13890.619
79.141541	13787.542
79.750832	13853.195
80.360115	13941.961
80.969406	13997.392
81.57869	14198.344
82.187981	14527.078
82.797272	14614.713
83.406555	14714.317
84.015846	14206.364
84.62513	13960.28
85.234421	13935.303
85.843704	13840.829
86.452995	13841.943
87.062279	13939.199
87.67157	13957.454
88.280853	13866.438
88.890144	13787.353
89.499428	13825.943
90.108719	14227.731
90.718002	14382.423
91.327293	14557.528
91.936577	14213.116
92.545868	14023.541
93.155159	13979.034
93.764442	13997.381
94.373734	14058.223
94.983017	14013.952
95.592308	13823.888
96.201591	13737.153
96.810883	13902.797
97.420166	13776.535
98.029457	13848.303
98.638741	13837.083
99.248032	13957.485
99.857315	13887.11
100.46661	13704.088
101.07589	13610.808
101.68518	13580.179
102.29447	13611.855
102.90376	13460.381
103.51305	13678.658
104.12233	13737.011
104.73162	13765.91
105.3409	13970.688
105.9502	14160.194
106.55948	14154.346
107.16877	13943.414
107.77805	13673.393
108.38734	13507.845
108.99663	13503.328
109.60592	13603.672
110.2152	13610.668
110.82449	13486.217
111.43378	13581.312
112.04307	13359.157
112.65236	13371.542
113.26164	13426.792
113.87093	13469.807
114.48022	13607.943
115.08951	13806.697
115.69879	13840.875
116.30808	13583.417
116.91737	13568.054
117.52666	13464.445
118.13594	13202.203
118.74523	13270.36
119.35452	13338.127
119.96381	13358.396
120.57309	13221.663
121.18238	13119.614
121.79167	13200.354
122.40096	13297.369
123.01025	13297.132
123.61953	13231.254
124.22882	13077.766
124.8381	12903.238
125.4474	13010.481
126.05668	13006.266
126.66597	12946.685
127.27525	12859.028
127.88454	12893.38
128.49384	12992.644
129.10312	13023.535
129.7124	13037.11
130.32169	13025.793
130.93098	13064.757
131.54027	12876.524
132.14955	12812.059
132.75885	12755.205
133.36813	12787.73
133.97742	12784.351
134.5867	12718.943
135.196	12658.192
135.80528	12626.324
136.41457	12587.85
137.02385	12579.631
137.63315	12728.67
138.24243	12811.294
138.85172	12780.592
139.461	12754.63
140.0703	12554.166
140.67958	12489.185
141.28886	12418.209
141.89816	12372.52
142.50745	12392.703
143.11673	12406.072
143.72601	12346.522
144.33531	12251.277
144.9446	12193.844
145.55388	12188.11
146.16316	12330.038
146.77246	12294.175
147.38174	12209.126
147.99103	12159.877
148.60031	12136.984
149.20961	12126.855
149.81889	12103.562
150.42818	12039.48
151.03748	11962.879
151.64676	11960.341
152.25604	12032.11
152.86533	11954.3
153.47462	11978.147
154.08391	11930.563
154.69319	11910.451
155.30247	11835.156
155.91177	11808.559
156.52106	11842.971
157.13034	11779.477
157.73962	11712.943
158.34892	11759.725
158.95821	11685.969
159.56749	11643.783
160.17679	11632.496
160.78607	11643.626
161.39536	11618.451
162.00464	11692.634
162.61394	11671.685
163.22322	11642.959
163.8325	11567.107
164.44179	11505.156
165.05109	11453.676
165.66037	11406.741
166.26965	11452.443
166.87894	11452.329
167.48824	11404.743
168.09752	11387.714
168.7068	11371.649
169.31609	11268.729
169.92538	11290.056
170.53467	11310.367
171.14395	11356.17
171.75325	11315.138
172.36253	11198.965
172.97182	11141.684
173.5811	11076.774
174.1904	10892.278
174.79968	11004.367
175.40897	11040.063
176.01825	11055.663
176.62755	11100.591
177.23683	10979.27
177.84612	10934.286
178.4554	10998.188
179.0647	10925.751
179.67398	10881.693
180.28326	10939.845
180.89256	10934.058
181.50185	10864.982
182.11113	10787.558
182.72041	10911.969
183.32971	10714.008
183.939	10724.243
184.54828	10784.41
185.15756	10780.415
185.76686	10684.009
186.37614	10722.26
186.98543	10677.297
187.59471	10517.96
188.20401	10483.063
188.81329	10596.207
189.42258	10606.375
190.03188	10480.505
190.64116	10452.202
191.25044	10502.093
191.85973	10435.297
192.46902	10425.62
193.07831	10475.924
193.68759	10369.094
194.29688	10427.731
194.90617	10460.988
195.51546	10420.593
196.12474	10379.884
196.73402	10304.407
197.34332	10272.875
197.95261	10283.209
198.56189	10334.944
199.17119	10306.81
199.78047	10294.115
200.38976	10154.854
200.99904	10104.443
201.60834	10109.437
202.21762	10094.121
202.8269	10073.994
203.43619	10107.733
204.04549	10141.729
204.65477	10096.357
205.26405	10031.874
205.87334	9994.7051
206.48264	9920.7539
207.09192	9898.4941
207.7012	10033.906
208.3105	9962.3887
208.91978	9932.4785
209.52907	9948.5801
210.13835	9967.1758
210.74765	9822.9492
211.35693	9807.3809
211.96622	9865.7686
212.5755	9814.9063
213.1848	9868.4756
213.79408	9894.3896
214.40337	9819.5156
215.01265	9732.6641
215.62195	9748.4824
216.23123	9696.415
216.84052	9721.0869
217.4498	9803.6387
218.0591	9799.0566
218.66838	9786.3848
219.27766	9777.5342
219.88696	9716.5674
220.49625	9635.4072
221.10553	9642.7129
221.71481	9721.835
222.32411	9698.0527
222.9334	9693.4238
223.54268	9643.7285
224.15196	9577.7969
224.76126	9566.6064
225.37054	9569.1123
225.97983	9616.5801
226.58911	9680.9658
227.19841	9695.0557
227.80769	9648.626
228.41698	9620.0869
229.02628	9576.7383
229.63556	9459.1504
230.24484	9392.4385
230.85413	9351.2969
231.46342	9493.084
232.07271	9494.4766
232.68199	9463.3389
233.29128	9528.5
233.90057	9420.0195
234.50986	9271.1709
235.11914	9334.4746
235.72842	9475.8281
236.33772	9481.9932
236.94701	9408.0547
237.55629	9354.2266
238.16559	9331.0508
238.77487	9392.9199
239.38416	9388.5908
239.99344	9334.5361
240.60274	9439.1689
241.21202	9379.042
241.8213	9406.2334
242.43059	9392.3525
243.03989	9407.873
243.64917	9343.5928
244.25845	9265.2852
244.86774	9283.9619
245.47704	9328.9971
246.08632	9289.4082
246.6956	9238.7402
247.3049	9263.3955
247.91418	9220.3086
248.52347	9191.3271
249.13275	9245.5313
249.74205	8997.7041
250.35133	9211.1758
250.96062	9126.9727
251.5699	9124.0986
252.1792	9113.1807
252.78848	9141.2656
253.39777	9037.6699
254.00705	9045.291
254.61635	9180.085
255.22563	9198.8799
255.83492	9191.3359
256.44421	9168.1758
257.0535	9157.5947
257.66278	9067.833
258.27206	9134.0742
258.88135	9141.0039
259.49063	9054.0869
260.09995	9064.5117
260.70923	9129.7773
261.31851	9107.7666
261.9278	9095.667
262.53708	9097.4727
263.14636	9051.6445
263.75565	9001.71
264.36493	9051.1475
264.97424	9137.9434
265.58353	9064.3838
266.19281	9000.0449
266.80209	9027.1592
267.41138	8968.3936
268.02066	9039.3574
268.62994	9105.7197
269.23926	9127.0264
269.84854	9115.4268
270.45782	9110.0342
271.06711	9049.9473
271.67639	9028.3066
272.28568	8985.4902
272.89496	8973.165
273.50424	9053.6025
274.11356	9029.665
274.72284	9013.417
275.33212	9038.9072
275.94141	8984.667
276.55069	9019.2588
277.15997	8936.0488
277.76926	8965.0039
278.37857	8963.5361
278.98785	8983.1025
279.59714	8996.2588
280.20642	8983.0381
280.8157	8953.5771
281.42499	8974.4404
282.03427	9000.4727
282.64355	8922.0371
283.25287	8890.1406
283.86215	9044.0898
284.47144	8932.9248
285.08072	8980.0635
285.69	8982.376
286.29929	9021.7441
286.90857	8900.1602
287.51788	8949.7314
288.12717	8922.2012
288.73645	9007.6621
289.34573	8963.5986
289.95502	8978.9854
290.5643	8960.1465
291.17358	8907.0986
291.78287	8928.5586
292.39218	8968.0576
293.00146	8991.8545
293.61075	8990.8379
294.22003	8956.127
294.82932	8833.6943
295.4386	8946.0723
296.04788	8998.5859
296.6572	8949.0703
297.26648	8975.8389
297.87576	9009.876
298.48505	8941.5801
299.09433	8904.1533
299.70361	8926.3789
300.3129	8888.1416
300.92218	8897.0508
301.53149	8951.3252
302.14078	8974.4023
302.75006	9060.0713
303.35934	8986.6299
303.96863	8810.5947
304.57791	8838.1387
305.18719	8997.7129
305.79651	8935.625
306.40579	8993.2715
307.01508	9048.0967
307.62436	8989.3672
308.23364	8976.833
308.84293	8936.5273
309.45221	8921.6523
310.06149	8994.8369
310.67081	9028.2334
311.28009	8999.46
311.88937	9009.1836
312.49866	9023.251
313.10794	9031.5146
313.71722	9104.0859
314.32651	9023.8613
314.93582	8901.4209
315.5451	8877.502
316.15439	9077.5645
316.76367	9078.5068
317.37296	9019.3184
317.98224	9005.9082
318.59152	9049.1826
319.20081	9012.6973
319.81012	8981.6406
320.4194	9032.1289
321.02869	9121.002
321.63797	9115.5381
322.24725	9038.6709
322.85654	9049.9863
323.46582	9031.6875
324.07513	8921.9678
324.68442	8985.9834
325.2937	9053.5342
325.90298	8964.0254
326.51227	9118.001
327.12155	9077.1738
327.73083	9036.7998
328.34012	9016.5547
328.94943	8978.8652
329.55872	9070.1133
330.168	9084.1064
330.77728	9063.0225
331.38657	9058.9551
331.99585	9039.7998
332.60513	9074.8027
333.21442	9134.2207
333.82373	9106.7725
334.43301	9128.126
335.0423	9052.7334
335.65158	9177.1689
336.26086	9172.6035
336.87015	9174.0176
337.47943	9047.5078
338.08875	9096.0645
338.69803	9135.2529
339.30731	9168.4814
339.9166	9125.8584
340.52588	9170.3809
341.13516	9227.5957
341.74445	9172.5811
342.35373	9077.8086
342.96304	9108.9053
343.57233	9217.1895
344.18161	9210.8857
344.79089	9172.3623
345.40018	9197.4893
346.00946	9132.3184
346.61874	9094.2881
347.22806	9196.1895
347.83734	9268.4688
348.44662	9172.4453
349.05591	9237.4414
349.66519	9194.3828
350.27448	9170.3525
350.88376	9244.2227
351.49304	9279.8281
352.10236	9244.2109
352.71164	9287.2109
353.32092	9289.7305
353.93021	9234.5723
354.53949	9274.0664
355.14877	9281.2051
355.75806	9224.9326
356.36737	9251.168
356.97665	9211.5928
357.58594	9202.6494
358.19522	9343.9863
358.8045	9269.3242
359.41379	9216.7393
360.02307	9241.0625
360.63235	9257.3203
361.24167	9204.0811
361.85095	9245.7646
362.46024	9247.8809
363.06952	9300.1338
363.6788	9316.6074
364.28809	9303.3896
364.89737	9326.96
365.50668	9339.0957
366.11597	9306.1914
366.72525	9271.0654
367.33453	9289.2959
367.94382	9366.5879
368.5531	9366.999
369.16238	9390.2197
369.77167	9346.5732
370.38098	9347.5547
370.99026	9280.7461
371.59955	9283.0322
372.20883	9381.168
372.81812	9423.5986
373.4274	9528.623
374.03668	9430.5332
374.646	9308.3018
375.25528	9308.2559
375.86456	9386.2227
376.47385	9428.7598
377.08313	9431.2441
377.69241	9408.5313
378.3017	9386.1797
378.91098	9437.9717
379.52029	9362.127
380.12958	9350.3477
380.73886	9531.5947
381.34814	9514.3262
381.95743	9518.9502
382.56671	9514.6367
383.17599	9590.4531
383.78531	9477.0166
384.39459	9472.5811
385.00388	9467.3906
385.61316	9512.5117
386.22244	9588.709
386.83173	9577.7783
387.44101	9606.8018
388.05029	9586.2891
388.65961	9534.626
389.26889	9561.3447
389.87817	9551.3779
390.48746	9527.3203
391.09674	9634.833
391.70602	9647.5
392.31531	9575.0215
392.92462	9655.6592
393.53391	9703.5107
394.14319	9626.1064
394.75247	9664.5752
395.36176	9599.2539
395.97104	9653.0908
396.58032	9734.0195
397.18961	9700.0225
397.79892	9725.4883
398.4082	9708.4365
399.01749	9743.5645
399.62677	9782.8604
400.23605	9806.3711
400.84534	9812.4072
401.45462	9836.0938
402.06393	9789.3438
402.67322	9718.7041
403.2825	9808.0469
403.89178	9845.3389
404.50107	9824.0713
405.11035	9793.8945
405.71964	9812.1152
406.32892	9923.7842
406.93823	9868.4004
407.54752	9812.71
408.1568	9941.4658
408.76608	9868.9658
409.37537	9931.6768
409.98465	9934.4531
410.59393	10030.669
411.20325	10019.131
411.81253	9910.2549
412.42181	9972.2275
413.0311	10008.838
413.64038	10000.801
414.24966	10024.857
414.85895	10048.633
415.46823	10050.679
416.07755	9989.7578
416.68683	9967.6992
417.29611	10092.928
417.9054	10026.854
418.51468	10018.856
419.12396	10196.667
419.73325	10128.502
420.34256	10094.894
420.95184	10212.085
421.56113	10237.929
422.17041	10102.924
422.77969	10133.291
423.38898	10195.782
423.99826	10207.09
424.60754	10288.942
425.21686	10310.928
425.82614	10290.064
426.43542	10329.123
427.04471	10350.705
427.65399	10332.563
428.26328	10320.369
428.87256	10338.779
429.48184	10378.955
430.09116	10396.186
430.70044	10384.709
431.30972	10367.765
431.91901	10371.759
432.52829	10440.752
433.13757	10475.104
433.74686	10521.789
434.35617	10488.888
434.96545	10455.873
435.57474	10639.44
436.18402	10418.545
436.7933	10537.778
437.40259	10504.392
438.01187	10503.412
438.62115	10613.223
439.23047	10568.311
439.83975	10622.918
440.44904	10615.463
441.05832	10557.68
441.6676	10662.038
442.27689	10684.429
442.88617	10656.666
443.49548	10691.74
444.10477	10680.732
444.71405	10704.929
445.32333	10736.521
445.93262	10760.59
446.5419	10775.251
447.15118	10879.493
447.76047	10769.792
448.36978	10904.098
448.97906	10846.569
449.58835	10937.067
450.19763	10904.416
450.80692	10795.93
451.4162	10950.908
452.02548	11127.588
452.6348	11161.006
453.24408	11174.816
453.85336	11151.665
454.46265	11115.202
455.07193	11174.321
455.68121	11171.448
456.2905	11150.563
456.89978	11244.047
457.50909	11302.553
458.11838	11310.466
458.72766	11339.614
459.33694	11307.549
459.94623	11303.422
460.55551	11399.428
461.16479	11405.538
461.77411	11448.04
462.38339	11603.658
462.99268	11607.788
463.60196	11563.773
464.21124	11576.563
464.82053	11551.326
465.42981	11800.657
466.03909	11662.939
466.64841	11836.553
467.25769	11769.617
467.86697	11896.201
468.47626	11850.109
469.08554	11914.063
469.69482	11911.801
470.30411	11891.616
470.91342	11942.537
471.52271	12178.665
472.13199	12227.961
472.74127	12229.113
473.35056	12196.72
473.95984	12176.311
474.56912	12249.714
475.17841	12341.777
475.78772	12365.662
476.397	12376.304
477.00629	12489.285
477.61557	12508.936
478.22485	12562.208
478.83414	12617.498
479.44342	12678.102
480.05273	12881.962
480.66202	12989.403
481.2713	12857.662
481.88058	12981.805
482.48987	12946.868
483.09915	13025.415
483.70844	12912.437
484.31772	13071.349
484.92703	13279.847
485.53632	13227.689
486.1456	13219.196
486.75488	13377.029
487.36417	13353.174
487.97345	13463.358
488.58273	13501.366
489.19205	13514.927
489.80133	13589.142
490.41061	13601.661
491.0199	13599.518
491.62918	13593.475
492.23846	13611.685
492.84775	13714.023
493.45703	13809.723
494.06635	13942.07
494.67563	13995.447
495.28491	13969.223
495.8942	14055.877
496.50348	14013.181
497.11276	14101.57
497.72205	14104.326
498.33136	14124.518
498.94064	14170.258
499.54993	14307.121
500.15921	14281.544
500.76849	14341.482
501.37778	14279.43
501.98706	14301.368
502.59634	14369.002
503.20566	14413.496
503.81494	14494.442
504.42422	14530.409
505.03351	14557.828
505.64279	14563.63
506.25208	14521.444
506.86136	14504.354
507.47067	14547.942
508.07996	14531.295
508.68924	14667.471
509.29852	14789.931
509.90781	14727.404
510.51709	14543.461
511.12637	14556.85
511.73566	14736.893
512.34497	14774.901
512.95422	14794.546
513.56354	14832.276
514.17279	14820.064
514.7821	14785.744
515.39142	14698.413
516.00067	14679.319
516.60999	14623.193
517.21924	14739.066
517.82855	14765.101
518.43781	14865.784
519.04712	14901.985
519.65643	14849.024
520.26569	14721.242
520.875	14779.49
521.48425	14772.99
522.09357	14853.443
522.70282	14999.485
523.31213	14815.004
523.92145	14857.57
524.5307	14648.563
525.14001	14695.073
525.74927	14683.066
526.35858	14663.537
526.96783	14663.061
527.57715	14732.229
528.18646	14615.255
528.79572	14514.493
529.40503	14512.088
530.01428	14427.58
530.6236	14399.177
531.23285	14447.936
531.84216	14489.413
532.45142	14463.74
533.06073	14336.698
533.67004	14286.763
534.2793	14278.35
534.88861	14233.938
535.49786	14247.549
536.10718	14252.754
536.71643	14159.274
537.32574	14198.666
537.93506	14260.83
538.54431	14167.191
539.15363	14006.254
539.76288	13967.363
540.37219	13944.727
540.98145	13961.88
541.59076	14050.897
542.20007	13993.949
542.80933	13953.78
543.41864	13791.359
544.02789	13647.779
544.63721	13725.33
545.24646	13821.553
545.85577	13870.642
546.46509	13947.606
547.07434	13933.242
547.68365	13851.3
548.29291	13749.13
548.90222	13644.063
549.51147	13694.659
550.12079	13778.83
550.73004	13833.8
551.33936	13867.857
551.94867	13852.163
552.55792	13837.433
553.16724	13815.303
553.77649	13730.541
554.3858	13712.413
554.99506	13725.781
555.60437	13846.294
556.21368	13946.978
556.82294	13911.649
557.43225	13875.456
558.0415	13858.796
558.65082	13892.157
559.26007	13923.405
559.86938	13899.035
560.4787	13911.357
561.08795	13951.176
561.69727	13979.25
562.30652	13995.657
562.91583	13980.983
563.52509	14028.825
564.1344	13920.164
564.74365	14105.72
565.35297	14086.423
565.96228	14167.266
566.57153	14135.857
567.18085	14045.159
567.7901	14085.584
568.39941	13979.068
569.00867	14046.51
569.61798	13958.628
570.22729	13984.646
570.83655	13976.371
571.44586	14018.449
572.05511	13922.854
572.66443	13865.294
573.27368	13867.828
573.883	13851.595
574.49231	13821.937
575.10156	13896.447
575.71088	13803.655
576.32013	13740.465
576.92944	13612.306
577.5387	13581.272
578.14801	13505.287
578.75732	13544.322
579.36658	13553.826
579.97589	13439.511
580.58514	13322.789
581.19446	13198.182
581.80371	13193.599
582.41302	13132.397
583.02228	13083.985
583.63159	13028.398
584.24091	13055.845
584.85016	13084.581
585.45947	12947.534
586.06873	12804.233
586.67804	12710.172
587.28729	12693.469
587.89661	12672.162
588.50592	12622.155
589.11517	12610.518
589.72449	12556.703
590.33374	12391.456
590.94305	12342.888
591.55231	12267.591
592.16162	12258.47
592.77094	12268.629
593.38019	12182.909
593.9895	12103.622
594.59875	12109.586
595.20807	12092.238
595.81732	12036.463
596.42664	11928.866
597.03595	11929.759
597.6452	11975.761
598.25452	11907.669
598.86377	11849.014
599.47308	11744.13
600.08234	11694.358
600.69165	11654.121
601.3009	11671.651
601.91022	11628.438
602.51953	11579.399
603.12878	11643.269
603.7381	11530.279
604.34735	11530.268
604.95667	11438.549
605.56592	11368.469
606.17523	11307.896
606.78455	11310.62
607.3938	11347.816
608.00311	11242.679
608.61237	11213.535
609.22168	11223.741
609.83093	11145.391
610.44025	10995.515
611.04956	11080.069
611.65881	11142.214
612.26813	11098.125
612.87738	11068.354
613.48669	10956.369
614.09595	10898.633
614.70526	10856.581
615.31458	10814.979
615.92383	10782.57
616.53314	10783.913
617.1424	10756.628
617.75171	10715.244
618.36096	10686.353
618.97028	10653.696
619.57953	10601.296
620.18884	10541.224
620.79816	10531.305
621.40741	10510.274
622.01672	10522.562
622.62598	10494.67
623.23529	10449.916
623.84454	10342.18
624.45386	10282.669
625.06317	10273.395
625.67242	10288.141
626.28174	10252.81
626.89099	10244.523
627.50031	10146.972
628.10956	10118.578
628.71887	10062.068
629.32819	9970.3271
629.93744	10005.65
630.54675	10028.519
631.15601	10016.678
631.76532	10095.644
632.37457	9895.7305
632.98389	9827.8828
633.5932	9768.9619
634.20245	9695.1318
634.81177	9683.3369
635.42102	9680.4473
636.03033	9664.3799
636.63959	9676.0293
637.2489	9585.8213
637.85815	9497.6504
638.46747	9425.0361
639.07678	9436.3984
639.68604	9440.9277
640.29535	9396.8643
640.9046	9336.2031
641.51392	9260.8262
642.12317	9252.1982
642.73248	9228.0195
643.3418	9162.1387
643.95105	9113.7285
644.56036	9016.5908
645.16962	9011.9414
645.77893	8996.5762
646.38818	8975.4268
646.9975	8893.3965
647.60681	8811
648.21606	8748.6182
648.82538	8712.2158
649.43463	8727.0459
650.04395	8711.9893
650.6532	8696.5068
651.26251	8611.5996
651.87183	8537.3438
652.48108	8423.1748
653.09039	8332.5635
653.69965	8386.5664
654.30896	8406.2471
654.91821	8254.3174
655.52753	8226.125
656.13678	8203.7725
656.74609	8116.7842
657.35541	8120.5288
657.96466	8103.1592
658.57397	8022.2549
659.18323	7939.1045
659.79254	7950.4399
660.40179	7908.8682
661.01111	7822.6729
661.62042	7822.2017
662.22968	7704.2002
662.83899	7612.3477
663.44824	7616.959
664.05756	7568.5811
664.66681	7541.9897
665.27612	7447.7969
665.88544	7400.4102
666.49469	7318.4243
667.104	7238.7607
667.71326	7218.4751
668.32257	7197.1382
668.93182	7222.6665
669.54114	7206.1733
670.15039	7099.1313
670.7597	7040.4204
671.36902	6951.9194
671.97827	6886.0259
672.58759	6848.9531
673.19684	6828.9072
673.80615	6869.4951
674.41541	6877.439
675.02472	6784.3706
675.63403	6661.793
676.24329	6602.1577
676.8526	6555.7305
677.46185	6540.5029
678.07117	6522.729
678.68042	6501.6978
679.28973	6437.772
679.89905	6387.583
680.5083	6319.8643
681.11761	6241.8994
681.72687	6164.146
682.33618	6292.8501
682.94543	6228.9863
683.55475	6178.1455
684.16406	6137.2031
684.77332	6043.418
685.38263	6005.4453
685.99188	6015.9316
686.6012	5868.1279
687.21045	5910.7583
687.81976	5755.6592
688.42902	5864.0313
689.03833	5792.9014
689.64764	5747.9404
690.2569	5668.377
690.86621	5696.3823
691.47546	5715.3604
692.08478	5595.9292
692.69403	5630.2852
693.30334	5658.8159
693.91266	5549.5537
694.52191	5449.3413
695.13123	5434.3037
695.74048	5427.3057
696.34979	5464.3335
696.95905	5393.6611
697.56836	5363.728
698.17767	5427.395
698.78693	5334.3799
699.39624	5291.2969
700.00549	5253.2168
700.61481	5251.4478
701.22406	5208.4082
701.83337	5235.8262
702.44269	5227.3657
703.05194	5213.7354
703.66125	5132.2222
704.27051	5134.4834
704.87982	5135.0625
705.48907	5109.583
706.09839	5132.7354
706.70764	5144.0835
707.31696	5020.0742
707.92627	5002.521
708.53552	5026.2236
709.14484	4967.3003
709.75409	4989.1553
710.3634	4996.1396
710.97266	4990.5781
711.58197	4950.4302
712.19128	4936.0737
712.80054	4946.2773
713.40985	4907.2729
714.0191	4863.7939
714.62842	4833.7578
715.23767	4813.6582
715.84698	4815.5747
716.4563	4813.2583
717.06555	4748.4463
717.67487	4741.083
718.28412	4767.8955
718.89343	4706.9966
719.50269	4685.8877
720.112	4645.167
720.72131	4647.5454
721.33057	4719.48
721.93988	4597.8281
722.54913	4581.436
723.15845	4655.77
723.7677	4615.1196
724.37701	4561.2163
724.98627	4552.9609
725.59558	4606.3652
726.2049	4562.0918
726.81415	4502.4873
727.42346	4547.9565
728.03271	4524.8506
728.64203	4522.5459
729.25128	4475.1279
729.8606	4468.7002
730.46991	4529.1934
731.07916	4455.4741
731.68848	4470.2344
732.29773	4406.4375
732.90704	4346.1978
733.5163	4438.9341
734.12561	4467.0737
734.73492	4402.5708
735.34418	4387.0645
735.95349	4369.9126
736.56274	4340.2358
737.17206	4280.085
737.78131	4201.4653
738.39063	4282.9683
738.99994	4328.7197
739.60919	4358.5654
740.21851	4268.5439
740.82776	4258.8745
741.43707	4268.1079
742.04633	4160.9585
742.65564	4238.7324
743.26489	4226.6982
743.87421	4249.8989
744.48352	4181.9951
745.09277	4196.9155
745.70209	4121.4741
746.31134	4118.6855
746.92065	4178.7847
747.52991	4164.5332
748.13922	4115.1074
748.74854	4133.1831
749.35779	4074.7239
749.9671	4102.6895
750.57635	4080.3005
751.18567	4099.6587
751.79492	4042.0266
752.40424	4038.5552
753.01355	4019.6001
753.6228	3962.0515
754.23212	4024.7686
754.84137	3942.8567
755.45068	3936.5051
756.05994	3932.8667
756.66925	3901.3909
757.2785	3849.4204
757.88782	3902.5374
758.49713	3933.8389
759.10638	3830.8296
759.7157	3819.7583
760.32495	3825.7964
760.93427	3733.6887
761.54352	3745.6084
762.15283	3742.4426
762.76215	3726.177
763.3714	3755.8123
763.98071	3701.0313
764.58997	3664.448
765.19928	3596.0996
765.80853	3567.1045
766.41785	3528.7996
767.02716	3584.6692
767.63641	3536.8843
768.24573	3512.1965
768.85498	3472.7942
769.46429	3490.4238
770.07355	3432.3599
770.68286	3469.2688
771.29218	3382.2747
771.90143	3390.6943
772.51074	3428.7026
773.12	3356.9927
773.72931	3326.7673
774.33856	3263.4905
774.94788	3243.3501
775.55713	3232.292
776.16644	3253.041
776.77576	3172.3521
777.38501	3116.1636
777.99432	3158.9451
778.60358	3043.2485
779.21289	3105.6064
779.82214	3021.489
780.43146	3017.1184
781.04077	2991.6443
781.65002	2961.3337
782.25934	2893.7222
782.86859	2853.7607
783.47791	2839.5999
784.08716	2812.9993
784.69647	2787.8562
785.30579	2703.6433
785.91504	2718.8613
786.52435	2718.9651
787.13361	2696.7986
787.74292	2603.6814
788.35217	2606.6487
788.96149	2567.5813
789.5708	2556.6138
790.18005	2513.9429
790.78937	2486.3052
791.39862	2444.6858
792.00793	2442.5496
792.61719	2422.4353
793.2265	2374.8057
793.83575	2349.2537
794.44507	2298.4756
795.05438	2252.2207
795.66364	2216.384
796.27295	2211.8318
796.8822	2193.678
797.49152	2162.385
798.10077	2156.7092
798.71008	2144.3979
799.3194	2108.2822
799.92865	2078.6038
800.53796	2101.5005
801.14722	2032.6492
801.75653	1985.6395
802.36578	1981.3645
802.9751	1978.6133
803.58441	1942.1492
804.19366	1943.6265
804.80298	1900.2394
805.41223	1914.7355
806.02155	1899.3323
806.6308	1810.7419
807.24011	1851.2203
807.84943	1841.5917
808.45868	1793.4653
809.06799	1807.2174
809.67725	1761.057
810.28656	1781.6404
810.89581	1765.6638
811.50513	1745.1592
812.11438	1757.684
812.72369	1754.876
813.33301	1721.1416
813.94226	1741.8297
814.55157	1722.3206
815.16083	1703.3374
815.77014	1714.0422
816.37939	1673.4806
816.98871	1656.8175
817.59802	1690.1779
818.20728	1657.7456
818.81659	1715.1902
819.42584	1678.3406
820.03516	1695.4872
820.64441	1678.6212
821.25372	1604.1069
821.86304	1649.1949
822.47229	1626.1989
823.0816	1648.5386
823.69086	1646.6519
824.30017	1681.8108
824.90942	1659.4517
825.51874	1658.4127
826.12805	1655.5463
826.7373	1654.4076
827.34662	1670.4036
827.95587	1676.4674
828.56519	1666.61
829.17444	1709.5934
829.78375	1629.4711
830.39301	1662.2576
831.00232	1670.7186
831.61163	1644.4232
832.22089	1642.8287
832.8302	1660.0825
833.43945	1679.6951
834.04877	1619.9137
834.65802	1648.2744
835.26733	1659.1046
835.87665	1623.2532
836.4859	1627.9739
837.09521	1622.0406
837.70447	1669.3433
838.31378	1712.2893
838.92303	1684.3995
839.53235	1697.9944
840.14166	1707.7057
840.75092	1712.4304
841.36023	1708.8578
841.96948	1671.7284
842.5788	1643.6864
843.18805	1695.6444
843.79736	1724.4263
844.40668	1701.7018
845.01593	1710.5925
845.62524	1717.8217
846.2345	1759.0597
846.84381	1742.3204
847.45306	1750.0414
848.06238	1763.1654
848.67163	1756.9985
849.28094	1765.2156
849.89026	1772.8328
850.49951	1749.5575
851.10883	1788.0623
851.71808	1770.6157
852.32739	1782.0377
852.93665	1806.6194
853.54596	1775.5668
854.15527	1781.9077
854.76453	1800.0764
855.37384	1810.4403
855.98309	1807.3035
856.59241	1845.8856
857.20166	1841.4288
857.81097	1839.4998
858.42029	1853.0494
859.02954	1865.3344
859.63885	1872.3579
860.24811	1861.4319
860.85742	1889.4976
861.46667	1886.3763
862.07599	1939.3701
862.68524	1975.3706
863.29456	1932.5726
863.90387	1948.2703
864.51312	1990.2051
865.12244	2018.8622
865.73169	2013.885
866.341	2004.0118
866.95026	2030.9812
867.55957	2019.1195
868.16888	2021.5792
868.77814	2070.8354
869.38745	2077.3682
869.9967	2091.0225
870.60602	2108.3284
871.21527	2138.6162
871.82458	2170.0491
872.4339	2176.2981
873.04315	2184.1008
873.65247	2187.3044
874.26172	2137.2158
874.87103	2186.1633
875.48029	2262.2844
876.0896	2274.1418
876.69891	2332.4292
877.30817	2343.2734
877.91748	2370.9045
878.52673	2404.573
879.13605	2426.1799
879.7453	2471.303
880.35461	2470.7742
880.96387	2490.7261
881.57318	2574.2256
882.1825	2563.5161
882.79175	2527.0125
883.40106	2621.1052
884.01031	2646.479
884.61963	2670.9617
885.22888	2706.7197
885.8382	2760.3652
886.44751	2798.2852
887.05676	2817.3435
887.66608	2854.397
888.27533	2918.4475
888.88464	2961.6836
889.4939	2989.1721
890.10321	3025.4534
890.71252	3087.6187
891.32178	3129.5693
891.93109	3112.5271
892.54034	3085.8958
893.14966	3221.9446
893.75891	3239.4802
894.36823	3241.7729
894.97754	3312.7041
895.58679	3472.135
896.19611	3451.78
896.80536	3484.7437
897.41467	3548.7837
898.02393	3584.6624
898.63324	3667.054
899.24249	3724.4495
899.85181	3768.6021
900.46112	3823.3337
901.07037	3891.0757
901.67969	3933.1819
902.28894	3982.9907
902.89825	4052.8499
903.50751	4093.9368
904.11682	4180.4888
904.72614	4258.1963
905.33539	4282.7295
905.9447	4290.7612
906.55396	4372.6157
907.16327	4440.1743
907.77252	4514.269
908.38184	4555.4619
908.99115	4637.4863
909.6004	4745.2661
910.20972	4847.7637
910.81897	4880.9536
911.42828	4893.8345
912.03754	4927.0737
912.64685	5031.0361
913.25616	5153.4448
913.86542	5261.4673
914.47473	5299.1475
915.08398	5351.4404
915.6933	5370.394
916.30255	5467.4033
916.91187	5518.6021
917.52112	5592.6353
918.13043	5684.3877
918.73975	5769.3496
919.349	5827.5806
919.95831	5817.1328
920.56757	5886.1699
921.17688	6067.4424
921.78613	6133.5679
922.39545	6226.4121
923.00476	6306.6899
923.61401	6374.9941
924.22333	6428.812
924.83258	6424.3525
925.44189	6489.0391
926.05115	6576.4878
926.66046	6750.71
927.26978	6925.6069
927.87903	6928.1597
928.48834	6910.1392
929.0976	6936.2656
929.70691	6993.1509
930.31616	7118.8784
930.92548	7204.6396
931.53479	7293.8105
932.14404	7406.1123
932.75336	7433.6733
933.36261	7484.6953
933.97192	7438.3271
934.58118	7497.6929
935.19049	7574.4067
935.79974	7585.3794
936.40906	7706.0664
937.01837	7774.0854
937.62762	7843.4858
938.23694	7887.4961
938.84619	7886.0918
939.45551	7949.6294
940.06476	8081.7769
940.67407	8022.0239
941.28339	8100.293
941.89264	8159.3154
942.50195	8103.5972
943.11121	8057.0869
943.72052	8089.249
944.32977	8203.4355
944.93909	8149.5801
945.5484	8206.957
946.15765	8279.3145
946.76697	8283.1914
947.37622	8235.5332
947.98553	8298.9922
948.59479	8282.1162
949.2041	8233.1064
949.81335	8325.5762
950.42267	8377.1533
951.03198	8357.5068
951.64124	8303.291
952.25055	8273.0195
952.8598	8270.0732
953.46912	8295.6436
954.07837	8351.293
954.68768	8366.6074
955.297	8377.8223
955.90625	8431.9678
956.51556	8475.4883
957.12482	8449.3633
957.73413	8410.5352
958.34338	8423.291
958.9527	8439.9961
959.56201	8414.2285
960.17126	8496.0596
960.78058	8572.5859
961.38983	8533.665
961.99915	8619.1143
962.6084	8573.9746
963.21771	8588.3486
963.82703	8551.1709
964.43628	8688.7637
965.04559	8769.5244
965.65485	8799.5459
966.26416	8738.2607
966.87341	8741.5605
967.48273	8845.4844
968.09198	8750.2979
968.70129	8916.8906
969.31061	9091.665
969.91986	9145.9248
970.52917	9187.416
971.13843	9239.1494
971.74774	9207.2539
972.35699	9248.4648
972.96631	9331.2227
973.57562	9411.1816
974.18488	9476.0088
974.79419	9555.2285
975.40344	9581.415
976.01276	9599.5527
976.62201	9634.9111
977.23132	9719.5693
977.84064	9865.3506
978.44989	9914.9424
979.0592	10055.513
979.66846	10070.324
980.27777	10090.007
980.88702	10132.478
981.49634	10208.542
982.10565	10231.226
982.7149	10261.101
983.32422	10445.249
983.93347	10563.033
984.54279	10513.192
985.15204	10566.296
985.76135	10590.746
986.37061	10609.558
986.97992	10778.356
987.58923	10823.256
988.19849	10871.84
988.8078	10976.75
989.41705	10971.604
990.02637	11013.079
990.63562	11058.583
991.24493	11099.039
991.85425	11196.058
992.4635	11319.598
993.07281	11385.367
993.68207	11466.851
994.29138	11492.757
994.90063	11437.465
995.50995	11417.48
996.11926	11595.047
996.72852	11592.632
997.33783	11766.132
997.94708	11869.119
998.5564	11932.051
999.16565	11930.405
999.77496	11955.05
1000.3843	12038.789
1000.9935	12097.088
1001.6028	12124.253
1002.2121	12293.683
1002.8214	12364.424
1003.4307	12314.472
1004.04	12367.543
1004.6492	12365.609
1005.2585	12407.602
1005.8679	12533.446
1006.4771	12684.777
1007.0864	12847.398
1007.6957	12879.314
1008.305	12908.313
1008.9142	12892.509
1009.5236	12995.93
1010.1329	13029.169
1010.7421	13117.507
1011.3514	13198.91
1011.9607	13264.532
1012.57	13346.921
1013.1793	13295.207
1013.7886	13302.24
1014.3979	13422.286
1015.0071	13528.015
1015.6165	13591.967
1016.2257	13826.698
1016.835	13861.325
1017.4443	13825.897
1018.0536	13908.637
1018.6629	14071.739
1019.2722	14093.65
1019.8815	14143.583
1020.4907	14217.845
1021.1	14324.586
1021.7093	14424.786
1022.3186	14468.628
1022.9279	14449.807
1023.5372	14511.838
1024.1465	14516.892
1024.7557	14761.782
1025.365	14790.184
1025.9744	15047.989
1026.5836	15071.76
1027.1929	15009.86
1027.8022	15104.959
1028.4115	15049.458
1029.0208	15256.259
1029.63	15390.948
1030.2394	15513.408
1030.8486	15562.282
1031.4579	15513.766
1032.0671	15583.009
1032.6765	15558.328
1033.2858	15599.26
1033.895	15758.842
1034.5044	15921.467
1035.1136	16078.249
1035.7229	16095.742
1036.3322	16151.379
1036.9415	16157.134
1037.5508	16154.545
1038.16	16284.917
1038.7694	16352.995
1039.3787	16427.584
1039.9879	16520.238
1040.5972	16633.699
1041.2065	16642.877
1041.8158	16680.443
1042.425	16606.584
1043.0344	16756.891
1043.6437	16890.27
1044.2529	16987.303
1044.8622	17114.822
1045.4716	17182.074
1046.0808	17165.201
1046.6901	17171.313
1047.2994	17186.291
1047.9087	17228.082
1048.5179	17361.414
1049.1272	17525.877
1049.7366	17649.914
1050.3458	17576.336
1050.9551	17548.998
1051.5645	17475.521
1052.1737	17438.064
1052.783	17612.172
1053.3922	17743.266
1054.0016	17824.449
1054.6108	17853.617
1055.2201	17814.795
1055.8295	17775.828
1056.4387	17770.35
1057.048	17793.543
1057.6572	17928.287
1058.2666	17946.346
1058.8759	17996.271
1059.4851	18060.42
1060.0945	18102.676
1060.7037	17841.094
1061.313	17790.787
1061.9222	17829.854
1062.5316	18082.646
1063.1409	18060.02
1063.7501	18106.402
1064.3594	17906.896
1064.9688	17861.789
1065.578	17963.432
1066.1873	17878.115
1066.7966	17737.311
1067.4059	17933.566
1068.0151	17935.82
1068.6244	17924.314
1069.2338	17865.113
1069.843	17716.523
1070.4523	17598.629
1071.0616	17656.98
1071.6709	17622.998
1072.2802	17568.223
1072.8894	17629.404
1073.4988	17562.725
1074.108	17454.291
1074.7173	17371.898
1075.3267	17201.84
1075.9359	17176.227
1076.5452	17181.064
1077.1544	17237.756
1077.7638	17161.004
1078.373	17063.609
1078.9823	16823.564
1079.5917	16628.848
1080.2009	16615.855
1080.8102	16429.578
1081.4194	16562.285
1082.0288	16367.248
1082.6381	16391.797
1083.2473	16213.062
1083.8567	16000.855
1084.4659	15910.711
1085.0752	15748.055
1085.6844	15580.681
1086.2938	15750.644
1086.9031	15641.948
1087.5123	15491.768
1088.1217	15293.954
1088.731	14982.492
1089.3402	14845.628
1089.9495	14800.714
1090.5588	14717.008
1091.1681	14600.779
1091.7773	14479.659
1092.3867	14351.359
1092.996	14184.341
1093.6052	13984.18
1094.2145	13760.997
1094.8239	13597.988
1095.4331	13564.232
1096.0424	13454.605
1096.6517	13425.476
1097.261	13263.76
1097.8702	12920.717
1098.4795	12794.836
1099.0889	12653.729
1099.6981	12528.117
1100.3074	12393.276
1100.9166	12252.314
1101.526	12133.869
1102.1353	11964.74
1102.7445	11709.353
1103.3539	11558.429
1103.9631	11377.082
1104.5724	11209.506
1105.1816	11181.389
1105.791	11108.483
1106.4003	10897.41
1107.0095	10667.566
1107.6189	10465.952
1108.2281	10349.44
1108.8374	10279.797
1109.4467	10111.52
1110.056	9914.7979
1110.6653	9801.9951
1111.2745	9655.5762
1111.8839	9525.5684
1112.4932	9289.3604
1113.1024	9217.5068
1113.7117	9047.5693
1114.321	8992.5645
1114.9303	9023.708
1115.5396	8791.8066
1116.1489	8534.4707
1116.7582	8421.5068
1117.3674	8332.0518
1117.9767	8094.6304
1118.5861	7982.8433
1119.1953	7910.6406
1119.8046	7805.3784
1120.4139	7650.7896
1121.0232	7492.165
1121.6324	7354.624
1122.2417	7184.4922
1122.8511	7114.4805
1123.4603	7133.9604
1124.0696	6964.2212
1124.679	6852.9971
1125.2882	6633.4526
1125.8975	6615.5713
1126.5067	6430.1289
1127.1161	6308.8716
1127.7253	6020.6245
1128.3346	6055.834
1128.944	5949.6924
1129.5532	5869.3926
1130.1625	5694.3037
1130.7717	5600.3379
1131.3811	5480.4951
1131.9904	5342.1055
1132.5996	5261.936
1133.2089	5139.4766
1133.8182	5116.7837
1134.4275	5026.9927
1135.0367	4861.1055
1135.6461	4743.353
1136.2554	4685.251
1136.8646	4589.4448
1137.4739	4492.2017
1138.0833	4462.6548
1138.6925	4390.189
1139.3018	4182.3281
1139.9111	4147.2959
1140.5204	4022.6274
1141.1296	3909.854
1141.7389	3924.9524
1142.3483	3804.3923
1142.9575	3759.0876
1143.5668	3700.384
1144.1761	3638.0618
1144.7854	3552.8184
1145.3947	3456.4482
1146.0039	3409.209
1146.6133	3317.7197
1147.2225	3254.7378
1147.8318	3208.9978
1148.4412	3154.5298
1149.0504	3091.7664
1149.6597	3044.1528
1150.2689	2929.0996
1150.8783	2889.166
1151.4875	2843.6956
1152.0968	2803.7444
1152.7062	2753.887
1153.3154	2686.0859
1153.9247	2634.9143
1154.5339	2594.6492
1155.1433	2548.3972
1155.7526	2496.094
1156.3618	2453.2581
1156.9712	2446.7205
1157.5804	2393.825
1158.1897	2356.7249
1158.799	2329.0044
1159.4083	2324.7996
1160.0176	2266.4973
1160.6268	2219.0605
1161.2362	2224.9819
1161.8455	2162.1279
1162.4547	2132.9812
1163.064	2134.9199
1163.6733	2089.9172
1164.2826	2037.1979
1164.8918	1978.9932
1165.5012	2022.5883
1166.1105	1990.3757
1166.7197	1966.9838
1167.329	1970.9962
1167.9384	1892.6901
1168.5476	1855.8813
1169.1569	1888.3463
1169.7661	1867.0149
1170.3755	1812.0149
1170.9847	1805.349
1171.594	1830.6119
1172.2034	1825.2198
1172.8126	1779.7628
1173.4219	1778.649
1174.0311	1766.8597
1174.6405	1708.0142
1175.2498	1707.4153
1175.859	1678.4404
1176.4684	1735.1458
1177.0776	1683.0898
1177.6869	1646.9615
1178.2961	1688.8719
1178.9055	1655.0522
1179.5148	1682.9536
1180.124	1626.7108
1180.7334	1635.2966
1181.3427	1599.3387
1181.9519	1607.8821
1182.5612	1618.1104
1183.1705	1575.9379
1183.7798	1560.5123
1184.389	1570.468
1184.9984	1572.5706
1185.6077	1575.8368
1186.2169	1568.7764
1186.8262	1566.0715
1187.4355	1555.9465
1188.0448	1518.6669
1188.6541	1505.4122
1189.2634	1526.7498
1189.8727	1507.1571
1190.4819	1538.8597
1191.0912	1526.7638
1191.7006	1489.0692
1192.3098	1478.9432
1192.9191	1498.5769
1193.5284	1498.8033
1194.1377	1485.1879
1194.7469	1463.9637
1195.3562	1466.0193
1195.9656	1426.9844
1196.5748	1431.899
1197.1841	1461.191
1197.7935	1457.8054
1198.4027	1419.5438
1199.012	1431.9167
1199.6212	1445.3531
1200.2306	1425.421
1200.8398	1406.9761
1201.4491	1397.2842
1202.0585	1399.8444
1202.6677	1399.5321
1203.277	1434.427
1203.8862	1413.8019
1204.4956	1420.994
1205.1049	1416.3823
1205.7141	1407.4004
1206.3234	1397.2526
1206.9327	1409.9037
1207.542	1423.4171
1208.1512	1415.9725
1208.7606	1369.2451
1209.3699	1394.4856
1209.9791	1380.549
1210.5884	1382.7075
1211.1978	1342.6023
1211.807	1340.5299
1212.4163	1376.5208
1213.0256	1361.3612
1213.6349	1318.9209
1214.2441	1332.7615
1214.8534	1364.7319
1215.4628	1346.9435
1216.072	1345.5013
1216.6813	1345.9424
1217.2906	1331.9336
1217.8999	1312.9819
1218.5092	1306.8473
1219.1184	1326.4967
1219.7278	1315.6256
1220.337	1315.5865
1220.9463	1315.6788
1221.5557	1315.5535
1222.1649	1358.4718
1222.7742	1324.272
1223.3834	1331.9667
1223.9928	1323.0481
1224.6021	1315.8079
1225.2113	1339.489
1225.8207	1312.1465
1226.4299	1303.8865
1227.0392	1295.4104
1227.6484	1296.5707
1228.2578	1321.6168
1228.8671	1302.573
1229.4763	1309.7769
1230.0857	1303.4548
1230.6949	1318.5345
1231.3042	1302.8073
1231.9135	1275.6464
1232.5228	1272.9441
1233.1321	1294.9034
1233.7413	1291.2778
1234.3507	1279.7158
1234.96	1312.0573
1235.5692	1295.788
1236.1785	1271.6252
1236.7878	1261.0349
1237.3971	1279.9885
1238.0063	1304.6123
1238.6156	1320.3483
1239.225	1286.6116
1239.8342	1272.1196
1240.4435	1243.5469
1241.0529	1251.3319
1241.6621	1324.5504
1242.2714	1271.9135
1242.8806	1284.6283
1243.49	1238.533
1244.0992	1228.5558
1244.7085	1248.718
1245.3179	1227.271
1245.9271	1264.1378
1246.5364	1249.8281
1247.1456	1241.9714
1247.755	1265.541
1248.3643	1235.267
1248.9735	1229.1785
1249.5829	1240.9868
1250.1921	1251.6271
1250.8014	1272.922
1251.4106	1270.1089
1252.02	1243.8054
1252.6293	1263.3368
1253.2385	1259.2078
1253.8479	1239.9253
1254.4572	1251.2968
1255.0664	1262.618
1255.6757	1252.2343
1256.285	1227.9982
1256.8943	1261.5548
1257.5035	1274.7537
1258.1129	1269.1255
1258.7222	1245.2488
1259.3314	1221.7076
1259.9407	1226.3046
1260.55	1269.6938
1261.1593	1213.845
1261.7686	1227.9119
1262.3779	1255.5153
1262.9872	1220.1779
1263.5964	1218.485
1264.2057	1209.8021
1264.8151	1214.1721
1265.4243	1229.7671
1266.0336	1226.9945
1266.6429	1214.4857
1267.2522	1196.7775
1267.8615	1222.6589
1268.4707	1225.4078
1269.0801	1216.7034
1269.6893	1220.9409
1270.2986	1242.6356
1270.908	1223.9589
1271.5172	1206.1125
1272.1265	1202.6598
1272.7357	1200.7084
1273.3451	1212.075
1273.9543	1224.9659
1274.5636	1221.6018
1275.1729	1219.5543
1275.7822	1228.6954
1276.3915	1184.7048
1277.0007	1201.9774
1277.6101	1204.5948
1278.2194	1204.5792
1278.8286	1202.5638
1279.4379	1182.8921
1280.0472	1227.9531
1280.6565	1231.5612
1281.2657	1205.3489
1281.8751	1204.8733
1282.4844	1216.7692
1283.0936	1205.9999
1283.7029	1193.2701
1284.3123	1183.2762
1284.9215	1182.8445
1285.5308	1221.8647
1286.1401	1200.4746
1286.7494	1235.0875
1287.3586	1192.3076
1287.9679	1187.5815
1288.5773	1167.3801
1289.1865	1196.3918
1289.7958	1188.8978
1290.4052	1184.1483
1291.0144	1183.869
1291.6237	1200.1476
1292.2329	1182.2202
1292.8423	1185.1323
1293.4515	1190.5746
1294.0608	1181.5925
1294.6702	1200.8739
1295.2794	1186.7584
1295.8887	1158.4744
1296.4979	1183.1749
1297.1073	1193.3025
1297.7166	1188.1488
1298.3258	1178.1031
1298.9352	1199.7286
1299.5444	1181.8525
1300.1537	1194.9092
1300.7629	1184.4705
1301.3723	1145.673
1301.9816	1164.3014
1302.5908	1175.9963
1303.2002	1212.0037
1303.8094	1189.4501
1304.4187	1198.0121
1305.028	1183.0773
1305.6373	1160.7472
1306.2466	1171.9291
1306.8558	1159.313
1307.4652	1174.1345
1308.0745	1195.3231
1308.6837	1153.6152
1309.293	1168.1307
1309.9023	1186.952
1310.5116	1162.0925
1311.1208	1164.6129
1311.7301	1176.0087
1312.3395	1190.4745
1312.9487	1165.864
1313.558	1175.494
1314.1674	1169.3347
1314.7766	1170.3242
1315.3859	1160.4503
1315.9951	1144.7628
1316.6045	1154.9099
1317.2137	1192.2378
1317.823	1173.6631
1318.4324	1196.9388
1319.0416	1135.8878
1319.6509	1161.7903
1320.2601	1174.5342
1320.8695	1161.8396
1321.4788	1162.1201
1322.088	1142.906
1322.6974	1174.1666
1323.3066	1177.8297
1323.9159	1181.4631
1324.5251	1161.2621
1325.1345	1137.8635
1325.7438	1166.3052
1326.353	1134.1569
1326.9624	1198.9697
1327.5717	1160.9783
1328.1809	1191.8085
1328.7902	1188.5396
1329.3995	1191.5457
1330.0088	1177.3413
1330.618	1175.981
1331.2274	1162.3812
1331.8367	1188.4153
1332.4459	1192.2081
1333.0552	1173.5569
1333.6646	1169.6166
1334.2738	1144.2472
1334.8831	1138.3215
1335.4924	1169.0977
1336.1017	1174.8013
1336.7109	1163.3947
1337.3202	1166.5198
1337.9296	1173.7152
1338.5388	1181.6962
1339.1481	1184.3597
1339.7574	1183.1771
1340.3667	1140.4573
1340.976	1175.7444
1341.5852	1178.8518
1342.1946	1146.3021
1342.8038	1164.7628
1343.4131	1156.0671
1344.0223	1162.3785
1344.6317	1156.9506
1345.241	1164.1443
1345.8502	1177.717
1346.4596	1161.214
1347.0688	1160.7437
1347.6781	1150.0537
1348.2874	1166.1156
1348.8967	1142.6388
1349.506	1159.2399
1350.1152	1187.3031
1350.7246	1161.9639
1351.3339	1173.4928
1351.9431	1148.3275
1352.5524	1136.5167
1353.1617	1164.3015
1353.771	1168.2849
1354.3802	1144.6599
1354.9896	1146.5159
1355.5989	1195.458
1356.2081	1158.4742
1356.8174	1163.162
1357.4268	1190.613
1358.036	1158.8729
1358.6453	1175.389
1359.2546	1162.2356
1359.8639	1169.3733
1360.4731	1162.0054
1361.0824	1154.1926
1361.6918	1158.1893
1362.301	1159.5522
1362.9103	1153.2657
1363.5197	1175.337
1364.1289	1196.4635
1364.7382	1206.0439
1365.3474	1145.3654
1365.9568	1182.9485
1366.566	1179.9073
1367.1753	1172.0063
1367.7847	1174.9622
1368.3939	1190.4058
1369.0032	1164.4451
1369.6124	1176.9149
1370.2218	1135.463
1370.8311	1159.619
1371.4403	1143.8955
1372.0497	1163.2395
1372.6589	1145.7395
1373.2682	1160.2771
1373.8774	1165.4117
1374.4868	1173.5684
1375.0961	1174.9904
1375.7053	1173.7534
1376.3147	1168.5516
1376.924	1158.1112
1377.5332	1114.6476
1378.1425	1132.3737
1378.7518	1168.1678
1379.3611	1158.1427
1379.9703	1179.0553
1380.5796	1171.1316
1381.189	1163.491
1381.7982	1151.3065
1382.4075	1157.2985
1383.0168	1157.7476
1383.6261	1157.6396
1384.2354	1192.9821
1384.8446	1181.6522
1385.454	1166.3402
1386.0632	1177.5217
1386.6725	1160.8002
1387.2819	1169.1263
1387.8911	1164.2606
1388.5004	1136.1176
1389.1096	1114.0109
1389.719	1147.5129
1390.3282	1160.9749
1390.9375	1173.9373
1391.5469	1125.7699
1392.1561	1152.7422
1392.7654	1161.475
1393.3746	1189.1279
1393.984	1180.6204
1394.5933	1193.8771
1395.2025	1164.3131
1395.8119	1151.7216
1396.4211	1190.0646
1397.0304	1156.6351
1397.6396	1160.604
1398.249	1143.488
1398.8583	1188.4672
1399.4675	1162.1649
1400.0769	1152.4851
1400.6862	1171.8585
1401.2954	1176.2168
1401.9047	1157.5037
1402.514	1178.4485
1403.1233	1177.9825
1403.7325	1178.9309
1404.3419	1175.5105
1404.9512	1164.8986
1405.5604	1149.8345
1406.1697	1175.6782
1406.7791	1157.5911
1407.3883	1165.5962
1407.9976	1189.2122
1408.6069	1149.8026
1409.2162	1129.4473
1409.8254	1150.7053
1410.4347	1178.3865
1411.0441	1177.3986
1411.6533	1176.8386
1412.2626	1136.6519
1412.8718	1195.1539
1413.4812	1192.8251
1414.0905	1169.2836
1414.6997	1159.6211
1415.3091	1178.0839
1415.9183	1153.3619
1416.5276	1143.7725
1417.1368	1155.1863
1417.7462	1160.2661
1418.3555	1181.4027
1418.9647	1164.0255
1419.5741	1188.6251
1420.1833	1208.3397
1420.7926	1179.4128
1421.4019	1144.5842
1422.0112	1162.084
1422.6205	1177.5081
1423.2297	1178.1523
1423.8391	1147.4601
1424.4484	1148.7568
1425.0576	1158.5864
1425.6669	1163.8584
1426.2762	1174.9009
1426.8855	1164.7679
1427.4948	1162.5953
1428.1041	1165.7723
1428.7134	1169.5311
1429.3226	1161.4054
1429.9319	1124.5146
1430.5413	1138.8805
1431.1505	1154.1785
1431.7598	1166.5522
1432.3691	1166.5524
1432.9784	1181.3867
1433.5876	1191.9474
1434.1969	1170.7874
1434.8063	1174.6611
1435.4155	1171.6935
1436.0248	1123.9524
1436.6342	1173.9552
1437.2434	1187.8977
1437.8527	1172.3436
1438.4619	1175.233
1439.0713	1172.9679
1439.6805	1164.2972
1440.2898	1161.65
1440.8992	1188.4515
1441.5084	1155.4742
1442.1177	1157.3267
1442.7269	1174.188
1443.3363	1181.7611
1443.9456	1170.17
1444.5548	1161.8208
1445.1642	1144.7887
1445.7734	1163.313
1446.3827	1184.0326
1446.9919	1135.7446
1447.6013	1182.2644
1448.2106	1177.4641
1448.8198	1177.0286
1449.4291	1180.4005
1450.0385	1170.8252
1450.6477	1156.1367
1451.257	1167.0371
1451.8663	1173.4075
1452.4756	1163.9354
1453.0848	1174.5756
1453.6941	1130.9911
1454.3035	1186.3939
1454.9127	1162.0237
1455.522	1148.6615
1456.1313	1200.4534
1456.7406	1163.0404
1457.3499	1162.5665
1457.9591	1178.8029
1458.5685	1197.953
1459.1777	1183.3966
1459.787	1177.4884
1460.3964	1139.0116
1461.0056	1154.6528
1461.6149	1130.8759
1462.2241	1160.4365
1462.8335	1169.9451
1463.4427	1179.0746
1464.052	1151.358
1464.6614	1166.6703
1465.2706	1145.8013
1465.8799	1154.619
1466.4891	1143.869
1467.0985	1164.1189
1467.7078	1171.4542
1468.317	1161.0071
1468.9264	1155.6898
1469.5356	1154.1949
1470.1449	1202.2643
1470.7542	1196.5812
1471.3635	1172.8585
1471.9728	1180.2052
1472.582	1148.02
1473.1914	1208.4719
1473.8007	1215.1444
1474.4099	1189.8053
1475.0192	1170.4578
1475.6285	1124.5476
1476.2378	1185.1681
1476.847	1190.5574
1477.4564	1128.7036
1478.0657	1146.8568
1478.6749	1167.006
1479.2842	1175.1924
1479.8936	1196.6108
1480.5028	1173.4736
1481.1121	1152.0311
1481.7214	1147.8972
1482.3307	1166.8662
1482.9399	1145.4692
1483.5492	1177.1736
1484.1586	1148.6273
1484.7678	1128.7169
1485.3771	1138.516
1485.9863	1157.8394
1486.5957	1167.2065
1487.205	1161.3641
1487.8142	1160.2373
1488.4236	1122.1216
1489.0328	1127.7783
1489.6421	1124.35
1490.2513	1145.7332
1490.8607	1157.7676
1491.47	1126.6859
1492.0792	1172.9584
1492.6886	1170.9877
1493.2979	1132.3704
1493.9071	1154.4204
1494.5164	1143.9279
1495.1257	1149.4891
1495.735	1172.0739
1496.3442	1157.677
1496.9536	1160.8241
1497.5629	1136.9712
1498.1721	1124.0973
1498.7814	1155.2537
1499.3907	1066.0682
1500	1152.0638
