15.028447	182.56543
15.638814	604.88324
16.24918	1341.4275
16.859547	2314.1892
17.469913	3473.8
18.08028	4831.9976
18.690645	6254.3101
19.301012	7369.5596
19.911379	7944.9292
20.521746	8330.4922
21.132113	8295.0557
21.742477	8466.8506
22.352844	8435.2725
22.963211	8528.2949
23.573578	8582.6816
24.183945	8743.1445
24.79431	8996.9287
25.404676	9205.0518
26.015043	9376.4219
26.62541	9597.8105
27.235777	9714.9824
27.846144	9842.7715
28.456509	9989.9961
29.066875	10083.966
29.677242	10213.267
30.287609	10366.224
30.897976	10504.059
31.508341	10591.443
32.11871	10704.961
32.729076	10990.346
33.339439	11104.788
33.949806	11292.153
34.560173	11357.43
35.17054	11575.531
35.780907	11821.996
36.391273	11959.535
37.00164	11955.938
37.612007	12090.525
38.222374	12331.905
38.832741	12202.933
39.443104	12282.291
40.053471	12390.749
40.663837	12454.542
41.274204	12302.973
41.884571	12447.729
42.494938	12724.539
43.105305	12982.477
43.715672	13206.604
44.326038	13305.475
44.936405	13145.734
45.546772	12942.112
46.157135	13199.75
46.767502	13008.52
47.377869	13367.433
47.988235	13529.617
48.598602	13675.542
49.208969	13727.653
49.819336	13702.293
50.429703	13595.658
51.04007	13492.15
51.650436	13654.711
52.260803	13890.382
52.871166	14033.373
53.481533	13819.358
54.0919	13716.062
54.702267	13783.588
55.312634	13784.235
55.923	13787.727
56.533367	13871.165
57.143734	13955.298
57.754101	13983.145
58.364468	14048.6
58.974831	14040.686
59.585197	14216.892
60.195564	14404.192
60.805931	14405.298
61.416298	14299.349
62.026665	14094.272
62.637032	14043.718
63.247398	14100.031
63.857765	14111.176
64.468132	14188.701
65.078499	14236.345
65.688866	14072.667
66.299232	14220.39
66.909599	14176.084
67.519966	14395.388
68.130333	14337.992
68.740692	14174.894
69.351059	14142.817
69.961426	14116.464
70.571793	14059.264
71.182159	14213.724
71.792526	14273.281
72.402893	14477.625
73.01326	14232.249
73.623627	14183.518
74.233994	14044.62
74.84436	14189.24
75.454727	14347.209
76.065094	14538.933
76.675461	14717.212
77.285828	14644.591
77.896194	14375.012
78.506561	14064.192
79.116928	14066.366
79.727295	14161.982
80.337662	14221.142
80.948029	14151.467
81.558388	14209.801
82.168755	14227.899
82.779121	14209.458
83.389488	14230.726
83.999855	14250.521
84.610222	14213.486
85.220589	14092.915
85.830956	14082.197
86.441322	14007.99
87.051689	14013.54
87.662056	14018.64
88.272423	13925.007
88.88279	13971.42
89.493156	14177.437
90.103523	14228.065
90.71389	14122.642
91.324257	14241.091
91.934624	14237.619
92.544991	14130.236
93.155357	13982.114
93.765724	13836.893
94.376091	14072.145
94.98645	14204.724
95.596817	14084.043
96.207184	13923.682
96.817551	13850.713
97.427917	13851.297
98.038284	13929.007
98.648651	14024.646
99.259018	14127.926
99.869385	14289.958
100.47975	14190.135
101.09012	13946.592
101.70049	13917.166
102.31085	13947.691
102.92122	13889.28
103.53159	13850.883
104.14195	13850.805
104.75232	13858.842
105.36269	14041.13
105.97305	13989.06
106.58342	14152.115
107.19379	13977.711
107.80415	13970.453
108.41451	13908.224
109.02488	13887.589
109.63525	13746.896
110.24561	13653.586
110.85598	13653.57
111.46635	13599.697
112.07671	13565.972
112.68708	13625.697
113.29745	13593.433
113.90781	13752.959
114.51818	13787.054
115.12855	13660.467
115.73891	13677.94
116.34928	13662.42
116.95965	13605.882
117.57001	13641.786
118.18038	13762.183
118.79075	13769.901
119.40112	13593.752
120.01148	13539.31
120.62184	13398.118
121.23221	13333.701
121.84258	13251.131
122.45294	13447.584
123.06331	13612.198
123.67368	13614.559
124.28404	13438.335
124.89441	13288.696
125.50478	13301.749
126.11514	13340.283
126.72551	13296.177
127.33588	13211.629
127.94624	13461.988
128.55661	13428.491
129.16698	13247.894
129.77734	13123.263
130.38771	13165.856
130.99808	13262.405
131.60844	13308.237
132.21881	13225.293
132.82918	13110.737
133.43954	13129.079
134.04991	13134.476
134.66028	13187.342
135.27065	13069.71
135.88101	13093.055
136.49138	13131.313
137.10175	13171.197
137.71211	13229.526
138.32248	13242.831
138.93285	13162.889
139.54321	13054.241
140.15356	13005.546
140.76393	13014.972
141.3743	13049.826
141.98466	13100.175
142.59503	12958.142
143.2054	12911.403
143.81577	12798.424
144.42613	12697.843
145.0365	12700.894
145.64687	12843.438
146.25723	13022.657
146.8676	13027.077
147.47797	12797.044
148.08833	12616.931
148.6987	12740.821
149.30907	12720.638
149.91943	12758.023
150.5298	12690.43
151.14017	12513.109
151.75053	12656.236
152.3609	12670.322
152.97127	12557.556
153.58163	12551.996
154.192	12632.875
154.80237	12617.04
155.41273	12524.572
156.0231	12549.908
156.63347	12625.895
157.24384	12514.944
157.8542	12563.08
158.46457	12439.403
159.07494	12461.999
159.6853	12463.92
160.29567	12481.361
160.90604	12544.188
161.5164	12463.606
162.12677	12255.999
162.73714	12193.029
163.3475	12296.215
163.95787	12281.519
164.56824	12341.865
165.1786	12245.672
165.78897	12322.711
166.39932	12317.528
167.00969	12352.551
167.62006	12120.057
168.23042	12007.099
168.84079	12138.766
169.45116	12244.259
170.06152	12190.91
170.67189	12118.086
171.28226	12085.926
171.89262	12024.544
172.50299	11902.388
173.11336	12056.857
173.72372	12116.675
174.33409	12064.878
174.94446	12074.058
175.55482	12039.299
176.16519	11954.549
176.77556	11873.541
177.38593	11852.212
177.99629	11914.069
178.60666	11969.784
179.21703	11889.835
179.82739	11813.26
180.43776	11860.517
181.04813	11834.662
181.65849	11686.943
182.26886	11716.204
182.87923	11806.658
183.48959	11810.913
184.09996	11672.087
184.71033	11634.489
185.32069	11614.984
185.93106	11528.103
186.54143	11552.189
187.15179	11643.192
187.76216	11696.047
188.37253	11657.301
188.98289	11653.081
189.59326	11508.492
190.20363	11468.177
190.814	11358.06
191.42436	11417.455
192.03471	11380.318
192.64508	11406.538
193.25545	11446.065
193.86581	11418.781
194.47618	11435.488
195.08655	11368.941
195.69691	11146.387
196.30728	11136.575
196.91765	11300.744
197.52802	11445.037
198.13838	11299.579
198.74875	11271.881
199.35912	11235.214
199.96948	11158.874
200.57985	11127.999
201.19022	11087.291
201.80058	11082.019
202.41095	11100.495
203.02132	11024.607
203.63168	11032.27
204.24205	10926.748
204.85242	10970.071
205.46278	11021.51
206.07315	10968.659
206.68352	11003.364
207.29388	11064.642
207.90425	10994.808
208.51462	10951.228
209.12498	10910.313
209.73535	10881.438
210.34572	10860.401
210.95609	10859.896
211.56645	10904.141
212.17682	10717.555
212.78719	10931.737
213.39755	10919.73
214.00792	10687.299
214.61829	10619.085
215.22865	10638.073
215.83902	10851.041
216.44939	10771.29
217.05975	10617.63
217.67012	10522.743
218.28047	10554.597
218.89084	10571.752
219.50121	10462.126
220.11157	10543.997
220.72194	10596.744
221.33231	10547.901
221.94267	10432.064
222.55304	10496.679
223.16341	10269.563
223.77377	10411.336
224.38414	10406.015
224.99451	10443.438
225.60487	10382.685
226.21524	10441.057
226.82561	10460.22
227.43597	10342.959
228.04634	10361.685
228.65671	10365.706
229.26707	10330.787
229.87744	10198.223
230.48781	10304.265
231.09818	10337.154
231.70854	10269.545
232.31891	10124.271
232.92928	10099.388
233.53964	10149.147
234.15001	10197.111
234.76038	10240.617
235.37074	10240.612
235.98111	10230.535
236.59148	10212.275
237.20184	10100.002
237.81221	10040.632
238.42258	9975.8174
239.03294	10026.988
239.64331	10090.379
240.25368	10069.803
240.86404	10135.801
241.47441	9921.1553
242.08478	9975.1807
242.69514	10015.3
243.30551	9899.1377
243.91586	9917.5518
244.52623	9965.5332
245.1366	9930.085
245.74696	10002.104
246.35733	9976.6162
246.9677	9881.8857
247.57806	9971.6953
248.18843	9832.4863
248.7988	9869.6836
249.40916	10013.315
250.01953	9873.4697
250.6299	9877.6924
251.24026	9852.1611
251.85063	9847.5684
252.461	9724.1748
253.07137	9715.2676
253.68173	9778.6992
254.2921	9744.3447
254.90247	9784.2988
255.51283	9799.0459
256.1232	9869.6055
256.73355	9701.7236
257.34393	9730.8018
257.95428	9721.0898
258.56467	9863.7188
259.17502	9727.543
259.7854	9680.2168
260.39575	9700.0156
261.00613	9769.9434
261.61649	9728.8799
262.22687	9746.042
262.83722	9811.8018
263.4476	9790.0742
264.05795	9785.7236
264.66833	9787.4961
265.27869	9815.4814
265.88907	9658.832
266.49942	9620.3682
267.1098	9631.1797
267.72015	9690.5605
268.33054	9621.3408
268.94089	9752.1406
269.55127	9649.2725
270.16162	9753.2988
270.772	9719.6426
271.38235	9549.7793
271.99274	9581.4219
272.60309	9700.0098
273.21347	9725.9766
273.82382	9772.3037
274.4342	9684.3887
275.04456	9846.2783
275.65494	9567.3682
276.26529	9668.4111
276.87567	9764.3955
277.48602	9655.8438
278.09641	9703.9111
278.70676	9759.1289
279.31714	9689.0195
279.92749	9626.6875
280.53787	9645.1289
281.14822	9663.5107
281.75861	9714.1807
282.36896	9792.9131
282.97931	9812.1816
283.58969	9830.0078
284.20004	9760.1191
284.81042	9624.5645
285.42078	9662.9053
286.03116	9698.502
286.64151	9829.4814
287.25189	9838.5654
287.86224	9869.4102
288.47263	9794.8896
289.08298	9726.9316
289.69336	9684.3896
290.30371	9649.1299
290.91409	9689.333
291.52444	9770.6328
292.13483	9790.2754
292.74518	9754.0176
293.35556	9734.54
293.96591	9782.8516
294.57629	9818.4141
295.18665	9804.0713
295.79703	9830.208
296.40738	9843.3359
297.01776	9869.9111
297.62811	9865.5156
298.23849	9845.4648
298.84885	9774.9834
299.45923	9811.7461
300.06958	9853.835
300.67996	9965.3965
301.29031	9965.3701
301.9007	9825.542
302.51105	9841.4043
303.12143	9936.7578
303.73178	9899.1973
304.34216	9981.4102
304.95251	9980.4258
305.5629	10090.771
306.17325	10016.612
306.78363	9949.6709
307.39398	10017.104
308.00436	10099.283
308.61472	9963.709
309.22507	10068.336
309.83545	10104.086
310.4458	10113.273
311.05618	10148.43
311.66653	10152.633
312.27692	10075.597
312.88727	10009.611
313.49765	10118.969
314.108	10233.566
314.71838	10186.431
315.32874	10267.384
315.93912	10334.084
316.54947	10231.299
317.15985	10163.833
317.7702	10182.916
318.38058	10133.751
318.99094	10239.369
319.60132	10447.413
320.21167	10448.145
320.82205	10364.232
321.4324	10304.597
322.04279	10246.712
322.65314	10269.928
323.26352	10393.926
323.87387	10443.567
324.48425	10388.878
325.0946	10381.595
325.70499	10404.967
326.31534	10526.08
326.92572	10466.662
327.53607	10434.564
328.14645	10430.304
328.75681	10533.554
329.36719	10526.821
329.97754	10412.627
330.58792	10433.415
331.19827	10412.92
331.80865	10438.496
332.41901	10511.713
333.02939	10620.368
333.63974	10737.413
334.25012	10731.437
334.86047	10655.633
335.47083	10701.729
336.08121	10738.073
336.69156	10674.734
337.30194	10688.941
337.91229	10768.157
338.52267	10872.125
339.13303	10820.379
339.74341	10814.701
340.35376	10821.853
340.96414	10790.56
341.57449	10859.938
342.18488	10926.685
342.79523	10920.768
343.40561	10891.286
344.01596	10879.027
344.62634	10890.096
345.23669	10983.55
345.84708	11043.977
346.45743	10932.116
347.06781	11012.921
347.67816	11050.682
348.28854	10993.068
348.8989	11009.936
349.50928	10962.342
350.11963	10932.061
350.73001	11054.715
351.34036	11191.187
351.95074	11231.757
352.5611	11337.541
353.17148	11309.17
353.78183	11291.688
354.39221	11261.422
355.00256	11200.643
355.61295	11187.112
356.2233	11337.704
356.83368	11459.878
357.44403	11397.341
358.05441	11450.704
358.66476	11453.547
359.27515	11442.957
359.8855	11386.598
360.49585	11482.231
361.10623	11520.611
361.71658	11591.378
362.32697	11443.972
362.93732	11569.737
363.5477	11625.253
364.15805	11618.965
364.76843	11668.517
365.37878	11761.598
365.98917	11797.614
366.59952	11798.985
367.2099	11795.719
367.82025	11791.456
368.43063	11662.922
369.04099	11544.511
369.65137	11704.238
370.26172	11821.721
370.8721	11933.91
371.48245	11871.163
372.09283	11866.789
372.70319	11842.647
373.31357	11745.692
373.92392	11868.068
374.5343	11960.339
375.14465	11933.808
375.75504	11970.119
376.36539	11970.523
376.97577	11942.957
377.58612	11843.177
378.1965	12014.861
378.80685	12048.111
379.41724	12038.331
380.02759	12122.757
380.63797	12167.443
381.24832	12200.325
381.8587	12210.833
382.46906	12203.291
383.07944	12166.951
383.68979	12229.6
384.30017	12279.719
384.91052	12321.602
385.5209	12474.823
386.13126	12360.447
386.74161	12343.941
387.35199	12213.814
387.96234	12282.571
388.57272	12456.74
389.18307	12375.311
389.79346	12368.825
390.40381	12619.979
391.01419	12547.185
391.62454	12423.318
392.23492	12449.586
392.84528	12436.215
393.45566	12510.066
394.06601	12576.222
394.67639	12474.734
395.28674	12581.285
395.89713	12572.1
396.50748	12537.512
397.11786	12645.807
397.72821	12598.748
398.33859	12712.217
398.94894	12830.183
399.55933	12852.135
400.16968	12643.539
400.78006	12720.817
401.39041	12573.522
402.00079	12650.021
402.61115	12744.69
403.22153	12853.896
403.83188	13003.605
404.44226	12880.79
405.05261	12752.695
405.66299	12815.196
406.27335	12902.597
406.88373	12976.146
407.49408	13021.19
408.10446	12980.659
408.71481	12990.029
409.3252	13033.85
409.93555	12987.982
410.54593	13069.27
411.15628	13031.5
411.76666	12980.705
412.37701	13047.755
412.98737	13172.439
413.59775	13389.207
414.2081	13345.681
414.81848	13262.354
415.42883	13195.341
416.03922	13223.957
416.64957	13215.583
417.25995	13298.274
417.8703	13293.289
418.48068	13346.328
419.09103	13396.846
419.70142	13282.548
420.31177	13219.764
420.92215	13285.492
421.5325	13349.939
422.14288	13478.185
422.75323	13550.849
423.36362	13444.754
423.97397	13432.585
424.58435	13483.328
425.1947	13486.306
425.80508	13630.867
426.41544	13327.299
427.02582	13733.498
427.63617	13651.167
428.24655	13661.809
428.8569	13566.966
429.46729	13512.052
430.07764	13628.708
430.68802	13716.566
431.29837	13688.071
431.90875	13831.951
432.5191	13968.355
433.12949	13942.914
433.73984	13794.617
434.35022	13769.681
434.96057	13787.408
435.57095	13795.838
436.1813	13822.217
436.79169	13852.899
437.40204	14017.307
438.01242	13970.374
438.62277	13954.271
439.23312	13924.038
439.84351	13880.353
440.45386	14066.259
441.06424	14159.919
441.67459	14275.598
442.28497	14265.052
442.89532	14061.058
443.50571	14163.814
444.11606	13968.034
444.72644	14099.34
445.33679	14218.778
445.94717	14391.188
446.55753	14373.89
447.16791	14394.102
447.77826	14316.258
448.38864	14304.621
448.99899	14295.883
449.60938	14429.875
450.21973	14592.834
450.83011	14564.884
451.44046	14513.363
452.05084	14484.013
452.66119	14389.683
453.27158	14422.882
453.88193	14616.12
454.49231	14614.155
455.10266	14690.02
455.71304	14629.155
456.32339	14668.306
456.93378	14647.389
457.54413	14779.646
458.15451	14470.226
458.76486	14619.613
459.37524	14775.557
459.9856	14848.963
460.59598	14974.78
461.20633	14728.031
461.81671	14855.545
462.42706	14822.999
463.03745	14827.527
463.6478	14804.598
464.25815	14945.784
464.86853	15062.698
465.47888	15073.389
466.08926	15074.844
466.69962	15025.929
467.31	15014.979
467.92035	15046.4
468.53073	15006.329
469.14108	15055.527
469.75146	15150.163
470.36182	15040.838
470.9722	14928.364
471.58255	14936.239
472.19293	15097.019
472.80328	15001.411
473.41367	15207.835
474.02402	15237.381
474.6344	15411.099
475.24475	15400.008
475.85513	15263.868
476.46548	15308.964
477.07587	15418.549
477.68622	15219.985
478.2966	15435.544
478.90695	15512.116
479.51733	15357.38
480.12769	15379.411
480.73807	15432.6
481.34842	15368.496
481.9588	15395.81
482.56915	15606.353
483.17953	15737.646
483.78989	15812.064
484.40027	15835.047
485.01062	15780.943
485.621	15764.305
486.23135	15873.554
486.84174	16005.418
487.45209	16024.37
488.06247	16144.277
488.67282	16329.335
489.2832	16262.608
489.89355	16177.771
490.50391	16213.176
491.11429	16327.395
491.72464	16460.4
492.33502	16468.971
492.94537	16777.709
493.55576	16736.852
494.16611	16763.273
494.77649	16876.461
495.38684	16872.502
495.99722	16992.766
496.60757	17228.875
497.21796	17296.492
497.82831	17437.934
498.43869	17345.238
499.04904	17250.807
499.65942	17334.625
500.26978	17388.959
500.88016	17654.537
501.49051	17835.875
502.10089	17927.777
502.71124	17988.242
503.32162	18072.914
503.93198	18059.598
504.54236	18049.793
505.15271	18247.842
505.76309	18449.334
506.37344	18650.783
506.98383	18781.123
507.59418	18656.848
508.20456	18805.271
508.81491	18977.605
509.42529	19078.539
510.03564	19108.02
510.64603	19416.99
511.25638	19754.727
511.86676	19959.918
512.47711	19927.309
513.08746	20228.23
513.69788	20124.32
514.30823	20352.279
514.91858	20459.846
515.52893	20891.498
516.13928	21149.088
516.74969	21088.689
517.36005	21210.682
517.9704	21516.625
518.58075	21587.197
519.19116	21889.441
519.80151	22081.475
520.41187	22180.105
521.02222	22489.303
521.63263	22453.172
522.24298	22559.867
522.85333	22663.482
523.46368	22567.045
524.0741	22698.213
524.68445	22896.811
525.2948	23043.766
525.90515	23024.232
526.51556	22845.42
527.12592	22696.438
527.73627	22534.914
528.34662	22454.764
528.95703	22434.271
529.56738	22337.256
530.17773	22348.23
530.78809	22388.139
531.3985	22217.15
532.00885	21865.109
532.6192	21316.947
533.22955	21288.875
533.83997	21264.605
534.45032	21173.814
535.06067	20985.549
535.67102	20724.906
536.28143	20373.273
536.89178	20145.092
537.50214	19793.74
538.11249	19688.967
538.7229	19624.438
539.33325	19419.895
539.9436	19282.588
540.55396	18998.092
541.16437	18680.441
541.77472	18530.285
542.38507	18079.508
542.99542	17992.457
543.60577	18028.641
544.21619	17932.289
544.82654	17641.447
545.43689	17226.055
546.04724	16898.852
546.65765	16753.332
547.26801	16486.59
547.87836	16496.805
548.48871	16462.672
549.09912	16299.063
549.70947	15993.645
550.31982	15700.538
550.93018	15567.425
551.54059	15398.916
552.15094	15223.401
552.76129	15231.532
553.37164	15330.061
553.98206	15183.736
554.59241	14889.523
555.20276	14588.189
555.81311	14506.675
556.42352	14517.233
557.03387	14323.697
557.64423	14192.467
558.25458	14133.692
558.86499	13979.643
559.47534	13944.969
560.08569	13731.917
560.69604	13484.309
561.30646	13514.75
561.91681	13356.768
562.52716	13319.589
563.13751	13160.937
563.74792	13263.519
564.35828	12976.801
564.96863	12716.184
565.57898	12829.025
566.18939	12752.854
566.79974	12744.975
567.4101	12690.521
568.02045	12378.109
568.6308	12380.864
569.24121	12380.641
569.85156	12150.966
570.46191	12153.894
571.07227	12210.497
571.68268	12144.177
572.29303	11963.209
572.90338	12037.267
573.51373	11863.529
574.12415	11784.995
574.7345	11627.344
575.34485	11597.623
575.9552	11570.742
576.56561	11603.535
577.17596	11599.57
577.78632	11505.421
578.39667	11344.639
579.00708	11325.003
579.61743	11336.644
580.22778	11324.846
580.83813	11348.588
581.44855	11337.26
582.0589	11291.024
582.66925	11202.003
583.2796	11132.303
583.89001	11083.659
584.50037	11052.564
585.11072	11118.843
585.72107	11160.623
586.33148	11191.84
586.94183	11083.789
587.55219	11080.765
588.16254	11077.43
588.77295	10985.627
589.3833	11016.625
589.99365	11095.684
590.604	11160.995
591.21442	11149.554
591.82477	11125.143
592.43512	11086.825
593.04547	10985.964
593.65588	10990.389
594.26624	10998.654
594.87659	11038.861
595.48694	11020.627
596.09729	11154.141
596.7077	11058.933
597.31805	10970.743
597.92841	10990.877
598.53876	10892.386
599.14917	10899.997
599.75952	10829.504
600.36987	10896.903
600.98022	10770.762
601.59064	10668.206
602.20099	10514.361
602.81134	10441.786
603.42169	10374.909
604.0321	10346.309
604.64246	10416.383
605.25281	10289.484
605.86316	10124.1
606.47357	10121.206
607.08392	9980.623
607.69427	9868.5957
608.30463	9851.3672
608.91504	9808.6162
609.52539	9720.0254
610.13574	9716.4727
610.74609	9568.6426
611.35651	9491.7109
611.96686	9296.125
612.57721	9166.627
613.18756	9172.5342
613.79797	9067.2061
614.40833	9019.4082
615.01868	9029.0615
615.62903	8881.8154
616.23944	8765.3281
616.84979	8655.126
617.46014	8511.0938
618.0705	8489.1572
618.68091	8519.3994
619.29126	8417.9082
619.90161	8309.0957
620.51196	8225.0732
621.12231	8127.6016
621.73273	8058.3711
622.34308	8004.0557
622.95343	7974.394
623.56378	7979.2622
624.17419	7917.5522
624.78455	7787.4849
625.3949	7657.6108
626.00525	7560.7319
626.61566	7500.9556
627.22601	7452.6011
627.83636	7460.0229
628.44672	7419.605
629.05713	7393.6147
629.66748	7248.2935
630.27783	7202.2432
630.88818	7164.7944
631.4986	7088.6211
632.10895	7012.0474
632.7193	6960.5923
633.32965	7039.998
633.94006	6919.7964
634.55042	6829.4771
635.16077	6731.4473
635.77112	6742.4922
636.38153	6644.5347
636.99188	6643.4067
637.60223	6637.6309
638.21259	6503.1362
638.823	6474.2598
639.43335	6481.1445
640.0437	6387.7539
640.65405	6347.4585
641.26447	6229.7256
641.87482	6261.9346
642.48517	6194.2915
643.09552	6183.4263
643.70593	6081.8799
644.31628	6023.5063
644.92664	5962.5488
645.53699	5882.791
646.14734	5880.8901
646.75775	5918.7134
647.3681	5848.5942
647.97845	5798.3179
648.58881	5737.5088
649.19922	5675.4331
649.80957	5637.1929
650.41992	5598.1685
651.03027	5545.5342
651.64069	5508.7432
652.25104	5570.811
652.86139	5520.1987
653.47174	5413.0845
654.08215	5363.749
654.6925	5368.4678
655.30286	5335.2168
655.91321	5269.4946
656.52362	5300.2676
657.13397	5275.8809
657.74432	5185.647
658.35468	5091.4502
658.96509	5107.2197
659.57544	5034.8281
660.18579	5004.6489
660.79614	5016.6929
661.40656	5057.8755
662.01691	4972.0249
662.62726	4869.6699
663.23761	4839.4756
663.84802	4773.8931
664.45837	4724.0723
665.06873	4791.3315
665.67908	4763.9956
666.28949	4821.9346
666.89984	4761.9844
667.51019	4741.7759
668.12054	4591.8696
668.73096	4520.7236
669.34131	4559.3604
669.95166	4567.0713
670.56201	4557.1602
671.17242	4448.5229
671.78278	4451.0132
672.39313	4436.2524
673.00348	4423.1099
673.61383	4376.7446
674.22424	4382.3042
674.83459	4369.353
675.44495	4333.2256
676.0553	4285.4106
676.66571	4257.5264
677.27606	4259.1108
677.88641	4183.5054
678.49677	4102.4087
679.10718	4064.2437
679.71753	4112.3599
680.32788	4140.9297
680.93823	4086.3442
681.54865	4040.1582
682.159	3995.9861
682.76935	3934.5332
683.3797	3903.9248
683.99011	3973.5083
684.60046	3970.71
685.21082	3918.6357
685.82117	3929.5876
686.43158	3873.2363
687.04193	3812.917
687.65228	3763.1575
688.26263	3800.9468
688.87305	3804.5527
689.4834	3797.0078
690.09375	3723.6917
690.7041	3665.8164
691.31451	3684.6138
691.92487	3615.2551
692.53522	3580.9646
693.14557	3587.6035
693.75598	3654.2822
694.36633	3609.2087
694.97668	3618.5732
695.58704	3534.6189
696.19745	3520.1475
696.8078	3474.999
697.41815	3478.657
698.0285	3489.3464
698.63885	3438.0745
699.24927	3491.1355
699.85962	3417.1335
700.46997	3433.6367
701.08032	3434.7478
701.69073	3349.9475
702.30109	3249.6523
702.91144	3261.6494
703.52179	3364.0239
704.1322	3224.8176
704.74255	3253.9026
705.35291	3209.2793
705.96326	3192.3108
706.57367	3156.3645
707.18402	3133.1501
707.79437	3194.1628
708.40472	3178.7207
709.01514	3177.842
709.62549	3133.5247
710.23584	3077.7349
710.84619	3096.165
711.4566	3055.1907
712.06696	3021.7405
712.67731	3067.7761
713.28766	3076.3718
713.89807	3017.9119
714.50842	3004.2903
715.11877	2969.7068
715.72913	2935.9045
716.33954	2988.9456
716.94989	2959.0562
717.56024	2915.072
718.17059	2907.2217
718.78101	2931.241
719.39136	2946.5383
720.00171	2864.6362
720.61206	2881.6274
721.22247	2923.4878
721.83282	2859.3972
722.44318	2880.7407
723.05353	2895.3315
723.66388	2837.2107
724.27429	2823.0171
724.88464	2828.6296
725.495	2797.573
726.10535	2800.5107
726.71576	2832.8555
727.32611	2815.6931
727.93646	2772.97
728.54681	2760.946
729.15723	2794.3928
729.76758	2786.3352
730.37793	2751.7346
730.98828	2747.8328
731.59869	2778.7317
732.20905	2758.1304
732.8194	2686.375
733.42975	2739.6941
734.04016	2736.4795
734.65051	2754.3701
735.26086	2733.3237
735.87122	2720.0247
736.48163	2713.4653
737.09198	2763.1357
737.70233	2707.6685
738.31268	2678.7791
738.9231	2701.1008
739.53345	2672.5625
740.1438	2729.5432
740.75415	2776.5942
741.36456	2739.5867
741.97491	2777.5513
742.58527	2800.0454
743.19562	2772.4204
743.80603	2756.0645
744.41638	2788.5037
745.02673	2816.8943
745.63708	2831.5781
746.2475	2804.823
746.85785	2849.0598
747.4682	2856.6917
748.07855	2823.291
748.68896	2823.7393
749.29932	2818.5454
749.90967	2863.0261
750.52002	2855.0857
751.13037	2954.9209
751.74078	2974.9119
752.35114	2983.6772
752.96149	2950.5737
753.57184	2932.9336
754.18225	3036.5605
754.7926	3018.6526
755.40295	3042.7114
756.01331	3064.2019
756.62372	3034.075
757.23407	3016.0432
757.84442	3057.8743
758.45477	3167.0427
759.06519	3229.1619
759.67554	3137.4756
760.28589	3282.1692
760.89624	3232.1792
761.50665	3147.0264
762.117	3285.2358
762.72736	3173.3118
763.33771	3263.1584
763.94812	3220.6494
764.55847	3352.1448
765.16882	3385.6814
765.77917	3383.2908
766.38959	3270.7646
766.99994	3241.4683
767.61029	3361.0625
768.22064	3365.6208
768.83105	3374.2856
769.44141	3392.6702
770.05176	3551.6484
770.66211	3423.199
771.27252	3441.9114
771.88287	3429.8066
772.49323	3483.312
773.10358	3471.8955
773.71399	3518.0271
774.32434	3560.655
774.93469	3470.7109
775.54504	3516.853
776.1554	3491.3828
776.76581	3408.1626
777.37616	3549.8965
777.98651	3579.2446
778.59686	3495.5139
779.20728	3580.6982
779.81763	3606.3801
780.42798	3423.1392
781.03833	3508.7705
781.64874	3498.9297
782.25909	3460.1526
782.86945	3586.8469
783.4798	3576.8525
784.09021	3464.1328
784.70056	3567.3433
785.31091	3579.6714
785.92126	3530.6846
786.53168	3569.2239
787.14203	3531.9451
787.75238	3540.1001
788.36273	3552.6238
788.97314	3503.8914
789.5835	3587.3918
790.19385	3392.7014
790.8042	3393.9045
791.41461	3539.8557
792.02496	3462.7473
792.63531	3462.9424
793.24567	3491.2568
793.85608	3363.9563
794.46643	3337.9216
795.07678	3366.1304
795.68713	3378.8223
796.29755	3409.1318
796.9079	3382.707
797.51825	3324.3699
798.1286	3313.8899
798.73901	3311.9065
799.34937	3332.6113
799.95972	3218.0632
800.57007	3302.155
801.18048	3249.7292
801.79083	3249.0562
802.40118	3247.7981
803.01154	3209.2261
803.62189	3151.4526
804.2323	3164.8123
804.84265	3025.9487
805.453	3009.4626
806.06335	3188.3513
806.67377	3184.478
807.28412	3074.3037
807.89447	3009.0142
808.50482	3038.3354
809.11523	2983.3596
809.72559	2943.3616
810.33594	2986.5562
810.94629	2903.998
811.5567	2938.7676
812.16705	2914.4458
812.7774	2872.7241
813.38776	2828.7188
813.99817	2803.3616
814.60852	2790.1592
815.21887	2784.2415
815.82922	2772.8677
816.43964	2694.4045
817.04999	2730.8455
817.66034	2692.2666
818.27069	2603.4539
818.8811	2585.0701
819.49146	2564.3013
820.10181	2559.8643
820.71216	2520.9724
821.32257	2497.0886
821.93292	2460.5408
822.54327	2416.6748
823.15363	2391.5295
823.76404	2342.5107
824.37439	2394.7815
824.98474	2326.5278
825.59509	2326.4321
826.20551	2292.2976
826.81586	2233.8835
827.42621	2183.0115
828.03656	2128.0503
828.64691	2158.7043
829.25732	2139.5537
829.86768	2110.7725
830.47803	2063.709
831.08838	1995.0715
831.69879	1987.6129
832.30914	1958.8888
832.91949	1873.5585
833.52985	1878.9319
834.14026	1878.8372
834.75061	1843.1018
835.36096	1867.321
835.97131	1862.5364
836.58173	1778.3857
837.19208	1753.8983
837.80243	1734.366
838.41278	1728.2983
839.02319	1711.1531
839.63354	1671.554
840.2439	1636.8748
840.85425	1594.6958
841.46466	1565.078
842.07501	1546.6432
842.68536	1519.1373
843.29572	1494.2634
843.90613	1500.813
844.51648	1506.5509
845.12683	1488.7191
845.73718	1425.267
846.3476	1386.401
846.95795	1401.3866
847.5683	1384.1564
848.17865	1377.8579
848.78906	1371.1914
849.39941	1325.9347
850.00977	1322.5525
850.62012	1348.887
851.23053	1327.6053
851.84088	1289.3405
852.45123	1261.4727
853.06158	1254.6747
853.67194	1238.5909
854.28235	1229.1758
854.8927	1239.5559
855.50305	1245.6658
856.1134	1257.1888
856.72382	1202.6936
857.33417	1205.4567
857.94452	1214.0278
858.55487	1205.2178
859.16528	1222.2726
859.77563	1170.4792
860.38599	1164.9949
860.99634	1192.0485
861.60675	1182.0159
862.2171	1177.7366
862.82745	1200.6432
863.43781	1213.1688
864.04822	1172.4592
864.65857	1177.8092
865.26892	1159.0458
865.87927	1175.3929
866.48969	1145.0991
867.10004	1211.0859
867.71039	1221.6833
868.32074	1172.1643
868.93115	1188.0598
869.5415	1216.9785
870.15186	1148.952
870.76221	1150.7545
871.37262	1119.9202
871.98297	1171.2786
872.59332	1203.9163
873.20367	1185.0392
873.81409	1122.2776
874.42444	1178.0161
875.03479	1135.4189
875.64514	1126.7478
876.25555	1151.1093
876.86591	1166.6423
877.47626	1199.1998
878.08661	1189.6364
878.69702	1153.9076
879.30737	1156.2037
879.91772	1184.3307
880.52808	1137.9166
881.13843	1170.1676
881.74884	1163.616
882.35919	1176.2118
882.96954	1171.0685
883.5799	1184.4695
884.19031	1161.6088
884.80066	1171.7927
885.41101	1175.0747
886.02136	1149.6295
886.63177	1167.6254
887.24213	1161.2391
887.85248	1157.771
888.46283	1188.8691
889.07324	1200.0623
889.68359	1194.1025
890.29395	1194.026
890.9043	1161.4154
891.51471	1168.7327
892.12506	1151.6377
892.73541	1139.7635
893.34576	1192.9032
893.95618	1190.9275
894.56653	1186.9045
895.17688	1215.879
895.78723	1214.3057
896.39764	1184.9449
897.008	1182.3457
897.61835	1206.1583
898.2287	1203.8055
898.83911	1214.4894
899.44946	1227.4614
900.05981	1213.7271
900.67017	1219.9404
901.28058	1252.9838
901.89093	1230.3745
902.50128	1185.7365
903.11163	1199.8687
903.72205	1233.3665
904.3324	1175.8507
904.94275	1235.5201
905.5531	1266.4199
906.16345	1219.1121
906.77386	1247.9326
907.38422	1227.7191
907.99457	1228.9677
908.60492	1256.7382
909.21533	1235.0676
909.82568	1293.7208
910.43604	1267.9034
911.04639	1265.3831
911.6568	1260.9695
912.26715	1291.9973
912.8775	1321.873
913.48785	1329.8882
914.09827	1344.767
914.70862	1339.3363
915.31897	1315.2651
915.92932	1303.8719
916.53973	1318.5945
917.15009	1363.1718
917.76044	1338.271
918.37079	1375.4188
918.9812	1421.4652
919.59155	1415.2554
920.2019	1417.3188
920.81226	1407.1133
921.42267	1441.5616
922.03302	1445.7825
922.64337	1443.8722
923.25372	1469.0483
923.86414	1474.7145
924.47449	1475.3998
925.08484	1510.1919
925.69519	1529.1803
926.3056	1561.1078
926.91595	1585.0828
927.52631	1557.4247
928.13666	1620.0028
928.74707	1612.6635
929.35742	1611.2584
929.96777	1663.2394
930.57813	1714.5819
931.18848	1770.7548
931.79889	1769.2992
932.40924	1790.085
933.01959	1753.3104
933.62994	1827.603
934.24036	1815.5758
934.85071	1786.2115
935.46106	1866.9331
936.07141	1871.766
936.68182	1857.7482
937.29218	1960.3269
937.90253	1886.7046
938.51288	2016.6648
939.12329	1980.0616
939.73364	2041.2585
940.34399	2010.3577
940.95435	1984.2655
941.56476	2070.5054
942.17511	2105.531
942.78546	2098.3464
943.39581	2071.0964
944.00623	2093.9495
944.61658	2132.7246
945.22693	2162.9082
945.83728	2131.5457
946.44769	2143.2229
947.05804	2188.0439
947.6684	2156.5754
948.27875	2217.3455
948.88916	2277.8286
949.49951	2202.9937
950.10986	2220.7664
950.72021	2247.1235
951.33063	2237.3594
951.94098	2292.5647
952.55133	2283.2087
953.16168	2212.8423
953.77209	2210.1719
954.38245	2252.1716
954.9928	2289.478
955.60315	2260.6738
956.21356	2206.0776
956.82391	2263.4189
957.43427	2227.2673
958.04462	2233.5344
958.65497	2217.1104
959.26538	2192.8467
959.87573	2200.8938
960.48608	2218.9412
961.09644	2169.29
961.70685	2205.6509
962.3172	2175.5527
962.92755	2142.3396
963.5379	2142.1382
964.14832	2105.522
964.75867	2120.4126
965.36902	2117.0537
965.97937	2148.4758
966.58978	2154.6135
967.20013	2121.8596
967.81049	2048.8726
968.42084	2040.4425
969.03125	2098.0425
969.6416	2110.9058
970.25195	2126.9519
970.8623	2108.6443
971.47272	2049.9395
972.08307	1993.6694
972.69342	2013.1182
973.30377	2059.0784
973.91418	2054.3672
974.52454	2101.6726
975.13489	2080.9724
975.74524	2087.1362
976.35565	2066.3086
976.966	2104.0681
977.57635	2004.9685
978.18671	2042.3368
978.79712	2042.0901
979.40747	2107.2476
980.01782	2052.3545
980.62817	2065.9685
981.23859	2060.0178
981.84894	2093.5352
982.45929	2077.0881
983.06964	2075.0334
983.67999	2090.4685
984.29041	2137.3994
984.90076	2149.7307
985.51111	2113.7156
986.12146	2139.5337
986.73187	2103.1355
987.34222	2114.0793
987.95258	2165.6233
988.56293	2156.5
989.17334	2159.0186
989.78369	2193.6501
990.39404	2183.0706
991.00439	2169.1843
991.61481	2188.9565
992.22516	2213.9883
992.83551	2225.5198
993.44586	2262.4795
994.05627	2209.863
994.66663	2236.0288
995.27698	2295.7354
995.88733	2256.4326
996.49774	2298.9592
997.10809	2324.5317
997.71844	2368.0374
998.3288	2322.0027
998.93921	2396.3779
999.54956	2389.7576
1000.1599	2471.5269
1000.7703	2484.2354
1001.3807	2475.9609
1001.991	2420.9978
1002.6014	2477.6123
1003.2117	2531.5405
1003.8221	2618.0535
1004.4325	2616.2488
1005.0428	2621.9915
1005.6532	2634.3323
1006.2636	2691.0815
1006.874	2734.6472
1007.4843	2692.1558
1008.0947	2750.2219
1008.7051	2840.9475
1009.3154	2857.0339
1009.9258	2845.425
1010.5361	2837.8896
1011.1465	2867.6343
1011.7569	2923.554
1012.3672	3032.552
1012.9776	3004.9368
1013.588	3075.2544
1014.1984	3045.7957
1014.8087	3079.1006
1015.4191	3186.3538
1016.0294	3273.0208
1016.6398	3279.1074
1017.2502	3391.4009
1017.8605	3427.0652
1018.4709	3457.0247
1019.0813	3469.8442
1019.6917	3538.9795
1020.302	3607.4695
1020.9124	3679.3826
1021.5228	3770.6868
1022.1331	3815.8154
1022.7435	3903.0637
1023.3538	3984.1021
1023.9642	3969.6565
1024.5746	3973.324
1025.1849	4084.8257
1025.7953	4128.5508
1026.4056	4328.1631
1027.016	4386.1104
1027.6265	4403.4053
1028.2368	4394.2397
1028.8472	4504.5605
1029.4575	4600.3271
1030.0679	4647.3623
1030.6782	4680.7251
1031.2886	4866.2827
1031.8989	5024.6128
1032.5094	5007.2007
1033.1198	5025.5864
1033.7301	5165.7183
1034.3405	5257.604
1034.9508	5372.7998
1035.5612	5551.4224
1036.1715	5657.1323
1036.7819	5729.3623
1037.3922	5779.8169
1038.0027	5893.7061
1038.613	5913.2422
1039.2234	5998.9858
1039.8337	6247.79
1040.4441	6377.2427
1041.0544	6446.124
1041.6648	6487.3081
1042.2751	6550.5908
1042.8856	6626.1421
1043.496	6889.626
1044.1063	6996.9106
1044.7167	7122.7568
1045.327	7240.3706
1045.9374	7361.9829
1046.5477	7535.5278
1047.1581	7526.2036
1047.7686	7646.2012
1048.3789	7810.812
1048.9893	7947.9492
1049.5996	8081.001
1050.21	8160.6318
1050.8203	8306.4033
1051.4307	8488.3662
1052.041	8669.0918
1052.6515	8713.6982
1053.2618	8862.7959
1053.8722	9132.4902
1054.4825	9206.2236
1055.0929	9592.7217
1055.7032	9729.1113
1056.3136	9660.2578
1056.924	9798.5137
1057.5344	10026.248
1058.1448	10302.976
1058.7551	10461.739
1059.3655	10641.378
1059.9758	10688.452
1060.5862	10948.084
1061.1965	11030.26
1061.8069	11214.688
1062.4172	11408.092
1063.0277	11630.874
1063.6381	11820.626
1064.2484	11988.871
1064.8588	12183.57
1065.4691	12354.262
1066.0795	12432.749
1066.6898	12632.786
1067.3002	12796.299
1067.9106	12934.459
1068.521	13272.351
1069.1313	13486.711
1069.7417	13659.169
1070.3521	13880.426
1070.9624	13929.22
1071.5728	14153.384
1072.1831	14336.902
1072.7936	14482.899
1073.4039	14952.99
1074.0143	15156.13
1074.6246	15366.982
1075.235	15548.434
1075.8453	15557.232
1076.4557	15785.422
1077.066	15929.692
1077.6765	16243.011
1078.2869	16635.785
1078.8972	16985.719
1079.5076	17067.334
1080.1179	17101.381
1080.7283	17248.951
1081.3386	17500.221
1081.949	17856.107
1082.5594	18059.348
1083.1698	18389.584
1083.7802	18548.689
1084.3905	18549.076
1085.0009	18715.781
1085.6112	18838.311
1086.2216	19042.693
1086.8319	19279.813
1087.4423	19463.762
1088.0527	19690.756
1088.6631	19825.623
1089.2734	19899.145
1089.8838	19905.566
1090.4941	19890.504
1091.1045	20029.623
1091.7148	20172.764
1092.3252	20436.861
1092.9357	20514.281
1093.546	20610.107
1094.1564	20574.609
1094.7667	20388.441
1095.3771	20398.777
1095.9874	20541.418
1096.5978	20727.439
1097.2081	20760.938
1097.8186	20724.656
1098.429	20566.291
1099.0393	20467.385
1099.6497	20374.318
1100.26	20316.939
1100.8704	20426.926
1101.4807	20513.982
1102.0911	20430.66
1102.7015	20267.215
1103.3119	19995.525
1103.9222	19780.195
1104.5326	19628.584
1105.1429	19595.408
1105.7533	19719.24
1106.3636	19518.842
1106.974	19489.379
1107.5845	19297.17
1108.1948	19008.178
1108.8052	18858.623
1109.4155	18644.051
1110.0259	18590.77
1110.6362	18569.094
1111.2466	18579.691
1111.8569	18372.568
1112.4674	18106.893
1113.0778	17824.244
1113.6881	17550.371
1114.2985	17500.363
1114.9088	17410.998
1115.5192	17340.348
1116.1295	17230.732
1116.7399	17056.113
1117.3502	16739.014
1117.9607	16606.164
1118.571	16418.299
1119.1814	16337.063
1119.7917	16138.749
1120.4021	16086.056
1121.0125	15915.276
1121.6228	15860.747
1122.2332	15596.284
1122.8436	15412.906
1123.454	15337.201
1124.0643	15195.011
1124.6747	15057.337
1125.285	15067.056
1125.8954	14989.577
1126.5057	14808.564
1127.1161	14515.53
1127.7266	14238.365
1128.3369	14254.956
1128.9473	14221.369
1129.5576	14220.465
1130.168	14182.549
1130.7783	13934.949
1131.3887	13759.114
1131.999	13661.361
1132.6095	13406.537
1133.2198	13279.633
1133.8302	13338.866
1134.4406	13305.967
1135.0509	13267.438
1135.6613	13214.841
1136.2716	12942.259
1136.882	12712.92
1137.4924	12559.195
1138.1028	12513.504
1138.7131	12503.976
1139.3235	12550.664
1139.9338	12461.174
1140.5442	12343.265
1141.1545	12109.749
1141.7649	11995.23
1142.3752	11942.141
1142.9857	11836.514
1143.5961	11759.862
1144.2064	11802.322
1144.8168	11701.769
1145.4271	11484.617
1146.0375	11483.092
1146.6478	11240.413
1147.2582	11294.546
1147.8687	11098.771
1148.479	11102.704
1149.0894	11133.115
1149.6997	10998.652
1150.3101	10897.65
1150.9204	10661.247
1151.5308	10558.644
1152.1411	10504.469
1152.7516	10487.466
1153.3619	10459.456
1153.9723	10433.929
1154.5826	10306.958
1155.193	10163.609
1155.8033	9967.7695
1156.4137	9919.0049
1157.024	9823.252
1157.6345	9793.4834
1158.2449	9741.1025
1158.8552	9550.4053
1159.4656	9535.7236
1160.0759	9353.708
1160.6863	9324.3369
1161.2966	9178.2256
1161.907	9226.4688
1162.5175	9162.0889
1163.1278	8986.3213
1163.7382	9001.2627
1164.3485	8791.0391
1164.9589	8670.915
1165.5692	8516.3281
1166.1796	8410.9238
1166.7899	8434.46
1167.4003	8436.1221
1168.0107	8331.3516
1168.6211	8071.9658
1169.2314	7987.8794
1169.8418	7953.2534
1170.4521	7753.8496
1171.0625	7751.4097
1171.6729	7665.0083
1172.2832	7653.9019
1172.8937	7529.7461
1173.504	7403.7114
1174.1144	7247.4858
1174.7247	7224.6074
1175.3351	7065.8828
1175.9454	7019.3965
1176.5558	6941.4688
1177.1661	6800.6152
1177.7766	6754.4326
1178.387	6643.6963
1178.9973	6578.7715
1179.6077	6487.7261
1180.218	6374.937
1180.8284	6394.1377
1181.4387	6280.0913
1182.0491	6221.9741
1182.6595	6132.3394
1183.2699	5957.6997
1183.8802	5806.291
1184.4906	5821.1509
1185.101	5652.1152
1185.7113	5679.7437
1186.3217	5497.5952
1186.932	5499.8408
1187.5425	5349.1323
1188.1528	5222.5879
1188.7632	5240.3379
1189.3735	5075.083
1189.9839	4964.2671
1190.5942	4990.271
1191.2046	4963.7339
1191.8149	4843.4473
1192.4253	4741.9404
1193.0358	4621.0908
1193.6461	4486.25
1194.2565	4450.1245
1194.8668	4392.3223
1195.4772	4365.3452
1196.0875	4266.9409
1196.6979	4208.1138
1197.3082	4091.4937
1197.9187	4010.5872
1198.5291	3959.0095
1199.1394	3859.0537
1199.7498	3875.4424
1200.3601	3820.2087
1200.9705	3729.4888
1201.5808	3638.1929
1202.1912	3580.9937
1202.8016	3560.6221
1203.412	3503.0952
1204.0223	3404.3237
1204.6327	3360.9229
1205.243	3282.906
1205.8534	3262.1191
1206.4637	3174.7368
1207.0741	3047.4004
1207.6846	3006.1179
1208.2949	2966.501
1208.9053	2958.7363
1209.5156	2856.7905
1210.126	2843.2922
1210.7363	2723.7419
1211.3467	2722.8167
1211.957	2646.1406
1212.5675	2564.7405
1213.1779	2564.2317
1213.7882	2533.9539
1214.3986	2494.6267
1215.0089	2450.3467
1215.6193	2386.8254
1216.2296	2293.7424
1216.84	2248.1038
1217.4503	2133.4419
1218.0608	2169.1541
1218.6711	2134.6086
1219.2815	2139.7148
1219.8918	2039.7019
1220.5022	2045.5098
1221.1125	2003.3384
1221.7229	1928.8403
1222.3333	1883.65
1222.9437	1837.5343
1223.5541	1846.254
1224.1644	1770.1364
1224.7748	1752.1414
1225.3851	1724.0732
1225.9955	1663.0085
1226.6058	1655.449
1227.2162	1583.5767
1227.8267	1538.6832
1228.437	1572.1058
1229.0474	1547.0497
1229.6577	1506.4058
1230.2681	1506.7301
1230.8784	1424.5234
1231.4888	1383.1554
1232.0991	1354.2028
1232.7096	1337.7339
1233.3199	1292.325
1233.9303	1260.3867
1234.5406	1268.5867
1235.151	1247.6385
1235.7614	1180.9186
1236.3717	1154.7384
1236.9821	1169.3333
1237.5925	1118.0485
1238.2029	1107.9955
1238.8132	1115.6881
1239.4236	1083.4575
1240.0339	1053.2565
1240.6443	1048.1024
1241.2546	989.10449
1241.865	993.77411
1242.4753	999.06238
1243.0858	977.55627
1243.6962	948.97607
1244.3065	946.33856
1244.9169	920.14697
1245.5272	907.05145
1246.1376	878.29791
1246.7479	901.7489
1247.3583	864.94006
1247.9688	841.93378
1248.5791	870.74365
1249.1895	805.12689
1249.7998	846.76947
1250.4102	821.55951
1251.0205	821.57507
1251.6309	775.05859
1252.2412	744.3183
1252.8517	758.35199
1253.462	764.53589
1254.0724	772.10052
1254.6827	737.91864
1255.2931	724.56958
1255.9034	715.50201
1256.5138	740.80188
1257.1241	747.79114
1257.7346	719.05719
1258.345	731.34723
1258.9553	716.02454
1259.5657	725.77997
1260.176	670.69348
1260.7864	707.01251
1261.3967	690.92694
1262.0071	648.37238
1262.6176	660.51538
1263.2279	676.65002
1263.8383	688.82581
1264.4486	685.20984
1265.059	688.30585
1265.6693	645.61731
1266.2797	660.31818
1266.89	649.67853
1267.5005	665.4613
1268.1108	622.02661
1268.7212	634.41046
1269.3315	620.24408
1269.9419	609.0108
1270.5522	624.18115
1271.1626	614.23175
1271.7729	619.84857
1272.3833	592.08673
1272.9938	598.20648
1273.6041	605.74506
1274.2145	580.67212
1274.8248	609.58112
1275.4352	582.43506
1276.0455	613.04712
1276.6559	602.93829
1277.2662	562.16089
1277.8767	604.88269
1278.4871	593.10645
1279.0974	604.01398
1279.7078	591.93811
1280.3181	594.99445
1280.9285	607.85864
1281.5388	602.51422
1282.1492	563.83142
1282.7596	578.09735
1283.37	569.34705
1283.9803	564.51135
1284.5907	574.04193
1285.201	573.84094
1285.8114	552.10638
1286.4218	543.49426
1287.0321	577.6875
1287.6426	553.25177
1288.2529	550.52142
1288.8633	558.27875
1289.4736	567.2948
1290.084	554.8338
1290.6943	551.66351
1291.3047	562.13824
1291.915	546.67554
1292.5255	517.82959
1293.1359	489.42529
1293.7462	565.43243
1294.3566	526.1897
1294.9669	553.28638
1295.5773	525.37921
1296.1876	527.56799
1296.798	532.42529
1297.4083	532.31378
1298.0188	524.79272
1298.6292	533.17975
1299.2395	533.31036
1299.8499	521.76672
1300.4602	542.52094
1301.0706	536.74548
1301.6809	513.00018
1302.2913	521.56458
1302.9017	523.15417
1303.5121	545.33917
1304.1224	531.55219
1304.7328	520.00464
1305.3431	527.58789
1305.9535	508.36987
1306.5638	495.98511
1307.1742	525.42743
1307.7847	508.64325
1308.395	543.1936
1309.0054	539.23718
1309.6157	524.30206
1310.2261	522.89508
1310.8364	496.86273
1311.4468	492.49796
1312.0571	494.3172
1312.6676	524.81671
1313.278	527.58929
1313.8883	516.21869
1314.4987	484.74945
1315.109	483.16574
1315.7194	512.54852
1316.3297	501.72189
1316.9401	517.60004
1317.5505	517.51093
1318.1609	507.64752
1318.7712	505.8425
1319.3816	475.02597
1319.9919	490.55167
1320.6023	467.02213
1321.2126	476.83389
1321.823	473.83969
1322.4333	498.36981
1323.0438	514.20825
1323.6542	510.00885
1324.2645	489.11288
1324.8749	494.3237
1325.4852	513.5332
1326.0956	488.08942
1326.7059	484.82541
1327.3163	473.29294
1327.9268	495.60876
1328.5371	479.51764
1329.1475	490.81345
1329.7578	465.48624
1330.3682	464.45245
1330.9785	465.46158
1331.5889	498.04095
1332.1992	507.30798
1332.8097	470.86133
1333.42	460.05011
1334.0304	486.31073
1334.6407	501.72519
1335.2511	476.64453
1335.8615	508.56976
1336.4718	488.36212
1337.0822	505.98965
1337.6926	504.31467
1338.303	483.65335
1338.9133	472.43903
1339.5237	471.64978
1340.134	464.51154
1340.7444	483.03281
1341.3547	485.44614
1341.9651	468.8389
1342.5756	488.2807
1343.1859	467.44095
1343.7963	483.30283
1344.4066	484.09128
1345.017	474.06866
1345.6273	481.23376
1346.2377	453.40012
1346.848	480.3829
1347.4584	494.1554
1348.0688	479.61102
1348.6792	484.79129
1349.2896	459.56097
1349.8999	473.79803
1350.5103	489.37009
1351.1206	461.87943
1351.731	472.83258
1352.3413	460.40646
1352.9518	469.42972
1353.5621	473.27411
1354.1725	481.65176
1354.7828	478.42102
1355.3932	478.27173
1356.0035	456.28354
1356.6139	458.01459
1357.2242	427.49753
1357.8347	474.19095
1358.4451	465.11313
1359.0554	466.13828
1359.6658	463.82379
1360.2761	459.10617
1360.8865	454.25507
1361.4968	460.75784
1362.1072	467.70645
1362.7177	472.06485
1363.328	469.63898
1363.9384	453.54507
1364.5487	476.42078
1365.1591	471.55978
1365.7694	446.35507
1366.3798	483.81546
1366.9901	469.57126
1367.6006	433.67758
1368.2109	451.96808
1368.8213	457.19852
1369.4316	455.08194
1370.042	447.68875
1370.6523	479.48502
1371.2627	464.87097
1371.873	476.87924
1372.4834	458.55429
1373.0939	442.47144
1373.7042	481.43655
1374.3146	475.13568
1374.9249	456.99356
1375.5353	476.12854
1376.1456	463.93649
1376.756	470.20447
1377.3663	481.17136
1377.9768	465.40082
1378.5872	480.90021
1379.1975	442.8038
1379.8079	469.64203
1380.4182	472.43475
1381.0286	487.74561
1381.6389	474.75244
1382.2493	460.87994
1382.8597	460.3833
1383.4701	477.04761
1384.0804	471.93063
1384.6908	461.0773
1385.3011	464.44186
1385.9115	475.8082
1386.5219	437.5054
1387.1322	462.39648
1387.7427	454.49084
1388.353	457.94437
1388.9634	473.96475
1389.5737	461.88028
1390.1841	465.84799
1390.7944	476.89508
1391.4048	463.23651
1392.0151	471.38644
1392.6256	448.36627
1393.236	471.23886
1393.8463	483.17264
1394.4567	453.46243
1395.067	464.70773
1395.6774	452.37161
1396.2877	462.91977
1396.8981	463.39389
1397.5085	470.25201
1398.1189	498.31506
1398.7292	448.75748
1399.3396	463.20752
1399.95	476.53061
1400.5603	467.36948
1401.1707	450.99997
1401.781	458.89767
1402.3914	462.50504
1403.0018	464.0426
1403.6122	449.15103
1404.2225	471.44644
1404.8329	471.03537
1405.4432	439.60562
1406.0536	466.04327
1406.6639	469.41364
1407.2743	474.63605
1407.8848	459.09668
1408.4951	462.52631
1409.1055	466.65698
1409.7158	459.09229
1410.3262	459.27631
1410.9365	450.37939
1411.5469	459.24911
1412.1572	453.8237
1412.7677	473.72842
1413.3781	473.04037
1413.9884	471.90384
1414.5988	498.06982
1415.2091	485.03204
1415.8195	471.32886
1416.4298	446.99728
1417.0402	451.65018
1417.6506	446.14365
1418.261	468.78064
1418.8713	462.69754
1419.4817	422.39502
1420.092	443.95334
1420.7024	460.3985
1421.3127	463.0148
1421.9231	466.15805
1422.5336	453.74878
1423.1439	459.45807
1423.7543	468.37936
1424.3646	466.8194
1424.975	466.06317
1425.5853	437.47559
1426.1957	487.97751
1426.806	484.25131
1427.4164	467.59518
1428.0269	488.46201
1428.6372	471.53214
1429.2476	489.97131
1429.8579	472.30054
1430.4683	469.59119
1431.0786	483.35657
1431.689	476.42438
1432.2993	495.09265
1432.9098	449.51846
1433.5201	440.97192
1434.1305	456.23099
1434.7408	458.84137
1435.3512	457.43115
1435.9615	461.19968
1436.5719	492.34494
1437.1823	499.82376
1437.7927	458.52686
1438.4031	456.99118
1439.0134	464.49643
1439.6238	473.19226
1440.2341	485.82379
1440.8445	484.62006
1441.4548	468.11719
1442.0652	470.27542
1442.6757	468.85544
1443.286	469.4787
1443.8964	485.36206
1444.5067	458.91568
1445.1171	484.7211
1445.7274	480.40948
1446.3378	469.30258
1446.9481	470.84955
1447.5586	481.92892
1448.1689	484.40628
1448.7793	484.02039
1449.3896	471.80692
1450	477.73724
