15.028447	236.18945
15.638814	665.15704
16.24918	1315.528
16.859547	2178.073
17.469913	3168.6531
18.08028	4338.6621
18.690645	5545.2422
19.301012	6414.7749
19.911379	6740.6572
20.521746	6834.5415
21.132113	6862.0796
21.742477	6871.2715
22.352844	6872.8477
22.963211	6876.5718
23.573578	6924.981
24.183945	7023.3989
24.79431	7088.8359
25.404676	7127.1694
26.015043	7241.7124
26.62541	7387.1245
27.235777	7536.5215
27.846144	7649.5283
28.456509	7750.3999
29.066875	7598.4131
29.677242	7543.6987
30.287609	7542.7148
30.897976	7612.8335
31.508341	7710.5718
32.11871	7784.3955
32.729076	8000.9507
33.339439	8075.9155
33.949806	8204.9092
34.560173	8203.2539
35.17054	8330.0664
35.780907	8459.8359
36.391273	8588.6162
37.00164	8689.7852
37.612007	8717.834
38.222374	8727.585
38.832741	8830.8994
39.443104	8894.6104
40.053471	8774.5742
40.663837	8816.7998
41.274204	8999.1719
41.884571	9126.1182
42.494938	9283.9014
43.105305	9374.7969
43.715672	9445.7939
44.326038	9532.0928
44.936405	9508.0586
45.546772	9416.6865
46.157135	9399.9141
46.767502	9366.2783
47.377869	9380.0215
47.988235	9593.2725
48.598602	9766.6191
49.208969	9802.248
49.819336	9782.0225
50.429703	9752.5273
51.04007	9764.96
51.650436	9927.0166
52.260803	10016.452
52.871166	9858.9805
53.481533	9820.5039
54.0919	9798.4395
54.702267	9766.4072
55.312634	9777.0947
55.923	9848.1924
56.533367	9930.8154
57.143734	9989.7988
57.754101	10003.448
58.364468	9963.6553
58.974831	10207.363
59.585197	10359.511
60.195564	10597.944
60.805931	10422.809
61.416298	10233.309
62.026665	10069.993
62.637032	9986.3018
63.247398	10060.732
63.857765	10278.477
64.468132	10842.723
65.078499	10328.008
65.688866	10328.008
66.299232	10281.572
66.909599	10708.898
67.519966	10201.307
68.130333	10190.051
68.740692	10179.306
69.351059	10160.18
69.961426	10188.551
70.571793	10198.396
71.182159	10280.012
71.792526	10381.021
72.402893	10315.102
73.01326	10140.804
73.623627	10102.656
74.233994	10156.95
74.84436	10390.073
75.454727	10247.665
76.065094	10295.386
76.675461	10666.949
77.285828	10247.665
77.896194	10295.386
78.506561	10507.585
79.116928	9937.167
79.727295	9980.8779
80.337662	9946.3662
80.948029	9924.0898
81.558388	10068.8
82.168755	10283.902
82.779121	10490.635
83.389488	10575.167
83.999855	10430.465
84.610222	10186.57
85.220589	10125.022
85.830956	9967.7754
86.441322	9929.5029
87.051689	9921.2109
87.662056	9794.9248
88.272423	9775.1582
88.88279	9886.0635
89.493156	9969.5996
90.103523	9997.9941
90.71389	10002.873
91.324257	9942.5938
91.934624	9977.2129
92.544991	9923.2354
93.155357	9925.0596
93.765724	9872.6758
94.376091	9937.4277
94.98645	9842.084
95.596817	9835.8389
96.207184	9780.0381
96.817551	9762.8311
97.427917	9843.9355
98.038284	9812.8613
98.648651	9974.8994
99.259018	9889.1865
99.869385	9707.5947
100.47975	9804.0029
101.09012	9749.9971
101.70049	9777.7178
102.31085	9854.8486
102.92122	9793.417
103.53159	9706.7129
104.14195	9708.3389
104.75232	9709.8369
105.36269	9705.0059
105.97305	9623.1563
106.58342	9689.8154
107.19379	9855.0098
107.80415	9909.0918
108.41451	9887.7979
109.02488	9634.3389
109.63525	9537.9922
110.24561	9512.9883
110.85598	9507.9736
111.46635	9591.0225
112.07671	9588.1914
112.68708	9609.9697
113.29745	9693.6865
113.90781	9489.7256
114.51818	9587.0508
115.12855	9963.7744
115.73891	9583.3818
116.34928	9583.3818
116.95965	9567.6523
117.57001	9781.6807
118.18038	9535.7705
118.79075	9511.5117
119.40112	9496.6992
120.01148	9506.9521
120.62184	9378.2588
121.23221	9543.0508
121.84258	9465.1279
122.45294	9587.3096
123.06331	9626.1504
123.67368	9539.7178
124.28404	9463.5469
124.89441	9362.4004
125.50478	9298.6104
126.11514	9403.3916
126.72551	9398.7842
127.33588	9373.9287
127.94624	9394.0625
128.55661	9367.8145
129.16698	9177.167
129.77734	9247.3008
130.38771	9225.8193
130.99808	9284.1143
131.60844	9370.1807
132.21881	9344.3184
132.82918	9232.2451
133.43954	9163.7285
134.04991	9227.0439
134.66028	9189.8369
135.27065	9264.2764
135.88101	9328.4922
136.49138	9242.1563
137.10175	9110.5928
137.71211	9217.7891
138.32248	9293.04
138.93285	9339.2266
139.54321	9388.0771
140.15356	9333.1953
140.76393	9195.9531
141.3743	9124.8652
141.98466	9151.6172
142.59503	9240.8281
143.2054	9089.4736
143.81577	9120.1084
144.42613	9140.4355
145.0365	9154.0615
145.64687	9144.9502
146.25723	9115.8584
146.8676	9111.8545
147.47797	9101.4219
148.08833	9058.5752
148.6987	9105.9805
149.30907	9101.083
149.91943	9063.8145
150.5298	9037.8672
151.14017	8919.3643
151.75053	8897.6035
152.3609	8962.5801
152.97127	8960.9238
153.58163	9013.9014
154.192	9039.623
154.80237	9016.6953
155.41273	8984.7373
156.0231	8804.2891
156.63347	8852.2725
157.24384	8916.0898
157.8542	8914.0801
158.46457	8867.29
159.07494	8863.5986
159.6853	8946.5518
160.29567	8905.1074
160.90604	8823.2207
161.5164	8790.5156
162.12677	8774.2129
162.73714	8789.6621
163.3475	8848.7354
163.95787	8788.8848
164.56824	8805.4189
165.1786	8670.7256
165.78897	8753.8721
166.39932	8663.3994
167.00969	8656.0605
167.62006	8669.5205
168.23042	8686.4434
168.84079	8677.1143
169.45116	8702.6738
170.06152	8727.2568
170.67189	8658.9375
171.28226	8607.3164
171.89262	8680.3809
172.50299	8749.168
173.11336	8680.209
173.72372	8694.4102
174.33409	8717.7178
174.94446	8452.2061
175.55482	8515.7402
176.16519	8571.6865
176.77556	8559.1895
177.38593	8552.584
177.99629	8506.6836
178.60666	8435.5547
179.21703	8418.6543
179.82739	8418.7295
180.43776	8504.2949
181.04813	8506.1416
181.65849	8442.3037
182.26886	8285.3516
182.87923	8347.291
183.48959	8310.8037
184.09996	8338.2715
184.71033	8313.2949
185.32069	8257.708
185.93106	8276.5
186.54143	8264.1689
187.15179	8224.9395
187.76216	8355.6123
188.37253	8276.7178
188.98289	8192.6201
189.59326	8192.0781
190.20363	8183.8828
190.814	8162.5605
191.42436	8207.6914
192.03471	8224.8691
192.64508	8165.1499
193.25545	8081.6719
193.86581	7997.0923
194.47618	7984.0586
195.08655	8114.5176
195.69691	8093.6626
196.30728	8051.2329
196.91765	8102.2031
197.52802	8104.9785
198.13838	7928.2539
198.74875	7956.6777
199.35912	7907.4932
199.96948	8004.8906
200.57985	7972.1035
201.19022	7952.5708
201.80058	7965.2466
202.41095	7893.7925
203.02132	7883.1978
203.63168	7809.3071
204.24205	7916.2246
204.85242	7784.0972
205.46278	7856.3037
206.07315	7752
206.68352	7758.6328
207.29388	7703.4844
207.90425	7681.1177
208.51462	7728.0283
209.12498	7744.3276
209.73535	7732.2578
210.34572	7725.2495
210.95609	7704.0039
211.56645	7685.1763
212.17682	7662.1895
212.78719	7652.8423
213.39755	7555.3379
214.00792	7636.9775
214.61829	7562.8662
215.22865	7530.2969
215.83902	7440.9795
216.44939	7506.519
217.05975	7536.7266
217.67012	7539.4063
218.28047	7497.166
218.89084	7425.9702
219.50121	7439.5942
220.11157	7422.6187
220.72194	7351.1426
221.33231	7450.6597
221.94267	7409.6704
222.55304	7367.0405
223.16341	7377.0068
223.77377	7270.7944
224.38414	7356.7842
224.99451	7377.8389
225.60487	7322.417
226.21524	7202.8115
226.82561	7173.4707
227.43597	7255.2695
228.04634	7292.3833
228.65671	7331.9341
229.26707	7318.7891
229.87744	7293.1245
230.48781	7149.0928
231.09818	7191.6138
231.70854	7128.0615
232.31891	7124.6558
232.92928	7116.5356
233.53964	7182.5488
234.15001	7176.8892
234.76038	7141.6138
235.37074	7157.6826
235.98111	7103.543
236.59148	6971.6279
237.20184	6973.8022
237.81221	7030.2788
238.42258	7114.2793
239.03294	7030.709
239.64331	7041.7183
240.25368	6940.4263
240.86404	6973.6021
241.47441	6875.0054
242.08478	6871.79
242.69514	6879.6772
243.30551	6920.0469
243.91586	6915.8589
244.52623	6896.2139
245.1366	6901.6641
245.74696	6862.5942
246.35733	6830.1118
246.9677	6789.6919
247.57806	6882.6318
248.18843	6808.4614
248.7988	6819.4443
249.40916	6827.0874
250.01953	6823.085
250.6299	6787.3877
251.24026	6848.8232
251.85063	6840.7041
252.461	6856.4961
253.07137	6844.3306
253.68173	6796.022
254.2921	6752.396
254.90247	6658.6406
255.51283	6630.7368
256.1232	6636.2925
256.73355	6693.5269
257.34393	6700.4932
257.95428	6764.5435
258.56467	6665.4951
259.17502	6661.9683
259.7854	6639.3765
260.39575	6559.8301
261.00613	6502.3711
261.61649	6530.915
262.22687	6579.3018
262.83722	6590.9902
263.4476	6586.2769
264.05795	6543.9502
264.66833	6478.7163
265.27869	6565.4067
265.88907	6503.5254
266.49942	6582.1113
267.1098	6609.2227
267.72015	6542.3989
268.33054	6500.8569
268.94089	6528.1138
269.55127	6607.605
270.16162	6571.4551
270.772	6553.5308
271.38235	6545.0342
271.99274	6506.2324
272.60309	6509.4165
273.21347	6509.1064
273.82382	6373.4512
274.4342	6276.5181
275.04456	6442.0596
275.65494	6472.938
276.26529	6441.7642
276.87567	6342.3882
277.48602	6391.3374
278.09641	6308.7793
278.70676	6484.8545
279.31714	6422.3022
279.92749	6371.5522
280.53787	6391.7222
281.14822	6411.5835
281.75861	6419.6255
282.36896	6381.1333
282.97931	6333.0791
283.58969	6385.6655
284.20004	6425.3291
284.81042	6433.9937
285.42078	6442.5381
286.03116	6265.3179
286.64151	6238.0586
287.25189	6359.1392
287.86224	6326.8628
288.47263	6398.2222
289.08298	6360.0151
289.69336	6334.459
290.30371	6338.6924
290.91409	6279.7383
291.52444	6234.6899
292.13483	6264.8706
292.74518	6287.3301
293.35556	6305.0767
293.96591	6331.7148
294.57629	6306.623
295.18665	6294.8682
295.79703	6414.9351
296.40738	6347.5947
297.01776	6314.7046
297.62811	6313.6846
298.23849	6280.981
298.84885	6315.1411
299.45923	6278.4102
300.06958	6382.6787
300.67996	6446.0029
301.29031	6364.6704
301.9007	6273.0645
302.51105	6265.5454
303.12143	6333.1943
303.73178	6361.5166
304.34216	6414.0088
304.95251	6363.0386
305.5629	6309.1479
306.17325	6220.7295
306.78363	6299.5854
307.39398	6279.8643
308.00436	6301.2993
308.61472	6269.8999
309.22507	6311.7998
309.83545	6371.5708
310.4458	6276.0664
311.05618	6216.167
311.66653	6251.1279
312.27692	6313.126
312.88727	6364.541
313.49765	6348.895
314.108	6361.8755
314.71838	6266.3042
315.32874	6307.6714
315.93912	6281.5039
316.54947	6165.3379
317.15985	6353.231
317.7702	6286.4028
318.38058	6323.9287
318.99094	6352.4346
319.60132	6312.0156
320.21167	6302.9824
320.82205	6279.5688
321.4324	6244.0537
322.04279	6305.5103
322.65314	6369.4102
323.26352	6301.521
323.87387	6265.3286
324.48425	6331.584
325.0946	6296.3628
325.70499	6397.7632
326.31534	6379.7622
326.92572	6218.7744
327.53607	6346.2188
328.14645	6399.5845
328.75681	6350.938
329.36719	6360.5088
329.97754	6421.1968
330.58792	6339.8862
331.19827	6326.2407
331.80865	6322.6255
332.41901	6279.3545
333.02939	6238.687
333.63974	6275.894
334.25012	6316.5552
334.86047	6264.5625
335.47083	6307.3784
336.08121	6340.3164
336.69156	6322.665
337.30194	6315.7817
337.91229	6342.2324
338.52267	6277.7827
339.13303	6291.7974
339.74341	6166.1377
340.35376	6314.5918
340.96414	6359.4927
341.57449	6356.9658
342.18488	6325.3169
342.79523	6241.2529
343.40561	6259.4287
344.01596	6273.7383
344.62634	6250.0894
345.23669	6322.1973
345.84708	6345.8081
346.45743	6242.877
347.06781	6266.8838
347.67816	6272.1382
348.28854	6199.5903
348.8989	6230.4985
349.50928	6265.665
350.11963	6194.6938
350.73001	6265.8589
351.34036	6169.7656
351.95074	6253.7153
352.5611	6214.8032
353.17148	6185.9878
353.78183	6175.5342
354.39221	6192.2803
355.00256	6240.7456
355.61295	6250.4629
356.2233	6233.4878
356.83368	6236.1753
357.44403	6191.8784
358.05441	6135.1489
358.66476	6187.4614
359.27515	6145.9575
359.8855	6183.3438
360.49585	6212.9336
361.10623	6198.5786
361.71658	6237.7383
362.32697	6168.7627
362.93732	6176.6699
363.5477	6100.4834
364.15805	6232.9326
364.76843	6219.0044
365.37878	6161.2393
365.98917	6160.5962
366.59952	6179.4375
367.2099	6140.9077
367.82025	6131.3174
368.43063	6180.3076
369.04099	6169.687
369.65137	6146.7705
370.26172	6149.291
370.8721	6051.6636
371.48245	6109.8799
372.09283	6158.2603
372.70319	6126.5195
373.31357	6246.8042
373.92392	6117.0186
374.5343	6224.6729
375.14465	6091.7983
375.75504	6067.1899
376.36539	6060.9028
376.97577	6071.2378
377.58612	6113.9932
378.1965	6184.7808
378.80685	6170.5845
379.41724	6121.6553
380.02759	6076.7886
380.63797	6088.9932
381.24832	6110.8838
381.8587	6013.125
382.46906	6001.1426
383.07944	6094.729
383.68979	6126.4214
384.30017	6118.6611
384.91052	6116.208
385.5209	6124.9209
386.13126	6062.7861
386.74161	6157.9976
387.35199	6085.291
387.96234	6129.3843
388.57272	6119.2471
389.18307	6080.3867
389.79346	6072.5796
390.40381	6077.2915
391.01419	6131.1294
391.62454	6062.0591
392.23492	6057.3901
392.84528	6110.748
393.45566	6137.8623
394.06601	6174.0181
394.67639	6106.9199
395.28674	6043.4858
395.89713	6019.6567
396.50748	6083.0469
397.11786	6182.4854
397.72821	6182.189
398.33859	6161.1138
398.94894	6110.4121
399.55933	6160.2266
400.16968	6039.145
400.78006	6125.7813
401.39041	6142.668
402.00079	6115.8555
402.61115	6139.8271
403.22153	6190.5566
403.83188	6172.6821
404.44226	6108.7471
405.05261	6114.6445
405.66299	6140.0327
406.27335	6157.689
406.88373	6225.5605
407.49408	6272.5137
408.10446	6229.3403
408.71481	6188.9268
409.3252	6176.6685
409.93555	6145.0962
410.54593	6183.8921
411.15628	6132.3623
411.76666	6246.1372
412.37701	6257.6558
412.98737	6205.0859
413.59775	6150.4531
414.2081	6200.0112
414.81848	6336.3267
415.42883	6238.8052
416.03922	6274.5767
416.64957	6270.3125
417.25995	6176.7642
417.8703	6146.0264
418.48068	6160.0781
419.09103	6286.2886
419.70142	6280.8628
420.31177	6228.5894
420.92215	6281.8091
421.5325	6270.9399
422.14288	6263.8643
422.75323	6285.9409
423.36362	6293.1665
423.97397	6278.0654
424.58435	6328.2358
425.1947	6375.272
425.80508	6358.7598
426.41544	6328.7524
427.02582	6445.4282
427.63617	6351.6094
428.24655	6249.6763
428.8569	6264.8105
429.46729	6310.1074
430.07764	6361.8472
430.68802	6286.8721
431.29837	6240.5913
431.90875	6358.1357
432.5191	6388.377
433.12949	6404.9478
433.73984	6424.1255
434.35022	6356.4155
434.96057	6391.6968
435.57095	6474.8774
436.1813	6375.5078
436.79169	6317.6255
437.40204	6416.4507
438.01242	6437.6157
438.62277	6430.5728
439.23312	6458.314
439.84351	6394.437
440.45386	6549.2246
441.06424	6365.5049
441.67459	6332.0439
442.28497	6328.208
442.89532	6329.147
443.50571	6439.9136
444.11606	6392.1802
444.72644	6412.6216
445.33679	6434.8125
445.94717	6448.1479
446.55753	6440.2632
447.16791	6456.0601
447.77826	6410.0923
448.38864	6487.3877
448.99899	6516.2666
449.60938	6526.4985
450.21973	6539.2466
450.83011	6500.9854
451.44046	6467.6792
452.05084	6442.3862
452.66119	6449.9287
453.27158	6498.2749
453.88193	6551.6367
454.49231	6550.8833
455.10266	6522.2573
455.71304	6546.542
456.32339	6549.5605
456.93378	6480.1094
457.54413	6495.8418
458.15451	6618.3779
458.76486	6641.3262
459.37524	6607.562
459.9856	6622.2793
460.59598	6540.4351
461.20633	6486.7827
461.81671	6553.8511
462.42706	6578.7026
463.03745	6595.2368
463.6478	6551.4893
464.25815	6507.5444
464.86853	6534.5928
465.47888	6587.8916
466.08926	6598.4175
466.69962	6635.4839
467.31	6682.5928
467.92035	6654.7744
468.53073	6615.7915
469.14108	6633.5938
469.75146	6645.4521
470.36182	6608.9761
470.9722	6610.1914
471.58255	6615.8193
472.19293	6746.8574
472.80328	6678.5669
473.41367	6747.8613
474.02402	6809.3867
474.6344	6528.8882
475.24475	6601.8247
475.85513	6645.2739
476.46548	6742.9419
477.07587	6793.9092
477.68622	6769.1465
478.2966	6793.1035
478.90695	6786.0132
479.51733	6709.3145
480.12769	6734.2925
480.73807	6672.5713
481.34842	6796.5952
481.9588	6889.4824
482.56915	6794.9985
483.17953	6725.8779
483.78989	6731.2881
484.40027	6811.2109
485.01062	6880.6182
485.621	6869.8027
486.23135	6880.4341
486.84174	6930.3853
487.45209	6886.5049
488.06247	6784.9404
488.67282	6868.6753
489.2832	6906.7046
489.89355	6905.3174
490.50391	6952.0103
491.11429	6943.165
491.72464	6961.5313
492.33502	6946.1729
492.94537	6965.1636
493.55576	6839.688
494.16611	6947.0913
494.77649	6985.0044
495.38684	6945.7085
495.99722	7005.8252
496.60757	7036.7173
497.21796	6984.3101
497.82831	7041.0181
498.43869	7017.6987
499.04904	7043.3887
499.65942	7023.3047
500.26978	7021.4624
500.88016	7083.2319
501.49051	7124.8564
502.10089	7018.103
502.71124	7063.0049
503.32162	7146.6514
503.93198	7175.8901
504.54236	7174.2373
505.15271	7155.8931
505.76309	7157.6855
506.37344	7183.6035
506.98383	7239.9351
507.59418	7177.1846
508.20456	7189.3999
508.81491	7259.2832
509.42529	7125.561
510.03564	7149.8188
510.64603	7308.9253
511.25638	7384.2852
511.86676	7237.8442
512.47711	7274.9297
513.08746	7229.1118
513.69788	7314.2031
514.30823	7342.2056
514.91858	7531.728
515.52893	7531.2563
516.13928	7334.4468
516.74969	7390.9976
517.36005	7586.7871
517.9704	7554.1919
518.58075	7597.8281
519.19116	7641.9316
519.80151	7565.2686
520.41187	7441.0483
521.02222	7505.3452
521.63263	7583.4668
522.24298	7625.7109
522.85333	7715.1987
523.46368	7823.8706
524.0741	7868.5713
524.68445	7902.0513
525.2948	7932.2847
525.90515	7934.5825
526.51556	7957.9248
527.12592	8017.7388
527.73627	8043.4419
528.34662	8081.2822
528.95703	8201.4775
529.56738	8231.0078
530.17773	8210.9033
530.78809	8267.6494
531.3985	8227.8467
532.00885	8365.9707
532.6192	8498.8428
533.22955	8550.1455
533.83997	8674.4756
534.45032	8662.2129
535.06067	8773.4111
535.67102	8878.6191
536.28143	8941.4336
536.89178	9073.8281
537.50214	9164.1631
538.11249	9348.4844
538.7229	9461.9014
539.33325	9613.6992
539.9436	9763.1387
540.55396	9907.0146
541.16437	10141.453
541.77472	10341.358
542.38507	10651.701
542.99542	10981.862
543.60577	11145.057
544.21619	11575.176
544.82654	11839.896
545.43689	12032.815
546.04724	12499.13
546.65765	12942.812
547.26801	13260.682
547.87836	13555.926
548.48871	13876.733
549.09912	14234.692
549.70947	14450.929
550.31982	14643.67
550.93018	15156.358
551.54059	15676.915
552.15094	16105.34
552.76129	16550.303
553.37164	16912.961
553.98206	17281.748
554.59241	17543.291
555.20276	17748.852
555.81311	18088.787
556.42352	18411.74
557.03387	18728.49
557.64423	18933.74
558.25458	19161.174
558.86499	19331.252
559.47534	19550.545
560.08569	19735.613
560.69604	20158.111
561.30646	20205.164
561.91681	20499.324
562.52716	20626.949
563.13751	20507.803
563.74792	20858.053
564.35828	20808.996
564.96863	20596.332
565.57898	20849.313
566.18939	21116.355
566.79974	21077.84
567.4101	21243.734
568.02045	20982.123
568.6308	21035.535
569.24121	21185.301
569.85156	21150.809
570.46191	21192.781
571.07227	21059.711
571.68268	21182.193
572.29303	21071.518
572.90338	21121.553
573.51373	20899.352
574.12415	20805.74
574.7345	20935.326
575.34485	20906.32
575.9552	20927.664
576.56561	20713.5
577.17596	20656.166
577.78632	20506.23
578.39667	20345.197
579.00708	20546.377
579.61743	20502.947
580.22778	20381.387
580.83813	20416.748
581.44855	20316.051
582.0589	20109.74
582.66925	19960.855
583.2796	19897.111
583.89001	19928.299
584.50037	20058.928
585.11072	20110.48
585.72107	19930.42
586.33148	19783.891
586.94183	19600.309
587.55219	19483.527
588.16254	19435.559
588.77295	19382.586
589.3833	19312.082
589.99365	19236.705
590.604	19108.682
591.21442	18989.09
591.82477	18815.477
592.43512	18723.443
593.04547	18648.563
593.65588	18747.219
594.26624	18617.424
594.87659	18489.539
595.48694	18387.732
596.09729	18155.719
596.7077	17819.238
597.31805	17845.633
597.92841	17784.18
598.53876	17725.357
599.14917	17460.277
599.75952	17390.398
600.36987	17149.949
600.98022	16911.865
601.59064	16844.545
602.20099	16686.766
602.81134	16674.689
603.42169	16559.221
604.0321	16412.115
604.64246	16194.036
605.25281	16161.07
605.86316	15911.363
606.47357	15725.183
607.08392	15525.067
607.69427	15451.007
608.30463	15192.278
608.91504	15240.313
609.52539	15094.629
610.13574	14792.433
610.74609	14737.78
611.35651	14440.97
611.96686	14491.898
612.57721	14399.604
613.18756	14234.644
613.79797	14067.003
614.40833	13877.897
615.01868	13762.795
615.62903	13538.486
616.23944	13467.271
616.84979	13387.425
617.46014	13240.212
618.0705	13168.379
618.68091	12986.898
619.29126	12857.319
619.90161	12642.325
620.51196	12535.792
621.12231	12426.497
621.73273	12290.745
622.34308	12285.256
622.95343	12184.29
623.56378	12014.8
624.17419	11823.868
624.78455	11693.224
625.3949	11659.514
626.00525	11507.604
626.61566	11406.363
627.22601	11344.939
627.83636	11201.044
628.44672	11049.608
629.05713	10879.142
629.66748	10751.604
630.27783	10620.319
630.88818	10618.486
631.4986	10594.513
632.10895	10500.49
632.7193	10272.89
633.32965	10177.954
633.94006	10079.716
634.55042	9877.7666
635.16077	9881.7598
635.77112	9742.5625
636.38153	9611.1582
636.99188	9512.7715
637.60223	9460.707
638.21259	9302.1436
638.823	9214.8877
639.43335	9096.915
640.0437	8906.5791
640.65405	8901.832
641.26447	8867.5352
641.87482	8781.8721
642.48517	8590.0205
643.09552	8495.8438
643.70593	8389.6191
644.31628	8312.0889
644.92664	8272.5195
645.53699	8200.4453
646.14734	8108.0112
646.75775	7992.5288
647.3681	7883.397
647.97845	7819.3174
648.58881	7683.5479
649.19922	7583.9814
649.80957	7546.4829
650.41992	7506.7188
651.03027	7450.2148
651.64069	7283.6177
652.25104	7153.103
652.86139	7100.5659
653.47174	7054.2866
654.08215	6964.8452
654.6925	6912.5313
655.30286	6855.4448
655.91321	6738.7847
656.52362	6756.1377
657.13397	6612.4517
657.74432	6573.0869
658.35468	6488.3115
658.96509	6402.7207
659.57544	6298.0566
660.18579	6231.5576
660.79614	6140.3564
661.40656	6157.8804
662.01691	6055.3052
662.62726	5980.126
663.23761	5945.9951
663.84802	5867.9814
664.45837	5874.7217
665.06873	5879.771
665.67908	5735.6538
666.28949	5687.7373
666.89984	5620.8789
667.51019	5543.4507
668.12054	5513.8926
668.73096	5435.4551
669.34131	5434.3032
669.95166	5332.5449
670.56201	5319.6865
671.17242	5225.0518
671.78278	5141.3481
672.39313	5153.7886
673.00348	5116.0591
673.61383	5085.437
674.22424	5040.0171
674.83459	5031.3843
675.44495	4945.8599
676.0553	4884.6694
676.66571	4852.7676
677.27606	4818.6494
677.88641	4755.5215
678.49677	4719.5347
679.10718	4733.3096
679.71753	4649.9341
680.32788	4568.8623
680.93823	4597.0156
681.54865	4522.8462
682.159	4468.769
682.76935	4521.1616
683.3797	4446.021
683.99011	4382.8364
684.60046	4361.9829
685.21082	4265.5425
685.82117	4212.2329
686.43158	4234.1104
687.04193	4157.437
687.65228	4137.9634
688.26263	4088.2305
688.87305	4084.6946
689.4834	4034.9797
690.09375	4007.3245
690.7041	3993.9448
691.31451	3979.1101
691.92487	3980.2729
692.53522	3928.3777
693.14557	3860.9907
693.75598	3865.6707
694.36633	3784.8721
694.97668	3742.2478
695.58704	3788.7773
696.19745	3757.4641
696.8078	3713.3816
697.41815	3663.5156
698.0285	3655.644
698.63885	3631.3918
699.24927	3677.239
699.85962	3508.3467
700.46997	3482.1589
701.08032	3605.1497
701.69073	3514.176
702.30109	3570.9429
702.91144	3505.0869
703.52179	3468.4829
704.1322	3409.8811
704.74255	3377.95
705.35291	3394.1057
705.96326	3419.623
706.57367	3394.2063
707.18402	3366.6038
707.79437	3361.6931
708.40472	3334.657
709.01514	3282.6812
709.62549	3251.2009
710.23584	3271.1443
710.84619	3280.7222
711.4566	3335.3064
712.06696	3243.7949
712.67731	3198.3284
713.28766	3170.6211
713.89807	3194.4067
714.50842	3164.1741
715.11877	3204.7729
715.72913	3196.8845
716.33954	3186.0251
716.94989	3138.0703
717.56024	3112.9729
718.17059	3124.3542
718.78101	3116.7229
719.39136	3061.96
720.00171	3068.6921
720.61206	3083.9709
721.22247	3094.8865
721.83282	3081.8774
722.44318	3080.0925
723.05353	3027.3262
723.66388	3040.2986
724.27429	3059.7983
724.88464	3000.5166
725.495	3035.7363
726.10535	3065.8015
726.71576	2984.1853
727.32611	2947.1238
727.93646	3004.8035
728.54681	3022.9702
729.15723	3019.6543
729.76758	3032.5405
730.37793	3030.2366
730.98828	3035.3625
731.59869	3026.1431
732.20905	3028.1021
732.8194	3004.3525
733.42975	3012.1729
734.04016	3035.7427
734.65051	3027.3867
735.26086	3007.4297
735.87122	3016.7341
736.48163	3008.0886
737.09198	3012.8779
737.70233	2987.9419
738.31268	2963.5742
738.9231	3029.7949
739.53345	3028.3508
740.1438	3014.3403
740.75415	3033.3018
741.36456	3058.0195
741.97491	3004.6497
742.58527	3022.9446
743.19562	3061.7021
743.80603	3075.6414
744.41638	3069.9932
745.02673	3039.5017
745.63708	3021.8604
746.2475	3095.311
746.85785	3090.499
747.4682	3043.6987
748.07855	3059.2632
748.68896	3008.0054
749.29932	3088.5525
749.90967	3127.2046
750.52002	3146.2402
751.13037	3102.3103
751.74078	3125.063
752.35114	3134.3523
752.96149	3129.5823
753.57184	3117.0188
754.18225	3130.0964
754.7926	3049.3279
755.40295	3135.2722
756.01331	3151.7266
756.62372	3191.2368
757.23407	3182.906
757.84442	3124.2722
758.45477	3157.8096
759.06519	3177.5598
759.67554	3204.1221
760.28589	3192.071
760.89624	3232.0938
761.50665	3217.5073
762.117	3255.6194
762.72736	3214.1143
763.33771	3152.77
763.94812	3170.5784
764.55847	3150.8088
765.16882	3288.1147
765.77917	3194.2642
766.38959	3187.104
766.99994	3194.0264
767.61029	3196.9001
768.22064	3218.342
768.83105	3156.7681
769.44141	3175.1963
770.05176	3274.678
770.66211	3227.2542
771.27252	3173.3044
771.88287	3182.396
772.49323	3232.3882
773.10358	3214.74
773.71399	3295.0718
774.32434	3161.3325
774.93469	3160.9434
775.54504	3256.5918
776.1554	3231.1941
776.76581	3159.47
777.37616	3171.7156
777.98651	3136.5288
778.59686	3135.9739
779.20728	3118.7383
779.81763	3112.9861
780.42798	3159.0059
781.03833	3088.584
781.64874	3089.144
782.25909	3036.1528
782.86945	3058.4395
783.4798	3013.0208
784.09021	2993.3701
784.70056	3010.6323
785.31091	2974.9985
785.92126	3041.2136
786.53168	3008.2612
787.14203	2949.7993
787.75238	3002.6487
788.36273	2885.2856
788.97314	2917.2292
789.5835	2846.3171
790.19385	2863.324
790.8042	2894.8003
791.41461	2851.499
792.02496	2870.7778
792.63531	2768.3152
793.24567	2762.0212
793.85608	2797.783
794.46643	2706.6362
795.07678	2708.437
795.68713	2662.7529
796.29755	2741.6667
796.9079	2635.2688
797.51825	2627.9526
798.1286	2626.2874
798.73901	2582.9978
799.34937	2511.5605
799.95972	2415.1641
800.57007	2511.1301
801.18048	2441.0693
801.79083	2402.7446
802.40118	2351.3135
803.01154	2375.1902
803.62189	2367.438
804.2323	2332.5378
804.84265	2300.54
805.453	2264.4709
806.06335	2239.6179
806.67377	2287.8196
807.28412	2210.8379
807.89447	2207.4858
808.50482	2124.0044
809.11523	2086.1809
809.72559	2093.564
810.33594	2136.9478
810.94629	2075.5796
811.5567	2023.5597
812.16705	1976.4308
812.7774	2017.9783
813.38776	1951.2637
813.99817	1967.5571
814.60852	1929.844
815.21887	1923.1158
815.82922	1911.7166
816.43964	1917.0702
817.04999	1893.1909
817.66034	1845.3041
818.27069	1859.6311
818.8811	1849.0427
819.49146	1847.2985
820.10181	1830.9703
820.71216	1809.3204
821.32257	1820.3723
821.93292	1806.3538
822.54327	1781.025
823.15363	1763.8534
823.76404	1807.5769
824.37439	1780.6937
824.98474	1783.0977
825.59509	1776.219
826.20551	1750.4926
826.81586	1736.635
827.42621	1766.2731
828.03656	1758.6989
828.64691	1761.8801
829.25732	1739.5077
829.86768	1766.2183
830.47803	1773.4436
831.08838	1727.1677
831.69879	1742.9698
832.30914	1732.6832
832.91949	1713.7272
833.52985	1758.6589
834.14026	1769.6504
834.75061	1740.8716
835.36096	1749.8048
835.97131	1766.1416
836.58173	1796.3759
837.19208	1759.3293
837.80243	1768.0557
838.41278	1810.2869
839.02319	1773.9084
839.63354	1785.197
840.2439	1752.1431
840.85425	1765.9325
841.46466	1784.8678
842.07501	1774.4613
842.68536	1769.684
843.29572	1773.6885
843.90613	1799.6962
844.51648	1797.9874
845.12683	1799.5425
845.73718	1809.6945
846.3476	1850.6903
846.95795	1858.9351
847.5683	1825.2264
848.17865	1821.9292
848.78906	1841.7789
849.39941	1860.1381
850.00977	1846.3086
850.62012	1812.1937
851.23053	1848.6771
851.84088	1889.9526
852.45123	1914.5885
853.06158	1902.0023
853.67194	1877.0079
854.28235	1867.8978
854.8927	1900.1339
855.50305	1889.4774
856.1134	1915.2379
856.72382	1931.1281
857.33417	1852.0688
857.94452	1858.6992
858.55487	1911.9752
859.16528	1923.2534
859.77563	1885.3403
860.38599	1895.8857
860.99634	1912.0394
861.60675	1913.3246
862.2171	1922.6941
862.82745	1936.0933
863.43781	1958.1586
864.04822	1940.6404
864.65857	1909.9802
865.26892	1883.6036
865.87927	1929.7079
866.48969	1972.597
867.10004	1992.5026
867.71039	1930.0481
868.32074	1930.0695
868.93115	1931.8685
869.5415	1943.644
870.15186	2022.3069
870.76221	1968.1251
871.37262	2033.9689
871.98297	1938.9037
872.59332	1973.8361
873.20367	1990.8843
873.81409	1936.5643
874.42444	2034.9922
875.03479	2012.9658
875.64514	2030.6273
876.25555	2032.5043
876.86591	2039.6136
877.47626	2052.3645
878.08661	2071.1938
878.69702	2050.8201
879.30737	2065.0037
879.91772	2074.0134
880.52808	2107.6992
881.13843	2121.9727
881.74884	2133.937
882.35919	2139.9521
882.96954	2134.8796
883.5799	2143.2498
884.19031	2124.4976
884.80066	2110.6516
885.41101	2167.0532
886.02136	2195.0208
886.63177	2210.429
887.24213	2167.8875
887.85248	2184.0818
888.46283	2228.7102
889.07324	2245.2739
889.68359	2241.6089
890.29395	2280.9058
890.9043	2285.8679
891.51471	2281.5117
892.12506	2302.4607
892.73541	2299.4392
893.34576	2294.5813
893.95618	2342.5698
894.56653	2372.2979
895.17688	2409.188
895.78723	2456.6055
896.39764	2473.1274
897.008	2470.5732
897.61835	2416.2961
898.2287	2500.344
898.83911	2486.678
899.44946	2495.8008
900.05981	2537.3557
900.67017	2539.4622
901.28058	2555.3687
901.89093	2616.6741
902.50128	2631.6113
903.11163	2701.5237
903.72205	2659.3298
904.3324	2708.8594
904.94275	2736.1318
905.5531	2688.9641
906.16345	2802.1487
906.77386	2785.6438
907.38422	2803.6863
907.99457	2853.8066
908.60492	2894.4878
909.21533	2892.9963
909.82568	2978.7354
910.43604	3033.5049
911.04639	3044.7874
911.6568	3072.7798
912.26715	3099.4146
912.8775	3185.9675
913.48785	3276.186
914.09827	3294.7864
914.70862	3312.2058
915.31897	3355.5913
915.92932	3407.4866
916.53973	3491.1926
917.15009	3532.728
917.76044	3633.1274
918.37079	3628.8816
918.9812	3717.7825
919.59155	3797.0557
920.2019	3824.0376
920.81226	3946.9761
921.42267	4029.2896
922.03302	4084.5391
922.64337	4184.021
923.25372	4248.5381
923.86414	4258.3896
924.47449	4344.5781
925.08484	4373.7339
925.69519	4487.8232
926.3056	4610.7065
926.91595	4671.4307
927.52631	4749.8271
928.13666	4818.0186
928.74707	4921.5708
929.35742	5067.2329
929.96777	5176.7192
930.57813	5213.7441
931.18848	5257.144
931.79889	5441.4272
932.40924	5478.6641
933.01959	5472.7915
933.62994	5565.1309
934.24036	5700.0054
934.85071	5671.5044
935.46106	5748.937
936.07141	5841.9629
936.68182	6024.1665
937.29218	6033.6475
937.90253	6056.9438
938.51288	6078.0273
939.12329	6070.1152
939.73364	6233.5991
940.34399	6257.4966
940.95435	6404.207
941.56476	6400.9907
942.17511	6393.8398
942.78546	6380.7021
943.39581	6423.5205
944.00623	6380.54
944.61658	6441.1797
945.22693	6485.3516
945.83728	6551.5566
946.44769	6512.2817
947.05804	6486.1104
947.6684	6412.6611
948.27875	6366.7412
948.88916	6406.8979
949.49951	6428.1489
950.10986	6450.27
950.72021	6357.2021
951.33063	6309.5688
951.94098	6192.5283
952.55133	6154.7402
953.16168	6134.77
953.77209	6076.7368
954.38245	5995.0581
954.9928	5976.1392
955.60315	5980.9956
956.21356	5899.5229
956.82391	5784.2065
957.43427	5693.8594
958.04462	5696.1035
958.65497	5614.6167
959.26538	5483.7793
959.87573	5417.4136
960.48608	5430.9165
961.09644	5305.8813
961.70685	5263.168
962.3172	5170.1567
962.92755	5014.5386
963.5379	5072.6514
964.14832	4993.2305
964.75867	4970.9888
965.36902	4884.3408
965.97937	4803.1895
966.58978	4695.7988
967.20013	4706.5869
967.81049	4680.4648
968.42084	4623.7466
969.03125	4617.2085
969.6416	4552.9707
970.25195	4474.7412
970.8623	4428.2085
971.47272	4459.5811
972.08307	4439.376
972.69342	4356.0229
973.30377	4284.1108
973.91418	4291.4331
974.52454	4262.9888
975.13489	4271.0293
975.74524	4226.6021
976.35565	4258.9185
976.966	4201.3604
977.57635	4190.7021
978.18671	4238.248
978.79712	4175.1333
979.40747	4250.4067
980.01782	4292.0796
980.62817	4127.6235
981.23859	4175.3662
981.84894	4136.5864
982.45929	4156.8052
983.06964	4217.603
983.67999	4113.0601
984.29041	4247.8164
984.90076	4240.4097
985.51111	4209.4116
986.12146	4274.7305
986.73187	4273.1162
987.34222	4308.1699
987.95258	4321.5938
988.56293	4308.5728
989.17334	4293.3281
989.78369	4370.1968
990.39404	4384.2339
991.00439	4354.1455
991.61481	4411.5835
992.22516	4496.8604
992.83551	4566.9819
993.44586	4517.4526
994.05627	4568.6338
994.66663	4624.6211
995.27698	4538.6108
995.88733	4698.2319
996.49774	4615.481
997.10809	4702.5391
997.71844	4769.4263
998.3288	4890.4868
998.93921	4729.4229
999.54956	4842.5044
1000.1599	4786.2651
1000.7703	4891.9746
1001.3807	4970.5205
1001.991	5028.2388
1002.6014	5068.1396
1003.2117	5091.1821
1003.8221	5131.7505
1004.4325	5169.3428
1005.0428	5177.7856
1005.6532	5258.0884
1006.2636	5364.6162
1006.874	5354.5601
1007.4843	5412.2065
1008.0947	5408.2241
1008.7051	5452.3115
1009.3154	5543.2861
1009.9258	5526.4429
1010.5361	5631.3926
1011.1465	5692.335
1011.7569	5641.4351
1012.3672	5739.1792
1012.9776	5761.2622
1013.588	5778.8916
1014.1984	5777.1016
1014.8087	5924.8379
1015.4191	5896.3057
1016.0294	6028.4272
1016.6398	6103.1758
1017.2502	6027.5386
1017.8605	6024.7485
1018.4709	6144.0879
1019.0813	6180.2739
1019.6917	6168.7891
1020.302	6264.7803
1020.9124	6350.7632
1021.5228	6388.3154
1022.1331	6475.0552
1022.7435	6499.4526
1023.3538	6518.8721
1023.9642	6587.9419
1024.5746	6614.6509
1025.1849	6720.8447
1025.7953	6729.8813
1026.4056	6821.812
1027.016	6873.1523
1027.6265	6895.7358
1028.2368	7019.9443
1028.8472	7157.3042
1029.4575	7115.3218
1030.0679	7151.9688
1030.6782	7192.3774
1031.2886	7252.2749
1031.8989	7347.6646
1032.5094	7364.3271
1033.1198	7430.397
1033.7301	7585.5566
1034.3405	7626.9995
1034.9508	7739.1733
1035.5612	7797.2861
1036.1715	7837.1099
1036.7819	7859.7676
1037.3922	8033.0059
1038.0027	8063.4316
1038.613	8104.9219
1039.2234	8343.7061
1039.8337	8367.5352
1040.4441	8483.5361
1041.0544	8565.0771
1041.6648	8515.0957
1042.2751	8658.6465
1042.8856	8562.1084
1043.496	8859.7598
1044.1063	9114.7744
1044.7167	9068.4629
1045.327	9228.9258
1045.9374	9224.123
1046.5477	9359.6777
1047.1581	9409.4248
1047.7686	9571.3652
1048.3789	9693.3281
1048.9893	9704.623
1049.5996	9735.7832
1050.21	9914.7979
1050.8203	10024.841
1051.4307	10192.807
1052.041	10311.661
1052.6515	10433.147
1053.2618	10577.26
1053.8722	10780.57
1054.4825	10864.568
1055.0929	10923.863
1055.7032	11018.736
1056.3136	11227.493
1056.924	11346.289
1057.5344	11471.751
1058.1448	11692.491
1058.7551	11986.14
1059.3655	11964.234
1059.9758	12070.406
1060.5862	12301.166
1061.1965	12438.032
1061.8069	12627.251
1062.4172	12849.674
1063.0277	13006.565
1063.6381	13058.222
1064.2484	13205.203
1064.8588	13422.147
1065.4691	13593.552
1066.0795	13712.482
1066.6898	13883.548
1067.3002	14165.646
1067.9106	14396.592
1068.521	14530.175
1069.1313	14745.876
1069.7417	14756.365
1070.3521	15036.039
1070.9624	15246.544
1071.5728	15461.664
1072.1831	15763.678
1072.7936	15900.995
1073.4039	16097.898
1074.0143	16209.315
1074.6246	16436.576
1075.235	16703.135
1075.8453	16874.068
1076.4557	17160.58
1077.066	17406.141
1077.6765	17555.467
1078.2869	17766.549
1078.8972	17935.504
1079.5076	18137.553
1080.1179	18351.566
1080.7283	18743.119
1081.3386	19124.328
1081.949	19214.35
1082.5594	19503.041
1083.1698	19546.361
1083.7802	19769.283
1084.3905	19891.006
1085.0009	20334.449
1085.6112	20659.367
1086.2216	20939.359
1086.8319	21018.621
1087.4423	21194.359
1088.0527	21422.73
1088.6631	21494.508
1089.2734	21763.049
1089.8838	22057.807
1090.4941	22260.139
1091.1045	22405.994
1091.7148	22674.156
1092.3252	22811.072
1092.9357	22899.912
1093.546	22927.783
1094.1564	23248.242
1094.7667	23345.611
1095.3771	23862.65
1095.9874	23857.988
1096.5978	23922.738
1097.2081	23926.072
1097.8186	23806.289
1098.429	23881.588
1099.0393	23863.525
1099.6497	24091.006
1100.26	24323.275
1100.8704	24386.789
1101.4807	24122.27
1102.0911	23851.754
1102.7015	23907.166
1103.3119	23918.615
1103.9222	23872.07
1104.5326	23885.057
1105.1429	23906.25
1105.7533	23859.889
1106.3636	23560.531
1106.974	23344.195
1107.5845	23125.328
1108.1948	23016.246
1108.8052	22716.371
1109.4155	22718.408
1110.0259	22513.939
1110.6362	22303.428
1111.2466	22085.754
1111.8569	21676.416
1112.4674	21396.055
1113.0778	21121.365
1113.6881	20992.27
1114.2985	20849.736
1114.9088	20591.967
1115.5192	20191.605
1116.1295	19811.729
1116.7399	19476.174
1117.3502	19159.869
1117.9607	19079.473
1118.571	18878.182
1119.1814	18582.129
1119.7917	17988.965
1120.4021	17713.135
1121.0125	17496.59
1121.6228	17126.908
1122.2332	16717.973
1122.8436	16469.021
1123.454	16267.598
1124.0643	15977.507
1124.6747	15666.145
1125.285	15431.547
1125.8954	15053.346
1126.5057	14665.098
1127.1161	14416.862
1127.7266	14193.325
1128.3369	13981.36
1128.9473	13692.867
1129.5576	13339.712
1130.168	13029.391
1130.7783	12635.242
1131.3887	12419.498
1131.999	12252.057
1132.6095	12206.59
1133.2198	11850.119
1133.8302	11530.504
1134.4406	11303.401
1135.0509	11020.362
1135.6613	10714.458
1136.2716	10655.878
1136.882	10324.773
1137.4924	10184.07
1138.1028	9979.6436
1138.7131	9822.4854
1139.3235	9496.7227
1139.9338	9259.8535
1140.5442	9076.0527
1141.1545	8870.3721
1141.7649	8694.0498
1142.3752	8561.1904
1142.9857	8383.6318
1143.5961	8119.6421
1144.2064	7919.0898
1144.8168	7713.9653
1145.4271	7596.6357
1146.0375	7469.8242
1146.6478	7293.9604
1147.2582	7197.6465
1147.8687	7027.3042
1148.479	6884.9482
1149.0894	6659.7744
1149.6997	6497.0508
1150.3101	6394.9688
1150.9204	6172.4316
1151.5308	6100.8516
1152.1411	5950.1851
1152.7516	5801.604
1153.3619	5635.814
1153.9723	5499.7642
1154.5826	5379.4541
1155.193	5205.2212
1155.8033	5215.8267
1156.4137	5099.3076
1157.024	4909.8789
1157.6345	4839.8931
1158.2449	4662.5415
1158.8552	4639.8301
1159.4656	4553.8779
1160.0759	4346
1160.6863	4323.3208
1161.2966	4206.522
1161.907	4142.4194
1162.5175	4005.3679
1163.1278	3888.9998
1163.7382	3877.8682
1164.3485	3771.0313
1164.9589	3721.7964
1165.5692	3677.4788
1166.1796	3599.6492
1166.7899	3503.8206
1167.4003	3422.9375
1168.0107	3308.5908
1168.6211	3228.1387
1169.2314	3182.1062
1169.8418	3149.3389
1170.4521	3085.6436
1171.0625	3012.8945
1171.6729	2945.1785
1172.2832	2933.6174
1172.8937	2857.6086
1173.504	2775.2903
1174.1144	2777.3965
1174.7247	2670.5422
1175.3351	2626.7117
1175.9454	2623.9111
1176.5558	2559.9099
1177.1661	2507.0286
1177.7766	2524.4705
1178.387	2477.376
1178.9973	2426.9856
1179.6077	2367.2241
1180.218	2349.0513
1180.8284	2318.1008
1181.4387	2252.1887
1182.0491	2272.1414
1182.6595	2207.1443
1183.2699	2209.5635
1183.8802	2164.334
1184.4906	2098.0793
1185.101	2082.3821
1185.7113	2078.8652
1186.3217	2039.5497
1186.932	2047.0238
1187.5425	2039.7548
1188.1528	2015.0768
1188.7632	1990.2478
1189.3735	1986.9175
1189.9839	1969.6719
1190.5942	1922.4163
1191.2046	1902.4192
1191.8149	1839.7102
1192.4253	1865.0015
1193.0358	1892.0002
1193.6461	1830.3636
1194.2565	1870.1367
1194.8668	1778.9575
1195.4772	1794.8055
1196.0875	1815.9758
1196.6979	1789.9567
1197.3082	1776.1979
1197.9187	1760.2753
1198.5291	1745.6304
1199.1394	1758.973
1199.7498	1746.3289
1200.3601	1749.1217
1200.9705	1712.5256
1201.5808	1683.5845
1202.1912	1704.0834
1202.8016	1683.7224
1203.412	1666.1748
1204.0223	1674.4551
1204.6327	1644.0782
1205.243	1680.8042
1205.8534	1653.3231
1206.4637	1594.636
1207.0741	1656.8577
1207.6846	1596.9469
1208.2949	1577.5929
1208.9053	1610.094
1209.5156	1567.1829
1210.126	1585.5822
1210.7363	1575.5341
1211.3467	1592.0898
1211.957	1586.5627
1212.5675	1605.2412
1213.1779	1593.1506
1213.7882	1558.4263
1214.3986	1570.9346
1215.0089	1552.855
1215.6193	1549.7058
1216.2296	1513.6506
1216.84	1517.4458
1217.4503	1550.0149
1218.0608	1572.084
1218.6711	1572.579
1219.2815	1532.9023
1219.8918	1544.504
1220.5022	1532.6503
1221.1125	1512.4296
1221.7229	1487.3458
1222.3333	1512.5818
1222.9437	1518.871
1223.5541	1508.7063
1224.1644	1526.7836
1224.7748	1493.0388
1225.3851	1486.7423
1225.9955	1458.0688
1226.6058	1516.3337
1227.2162	1554.2539
1227.8267	1505.8624
1228.437	1474.9578
1229.0474	1479.9536
1229.6577	1514.7012
1230.2681	1495.3848
1230.8784	1477.0353
1231.4888	1474.4359
1232.0991	1444.7369
1232.7096	1464.5219
1233.3199	1506.9327
1233.9303	1496.2838
1234.5406	1473.6198
1235.151	1458.7924
1235.7614	1442.8018
1236.3717	1462.5441
1236.9821	1436.4878
1237.5925	1440.9186
1238.2029	1443.3672
1238.8132	1445.5472
1239.4236	1468.6165
1240.0339	1464.0762
1240.6443	1488.3708
1241.2546	1427.6156
1241.865	1434.7036
1242.4753	1460.2747
1243.0858	1453.5734
1243.6962	1435.8496
1244.3065	1447.5018
1244.9169	1444.0999
1245.5272	1429.3129
1246.1376	1428.3821
1246.7479	1468.2593
1247.3583	1432.6207
1247.9688	1421.7289
1248.5791	1432.3558
1249.1895	1421.9041
1249.7998	1442.783
1250.4102	1442.9808
1251.0205	1463.4457
1251.6309	1462.5685
1252.2412	1448.634
1252.8517	1429.1506
1253.462	1404.1554
1254.0724	1448.7368
1254.6827	1442.3964
1255.2931	1434.3698
1255.9034	1462.3101
1256.5138	1416.8551
1257.1241	1437.7813
1257.7346	1443.3062
1258.345	1410.0981
1258.9553	1437.0649
1259.5657	1432.6306
1260.176	1390.6277
1260.7864	1447.5582
1261.3967	1443.6323
1262.0071	1430.0088
1262.6176	1416.3856
1263.2279	1405.3652
1263.8383	1430.9343
1264.4486	1390.9542
1265.059	1391.965
1265.6693	1447.7991
1266.2797	1434.7041
1266.89	1393.6506
1267.5005	1433.5287
1268.1108	1442.1082
1268.7212	1411.6775
1269.3315	1405.828
1269.9419	1434.9495
1270.5522	1419.0632
1271.1626	1413.7887
1271.7729	1373.9031
1272.3833	1411.5895
1272.9938	1412.7695
1273.6041	1422.6542
1274.2145	1439.3798
1274.8248	1412.61
1275.4352	1408.1515
1276.0455	1398.9012
1276.6559	1351.943
1277.2662	1377.8159
1277.8767	1370.6427
1278.4871	1374.0459
1279.0974	1398.6238
1279.7078	1388.6256
1280.3181	1409.3855
1280.9285	1441.9059
1281.5388	1386.2584
1282.1492	1352.2897
1282.7596	1380.9329
1283.37	1404.8237
1283.9803	1376.3245
1284.5907	1395.0948
1285.201	1370.8145
1285.8114	1412.5828
1286.4218	1380.2889
1287.0321	1389.6609
1287.6426	1393.4086
1288.2529	1360.0406
1288.8633	1350.2068
1289.4736	1357.123
1290.084	1374.3025
1290.6943	1369.2744
1291.3047	1400.1862
1291.915	1374.4932
1292.5255	1384.4174
1293.1359	1388.5232
1293.7462	1409.7151
1294.3566	1427.3174
1294.9669	1402.3694
1295.5773	1394.197
1296.1876	1391.8473
1296.798	1390.6769
1297.4083	1404.5952
1298.0188	1403.1278
1298.6292	1401.8728
1299.2395	1398.8571
1299.8499	1386.9741
1300.4602	1366.3613
1301.0706	1387.0508
1301.6809	1382.4608
1302.2913	1394.0767
1302.9017	1360.0408
1303.5121	1378.7654
1304.1224	1400.6669
1304.7328	1341.9673
1305.3431	1427.8401
1305.9535	1387.6257
1306.5638	1381.3179
1307.1742	1405.666
1307.7847	1377.5151
1308.395	1348.7742
1309.0054	1374.6582
1309.6157	1378.2382
1310.2261	1370.8521
1310.8364	1385.6605
1311.4468	1416.7738
1312.0571	1379.5215
1312.6676	1390.6631
1313.278	1373.2452
1313.8883	1375.4756
1314.4987	1352.3505
1315.109	1352.7177
1315.7194	1401.0179
1316.3297	1398.6547
1316.9401	1387.9001
1317.5505	1379.0642
1318.1609	1372.8398
1318.7712	1362.6094
1319.3816	1392.4698
1319.9919	1403.4398
1320.6023	1355.2334
1321.2126	1363.9889
1321.823	1390.0051
1322.4333	1375.2981
1323.0438	1391.7339
1323.6542	1375.5303
1324.2645	1360.3074
1324.8749	1368.5446
1325.4852	1397.4279
1326.0956	1386.2158
1326.7059	1412.7195
1327.3163	1390.2887
1327.9268	1346.115
1328.5371	1402.9065
1329.1475	1376.1274
1329.7578	1376.7623
1330.3682	1394.3065
1330.9785	1408.1951
1331.5889	1412.5997
1332.1992	1350.8812
1332.8097	1393.952
1333.42	1355.2797
1334.0304	1397.0388
1334.6407	1374.6364
1335.2511	1343.7921
1335.8615	1364.1737
1336.4718	1373.5061
1337.0822	1381.7274
1337.6926	1377.2306
1338.303	1360.1292
1338.9133	1390.4863
1339.5237	1386.3822
1340.134	1419.4564
1340.7444	1417.7131
1341.3547	1398.7595
1341.9651	1395.4786
1342.5756	1378.6251
1343.1859	1348.8617
1343.7963	1363.2341
1344.4066	1376.4177
1345.017	1392.8232
1345.6273	1367.5271
1346.2377	1357.7551
1346.848	1391.5109
1347.4584	1370.3472
1348.0688	1390.5582
1348.6792	1385.6343
1349.2896	1389.7104
1349.8999	1348.6221
1350.5103	1417.786
1351.1206	1404.391
1351.731	1368.8146
1352.3413	1362.564
1352.9518	1385.4675
1353.5621	1401.4894
1354.1725	1406.2108
1354.7828	1414.6379
1355.3932	1409.0861
1356.0035	1408.0181
1356.6139	1420.0922
1357.2242	1402.8231
1357.8347	1433.6128
1358.4451	1401.3413
1359.0554	1372.9321
1359.6658	1393.7526
1360.2761	1385.3757
1360.8865	1379.7847
1361.4968	1397.3813
1362.1072	1438.4835
1362.7177	1420.9655
1363.328	1421.8196
1363.9384	1380.3269
1364.5487	1397.947
1365.1591	1347.6206
1365.7694	1378.1136
1366.3798	1376.6163
1366.9901	1377.3821
1367.6006	1365.2102
1368.2109	1360.1179
1368.8213	1372.8317
1369.4316	1396.15
1370.042	1397.1938
1370.6523	1370.9979
1371.2627	1333.4529
1371.873	1373.434
1372.4834	1385.0804
1373.0939	1390.6511
1373.7042	1373.6027
1374.3146	1353.9031
1374.9249	1376.8518
1375.5353	1382.5305
1376.1456	1340.3966
1376.756	1330.4286
1377.3663	1347.8179
1377.9768	1369.5338
1378.5872	1372.3821
1379.1975	1334.1975
1379.8079	1380.3506
1380.4182	1348.666
1381.0286	1338.7079
1381.6389	1343.6099
1382.2493	1356.0646
1382.8597	1369.1372
1383.4701	1358.8926
1384.0804	1357.7427
1384.6908	1352.1549
1385.3011	1368.6321
1385.9115	1340.425
1386.5219	1357.9309
1387.1322	1352.4901
1387.7427	1342.5171
1388.353	1332.7679
1388.9634	1348.8306
1389.5737	1357.0803
1390.1841	1343.3031
1390.7944	1329.8798
1391.4048	1345.1923
1392.0151	1397.4481
1392.6256	1332.0072
1393.236	1374.8883
1393.8463	1330.7522
1394.4567	1349.9663
1395.067	1353.9661
1395.6774	1376.8597
1396.2877	1350.0514
1396.8981	1360.6847
1397.5085	1358.3357
1398.1189	1340.386
1398.7292	1342.6859
1399.3396	1364.7654
1399.95	1320.5613
1400.5603	1332.5309
1401.1707	1302.0859
1401.781	1327.3601
1402.3914	1353.7594
1403.0018	1346.5011
1403.6122	1356.0549
1404.2225	1353.3893
1404.8329	1357.4979
1405.4432	1338.1649
1406.0536	1385.095
1406.6639	1355.4476
1407.2743	1355.1135
1407.8848	1353.6941
1408.4951	1365.2924
1409.1055	1356.5321
1409.7158	1373.3826
1410.3262	1352.05
1410.9365	1350.8723
1411.5469	1317.3311
1412.1572	1323.632
1412.7677	1335.3369
1413.3781	1374.5967
1413.9884	1344.656
1414.5988	1327.6821
1415.2091	1320.8405
1415.8195	1346.5153
1416.4298	1364.1967
1417.0402	1376.0685
1417.6506	1343.8075
1418.261	1361.6709
1418.8713	1353.324
1419.4817	1370.8823
1420.092	1354.8397
1420.7024	1363.4948
1421.3127	1322.9834
1421.9231	1317.7748
1422.5336	1328.8458
1423.1439	1312.0334
1423.7543	1332.6537
1424.3646	1353.8368
1424.975	1354.6497
1425.5853	1371.0009
1426.1957	1325.1671
1426.806	1367.0874
1427.4164	1343.5559
1428.0269	1353.7449
1428.6372	1363.2155
1429.2476	1360.9612
1429.8579	1377.6309
1430.4683	1372.6632
1431.0786	1351.3257
1431.689	1312.6195
1432.2993	1334.7686
1432.9098	1369.6954
1433.5201	1363.7007
1434.1305	1349.6517
1434.7408	1353.0858
1435.3512	1339.5236
1435.9615	1362.2832
1436.5719	1344.8113
1437.1823	1362.4746
1437.7927	1387.7222
1438.4031	1338.1859
1439.0134	1390.7415
1439.6238	1377.8356
1440.2341	1367.6158
1440.8445	1341.8173
1441.4548	1363.7847
1442.0652	1360.0757
1442.6757	1379.7726
1443.286	1358.9319
1443.8964	1361.2375
1444.5067	1337.5963
1445.1171	1386.3162
1445.7274	1379.7432
1446.3378	1357.1222
1446.9481	1356.4231
1447.5586	1394.155
1448.1689	1413.3475
1448.7793	1378.2589
1449.3896	1357.2014
1450	1338.1643
