300.02197	113.01807
300.6178	111.64849
301.21362	154.33322
301.80942	153.9509
302.40524	149.22414
303.00107	146.00233
303.59689	144.48885
304.19269	152.85631
304.78851	162.12791
305.38434	157.92987
305.98016	170.93474
306.57599	155.88866
307.17178	167.3098
307.76761	204.3196
308.36343	202.45973
308.95926	197.63347
309.55505	209.8652
310.15088	207.13203
310.7467	201.16632
311.34253	218.6024
311.93832	242.78827
312.53415	254.43196
313.12997	238.8537
313.7258	249.8252
314.32162	255.40788
314.91742	281.12646
315.51324	288.10376
316.10907	274.15515
316.7049	284.20297
317.30069	303.65964
317.89651	323.60452
318.49234	345.7562
319.08817	339.54443
319.68399	334.53595
320.27979	354.63794
320.87561	397.18634
321.47144	408.16724
322.06726	400.57849
322.66306	468.84006
323.25888	512.84015
323.85471	514.43188
324.45053	487.80264
325.04633	464.51385
325.64215	480.29449
326.23798	510.26074
326.8338	531.72803
327.42963	552.89264
328.02542	582.19525
328.62125	600.06323
329.21707	609.44
329.8129	659.5213
330.40869	693.88275
331.00452	709.31842
331.60034	728.96741
332.19617	766.47681
332.79199	815.31036
333.38779	844.81384
333.98361	885.40625
334.57944	906.01624
335.17526	898.68549
335.77106	948.65802
336.36688	976.17804
336.96271	1027.0757
337.55853	1075.5035
338.15436	1111.3734
338.75015	1148.202
339.34598	1189.5144
339.9418	1226.6338
340.53763	1264.6754
341.13342	1328.4423
341.72925	1374.637
342.32507	1389.3018
342.9209	1486.4709
343.51669	1556.5679
344.11252	1579.0222
344.70834	1658.5167
345.30417	1726.9603
345.89999	1781.8289
346.49579	1854.8026
347.09161	1904.6605
347.68744	1964.3252
348.28326	2021.7727
348.87906	2088.9656
349.47488	2105.4819
350.07071	2206.6758
350.66653	2249.469
351.26236	2386.8416
351.85815	2483.7769
352.45398	2542.9946
353.0498	2606.8582
353.64563	2661.2612
354.24142	2733.3337
354.83725	2870.4839
355.43307	2945.7021
356.0289	3093.9841
356.62469	3105.8516
357.22052	3234.6165
357.81635	3316.1228
358.41217	3418.1379
359.008	3525.8293
359.60379	3628.6694
360.19962	3731.0381
360.79544	3822.0146
361.39127	3918.3025
361.98706	4069.823
362.58289	4211.6138
363.17871	4178.8701
363.77454	4296.8086
364.37036	4536.1851
364.96616	4667.5562
365.56198	4832.5859
366.15781	4931.0493
366.75363	5080.1211
367.34943	5217.395
367.94525	5310.3188
368.54108	5393.7334
369.1369	5492.9883
369.73273	5680.5171
370.32852	5903.687
370.92435	6065.1172
371.52017	6197.0078
372.116	6367.6323
372.71179	6478.3682
373.30762	6637.6113
373.90344	6772.5903
374.49927	6971.8325
375.09506	7191.2041
375.69089	7355.9561
376.28671	7499.4058
376.88254	7649.8677
377.47836	7793.3926
378.07416	8059.2578
378.66998	8173.9097
379.26581	8363.0967
379.86163	8533.7666
380.45743	8730.9004
381.05325	8832.3867
381.64908	9022.2461
382.2449	9182.3438
382.84073	9351.4395
383.43652	9593.0596
384.03235	9829.7354
384.62817	10017.43
385.224	10174.947
385.81979	10315.797
386.41562	10470.93
387.01144	10719.473
387.60727	10924.162
388.20306	11218.187
388.79889	11460.046
389.39471	11664.036
389.99054	11738.291
390.58636	11914.072
391.18216	12150.605
391.77798	12286.379
392.37381	12527.071
392.96964	12860.74
393.56543	13062.127
394.16125	13235.758
394.75708	13372.013
395.35291	13623.343
395.94873	13750.649
396.54453	13931.613
397.14035	14219.137
397.73618	14484.408
398.332	14658.017
398.9278	14818.467
399.52362	15013.565
400.11945	15173.515
400.71527	15323.738
401.3111	15647.598
401.90689	15851.574
402.50272	16099.612
403.09854	16315.016
403.69437	16587.959
404.29016	16693.273
404.88599	16853.604
405.48181	17063.254
406.07764	17296.602
406.67343	17532.338
407.26926	17743.855
407.86508	17935.57
408.46091	18108.813
409.05673	18234.922
409.65253	18410.322
410.24835	18519.129
410.84418	18865.906
411.44	19058.869
412.0358	19265.43
412.63162	19451.727
413.22745	19610.855
413.82327	19711.82
414.4191	19821.227
415.01489	20067.686
415.61072	20315.064
416.20654	20431.043
416.80237	20664.553
417.39816	20874.984
417.99399	20917.947
418.58981	20933.299
419.18564	21189.686
419.78143	21292.951
420.37726	21523.174
420.97308	21813.365
421.56891	21996.195
422.16473	22105.74
422.76053	22211.822
423.35635	22333.631
423.95218	22427.4
424.548	22526.055
425.1438	22747.502
425.73962	22878.666
426.33545	22959.986
426.93127	23393.91
427.5271	23368.27
428.12289	23346.932
428.71872	23569.258
429.31454	23621.568
429.91037	23705.35
430.50616	23895.682
431.10199	24072.596
431.69781	24217.016
432.29364	24353.65
432.88947	24397.789
433.48526	24391.967
434.08109	24615.77
434.67691	24754.535
435.27274	24696.49
435.86853	24982.939
436.46436	25192.523
437.06018	25055.596
437.65601	25287.115
438.2518	25382.09
438.84763	25459.309
439.44345	25626.52
440.03928	25748.211
440.6351	25828.213
441.2309	25940.609
441.82672	25998.693
442.42255	26049.42
443.01837	26184.264
443.61417	26227.324
444.20999	26410.232
444.80582	26489.83
445.40164	26915.959
445.99747	26871.676
446.59326	26762.387
447.18909	26901.176
447.78491	26876.805
448.38074	26905.031
448.97653	27077.963
449.57236	27219.443
450.16818	27363.416
450.76401	27413.412
451.3598	27382.344
451.95563	27436.711
452.55145	27690.246
453.14728	27809.861
453.7431	27605.537
454.3389	28134.025
454.93472	28311.104
455.53055	28214.342
456.12637	28251.398
456.72217	28253.828
457.31799	28277.531
457.91382	28434.504
458.50964	28611.457
459.10547	28724.031
459.70126	28822.699
460.29709	28994.875
460.89291	29002.24
461.48874	28840.758
462.08453	29351.428
462.68036	29323.732
463.27618	29707.273
463.87201	29759.686
464.46783	29945.559
465.06363	30043.482
465.65945	29881.49
466.25528	30062.223
466.8511	30337.525
467.4469	30472.5
468.04272	30751.34
468.63855	30830.996
469.23438	31045.404
469.83017	31075.578
470.42599	30956.166
471.02182	31100.396
471.61765	31406.877
472.21347	31541.975
472.80927	31888.654
473.40509	32060.254
474.00092	32058.609
474.59674	32117.834
475.19254	32095.688
475.78836	32151.391
476.38419	32296.701
476.98001	32452.557
477.57584	32770.27
478.17163	32851.68
478.76746	32564.807
479.36328	32538.523
479.95911	32592.602
480.5549	32775.91
481.15073	32834.652
481.74655	33076.973
482.34238	33254.629
482.93817	33208.551
483.534	33182.816
484.12982	33230.652
484.72565	33136.961
485.32147	33081.66
485.91727	33236.297
486.51309	33264.344
487.10892	33100.145
487.70474	33191.664
488.30054	33115.816
488.89636	33040.492
489.49219	32815.277
490.08801	32874.344
490.68384	32895.797
491.27963	33016.063
491.87546	32908.246
492.47128	32854.945
493.06711	32697.074
493.6629	32438.199
494.25873	32280.379
494.85455	32273.98
495.45038	32180.553
496.0462	32048.486
496.642	32021.248
497.23782	31734.225
497.83365	31554.326
498.42947	31329.439
499.02527	30871.072
499.62109	30819.324
500.21692	30947.096
500.81274	30820.68
501.40854	30541.184
502.00436	30079.5
502.60019	29917.525
503.19601	29565.215
503.79184	29397.129
504.38763	29218.688
504.98346	29075.859
505.57928	28985.809
506.17511	28681.787
506.7709	28413.203
507.36673	27927.805
507.96255	27604.604
508.55838	27500.967
509.15421	27162.955
509.75	27162.725
510.34583	26911.244
510.94165	26732.207
511.53748	26232.83
512.1333	25914.67
512.72913	25736.654
513.32489	25452.76
513.92072	25269.271
514.51654	25181.189
515.11237	24971.826
515.70819	24700.01
516.30402	24373.25
516.89984	23959.502
517.49567	23860.848
518.09149	23592.867
518.68726	23495.266
519.28308	23297.189
519.87891	23207.336
520.47473	22967.945
521.07056	22586.75
521.66638	22396.842
522.26221	22171.574
522.85803	21928.738
523.45386	21857.023
524.04962	21855.426
524.64545	21765.742
525.24127	21512.02
525.8371	21299.646
526.43292	21136.828
527.02875	20857.232
527.62457	20774.365
528.2204	20683.201
528.81622	20594.023
529.41199	20611.494
530.00781	20326.438
530.60364	20206.283
531.19946	20011.963
531.79529	19920.066
532.39111	19879.76
532.98694	19961.34
533.58276	19999.484
534.17859	19722.318
534.77435	19669.682
535.37018	19625.658
535.966	19518.625
536.56183	19397.693
537.15765	19322.998
537.75348	19483.014
538.3493	19404.256
538.94513	19403.461
539.54089	19272.098
540.13672	19240.451
540.73254	19041.006
541.32837	19193.801
541.92419	19106.762
542.52002	19313.938
543.11584	19271.982
543.71167	19292.463
544.3075	19172.641
544.90326	19165.867
545.49908	19235.514
546.09491	19310.016
546.69073	19325.404
547.28656	19362.41
547.88239	19441.662
548.47821	19431.998
549.07404	19364.99
549.66986	19291.9
550.26563	19429.133
550.86145	19520.814
551.45728	19640.295
552.0531	19777.254
552.64893	19943.861
553.24475	19965.447
553.84058	20000.119
554.4364	20026.895
555.03223	20097.426
555.62799	20085.506
556.22382	20231.197
556.81964	20517.227
557.41547	20621.127
558.01129	20676.361
558.60712	20840.965
559.20294	20905.59
559.79877	20894.316
560.39459	21115.434
560.99036	21431.965
561.58618	21494.58
562.18201	21804.592
562.77783	21894.215
563.37366	22017.184
563.96948	22023.121
564.56531	21937.139
565.16113	22058.514
565.75696	22339.93
566.35272	22407.598
566.94855	22422.4
567.54437	22555.969
568.1402	22511.063
568.73602	22442.891
569.33185	22416.5
569.92767	22475.023
570.5235	22556.258
571.11926	22583.229
571.71509	22666.26
572.31091	22637.238
572.90674	22471.314
573.50256	22450.451
574.09839	22269.867
574.69421	22286.883
575.29004	22196.445
575.88586	22189.762
576.48163	22107.846
577.07745	21905.58
577.67328	21760.857
578.2691	21659.689
578.86493	21493.6
579.46075	21450.041
580.05658	21340.178
580.6524	21204.342
581.24823	20926.318
581.84399	20683.164
582.43982	20577.932
583.03564	20447.939
583.63147	20289.127
584.22729	20109.238
584.82312	19948.104
585.41895	19774.225
586.01477	19560.621
586.6106	19434.904
587.20636	19083.965
587.80219	18911.313
588.39801	18827.822
588.99384	18778.309
589.58966	18492.316
590.18549	18428.6
590.78131	18282.756
591.37714	17919.094
591.97296	17741.93
592.56873	17612.615
593.16455	17304.639
593.76038	17223.574
594.3562	17261.896
594.95203	17142.395
595.54785	16934.553
596.14368	16665.727
596.7395	16400.842
597.33533	16208.087
597.93109	16131.487
598.52692	16045.04
599.12274	15914.631
599.71857	15710.592
600.31439	15577.99
600.91022	15588.252
601.50604	15290.587
602.10187	15258.833
602.69763	15216.713
603.29346	15134.408
603.88928	14850.332
604.48511	14849.87
605.08093	14674.133
605.67676	14507.366
606.27258	14230.229
606.86841	14036.752
607.46423	14055.069
608.06	14110.583
608.65582	14082.411
609.25165	13951.629
609.84747	13813.354
610.4433	13720.533
611.03912	13578.564
611.63495	13457.988
612.23077	13475.344
612.8266	13392.428
613.42236	13362.397
614.01819	13265.744
614.61401	13087.539
615.20984	13080.177
615.80566	12912.159
616.40149	12867.739
616.99731	12851.582
617.59314	12758.793
618.18896	12783.153
618.78473	12740.332
619.38055	12575.588
619.97638	12510.504
620.5722	12449.178
621.16803	12320.41
621.76385	12302.054
622.35968	12339.293
622.95551	12256.111
623.55133	12138.062
624.14709	12044.31
624.74292	11932.46
625.33875	11824.261
625.93457	11799.509
626.5304	11746.697
627.12622	11761.519
627.72205	11684.187
628.31787	11702.36
628.9137	11638.036
629.50946	11525.109
630.10529	11432.458
630.70111	11441.974
631.29694	11371.823
631.89276	11341.123
632.48859	11308.239
633.08441	11140.697
633.68024	11071.729
634.276	11004.236
634.87183	10933.029
635.46765	10885.499
636.06348	10898.687
636.6593	10858.174
637.25513	10664.547
637.85095	10589.92
638.44678	10656.896
639.0426	10591.499
639.63837	10558.772
640.23419	10475.499
640.83002	10311.817
641.42584	10355.379
642.02167	10326.005
642.61749	10355.203
643.21332	10125.438
643.80914	10014.53
644.40497	10074.771
645.00073	10148.28
645.59656	10090.9
646.19238	10058.951
646.78821	9972.9102
647.38403	9960.5215
647.97986	9857.6875
648.57568	9821.9209
649.17151	9838.5166
649.76733	9802.1982
650.3631	9737.7217
650.95892	9755.7168
651.55475	9705.2324
652.15057	9595.5557
652.7464	9559.0605
653.34222	9478.8672
653.93805	9429.7734
654.53387	9461.0928
655.1297	9578.9111
655.72546	9444.6875
656.32129	9391.5859
656.91711	9314.3818
657.51294	9326.2666
658.10876	9333.6484
658.70459	9257.3086
659.30042	9342.542
659.89624	9380.1924
660.49207	9425.2178
661.08783	9363.7734
661.68365	9243.0029
662.27948	9275.0713
662.87531	9140.7842
663.47113	9163.5625
664.06696	9309.7236
664.66278	9320.1211
665.25861	9260.9766
665.85437	9215.79
666.4502	9177.2529
667.04602	9188.2822
667.64185	9240.3154
668.23767	9203.9111
668.8335	9152.0566
669.42932	9243.25
670.02515	9318.8164
670.62097	9313.5977
671.21674	9300.9414
671.81256	9166.8682
672.40839	9302.8857
673.00421	9285.1182
673.60004	9319.5791
674.19586	9262.4316
674.79169	9346.8135
675.38751	9339.5156
675.98334	9262.4795
676.5791	9203.2305
677.17493	9242.7803
677.77075	9355.2559
678.36658	9441.792
678.9624	9449.6895
679.55823	9441.9688
680.15405	9367.6455
680.74988	9455.5342
681.3457	9385.2305
681.94147	9412.3018
682.53729	9447.2383
683.13312	9473.9355
683.72894	9466.4893
684.32477	9462.2129
684.92059	9458.0342
685.51642	9404.6045
686.11224	9421.8496
686.70807	9504.5732
687.30383	9514.4551
687.89966	9506.3086
688.49548	9507.4189
689.09131	9515.1582
689.68713	9486.8584
690.28296	9500.7344
690.87878	9584.0098
691.47461	9535.7939
692.07043	9540.6338
692.6662	9664.5498
693.26202	9556.3545
693.85785	9509.5166
694.45367	9485.7764
695.0495	9555.2471
695.64532	9434.9902
696.24115	9519.5576
696.83698	9552.1836
697.43274	9561.8223
698.02856	9517.4951
698.62439	9620.7275
699.22021	9529.2412
699.81604	9497.5967
700.41187	9511.0674
701.00769	9531.1416
701.60352	9549.2822
702.19934	9570.7012
702.7951	9538.2715
703.39093	9526.3926
703.98676	9527.4053
704.58258	9547.0107
705.17841	9538.3242
705.77423	9462.623
706.37006	9450.4355
706.96588	9499.5664
707.56171	9542.1396
708.15747	9475.3896
708.7533	9352.6357
709.34912	9401.8486
709.94495	9481.0352
710.54077	9432.7793
711.1366	9493.207
711.73242	9557.7012
712.32825	9395.999
712.92407	9386.4102
713.51984	9466.832
714.11566	9237.541
714.71149	9467.2314
715.30731	9445.3828
715.90314	9455.79
716.49896	9446.3623
717.09479	9458.7979
717.69061	9374.749
718.28644	9311.5117
718.8822	9264.8867
719.47803	9309.9951
720.07385	9324.9502
720.66968	9382.7275
721.2655	9401.832
721.86133	9368.2822
722.45715	9336.4814
723.05298	9308.7949
723.6488	9262.9639
724.24457	9246.3623
724.84039	9193.874
725.43622	9186.2568
726.03204	9220.9209
726.62787	9199.7715
727.22369	9140.3643
727.81952	9077.9248
728.41534	9092.5107
729.01111	9105.083
729.60693	9071.7021
730.20276	9141.2607
730.79858	9155.0977
731.39441	9031.1123
731.99023	9079.1885
732.58606	8965.7969
733.18188	8961.5732
733.77771	9017.4668
734.37347	9083.0635
734.9693	9051.9795
735.56512	8910.7559
736.16095	8867.0518
736.75677	8926.7617
737.3526	8893.416
737.94843	8891.6182
738.54425	8744.3545
739.14008	8856.3779
739.73584	8852.2227
740.33167	8782.999
740.92749	8792.7764
741.52332	8716.6592
742.11914	8747.0967
742.71497	8674.3506
743.31079	8710.8535
743.90662	8768.7041
744.50244	8803.1279
745.09821	8759.7949
745.69403	8661.4199
746.28986	8612.5518
746.88568	8522.2344
747.48151	8569.4541
748.07733	8577.6963
748.67316	8535.1885
749.26898	8502.4229
749.86481	8497.79
750.46057	8454.7617
751.0564	8388.0645
751.65222	8407.1514
752.24805	8421.9453
752.84387	8402.4736
753.4397	8388.0596
754.03552	8367.3506
754.63135	8343.54
755.22717	8273.042
755.82294	8205.2471
756.41876	8164.6982
757.01459	8243.1514
757.61041	8269.0127
758.20624	8287.9668
758.80206	8199.5879
759.39789	8183.1558
759.99371	8163.4492
760.58948	8086.478
761.1853	8144.1904
761.78113	8163.6509
762.37695	8125.6177
762.97278	8066.7964
763.5686	7986.085
764.16443	8009.1089
764.76025	8001.2529
765.35608	7974.6099
765.95184	7906.7393
766.54767	7833.7319
767.14349	7831.7397
767.73932	7803.0688
768.33514	7884.8364
768.93097	7865.6392
769.52679	7767.5186
770.12262	7654.2559
770.71844	7692.7881
771.31421	7733.417
771.91003	7686.668
772.50586	7705.9609
773.10168	7570.0605
773.69751	7550.1787
774.29333	7489.5532
774.88916	7384.2446
775.48499	7441.3965
776.08081	7477.7017
776.67657	7436.9761
777.2724	7413.4478
777.86823	7436.0522
778.46405	7419.3735
779.05988	7333.6055
779.6557	7214.2925
780.25153	7234.6309
780.84735	7247.2817
781.44318	7168.0688
782.03894	7148.1997
782.63477	7071.5747
783.23059	7025.5591
783.82642	7033.0615
784.42224	6981.4819
785.01807	6963.2617
785.61389	6940.002
786.20972	6951.5146
786.80554	6829.6304
787.40131	6754.2217
787.99713	6767.8882
788.59296	6713.9102
789.18878	6641.5645
789.78461	6639.6895
790.38043	6695.5288
790.97626	6671.4331
791.57208	6594.3037
792.16785	6557.9883
792.76367	6516.96
793.3595	6421.5322
793.95532	6369.0547
794.55115	6406.6914
795.14697	6433.2666
795.7428	6342.9063
796.33862	6220.3257
796.93445	6233.0483
797.53021	6207.3931
798.12604	6107.9478
798.72186	6099.3638
799.31769	6144.3682
799.91351	6095.9238
800.50934	6075.3584
801.10516	6016.1084
801.70099	5880.3716
802.29681	5791.3262
802.89258	5766.5981
803.4884	5814.3472
804.08423	5824.4673
804.68005	5781.4238
805.27588	5691.5728
805.8717	5686.6836
806.46753	5672.6475
807.06335	5609.1006
807.65918	5485.3677
808.25494	5486.7358
808.85077	5580.5684
809.44659	5505.3975
810.04242	5540.8389
810.63824	5444.2197
811.23407	5363.2217
811.8299	5324.3555
812.42572	5286.207
813.02155	5305.5898
813.61731	5312.6963
814.21313	5329.5981
814.80896	5293.6411
815.40479	5234.5503
816.00061	5228.061
816.59644	5184.0811
817.19226	5111.4028
817.78809	5158.7432
818.38391	5177.8057
818.97968	5119.4053
819.5755	5135.6265
820.17133	5147.6738
820.76715	5069.4204
821.36298	5006.854
821.9588	5044.2964
822.55463	5081.9385
823.15045	5091.6938
823.74622	5069.0117
824.34204	5066.0952
824.93787	5083.3682
825.53369	5035.7837
826.12952	4990.0425
826.72534	4980.6968
827.32117	5008.8174
827.91699	5041.4648
828.51282	5073.7334
829.10858	5054.9937
829.70441	4956.3076
830.30023	4956.3784
830.89606	4992.9482
831.49188	4976.2603
832.08771	5015.7222
832.68353	5010.0547
833.27936	5001.7979
833.87518	4978.3462
834.47095	5002.8662
835.06677	4991.0137
835.6626	4968.9771
836.25842	4962.7871
836.85425	5021.8164
837.45007	5055.1377
838.0459	5006.1504
838.64172	5048.7656
839.23755	5028.793
839.83331	5012.9429
840.42914	5005.5093
841.02496	4997.3071
841.62079	4992.9678
842.21661	5015.1772
842.81244	4989.4048
843.40826	4990.0005
844.00409	5076.5581
844.59991	4994.5649
845.19568	4979.8682
845.7915	5053.6719
846.38733	4991.6821
846.98315	4994.1719
847.57898	5034.9854
848.1748	5048.0913
848.77063	5101.8994
849.36646	5040.9863
849.96228	5041.0356
850.55804	5012.7954
851.15387	5091.9531
851.74969	5019.6328
852.34552	5078.2793
852.94135	5034.3467
853.53717	4979.2827
854.133	5026.8022
854.72882	5073.6807
855.32458	5076.0449
855.92041	5124.1494
856.51624	5158.1812
857.11206	5089.7979
857.70789	5151.7983
858.30371	5182.4346
858.89954	5130.3462
859.49536	5126.6934
860.09119	5141.9614
860.68695	5124.2734
861.28278	5144.7563
861.8786	5154.356
862.47443	5112.6792
863.07025	5066.5142
863.66608	5141.1343
864.2619	5146.623
864.85773	5198.8931
865.45355	5197.9751
866.04932	5219.4814
866.64514	5186.272
867.24097	5189.6367
867.83679	5202.145
868.43262	5203.5044
869.02844	5224.6987
869.62427	5236.5522
870.22009	5268.3135
870.81592	5216.9771
871.41168	5225.979
872.00751	5150.7188
872.60333	5240.627
873.19916	5198.9614
873.79498	5286.25
874.39081	5258.96
874.98663	5279.1631
875.58246	5295.0894
876.17828	5239.4561
876.77405	5300.6255
877.36987	5306.0913
877.9657	5300.8794
878.56152	5377.668
879.15735	5344.0659
879.75317	5427.9839
880.349	5397.4497
880.94482	5399.1196
881.54065	5371.1147
882.13641	5311.3564
882.73224	5360.3652
883.32806	5390.3911
883.92389	5416.0132
884.51971	5450.1196
885.11554	5456.3989
885.71136	5489.0347
886.30719	5493.6299
886.90295	5456.9072
887.49878	5491.7393
888.0946	5521.8403
888.69043	5546.8848
889.28625	5474.8403
889.88208	5558.8745
890.47791	5598.46
891.07373	5572.3223
891.66956	5620.2681
892.26532	5606.4546
892.86115	5627.0322
893.45697	5661.9312
894.0528	5637.9297
894.64862	5666.0972
895.24445	5705.2334
895.84027	5735.894
896.4361	5758.5923
897.03192	5789.0132
897.62769	5735.7402
898.22351	5797.6665
898.81934	5805.4692
899.41516	5793.3613
900.01099	5807.5454
900.60681	5853.2446
901.20264	5903.0986
901.79846	5927.8657
902.39429	5940.2563
902.99005	6005.9819
903.58588	5953.2334
904.1817	5983.644
904.77753	6067.3066
905.37335	6019.6411
905.96918	6001.5791
906.565	6087.1167
907.16083	6194.23
907.75665	6196.5449
908.35242	6218.7959
908.94824	6237.8076
909.54407	6238.6382
910.13989	6281.6655
910.73572	6401.6226
911.33154	6372.3242
911.92737	6401.4312
912.52319	6480.5332
913.11902	6544.5576
913.71478	6509.0688
914.31061	6551.3872
914.90643	6573.271
915.50226	6658.1768
916.09808	6703.2725
916.69391	6693.4619
917.28973	6809.8662
917.88556	6836.4341
918.48132	6893.2642
919.07715	6875.1064
919.67297	6869.6548
920.2688	6911.2529
920.86462	6954.3569
921.46045	7042.728
922.05627	7128.3042
922.6521	7166.1416
923.24792	7191.2949
923.84369	7236.3428
924.43951	7269.4438
925.03534	7342.687
925.63116	7384.9272
926.22699	7447.625
926.82281	7545.772
927.41864	7428.3545
928.01447	7668.5415
928.61029	7579.5371
929.20605	7650.3525
929.80188	7514.7007
930.39771	7834.2017
930.99353	7884.8364
931.58936	7936.1563
932.18518	7908.811
932.78101	7907.1279
933.37683	8015.9355
933.97266	8088.2251
934.56842	8259.0928
935.16425	8206.6162
935.76007	8264.7002
936.3559	8410.5
936.95172	8408.5596
937.54755	8471.043
938.14337	8487.9697
938.7392	8558.8672
939.33502	8576.4248
939.93079	8628.6338
940.52661	8787.2822
941.12244	8828.8799
941.71826	8803.6572
942.31409	8866.8701
942.90991	8811.8203
943.50574	8974.5537
944.10156	9083.2549
944.69739	8964.1025
945.29315	9208.7578
945.88898	9284.1826
946.4848	9199.627
947.08063	9265.1797
947.67645	9345.9199
948.27228	9479.7354
948.8681	9583.666
949.46393	9573.8955
950.05969	9700.0928
950.65552	9589.707
951.25134	9603.7539
951.84717	9661.3438
952.44299	9766.3906
953.03882	9843.8936
953.63464	9857.0664
954.23047	9926.04
954.82629	10053.134
955.42206	10171.435
956.01788	10076.376
956.61371	10151.951
957.20953	10096.685
957.80536	10265.026
958.40118	10325.956
958.99701	10322.144
959.59283	10390.297
960.18866	10403.719
960.78442	10536.713
961.38025	10455.935
961.97607	10506.513
962.5719	10573.333
963.16772	10619.311
963.76355	10744.738
964.35938	10742.984
964.9552	10839.497
965.55103	10887.433
966.14679	10924.979
966.74261	10906.42
967.33844	10916.513
967.93427	11082.66
968.53009	11162.401
969.12592	11100.811
969.72174	11156.007
970.31757	11128.186
970.91339	11131.269
971.50916	11136.507
972.10498	11213.863
972.70081	11310.043
973.29663	11464.348
973.89246	11415.639
974.48828	11439.812
975.08411	11307.313
975.67993	11469.942
976.27576	11430.354
976.87152	11567.653
977.46735	11612.973
978.06317	11664.911
978.659	11680.891
979.25482	11684.264
979.85065	11735.257
980.44647	11715.9
981.0423	11658.882
981.63806	11742.577
982.23389	11827.535
982.82971	11857.995
983.42554	11790.036
984.02136	11912.552
984.61719	11924.917
985.21301	11983.888
985.80884	12034.915
986.40466	12108.627
987.00043	12103.344
987.59625	12187.104
988.19208	12293.01
988.7879	12229.624
989.38373	12116.591
989.97955	12027.126
990.57538	12342.063
991.1712	12329.746
991.76703	12340.604
992.36279	12426.016
992.95862	12424.006
993.55444	12458.598
994.15027	12422.458
994.74609	12425.08
995.34192	12476.161
995.93774	12555.099
996.53357	12679.024
997.12939	12769.701
997.72516	12750.314
998.32098	12682.859
998.91681	12625.914
999.51263	12667.486
1000.1085	12678.172
1000.7043	12714.202
1001.3001	12901.805
1001.8959	12874.963
1002.4918	12821.583
1003.0875	12849.104
1003.6833	12731.281
1004.2792	12877.301
1004.875	12969.362
1005.4708	13045.426
1006.0667	13122.668
1006.6625	12973.979
1007.2583	12946.984
1007.8541	13106.058
1008.4499	13106.358
1009.0457	13069.596
1009.6415	12999.811
1010.2374	13199.573
1010.8332	13144.987
1011.429	13185.404
1012.0248	13173.611
1012.6207	13198.414
1013.2164	13356.025
1013.8123	13111.164
1014.4081	13221.629
1015.0039	13272.138
1015.5997	13343.913
1016.1956	13321.521
1016.7914	13409.753
1017.3872	13354.203
1017.983	13349.691
1018.5788	13323.637
1019.1746	13286.159
1019.7704	13465.608
1020.3663	13478.438
1020.9621	13449.358
1021.5579	13483.082
1022.1537	13511.158
1022.7496	13416.549
1023.3454	13419.051
1023.9412	13548.271
1024.537	13573.944
1025.1328	13612.021
1025.7286	13810.369
1026.3245	13557.051
1026.9203	13707.894
1027.5161	13645.845
1028.1119	13745.458
1028.7078	13841.232
1029.3036	13777.631
1029.8994	14023.156
1030.4952	13802.612
1031.0911	13780.797
1031.6868	13848.898
1032.2826	13853.563
1032.8784	13851.615
1033.4742	13910.775
1034.0701	13935.376
1034.6659	14078.805
1035.2617	14011.501
1035.8575	14020.887
1036.4534	13941.724
1037.0492	13931.31
1037.645	13941.255
1038.2408	14066.603
1038.8367	14135.714
1039.4325	14250.939
1040.0283	14237.622
1040.6241	14131.972
1041.22	14192.182
1041.8158	14168.212
1042.4115	14129.917
1043.0073	14236.656
1043.6031	14164.902
1044.199	14215.792
1044.7948	14320.968
1045.3906	14245.752
1045.9865	14250.842
1046.5823	14255.083
1047.1781	14294.296
1047.7739	14372.826
1048.3698	14289.58
1048.9656	14262.125
1049.5614	14288.509
1050.1572	14176.503
1050.7531	14139.54
1051.3489	14182.47
1051.9447	14221.625
1052.5405	14278.222
1053.1362	14308.508
1053.7321	14318.626
1054.3279	14299.054
1054.9237	14215.697
1055.5195	14202.146
1056.1154	14214.956
1056.7112	14297.743
1057.307	14377.881
1057.9028	14274.864
1058.4987	14243.47
1059.0945	14190.131
1059.6903	14195.143
1060.2861	14096.069
1060.882	14063.405
1061.4778	14122.063
1062.0736	14143.197
1062.6694	14086.695
1063.2651	14071.684
1063.861	14073.728
1064.4568	13982.745
1065.0526	13876.194
1065.6484	13882.009
1066.2443	13901.551
1066.8401	13934.31
1067.4359	13794.477
1068.0317	13897.165
1068.6276	13775.347
1069.2234	13661.108
1069.8192	13610.893
1070.415	13726.729
1071.0109	13685.726
1071.6067	13716.78
1072.2025	13600.906
1072.7983	13467.905
1073.3942	13540.757
1073.9899	13400.325
1074.5857	13397.564
1075.1815	13174.588
1075.7773	13326.004
1076.3732	13238.126
1076.969	13393.875
1077.5648	13177.218
1078.1606	13125.528
1078.7565	13047.098
1079.3523	12856.99
1079.9481	13003.809
1080.5439	12926.058
1081.1398	13011.458
1081.7356	12899.881
1082.3314	12783.426
1082.9272	12794.164
1083.5231	12704.258
1084.1189	12637.822
1084.7146	12547.334
1085.3104	12545.882
1085.9063	12548.156
1086.5021	12489.985
1087.0979	12399.795
1087.6937	12336.06
1088.2896	12180.553
1088.8854	12122.188
1089.4812	12129.644
1090.077	12071.024
1090.6729	12085.391
1091.2687	12058.716
1091.8645	12016.186
1092.4603	11929.59
1093.0562	11748.345
1093.652	11754.18
1094.2478	11739.117
1094.8435	11719.432
1095.4393	11712.288
1096.0352	11583.511
1096.631	11507.418
1097.2268	11465.945
1097.8226	11257.562
1098.4185	11138.234
1099.0143	11197.776
1099.6101	11255.444
1100.2059	11187.343
1100.8018	11031.957
1101.3976	11055.462
1101.9934	10906.964
1102.5892	10920.8
1103.1851	10947.63
1103.7809	10867.452
1104.3767	10751.739
1104.9725	10654.606
1105.5682	10619.065
1106.1641	10572.808
1106.7599	10436.58
1107.3557	10278.181
1107.9515	10299.873
1108.5474	10313.441
1109.1432	10215.901
1109.739	10191.327
1110.3348	10151.527
1110.9307	10067.529
1111.5265	10012.989
1112.1223	9861.7832
1112.7181	9741.8174
1113.314	9881.2061
1113.9098	9834.6162
1114.5056	9774.1777
1115.1014	9721.1475
1115.6973	9666.8408
1116.293	9584.6328
1116.8888	9513.585
1117.4846	9419.165
1118.0804	9397.1807
1118.6763	9324.2305
1119.2721	9301.5342
1119.8679	9233.4688
1120.4637	9225.9746
1121.0596	9027.9053
1121.6554	9027.9053
1122.2512	9027.9053
1122.847	9027.9053
1123.4429	9027.9053
1124.0387	9027.9053
1124.6345	9027.9053
1125.2303	8887.1904
1125.8262	8645.7822
1126.4219	8600.9551
1127.0177	8554.4004
1127.6135	8459.6553
1128.2094	8366.1484
1128.8052	8360.0459
1129.401	8254.4619
1129.9968	8078.6177
1130.5927	8147.3037
1131.1885	8207.6719
1131.7843	7937.7808
1132.3801	8077.4956
1132.976	7916.2388
1133.5718	7926.4517
1134.1676	7879.6514
1134.7634	7873.5229
1135.3593	7810.979
1135.9551	7644.2832
1136.5509	7636.4355
1137.1466	7623.8389
1137.7424	7568.3174
1138.3383	7462.3511
1138.9341	7406.8989
1139.5299	7276.0752
1140.1257	7264.0557
1140.7216	7270.2559
1141.3174	7277.1992
1141.9132	7268.626
1142.509	7239.5601
1143.1049	7173.8022
1143.7007	7111.3564
1144.2965	7000.0977
1144.8923	6950.1343
1145.4882	6929.0952
1146.084	6858.8506
1146.6798	6814.4785
1147.2756	6779.1831
1147.8713	6760.729
1148.4672	6643.0918
1149.063	6611.978
1149.6588	6544.3892
1150.2546	6490.2129
1150.8505	6428.8145
1151.4463	6503.9741
1152.0421	6415.46
1152.6379	6433.7358
1153.2338	6284.502
1153.8296	6313.7417
1154.4254	6148.5454
1155.0212	6139.7886
1155.6171	6060.8496
1156.2129	6173.125
1156.8087	6103.2295
1157.4045	5980.5796
1158.0002	5902.54
1158.5961	5834.7764
1159.1919	5775.3018
1159.7877	5800.7495
1160.3835	5787.7915
1160.9794	5694.9175
1161.5752	5678.8926
1162.171	5632.6504
1162.7668	5588.4678
1163.3627	5570.6904
1163.9585	5533.9004
1164.5543	5495.2085
1165.1501	5439.8794
1165.746	5407.6333
1166.3418	5389.3262
1166.9376	5422.7314
1167.5334	5346.5229
1168.1293	5237.9824
1168.725	5238.4897
1169.3208	5195.4487
1169.9166	5106.8789
1170.5125	5205.542
1171.1083	5068.7988
1171.7041	5060.2563
1172.2999	4892.3813
1172.8958	5047.3511
1173.4916	4920.6167
1174.0874	4932.7422
1174.6832	4972.6299
1175.2791	4913.3364
1175.8749	4820.4077
1176.4707	4776.7061
1177.0665	4746.7031
1177.6624	4720.4692
1178.2582	4732.1768
1178.854	4729.7314
1179.4497	4699.1729
1180.0455	4660.46
1180.6414	4634.2139
1181.2372	4505.4956
1181.833	4514.5674
1182.4288	4552.8921
1183.0247	4533.9619
1183.6205	4459.8726
1184.2163	4451.248
1184.8121	4484.5513
1185.408	4495.2725
1186.0038	4441.4253
1186.5996	4368.2188
1187.1954	4301.8325
1187.7913	4341.5508
1188.3871	4314.5391
1188.9829	4312.3569
1189.5786	4312.9556
1190.1744	4300.0132
1190.7703	4248.4111
1191.3661	4297.0708
1191.9619	4212.8994
1192.5577	4250.8657
1193.1536	4291.8247
1193.7494	4202.0786
1194.3452	4170.9736
1194.941	4156.0659
1195.5369	4140.6948
1196.1327	4136.9126
1196.7285	4176.6685
1197.3243	4118.3745
1197.9202	4100.9336
1198.516	4122.1689
1199.1118	4096.8525
1199.7076	4071.9573
1200.3033	4043.9021
1200.8992	3967.4539
1201.495	3975.7573
1202.0908	4074.6189
1202.6866	3981.7595
1203.2825	3987.4556
1203.8783	4039.3037
1204.4741	3984.9973
1205.0699	4005.5325
1205.6658	3958.804
1206.2616	3896.1909
1206.8574	3906.7537
1207.4532	3988.9512
1208.0491	3950.1511
1208.6449	3887.5303
1209.2407	3916.9272
1209.8365	3882.4521
1210.4324	3893.1035
1211.0281	3961.2861
1211.6239	3935.0613
1212.2197	3875.3638
1212.8156	3880.3733
1213.4114	3873.2368
1214.0072	3877.5942
1214.603	3876.6692
1215.1989	3890.2192
1215.7947	3881.8997
1216.3905	3879.24
1216.9863	3893.6917
1217.5822	3845.2942
1218.178	3883.4526
1218.7738	3896.0002
1219.3696	3811.4839
1219.9655	3776.6348
1220.5613	3816.9551
1221.157	3871.5972
1221.7528	3819.4773
1222.3486	3853.5369
1222.9445	3778.4373
1223.5403	3832.1514
1224.1361	3786.1199
1224.7319	3783.8066
1225.3278	3782.5356
1225.9236	3790.4685
1226.5194	3800.6411
1227.1152	3778.8198
1227.7111	3820.4604
1228.3069	3795.1033
1228.9027	3755.0154
1229.4985	3774.4255
1230.0944	3777.0942
1230.6902	3795.2524
1231.286	3780.2756
1231.8817	3743.2651
1232.4775	3732.3276
1233.0734	3791.637
1233.6692	3738.3208
1234.265	3797.5405
1234.8608	3686.0144
1235.4567	3769.9226
1236.0525	3731.7505
1236.6483	3773.3401
1237.2441	3708.0789
1237.84	3731.9189
1238.4358	3690.4922
1239.0316	3648.3499
1239.6274	3748.1694
1240.2233	3702.0037
1240.8191	3710.4172
1241.4149	3720.9868
1242.0107	3693.6396
1242.6064	3663.0986
1243.2023	3688.9111
1243.7981	3760.1755
1244.3939	3727.3035
1244.9897	3718.2134
1245.5856	3683.8726
1246.1814	3675.5144
1246.7772	3669.894
1247.373	3583.4705
1247.9689	3618.2263
1248.5647	3707.2419
1249.1605	3693.4153
1249.7563	3679.1731
1250.3522	3662.1448
1250.948	3590.9604
1251.5438	3630.7524
1252.1396	3593.6191
1252.7354	3634.8396
1253.3312	3647.0432
1253.927	3650.8157
1254.5228	3674.4568
1255.1187	3653.9534
1255.7145	3643.6582
1256.3103	3610.4089
1256.9061	3570.2822
1257.502	3612.8398
1258.0978	3662.0933
1258.6936	3635.8701
1259.2894	3646.6086
1259.8853	3661.1213
1260.4811	3689.8611
1261.0769	3535.3826
1261.6727	3561.9346
1262.2686	3599.1316
1262.8644	3597.8362
1263.4601	3600.4641
1264.0559	3628.7783
1264.6517	3613.5203
1265.2476	3613.1833
1265.8434	3578.5618
1266.4392	3532.6123
1267.035	3489.2751
1267.6309	3476.0215
1268.2267	3566.7788
1268.8225	3570.7766
1269.4183	3546.8018
1270.0142	3528.4207
1270.61	3523.7881
1271.2058	3481.689
1271.8016	3547.9072
1272.3975	3584.8354
1272.9933	3588.0991
1273.5891	3539.1672
1274.1848	3566.9722
1274.7806	3485.2527
1275.3765	3487.9302
1275.9723	3506.9521
1276.5681	3505.0618
1277.1639	3537.1584
1277.7598	3551.3687
1278.3556	3529.3928
1278.9514	3460.104
1279.5472	3482.8418
1280.1431	3483.3684
1280.7389	3484.1648
1281.3347	3487.2134
1281.9305	3491.7253
1282.5264	3520.5313
1283.1222	3540.0408
1283.718	3505.7847
1284.3137	3515.0342
1284.9095	3535.8413
1285.5054	3491.9751
1286.1012	3538.4131
1286.697	3550.6992
1287.2928	3524.4304
1287.8887	3509.9492
1288.4845	3479.3716
1289.0803	3493.8962
1289.6761	3523.5591
1290.272	3452.4229
1290.8678	3449.4639
1291.4636	3489.3123
1292.0594	3504.2446
1292.6553	3511.0977
1293.2511	3480.7959
1293.8469	3502.9868
1294.4427	3477.3826
1295.0385	3468.4307
1295.6343	3474.7715
1296.2301	3513.2761
1296.8259	3517.4155
1297.4218	3390.7334
1298.0176	3424.1572
1298.6134	3420.7986
1299.2092	3489.7087
1299.8051	3496.7612
1300.4009	3480.8525
1300.9967	3489.6006
1301.5925	3480.3208
1302.1884	3502.1902
1302.7842	3477.5417
1303.38	3443.8694
1303.9758	3451.5015
1304.5717	3475.6802
1305.1675	3447.7021
1305.7632	3451.6338
1306.359	3501.3892
1306.9548	3490.0471
1307.5507	3466.7095
1308.1465	3399.6077
1308.7423	3414.8352
1309.3381	3457.2771
1309.934	3462.6655
1310.5298	3473.2136
1311.1256	3527.9099
1311.7214	3502.9785
1312.3173	3476.134
1312.9131	3453.4033
1313.5089	3498.9956
1314.1047	3509.3225
1314.7006	3456.8669
1315.2964	3445.5442
1315.8921	3501.75
1316.4879	3454.6372
1317.0837	3424.2593
1317.6796	3466.7966
1318.2754	3400.2231
1318.8712	3440.2734
1319.467	3444.1025
1320.0629	3433.9084
1320.6587	3411.46
1321.2545	3387.5276
1321.8503	3408.7056
1322.4462	3416.2017
1323.042	3447.2773
1323.6378	3460.8828
1324.2336	3442.7617
1324.8295	3457.4365
1325.4253	3463.2168
1326.0211	3417.8694
1326.6168	3336.4119
1327.2126	3422.9119
1327.8085	3342.8901
1328.4043	3449.7686
1329.0001	3475.2285
1329.5959	3460.8916
1330.1918	3442.4531
1330.7876	3437.9697
1331.3834	3402.915
1331.9792	3458.792
1332.5751	3433.1992
1333.1709	3420.9041
1333.7667	3426.5872
1334.3625	3410.3894
1334.9584	3447.3389
1335.5542	3454.7285
1336.15	3396.9387
1336.7458	3414.1035
1337.3416	3417.7803
1337.9374	3413.5378
1338.5332	3452.8789
1339.129	3430.948
1339.7249	3412.2744
1340.3207	3474.2747
1340.9165	3426.1626
1341.5123	3435.7202
1342.1082	3420.5027
1342.704	3422.3872
1343.2998	3440.283
1343.8956	3433.1262
1344.4915	3411.6541
1345.0873	3371.804
1345.6831	3367.8596
1346.2789	3419.5898
1346.8748	3436.7085
1347.4705	3424.8979
1348.0663	3409.3088
1348.6621	3430.2371
1349.2579	3407.7932
1349.8538	3418.4304
1350.4496	3405.969
1351.0454	3411.054
1351.6412	3439.3601
1352.2371	3450.8318
1352.8329	3434.5649
1353.4287	3449.896
1354.0245	3420.2122
1354.6204	3397.0952
1355.2162	3409.0037
1355.812	3427.9126
1356.4078	3431.7686
1357.0037	3421.929
1357.5995	3434.2585
1358.1952	3430.929
1358.791	3433.1943
1359.3868	3430.7083
1359.9827	3437.8569
1360.5785	3416.1311
1361.1743	3426.9202
1361.7701	3458.8262
1362.366	3437.2732
1362.9618	3444.3225
1363.5576	3452.1694
1364.1534	3393.1489
1364.7493	3377.3254
1365.3451	3432.2026
1365.9409	3422.3318
1366.5367	3438.502
1367.1326	3425.2314
1367.7284	3442.1621
1368.3242	3436.083
1368.9199	3424.6968
1369.5157	3407.9006
1370.1116	3440.3157
1370.7074	3448.2485
1371.3032	3426.178
1371.899	3452.0007
1372.4949	3468.9204
1373.0907	3410.2456
1373.6865	3417.0291
1374.2823	3404.7625
1374.8782	3414.7207
1375.474	3431.0549
1376.0698	3434.6033
1376.6656	3388.8179
1377.2615	3361.2996
1377.8573	3397.7161
1378.4531	3419.0784
1379.0488	3401.458
1379.6447	3439.0476
1380.2405	3446.3157
1380.8363	3434.3179
1381.4321	3398.4727
1382.028	3418.4136
1382.6238	3412.981
1383.2196	3424.7258
1383.8154	3405.248
1384.4113	3437.0305
1385.0071	3475.2168
1385.6029	3445.7151
1386.1987	3419.8633
1386.7946	3441.6174
1387.3904	3446.6628
1387.9862	3371.7241
1388.582	3397.6958
1389.1779	3451.1016
1389.7736	3493.4399
1390.3694	3483.4592
1390.9652	3475.5161
1391.561	3439.5076
1392.1569	3417.5315
1392.7527	3450.981
1393.3485	3433.3777
1393.9443	3441.6487
1394.5402	3457.3364
1395.136	3425.384
1395.7318	3425.1685
1396.3276	3444.7683
1396.9235	3440.7729
1397.5193	3355.5488
1398.1151	3419.3633
1398.7109	3454.7615
1399.3068	3487.636
1399.9026	3453.6533
1400.4983	3419.1331
1401.0941	3455.9568
1401.6899	3446.9338
1402.2858	3459.9429
1402.8816	3470.9155
1403.4774	3455.5105
1404.0732	3443.728
1404.6691	3446.2192
1405.2649	3433.9648
1405.8607	3461.7556
1406.4565	3393.0828
1407.0524	3484.0774
1407.6482	3436.6609
1408.244	3470.3594
1408.8398	3538.4248
1409.4357	3506.8713
1410.0315	3469.6157
1410.6272	3423.1106
1411.223	3433.7361
1411.8188	3426.9773
1412.4147	3455.3867
1413.0105	3448.5833
1413.6063	3435.9038
1414.2021	3483.8389
1414.798	3454.0881
1415.3938	3436.9521
1415.9896	3442.7813
1416.5854	3454.6482
1417.1813	3488.7673
1417.7771	3444.448
1418.3729	3489.8621
1418.9688	3475.5566
1419.5646	3464.0845
1420.1604	3466.6807
1420.7562	3419.2498
1421.3519	3486.7681
1421.9478	3516.9402
1422.5436	3470.822
1423.1394	3466.9563
1423.7352	3458.9614
1424.3311	3494.2373
1424.9269	3502.2461
1425.5227	3481.2876
1426.1185	3458.1936
1426.7144	3465.9822
1427.3102	3432.2598
1427.906	3492.5146
1428.5018	3501.5593
1429.0977	3441.4346
1429.6935	3409.9971
1430.2893	3525.948
1430.8851	3487.5005
1431.481	3490.626
1432.0767	3502.1292
1432.6725	3494.2168
1433.2683	3491.8057
1433.8641	3454.0386
1434.46	3435.5198
1435.0558	3467.5381
1435.6516	3508.4504
1436.2474	3536.5227
1436.8433	3537.8433
1437.4391	3524.1211
1438.0349	3424.0972
1438.6307	3505.604
1439.2266	3458.321
1439.8224	3489.3662
1440.4182	3503.1738
1441.014	3531.345
1441.6099	3552.2156
1442.2056	3512.5171
1442.8014	3497.9626
1443.3972	3469.2114
1443.993	3442.5605
1444.5889	3485.7913
1445.1847	3509.3357
1445.7805	3515.9146
1446.3763	3448.1545
1446.9722	3508.6731
1447.568	3512.0457
1448.1638	3425.6428
1448.7596	3472.7175
1449.3555	3506.1887
1449.9513	3525.6392
1450.5471	3523.0974
1451.1429	3559.4678
1451.7388	3519.6729
1452.3346	3433.689
1452.9303	3474.8313
1453.5261	3458.5657
1454.1219	3454.4763
1454.7178	3504.1323
1455.3136	3465.0625
1455.9094	3491.3418
1456.5052	3535.636
1457.1011	3446.6135
1457.6969	3468.5381
1458.2927	3476.8452
1458.8885	3457.3909
1459.4844	3463.239
1460.0802	3531.9595
1460.676	3511.7395
1461.2719	3465.9304
1461.8677	3447.8252
1462.4635	3443.4497
1463.0593	3454.5396
1463.655	3467.2515
1464.2509	3557.6377
1464.8467	3506.3149
1465.4425	3526.7122
1466.0383	3519.1169
1466.6342	3560.5288
1467.23	3520.8394
1467.8258	3510.1033
1468.4216	3470.907
1469.0175	3497.644
1469.6133	3516.4934
1470.2091	3497.3425
1470.8049	3483.2183
1471.4008	3494.4866
1471.9966	3466.9392
1472.5924	3492.7715
1473.1882	3474.5737
1473.7839	3475.4912
1474.3798	3504.1511
1474.9756	3519.3728
1475.5714	3476.9458
1476.1672	3519.124
1476.7631	3511.3694
1477.3589	3468.4102
1477.9547	3473.9661
1478.5505	3487.5496
1479.1464	3488.5664
1479.7422	3503.8799
1480.338	3472.9365
1480.9338	3438.0251
1481.5297	3493.3987
1482.1255	3425.2004
1482.7213	3445.4324
1483.3171	3467.4458
1483.913	3433.7175
1484.5087	3445.7678
1485.1045	3451.4512
1485.7003	3465.1316
1486.2961	3482.9133
1486.892	3441.6545
1487.4878	3464.8496
1488.0836	3459.1189
1488.6794	3436.1904
1489.2753	3476.3372
1489.8711	3468.5356
1490.4669	3462.0083
1491.0627	3459.156
1491.6586	3448.3254
1492.2544	3515.8384
1492.8502	3506.4756
1493.446	3456.6431
1494.0419	3460.312
1494.6377	3473.6326
1495.2334	3452.5559
1495.8292	3432.5305
1496.425	3466.3164
1497.0209	3383.7971
1497.6167	3460.8318
1498.2125	3494.0276
1498.8083	3497.8828
1499.4042	3426.8208
1500	3435.6072
