300.02197	-162.97852
300.6178	-161.1524
301.21362	-155.62662
301.80942	-161.46991
302.40524	-163.00807
303.00107	-158.84468
303.59689	-158.097
304.19269	-149.58145
304.78851	-132.42072
305.38434	-128.33141
305.98016	-106.33566
306.57599	-91.234528
307.17178	-114.53368
307.76761	-108.71821
308.36343	-105.17613
308.95926	-98.006035
309.55505	-82.817787
310.15088	-84.341393
310.7467	-92.095764
311.34253	-83.529617
311.93832	-69.888451
312.53415	-63.000237
313.12997	-53.662334
313.7258	-69.205284
314.32162	-67.232758
314.91742	-45.514881
315.51324	-45.183125
316.10907	-19.210239
316.7049	-10.091208
317.30069	6.5689387
317.89651	30.316574
318.49234	31.632517
319.08817	42.456356
319.68399	45.062294
320.27979	38.927223
320.87561	62.717731
321.47144	70.508354
322.06726	76.574295
322.66306	78.713249
323.25888	99.355415
323.85471	106.77656
324.45053	111.98821
325.04633	126.74502
325.64215	131.93694
326.23798	149.31934
326.8338	192.04994
327.42963	197.60092
328.02542	242.92838
328.62125	258.70557
329.21707	293.88654
329.8129	285.38733
330.40869	301.56815
331.00452	325.56046
331.60034	453.98907
332.19617	604.1344
332.79199	524.28259
333.38779	402.69504
333.98361	417.87857
334.57944	520.02081
335.17526	517.27173
335.77106	536.11523
336.36688	575.08765
336.96271	584.70239
337.55853	609.29663
338.15436	624.79834
338.75015	662.7774
339.34598	737.82324
339.9418	776.19092
340.53763	797.72791
341.13342	829.63257
341.72925	861.54004
342.32507	900.76276
342.9209	977.24493
343.51669	1021.6539
344.11252	1032.0659
344.70834	1067.3826
345.30417	1140.6157
345.89999	1187.0718
346.49579	1211.2061
347.09161	1273.7336
347.68744	1315.8409
348.28326	1358.2312
348.87906	1400.1069
349.47488	1473.7966
350.07071	1569.7555
350.66653	1609.1873
351.26236	1637.679
351.85815	1757.2307
352.45398	1814.4474
353.0498	1835.5323
353.64563	1929.4468
354.24142	2042.3676
354.83725	2140.105
355.43307	2267.05
356.0289	2261.0815
356.62469	2244.7664
357.22052	2307.0417
357.81635	2420.9209
358.41217	2461.175
359.008	2548.1902
359.60379	2655.762
360.19962	2741.8843
360.79544	2806.2764
361.39127	2887.0295
361.98706	3012.3003
362.58289	3103.5281
363.17871	3210.9187
363.77454	3313.1045
364.37036	3469.4993
364.96616	3542
365.56198	3607.2964
366.15781	3695.7009
366.75363	3831.3755
367.34943	3957.2437
367.94525	4034.6106
368.54108	4128.1826
369.1369	4245.9243
369.73273	4292.0801
370.32852	4453.6157
370.92435	4597.9609
371.52017	4744.4961
372.116	4899.438
372.71179	5067.9473
373.30762	5142.3262
373.90344	5278.6348
374.49927	5394.8374
375.09506	5472.667
375.69089	5609.4253
376.28671	5784.1392
376.88254	5912.5171
377.47836	6071.9272
378.07416	6134.2021
378.66998	6239.1206
379.26581	6375.5396
379.86163	6612.0962
380.45743	6777.2031
381.05325	6917.9961
381.64908	7113.4551
382.2449	7245.5801
382.84073	7404.8271
383.43652	7616.6299
384.03235	7752.4609
384.62817	7826.5293
385.224	7997.4658
385.81979	8401.8896
386.41562	8433.9639
387.01144	8533.6387
387.60727	8645.4893
388.20306	8825.0576
388.79889	9015.7871
389.39471	9121.0205
389.99054	9269.5967
390.58636	9518.7832
391.18216	9750.1553
391.77798	9918.1475
392.37381	10107.357
392.96964	10286.294
393.56543	10454.255
394.16125	10696.787
394.75708	10718.344
395.35291	10997.55
395.94873	11150.438
396.54453	11370.295
397.14035	11495.041
397.73618	11598.493
398.332	11825.921
398.9278	12054.991
399.52362	12227.455
400.11945	12428.966
400.71527	12534.59
401.3111	12703.713
401.90689	12981.055
402.50272	13223.586
403.09854	13358.762
403.69437	13546.673
404.29016	13751.841
404.88599	13905.101
405.48181	14076.631
406.07764	14235.702
406.67343	14370.14
407.26926	14506.525
407.86508	14709.397
408.46091	14958.173
409.05673	15015.831
409.65253	15215.479
410.24835	15431.654
410.84418	15667.257
411.44	15552.869
412.0358	15840.611
412.63162	15989.658
413.22745	16200.8
413.82327	16417.053
414.4191	16508.621
415.01489	16649.309
415.61072	16850.289
416.20654	16939.643
416.80237	17065.67
417.39816	17181.316
417.99399	17448.188
418.58981	17588.465
419.18564	17753.867
419.78143	17872.625
420.37726	18043.354
420.97308	18084.43
421.56891	18118.846
422.16473	18266.957
422.76053	18386.201
423.35635	18621.945
423.95218	18890.803
424.548	18876.244
425.1438	18935.35
425.73962	19011.717
426.33545	19137.326
426.93127	19379.727
427.5271	19448.906
428.12289	19587.355
428.71872	19660.162
429.31454	19784.207
429.91037	19798.416
430.50616	19984.881
431.10199	20103.643
431.69781	20254.08
432.29364	20511.145
432.88947	20620.986
433.48526	20765.256
434.08109	20773.334
434.67691	21031.377
435.27274	20941.326
435.86853	21084.332
436.46436	21262.756
437.06018	21378.49
437.65601	21507.898
438.2518	21608.012
438.84763	21678.748
439.44345	21712.775
440.03928	21722.486
440.6351	21823.471
441.2309	22021.299
441.82672	22159.121
442.42255	22282.764
443.01837	22335.117
443.61417	22287.893
444.20999	22541.895
444.80582	22494.688
445.40164	22713.189
445.99747	22637.088
446.59326	22866.523
447.18909	22978.371
447.78491	23026.818
448.38074	23067.139
448.97653	23088.988
449.57236	23152.135
450.16818	23211.033
450.76401	23208.063
451.3598	23348.801
451.95563	23622.734
452.55145	23611.096
453.14728	23579.447
453.7431	23702.58
454.3389	23869.658
454.93472	23781.574
455.53055	23917.826
456.12637	24058.863
456.72217	24042.141
457.31799	24094.412
457.91382	24268.596
458.50964	24387.291
459.10547	24390.512
459.70126	24386.662
460.29709	24590.432
460.89291	24725.736
461.48874	24908.203
462.08453	24887.154
462.68036	24893.748
463.27618	24931.582
463.87201	24881.467
464.46783	25111.055
465.06363	25231.996
465.65945	25346.729
466.25528	25411.316
466.8511	25430.92
467.4469	25384.984
468.04272	25354.121
468.63855	25628.717
469.23438	25717.844
469.83017	25821.904
470.42599	25990.273
471.02182	25992.426
471.61765	26071.85
472.21347	26251.959
472.80927	26210.563
473.40509	26445.561
474.00092	26534.996
474.59674	26566.291
475.19254	26569.43
475.78836	26624.848
476.38419	26675.656
476.98001	26741.039
477.57584	26886.467
478.17163	26770.289
478.76746	26881.348
479.36328	27102.324
479.95911	27315.662
480.5549	27376.371
481.15073	27334.035
481.74655	27289.627
482.34238	27317.842
482.93817	27621.271
483.534	27593.186
484.12982	27692.648
484.72565	27840.305
485.32147	27819.291
485.91727	27757.697
486.51309	27767.779
487.10892	27789.998
487.70474	27750.129
488.30054	27896.887
488.89636	27981.467
489.49219	28118.676
490.08801	27970.779
490.68384	27958.039
491.27963	28019.496
491.87546	27949.102
492.47128	28094.369
493.06711	28007.127
493.6629	27971.328
494.25873	27840.807
494.85455	27816.844
495.45038	27916.379
496.0462	27735.441
496.642	27479.225
497.23782	27528.607
497.83365	27649.07
498.42947	27693.957
499.02527	27661.305
499.62109	27555.695
500.21692	27264.398
500.81274	26966.234
501.40854	26934.773
502.00436	26970.613
502.60019	26946.396
503.19601	26861.359
503.79184	26728.379
504.38763	26355.77
504.98346	26071.238
505.57928	26087.678
506.17511	25981.133
506.7709	25716.736
507.36673	25645.725
507.96255	25575.111
508.55838	25223.01
509.15421	24900.742
509.75	24836.064
510.34583	24690.486
510.94165	24521.143
511.53748	24354.635
512.1333	24185.768
512.72913	24056.293
513.32489	23952.057
513.92072	23714.139
514.51654	23355.529
515.11237	23141.707
515.70819	23000.719
516.30402	22694.012
516.89984	22459.521
517.49567	22410.691
518.09149	22217.828
518.68726	21647.371
519.28308	21648.354
519.87891	21522.58
520.47473	21314.707
521.07056	21122.482
521.66638	21007.791
522.26221	20951.018
522.85803	20655.207
523.45386	20524.596
524.04962	20379.643
524.64545	20138.189
525.24127	19860.367
525.8371	19748.549
526.43292	19811.939
527.02875	19659.668
527.62457	19347.457
528.2204	19188.736
528.81622	18941.799
529.41199	18932.395
530.00781	18789.939
530.60364	18743.822
531.19946	18606.529
531.79529	18538.594
532.39111	18414.732
532.98694	18341.918
533.58276	18221.137
534.17859	17991.922
534.77435	17856.883
535.37018	17852.859
535.966	17808.021
536.56183	17710.547
537.15765	17574.668
537.75348	17419.205
538.3493	17420.305
538.94513	17296.949
539.54089	17273.375
540.13672	17127.223
540.73254	17348.535
541.32837	17240.01
541.92419	17130.098
542.52002	17057.266
543.11584	16950.309
543.71167	16846.51
544.3075	16957.109
544.90326	16965.523
545.49908	16814.289
546.09491	16749
546.69073	16770.848
547.28656	16704.152
547.88239	16680.863
548.47821	16720.508
549.07404	16656.031
549.66986	16854.674
550.26563	16812.371
550.86145	16873.494
551.45728	16817.045
552.0531	16850.045
552.64893	16855.066
553.24475	16866.365
553.84058	16943.168
554.4364	16981.93
555.03223	16983.551
555.62799	17048.523
556.22382	17009.625
556.81964	17102.754
557.41547	17217.852
558.01129	17282.189
558.60712	17361.383
559.20294	17435.711
559.79877	17473.395
560.39459	17449.023
560.99036	17468.725
561.58618	17581.898
562.18201	17542.207
562.77783	17766.229
563.37366	17863.922
563.96948	17794.041
564.56531	17879.105
565.16113	17849.139
565.75696	17987.088
566.35272	17867.338
566.94855	17874.527
567.54437	18069.146
568.1402	18104.605
568.73602	18108.961
569.33185	18143.348
569.92767	18126.383
570.5235	18158.699
571.11926	18164.508
571.71509	17990.018
572.31091	17926.586
572.90674	18033.523
573.50256	18085.373
574.09839	17938.244
574.69421	17804.205
575.29004	17767.746
575.88586	17576.385
576.48163	17448.021
577.07745	17541.771
577.67328	17321.041
578.2691	17420.404
578.86493	17304.807
579.46075	17268.303
580.05658	17089.352
580.6524	16907.064
581.24823	16807.086
581.84399	16761.686
582.43982	16708.324
583.03564	16581.02
583.63147	16430.154
584.22729	16247.344
584.82312	16016.024
585.41895	15906.297
586.01477	15762.642
586.6106	15729.622
587.20636	15567.922
587.80219	15381.99
588.39801	15476.164
588.99384	15195.182
589.58966	14953.257
590.18549	14937.369
590.78131	14842.541
591.37714	14693.111
591.97296	14562.6
592.56873	14432.898
593.16455	14304.853
593.76038	14222.809
594.3562	13992.899
594.95203	13721.121
595.54785	13596.815
596.14368	13493.525
596.7395	13438.931
597.33533	13356.239
597.93109	13092.871
598.52692	13088.8
599.12274	12893.258
599.71857	12857.283
600.31439	12790.573
600.91022	12723.642
601.50604	12440.508
602.10187	12508.231
602.69763	12335.568
603.29346	12233.919
603.88928	11999.355
604.48511	12030.733
605.08093	11891.487
605.67676	11801.715
606.27258	11824.796
606.86841	11753.191
607.46423	11644.964
608.06	11521.277
608.65582	11412.255
609.25165	11360.813
609.84747	11231.679
610.4433	11109.658
611.03912	11023.401
611.63495	11065.544
612.23077	10985.769
612.8266	10844.81
613.42236	10796.424
614.01819	10714.323
614.61401	10653.091
615.20984	10582.629
615.80566	10537.024
616.40149	10449.056
616.99731	10462.749
617.59314	10419.002
618.18896	10332.779
618.78473	10210.737
619.38055	10187.855
619.97638	10079.108
620.5722	10020.755
621.16803	10044.747
621.76385	10003.702
622.35968	9903.0215
622.95551	9793.5752
623.55133	9710.2129
624.14709	9703.9248
624.74292	9751.7188
625.33875	9643.6709
625.93457	9586.2451
626.5304	9563.4385
627.12622	9390.6016
627.72205	9387.4971
628.31787	9525.3037
628.9137	9488.7881
629.50946	9362.5996
630.10529	9344.8359
630.70111	9325.791
631.29694	9238.6992
631.89276	9158.8135
632.48859	9123.1807
633.08441	9092.9336
633.68024	9084.582
634.276	9070.377
634.87183	8989.8105
635.46765	8944.9854
636.06348	8972.1396
636.6593	8895.1611
637.25513	8814.3555
637.85095	8860.7402
638.44678	8801.5264
639.0426	8742.3633
639.63837	8698.3145
640.23419	8627.9561
640.83002	8607.7285
641.42584	8532.9668
642.02167	8551.7939
642.61749	8596.21
643.21332	8562.8008
643.80914	8478.3457
644.40497	8421.4873
645.00073	8481.2041
645.59656	8453.5889
646.19238	8377.8115
646.78821	8311.1318
647.38403	8310.6738
647.97986	8316.6016
648.57568	8316.9863
649.17151	8248.1797
649.76733	8244.3047
650.3631	8253.8379
650.95892	8237.8203
651.55475	8182.9526
652.15057	8139.5898
652.7464	8207.8467
653.34222	8262.9688
653.93805	8213.6182
654.53387	8125.7344
655.1297	8066.6421
655.72546	8042.5464
656.32129	8079.7607
656.91711	8120.8608
657.51294	8141.4536
658.10876	8097.7681
658.70459	8093.1362
659.30042	8148.2285
659.89624	7970.0112
660.49207	7927.123
661.08783	8061.832
661.68365	8093.5713
662.27948	8063.1406
662.87531	8094.1724
663.47113	8080.7065
664.06696	7995.0894
664.66278	7959.875
665.25861	8065.3716
665.85437	8078.3418
666.4502	8076.1572
667.04602	8058.1689
667.64185	8021.7056
668.23767	8018.2617
668.8335	8008.2871
669.42932	8032.9727
670.02515	8061.209
670.62097	8064.7051
671.21674	8093.1323
671.81256	8087.0728
672.40839	8141.7598
673.00421	8035.3457
673.60004	8225.0498
674.19586	8047.4575
674.79169	8084.7354
675.38751	8232.0928
675.98334	8190.0283
676.5791	8108.3613
677.17493	8145.6958
677.77075	8249.7363
678.36658	8278.5215
678.9624	8183.939
679.55823	8237.2744
680.15405	8241.5273
680.74988	8358.1514
681.3457	8354.8223
681.94147	8338.043
682.53729	8328.4346
683.13312	8273.6182
683.72894	8275.6279
684.32477	8335.7139
684.92059	8347.5996
685.51642	8356.2061
686.11224	8416.4189
686.70807	8391.7236
687.30383	8324.8584
687.89966	8372.8877
688.49548	8387.3779
689.09131	8415.502
689.68713	8422.6865
690.28296	8422.8389
690.87878	8477.2725
691.47461	8417.417
692.07043	8491.0547
692.6662	8471.0869
693.26202	8522.7617
693.85785	8533.5322
694.45367	8496.4316
695.0495	8472.2529
695.64532	8496.5039
696.24115	8576.1836
696.83698	8452.1416
697.43274	8555.2021
698.02856	8512.5029
698.62439	8507.0391
699.22021	8580.1553
699.81604	8551.8193
700.41187	8507.1797
701.00769	8562.0869
701.60352	8596.1465
702.19934	8547.7021
702.7951	8522.1221
703.39093	8490.543
703.98676	8533.2207
704.58258	8588.6992
705.17841	8501.292
705.77423	8447.4033
706.37006	8512.9609
706.96588	8550.0508
707.56171	8539.6855
708.15747	8524.3535
708.7533	8537.3213
709.34912	8530.5234
709.94495	8633.4639
710.54077	8526.4512
711.1366	8508.1738
711.73242	8495.3477
712.32825	8490.4902
712.92407	8542.0254
713.51984	8652.6953
714.11566	8527.7061
714.71149	8455.3232
715.30731	8427.6133
715.90314	8456.0205
716.49896	8502.4805
717.09479	8483.124
717.69061	8433.6348
718.28644	8520.3408
718.8822	8474.5537
719.47803	8449.8945
720.07385	8402.2373
720.66968	8425.627
721.2655	8460.3428
721.86133	8454.9932
722.45715	8393.3662
723.05298	8334.1611
723.6488	8357.9697
724.24457	8340.1641
724.84039	8348.7002
725.43622	8420.1406
726.03204	8414.8193
726.62787	8385.3877
727.22369	8319.1367
727.81952	8298.3369
728.41534	8401.4658
729.01111	8340.251
729.60693	8262.3291
730.20276	8197.0547
730.79858	8153.8955
731.39441	8324.0098
731.99023	8295.9502
732.58606	8227.0176
733.18188	8360.3584
733.77771	8240.959
734.37347	8244.6279
734.9693	8299.4375
735.56512	8272.1523
736.16095	8157.9805
736.75677	8254.1025
737.3526	8119.7119
737.94843	8123.8267
738.54425	8032.1353
739.14008	8024.7646
739.73584	8088.5288
740.33167	8013.7046
740.92749	8023.4297
741.52332	8126.3516
742.11914	8072.5796
742.71497	8060.6768
743.31079	7960.272
743.90662	7990.9609
744.50244	7916.0186
745.09821	7999.1104
745.69403	8023.0195
746.28986	7990.8481
746.88568	8006.5898
747.48151	7974.0151
748.07733	7930.7314
748.67316	7872.4458
749.26898	7814.6655
749.86481	7878.0415
750.46057	7951.0151
751.0564	7933.2559
751.65222	7818.0771
752.24805	7759.6772
752.84387	7811.187
753.4397	7731.2236
754.03552	7689.8955
754.63135	7699.5132
755.22717	7638.4927
755.82294	7632.3018
756.41876	7607.6704
757.01459	7652.167
757.61041	7558.3594
758.20624	7596.2544
758.80206	7648.0161
759.39789	7521.0996
759.99371	7502.9399
760.58948	7583.2915
761.1853	7461.772
761.78113	7474.1929
762.37695	7483.3604
762.97278	7585.4092
763.5686	7489.2974
764.16443	7423.1411
764.76025	7367.5522
765.35608	7382.5498
765.95184	7457.3242
766.54767	7310.5376
767.14349	7244.6162
767.73932	7289.2764
768.33514	7299.3301
768.93097	7228.7905
769.52679	7346.0464
770.12262	7260.1631
770.71844	7176.1973
771.31421	7220.1177
771.91003	7169.9009
772.50586	7051.5483
773.10168	7117.8062
773.69751	7129.647
774.29333	7096.9648
774.88916	7044.1895
775.48499	6976.0313
776.08081	6965.7852
776.67657	7045.4961
777.2724	7022.6436
777.86823	6964.7534
778.46405	6965.8433
779.05988	6950.4844
779.6557	6956.9487
780.25153	6853.8208
780.84735	6747.2441
781.44318	6742.7583
782.03894	6712.1143
782.63477	6695.6304
783.23059	6713.2456
783.82642	6758.1626
784.42224	6697.814
785.01807	6572.2676
785.61389	6553.9224
786.20972	6497.0278
786.80554	6384.5352
787.40131	6430.0527
787.99713	6448.3999
788.59296	6460.6807
789.18878	6429.2271
789.78461	6451.3911
790.38043	6406.9819
790.97626	6336.6675
791.57208	6265.5029
792.16785	6182.8442
792.76367	6191.3906
793.3595	6223.5854
793.95532	6148.7617
794.55115	6093.5249
795.14697	6002.5405
795.7428	6003.0044
796.33862	5926.667
796.93445	6022.4951
797.53021	5881.124
798.12604	5970.4731
798.72186	5871.9678
799.31769	5779.1968
799.91351	5819.9419
800.50934	5776.98
801.10516	5736.3433
801.70099	5725.3789
802.29681	5720.0908
802.89258	5650.3945
803.4884	5657.9053
804.08423	5565.6392
804.68005	5504.5088
805.27588	5506.9424
805.8717	5498.8765
806.46753	5393.437
807.06335	5468.5483
807.65918	5500.3936
808.25494	5428.8169
808.85077	5293.4165
809.44659	5303.5156
810.04242	5219.4751
810.63824	5187.1997
811.23407	5199.3013
811.8299	5256.8423
812.42572	5213.6206
813.02155	5170.0293
813.61731	5074.9268
814.21313	5104.1904
814.80896	5056.5273
815.40479	5009.751
816.00061	5030.5474
816.59644	5020.8779
817.19226	5026.9204
817.78809	4990.6597
818.38391	4919.3755
818.97968	4896.6816
819.5755	4874.4224
820.17133	4886.1392
820.76715	4918.5542
821.36298	4900.5747
821.9588	4888.9727
822.55463	4871.7524
823.15045	4837.1387
823.74622	4762.5283
824.34204	4747.3027
824.93787	4770.4663
825.53369	4765.8628
826.12952	4778.854
826.72534	4765.4297
827.32117	4766.7959
827.91699	4759.0371
828.51282	4730.7871
829.10858	4731.272
829.70441	4774.1592
830.30023	4808.2173
830.89606	4802.0864
831.49188	4786.5952
832.08771	4735.2124
832.68353	4735.4473
833.27936	4719.7681
833.87518	4731.583
834.47095	4725.2534
835.06677	4764.8047
835.6626	4743.0303
836.25842	4705.3066
836.85425	4688.2598
837.45007	4697.1333
838.0459	4733.0586
838.64172	4760.2896
839.23755	4739.7886
839.83331	4765.7861
840.42914	4775.8159
841.02496	4724.6455
841.62079	4738.4243
842.21661	4747.6675
842.81244	4722.4668
843.40826	4656.1646
844.00409	4709.2959
844.59991	4709.645
845.19568	4751.5103
845.7915	4699.8403
846.38733	4682.0381
846.98315	4731.9741
847.57898	4710.8521
848.1748	4746.8252
848.77063	4777.1694
849.36646	4651.6162
849.96228	4718.6304
850.55804	4712.5679
851.15387	4720.7637
851.74969	4709.4741
852.34552	4722.9302
852.94135	4720.7676
853.53717	4767.2266
854.133	4770.8853
854.72882	4751.5938
855.32458	4775.8232
855.92041	4769.2534
856.51624	4775.0562
857.11206	4711.0444
857.70789	4721.9395
858.30371	4818.6147
858.89954	4753.7085
859.49536	4744.8281
860.09119	4775.2935
860.68695	4762.8623
861.28278	4731.8862
861.8786	4773.0664
862.47443	4714.5
863.07025	4825.9639
863.66608	4814.0894
864.2619	4812.2915
864.85773	4792.6138
865.45355	4820.8433
866.04932	4765.0195
866.64514	4801.2153
867.24097	4866.8091
867.83679	4850.4668
868.43262	4840.9175
869.02844	4834.3765
869.62427	4882.7368
870.22009	4851.9316
870.81592	4830.147
871.41168	4831.3003
872.00751	4888.0049
872.60333	4905.5137
873.19916	4973.4727
873.79498	4886.436
874.39081	4927.4976
874.98663	4950.6919
875.58246	4932.9604
876.17828	4948.3394
876.77405	4910.022
877.36987	4908.9331
877.9657	4920.5317
878.56152	4961.3687
879.15735	4968.9136
879.75317	4985.9331
880.349	4972.7217
880.94482	4989.4609
881.54065	5051.3408
882.13641	5071.729
882.73224	5085.2793
883.32806	4970.5732
883.92389	5083.2925
884.51971	5037.5483
885.11554	5088.5918
885.71136	5136.3267
886.30719	5100.2407
886.90295	5133.853
887.49878	5186.6909
888.0946	5148.1958
888.69043	5165.626
889.28625	5161.606
889.88208	5164.8975
890.47791	5248.0737
891.07373	5220.7378
891.66956	5295.8447
892.26532	5309.1948
892.86115	5330.8916
893.45697	5269.064
894.0528	5309.9448
894.64862	5395.8545
895.24445	5396.1348
895.84027	5461.1689
896.4361	5439.709
897.03192	5449.3271
897.62769	5449.2515
898.22351	5520.2056
898.81934	5506.4561
899.41516	5574.5679
900.01099	5604.9531
900.60681	5625.2363
901.20264	5602.2139
901.79846	5686.6172
902.39429	5663.1987
902.99005	5693.0713
903.58588	5768.3745
904.1817	5779.4863
904.77753	5781.394
905.37335	5864.5098
905.96918	5901.9248
906.565	5911.5405
907.16083	5916.8369
907.75665	5966.4341
908.35242	6029.2529
908.94824	6037.3418
909.54407	6044.4248
910.13989	6103.7949
910.73572	6263.5479
911.33154	6251.0864
911.92737	6247.7866
912.52319	6242.8735
913.11902	6305.0688
913.71478	6339.7998
914.31061	6355.1318
914.90643	6442.938
915.50226	6487.229
916.09808	6545.272
916.69391	6590.5132
917.28973	6611.2388
917.88556	6679.0947
918.48132	6712.9912
919.07715	6762.8281
919.67297	6768.0132
920.2688	6923.6973
920.86462	6924.8501
921.46045	6818.3848
922.05627	6963.3936
922.6521	7029.1401
923.24792	7077.7324
923.84369	7150.6226
924.43951	7216.6064
925.03534	7252.895
925.63116	7292.6924
926.22699	7303.4258
926.82281	7408.7402
927.41864	7465.2935
928.01447	7484.9009
928.61029	7540.7871
929.20605	7594.6201
929.80188	7734.9258
930.39771	7689.1724
930.99353	7773.9888
931.58936	7761.5044
932.18518	7829.2573
932.78101	7836.1289
933.37683	7967.7095
933.97266	8033.731
934.56842	8075.3706
935.16425	8072.4072
935.76007	8225.6318
936.3559	8217.4727
936.95172	8312.165
937.54755	8360.9297
938.14337	8408.7568
938.7392	8506.2744
939.33502	8538.0371
939.93079	8559.8594
940.52661	8470.458
941.12244	8631.7998
941.71826	8689.499
942.31409	8728.3945
942.90991	8755.6914
943.50574	8837.3672
944.10156	8830.5439
944.69739	8992.5977
945.29315	8998.3916
945.88898	8922.6826
946.4848	8955.5146
947.08063	9186.54
947.67645	9213.4307
948.27228	9212.1035
948.8681	9260.0459
949.46393	9229.498
950.05969	9147.7471
950.65552	9296.8438
951.25134	9343.0029
951.84717	9510.085
952.44299	9597.8623
953.03882	9572.1963
953.63464	9641.1289
954.23047	9622.2305
954.82629	9574.332
955.42206	9733.6143
956.01788	9755.2412
956.61371	9818.1123
957.20953	9872.751
957.80536	9890.2354
958.40118	9925.2891
958.99701	9752.8076
959.59283	9867.332
960.18866	9928.0156
960.78442	10040.999
961.38025	10102.254
961.97607	10129.309
962.5719	10180.855
963.16772	10268.771
963.76355	10203.269
964.35938	10247.074
964.9552	10274.227
965.55103	10311.537
966.14679	10337.265
966.74261	10307.1
967.33844	10447.209
967.93427	10500.466
968.53009	10392.088
969.12592	10385.427
969.72174	10533.287
970.31757	10612.113
970.91339	10623.603
971.50916	10608.077
972.10498	10600.774
972.70081	10637.159
973.29663	10689.136
973.89246	10671.57
974.48828	10757.013
975.08411	10796.909
975.67993	10918.118
976.27576	10908.258
976.87152	10837.005
977.46735	10847.226
978.06317	10863.698
978.659	10746.886
979.25482	10847.827
979.85065	10975.325
980.44647	11037.738
981.0423	11064.18
981.63806	10999.625
982.23389	10895.551
982.82971	10913.998
983.42554	11026.419
984.02136	11061.024
984.61719	11129.897
985.21301	11123.783
985.80884	11271.498
986.40466	11206.719
987.00043	11250.367
987.59625	11278.333
988.19208	11261.143
988.7879	11255.375
989.38373	11324.485
989.97955	11421.91
990.57538	11374.42
991.1712	11403.974
991.76703	11353.881
992.36279	11264.77
992.95862	11264.526
993.55444	11370.54
994.15027	11374.629
994.74609	11550.895
995.34192	11565.059
995.93774	11471.488
996.53357	11568.641
997.12939	11607.847
997.72516	11545.809
998.32098	11631.535
998.91681	11671.649
999.51263	11689.127
1000.1085	11728.057
1000.7043	11691.095
1001.3001	11575.837
1001.8959	11634.366
1002.4918	11563.155
1003.0875	11668.25
1003.6833	11772.727
1004.2792	11768.36
1004.875	11786.867
1005.4708	11864.343
1006.0667	11765.94
1006.6625	11790.952
1007.2583	11797.523
1007.8541	11835.404
1008.4499	11911.099
1009.0457	11909.404
1009.6415	11940.332
1010.2374	11869.548
1010.8332	11832.548
1011.429	11906.554
1012.0248	12008.139
1012.6207	11962.808
1013.2164	12115.68
1013.8123	11997.389
1014.4081	11970.844
1015.0039	12049.102
1015.5997	12060.374
1016.1956	11870.655
1016.7914	12060.389
1017.3872	12039.507
1017.983	12154.049
1018.5788	12164.521
1019.1746	12108.504
1019.7704	12005.036
1020.3663	11983.357
1020.9621	12041.057
1021.5579	12037.746
1022.1537	12177.169
1022.7496	12077.025
1023.3454	12157.656
1023.9412	12084.575
1024.537	12241.807
1025.1328	12080.475
1025.7286	12114.097
1026.3245	12055.019
1026.9203	12185.19
1027.5161	12164.287
1028.1119	12253.272
1028.7078	12154.636
1029.3036	12086.869
1029.8994	12164.351
1030.4952	12121.382
1031.0911	12135.783
1031.6868	12175.044
1032.2826	12076.249
1032.8784	12216.518
1033.4742	12176.083
1034.0701	12235.118
1034.6659	12166.595
1035.2617	12315.628
1035.8575	12301.051
1036.4534	12314.583
1037.0492	12268.106
1037.645	12297.955
1038.2408	12234.574
1038.8367	12170.385
1039.4325	12196.863
1040.0283	12087.679
1040.6241	12257.186
1041.22	12202.418
1041.8158	12229.921
1042.4115	12225.67
1043.0073	12195.93
1043.6031	12206.088
1044.199	12184.921
1044.7948	12210.173
1045.3906	12263.048
1045.9865	12236.507
1046.5823	12137.23
1047.1781	12076.181
1047.7739	12113.447
1048.3698	12071.169
1048.9656	12059.461
1049.5614	12020.724
1050.1572	12052.349
1050.7531	12159.142
1051.3489	12143.325
1051.9447	12057.813
1052.5405	11973.235
1053.1362	11926.438
1053.7321	11852.457
1054.3279	11849.708
1054.9237	11940.688
1055.5195	11926.958
1056.1154	11887.191
1056.7112	11861.725
1057.307	11779.64
1057.9028	11720.799
1058.4987	11731.216
1059.0945	11693.177
1059.6903	11743.712
1060.2861	11794.462
1060.882	11716.628
1061.4778	11609.995
1062.0736	11597.134
1062.6694	11620.405
1063.2651	11497.456
1063.861	11448.897
1064.4568	11496.546
1065.0526	11505.682
1065.6484	11534.546
1066.2443	11334.169
1066.8401	11288.111
1067.4359	11307.745
1068.0317	11187.794
1068.6276	11240.597
1069.2234	11234.757
1069.8192	11287.514
1070.415	11182.634
1071.0109	11065.722
1071.6067	11069.124
1072.2025	10975.934
1072.7983	11020.376
1073.3942	10961.209
1073.9899	11012.199
1074.5857	10925.939
1075.1815	10910.278
1075.7773	10905.547
1076.3732	10755.313
1076.969	10600.232
1077.5648	10662.82
1078.1606	10693.385
1078.7565	10634.701
1079.3523	10682.097
1079.9481	10479.168
1080.5439	10392.075
1081.1398	10484.49
1081.7356	10339.067
1082.3314	10249.415
1082.9272	10188.827
1083.5231	10315.521
1084.1189	10375.691
1084.7146	10308.894
1085.3104	10222.638
1085.9063	10069.02
1086.5021	10000.67
1087.0979	9900.3926
1087.6937	9830.9873
1088.2896	9914.7637
1088.8854	9876.4736
1089.4812	9850.2363
1090.077	9789.5869
1090.6729	9686.2275
1091.2687	9609.8955
1091.8645	9573.9629
1092.4603	9499.7979
1093.0562	9554.4385
1093.652	9550.7217
1094.2478	9425.752
1094.8435	9377.6885
1095.4393	9255.3057
1096.0352	9250.499
1096.631	9221.79
1097.2268	9218.7256
1097.8226	9242.6465
1098.4185	9168.0703
1099.0143	9043.5947
1099.6101	8989.9297
1100.2059	8909.9688
1100.8018	8874.6299
1101.3976	8860.2754
1101.9934	8861.3008
1102.5892	8730.5127
1103.1851	8755.2695
1103.7809	8729.9805
1104.3767	8611.3584
1104.9725	8564.9521
1105.5682	8510.9326
1106.1641	8531.6299
1106.7599	8511.001
1107.3557	8463.9814
1107.9515	8316.5254
1108.5474	8332.0098
1109.1432	8356.7539
1109.739	8167.6392
1110.3348	8143.4751
1110.9307	8237.4551
1111.5265	8228.8408
1112.1223	8147.3481
1112.7181	8097.8438
1113.314	8001.9063
1113.9098	7968.6816
1114.5056	7944.0337
1115.1014	7876.0566
1115.6973	7893.7148
1116.293	7813.4629
1116.8888	7784.8696
1117.4846	7781.6582
1118.0804	7682.7349
1118.6763	7603.479
1119.2721	7524.6333
1119.8679	7514.7925
1120.4637	7539.1938
1121.0596	7542.1724
1121.6554	7508.0176
1122.2512	7427.8184
1122.847	7332.2319
1123.4429	7267.8301
1124.0387	7288.4331
1124.6345	7240.8823
1125.2303	7182.6426
1125.8262	7134.021
1126.4219	7137.6138
1127.0177	7186.0859
1127.6135	7160.355
1128.2094	6945.563
1128.8052	6991.3154
1129.401	7000.7856
1129.9968	6898.6538
1130.5927	6928.4312
1131.1885	6879.543
1131.7843	6887.7939
1132.3801	6750.4932
1132.976	6636.5786
1133.5718	6700.8564
1134.1676	6712.7915
1134.7634	6625.2749
1135.3593	6634.3701
1135.9551	6661.3447
1136.5509	6523.6025
1137.1466	6438.1641
1137.7424	6330.144
1138.3383	6392.376
1138.9341	6325.4805
1139.5299	6341.7466
1140.1257	6325.6333
1140.7216	6331.4146
1141.3174	6269.0532
1141.9132	6191.7827
1142.509	6200.9727
1143.1049	6168.9063
1143.7007	6138.2007
1144.2965	6082.6099
1144.8923	6041.0361
1145.4882	6000.7417
1146.084	5957.6084
1146.6798	5890.002
1147.2756	5879.022
1147.8713	5882.0703
1148.4672	5805.2109
1149.063	5836.6084
1149.6588	5852.5015
1150.2546	5756.0103
1150.8505	5674.1338
1151.4463	5636.0449
1152.0421	5667.0967
1152.6379	5606.1831
1153.2338	5609.3418
1153.8296	5609.5044
1154.4254	5591.8145
1155.0212	5612.7168
1155.6171	5419.8794
1156.2129	5529.8765
1156.8087	5455.1992
1157.4045	5407.4517
1158.0002	5353.2402
1158.5961	5328.4746
1159.1919	5282.8486
1159.7877	5331.3438
1160.3835	5312.1875
1160.9794	5252.3706
1161.5752	5208.4375
1162.171	5145.4941
1162.7668	5143.7183
1163.3627	5182.5898
1163.9585	5108.4507
1164.5543	5097.8945
1165.1501	5072.6465
1165.746	5016.377
1166.3418	4993.4629
1166.9376	4994.1201
1167.5334	4956.8735
1168.1293	4906.9321
1168.725	4905.5542
1169.3208	4945.3677
1169.9166	4891.1279
1170.5125	4821.5
1171.1083	4829.689
1171.7041	4776.7451
1172.2999	4721.4438
1172.8958	4732.5918
1173.4916	4739.7817
1174.0874	4683.9429
1174.6832	4640.4287
1175.2791	4567.0908
1175.8749	4594.1553
1176.4707	4629.2144
1177.0665	4607.5415
1177.6624	4587.0547
1178.2582	4631.9053
1178.854	4593.7554
1179.4497	4475.0874
1180.0455	4420.0205
1180.6414	4451.9375
1181.2372	4416.4683
1181.833	4448.5112
1182.4288	4455.0688
1183.0247	4409.8652
1183.6205	4367.5
1184.2163	4358.9648
1184.8121	4331.3784
1185.408	4310.7373
1186.0038	4303.0645
1186.5996	4326.0908
1187.1954	4341.8862
1187.7913	4304.7959
1188.3871	4326.2817
1188.9829	4222.3613
1189.5786	4186.0059
1190.1744	4172.71
1190.7703	4252.6865
1191.3661	4213.0649
1191.9619	4235.8203
1192.5577	4160.3501
1193.1536	4090.2527
1193.7494	4177.8994
1194.3452	4111.1851
1194.941	4144.7769
1195.5369	4133.5347
1196.1327	4157.5229
1196.7285	4072.9414
1197.3243	4131.4858
1197.9202	4088.3025
1198.516	4053.905
1199.1118	4019.9431
1199.7076	4018.7722
1200.3033	4042.1799
1200.8992	4064.9529
1201.495	4084.2488
1202.0908	4022.8577
1202.6866	3989.2268
1203.2825	4001.5061
1203.8783	3999.2075
1204.4741	4003.678
1205.0699	3946.4502
1205.6658	4017.0205
1206.2616	3976.3994
1206.8574	4089.5742
1207.4532	3971.2947
1208.0491	3946.0674
1208.6449	3920.8254
1209.2407	3912.9177
1209.8365	3924.8857
1210.4324	3942.5308
1211.0281	3915.1411
1211.6239	3920.5994
1212.2197	3921.1375
1212.8156	3889.731
1213.4114	3935.2988
1214.0072	3911.394
1214.603	3919.2429
1215.1989	3912.8362
1215.7947	3888.6526
1216.3905	3878.5422
1216.9863	3886.4312
1217.5822	3886.7625
1218.178	3854.8152
1218.7738	3863.2439
1219.3696	3845.437
1219.9655	3871.5278
1220.5613	3847.8811
1221.157	3902.2307
1221.7528	3833.6233
1222.3486	3786.9817
1222.9445	3899.0198
1223.5403	3871.1714
1224.1361	3865.2822
1224.7319	3888.0161
1225.3278	3840.4241
1225.9236	3769.5327
1226.5194	3826.6089
1227.1152	3800.9866
1227.7111	3821.4055
1228.3069	3851.3889
1228.9027	3848.7632
1229.4985	3860.1499
1230.0944	3853.2129
1230.6902	3824.3916
1231.286	3778.3303
1231.8817	3799.5994
1232.4775	3836.3955
1233.0734	3817.5952
1233.6692	3871.7544
1234.265	3852.3364
1234.8608	3839.1045
1235.4567	3786.1135
1236.0525	3760.6653
1236.6483	3767.5706
1237.2441	3760.9104
1237.84	3832.271
1238.4358	3734.3137
1239.0316	3841.0378
1239.6274	3829.9182
1240.2233	3788.4041
1240.8191	3727.1294
1241.4149	3767.1462
1242.0107	3824.792
1242.6064	3845.7913
1243.2023	3823.4937
1243.7981	3824.1599
1244.3939	3858.7744
1244.9897	3821.6567
1245.5856	3812.7246
1246.1814	3799.6956
1246.7772	3771.8645
1247.373	3787.3862
1247.9689	3725.6543
1248.5647	3807.947
1249.1605	3753.5955
1249.7563	3771.9421
1250.3522	3711.5769
1250.948	3651.7961
1251.5438	3750.199
1252.1396	3796.6421
1252.7354	3766.1003
1253.3312	3822.0796
1253.927	3792.1641
1254.5228	3771.6077
1255.1187	3772.7266
1255.7145	3785.0938
1256.3103	3800.5986
1256.9061	3806.584
1257.502	3794.6135
1258.0978	3739.9946
1258.6936	3737.4587
1259.2894	3790.7998
1259.8853	3764.7446
1260.4811	3748.322
1261.0769	3797.7832
1261.6727	3731.3772
1262.2686	3815.4478
1262.8644	3746.8623
1263.4601	3751.4976
1264.0559	3828.8755
1264.6517	3755.6384
1265.2476	3739.5972
1265.8434	3781.884
1266.4392	3820.9521
1267.035	3793.2854
1267.6309	3779.3396
1268.2267	3763.5537
1268.8225	3747.0276
1269.4183	3726.9558
1270.0142	3707.9514
1270.61	3779.7043
1271.2058	3763.854
1271.8016	3785.3979
1272.3975	3840.6589
1272.9933	3746.7864
1273.5891	3807.5825
1274.1848	3754.8767
1274.7806	3761.4373
1275.3765	3749.7134
1275.9723	3757.9805
1276.5681	3807.6987
1277.1639	3785.4827
1277.7598	3789.1885
1278.3556	3779.2974
1278.9514	3744.8835
1279.5472	3744.9094
1280.1431	3740.9509
1280.7389	3748.2092
1281.3347	3726.1909
1281.9305	3690.155
1282.5264	3701.4712
1283.1222	3743.2146
1283.718	3694.5027
1284.3137	3756.271
1284.9095	3739.7605
1285.5054	3735.5911
1286.1012	3807.4238
1286.697	3729.4768
1287.2928	3736.3313
1287.8887	3706.4067
1288.4845	3720.8496
1289.0803	3740.1685
1289.6761	3779.189
1290.272	3783.8037
1290.8678	3778.3057
1291.4636	3735.6948
1292.0594	3715.8267
1292.6553	3749.0217
1293.2511	3752.0918
1293.8469	3715.5532
1294.4427	3760.4812
1295.0385	3741.9758
1295.6343	3808.436
1296.2301	3753.1802
1296.8259	3798.2017
1297.4218	3740.1929
1298.0176	3746.5674
1298.6134	3758.1345
1299.2092	3751.8772
1299.8051	3746.5237
1300.4009	3770.3235
1300.9967	3725.0083
1301.5925	3715.0208
1302.1884	3755.4131
1302.7842	3780.1982
1303.38	3745.0916
1303.9758	3753.2942
1304.5717	3747.8486
1305.1675	3770.6001
1305.7632	3765.5579
1306.359	3731.7029
1306.9548	3761.9443
1307.5507	3743.4443
1308.1465	3701.2002
1308.7423	3741.0193
1309.3381	3722.5911
1309.934	3705.0352
1310.5298	3727.5339
1311.1256	3709.9519
1311.7214	3719.0991
1312.3173	3706.8972
1312.9131	3696.3159
1313.5089	3739.3633
1314.1047	3769.1648
1314.7006	3674.9834
1315.2964	3676.0862
1315.8921	3681.031
1316.4879	3647.2493
1317.0837	3667.2095
1317.6796	3674.5796
1318.2754	3699.9265
1318.8712	3690.126
1319.467	3690.2944
1320.0629	3673.1213
1320.6587	3633.4402
1321.2545	3674.7241
1321.8503	3694.8008
1322.4462	3678.8301
1323.042	3695.7869
1323.6378	3686.2881
1324.2336	3658.3286
1324.8295	3652.5798
1325.4253	3660.8479
1326.0211	3659.0518
1326.6168	3594.5527
1327.2126	3691.0276
1327.8085	3699.3926
1328.4043	3683.5352
1329.0001	3674.8223
1329.5959	3656.2898
1330.1918	3618.6116
1330.7876	3644.6228
1331.3834	3638.9277
1331.9792	3655.5547
1332.5751	3652.0547
1333.1709	3628.4897
1333.7667	3606.521
1334.3625	3645.4175
1334.9584	3551.7361
1335.5542	3606.5986
1336.15	3669.6084
1336.7458	3645.2971
1337.3416	3621.4297
1337.9374	3633.0901
1338.5332	3640.5662
1339.129	3663.5483
1339.7249	3620.9941
1340.3207	3640.7896
1340.9165	3641.521
1341.5123	3657.6545
1342.1082	3669.7678
1342.704	3631.2056
1343.2998	3634.9248
1343.8956	3637.9595
1344.4915	3614.9678
1345.0873	3661.8682
1345.6831	3588.4041
1346.2789	3663.2512
1346.8748	3614.3594
1347.4705	3635.9221
1348.0663	3615.5891
1348.6621	3629.0906
1349.2579	3585.0273
1349.8538	3611.1365
1350.4496	3626.5813
1351.0454	3629.4888
1351.6412	3646.0977
1352.2371	3640.6677
1352.8329	3619.8459
1353.4287	3626.1741
1354.0245	3588.8589
1354.6204	3642.3054
1355.2162	3633.0435
1355.812	3637.6074
1356.4078	3624.446
1357.0037	3624.616
1357.5995	3606.3552
1358.1952	3603.9077
1358.791	3642.7173
1359.3868	3655.2029
1359.9827	3646.302
1360.5785	3657.8359
1361.1743	3678.1646
1361.7701	3714.7759
1362.366	3652.8545
1362.9618	3622.4524
1363.5576	3622.8005
1364.1534	3689.2432
1364.7493	3639.5027
1365.3451	3681.6436
1365.9409	3656.7532
1366.5367	3644.0129
1367.1326	3631.939
1367.7284	3621.9795
1368.3242	3659.7974
1368.9199	3637.2202
1369.5157	3661.2964
1370.1116	3646.1113
1370.7074	3650.5288
1371.3032	3646.8132
1371.899	3641.4819
1372.4949	3643.5637
1373.0907	3698.2188
1373.6865	3660.2234
1374.2823	3738.7356
1374.8782	3701.4661
1375.474	3621.4773
1376.0698	3699.9033
1376.6656	3579.3958
1377.2615	3594.0615
1377.8573	3638.8381
1378.4531	3641.5073
1379.0488	3625.1445
1379.6447	3645.4626
1380.2405	3699.26
1380.8363	3726.6729
1381.4321	3701.3638
1382.028	3708.1331
1382.6238	3684.2559
1383.2196	3721.0027
1383.8154	3760.8379
1384.4113	3729.0833
1385.0071	3681.4089
1385.6029	3682.9895
1386.1987	3696.0771
1386.7946	3658.0349
1387.3904	3554.2126
1387.9862	3669.1443
1388.582	3735.9028
1389.1779	3674.8171
1389.7736	3686.6121
1390.3694	3678.2061
1390.9652	3736.7979
1391.561	3747.1084
1392.1569	3712.2981
1392.7527	3726.0239
1393.3485	3752.1624
1393.9443	3746.9248
1394.5402	3682.8906
1395.136	3711.667
1395.7318	3712.2012
1396.3276	3723.5425
1396.9235	3741.4761
1397.5193	3756.7251
1398.1151	3749.8726
1398.7109	3759.8372
1399.3068	3719.1387
1399.9026	3706.686
1400.4983	3699.4333
1401.0941	3755.7673
1401.6899	3734.0281
1402.2858	3739.5991
1402.8816	3748.6331
1403.4774	3735.2021
1404.0732	3730.8696
1404.6691	3697.1487
1405.2649	3708.9329
1405.8607	3656.0454
1406.4565	3704.2405
1407.0524	3746.1726
1407.6482	3783.1687
1408.244	3722.4104
1408.8398	3733.7769
1409.4357	3731.7434
1410.0315	3734.4817
1410.6272	3737.6431
1411.223	3743.6355
1411.8188	3762.9814
1412.4147	3742.728
1413.0105	3763.9893
1413.6063	3706.5149
1414.2021	3702.4072
1414.798	3722.0127
1415.3938	3765.9307
1415.9896	3776.4929
1416.5854	3783.2913
1417.1813	3756.2783
1417.7771	3739.2642
1418.3729	3740.7495
1418.9688	3764.7896
1419.5646	3718.1741
1420.1604	3738.0713
1420.7562	3721.6482
1421.3519	3717.2334
1421.9478	3772.5154
1422.5436	3777.1335
1423.1394	3745.6697
1423.7352	3723.2627
1424.3311	3724.7463
1424.9269	3775.0591
1425.5227	3823.0762
1426.1185	3809.2534
1426.7144	3789.7363
1427.3102	3751.9812
1427.906	3806.3169
1428.5018	3769.8779
1429.0977	3784.3691
1429.6935	3803.9192
1430.2893	3728.8364
1430.8851	3778.8987
1431.481	3837.3298
1432.0767	3820.1409
1432.6725	3836.7786
1433.2683	3823.054
1433.8641	3803.7959
1434.46	3811.8972
1435.0558	3849.4124
1435.6516	3882.6116
1436.2474	3850.5132
1436.8433	3838.9209
1437.4391	3854.7996
1438.0349	3835.3906
1438.6307	3779.6829
1439.2266	3850.0215
1439.8224	3808.5012
1440.4182	3837.3511
1441.014	3889.4541
1441.6099	3843.6389
1442.2056	3824.5178
1442.8014	3786.9836
1443.3972	3764.0801
1443.993	3814.6323
1444.5889	3841.207
1445.1847	3832.7026
1445.7805	3829.4158
1446.3763	3748.7986
1446.9722	3812.4341
1447.568	3821.752
1448.1638	3787.6899
1448.7596	3820.415
1449.3555	3805.8625
1449.9513	3866.251
1450.5471	3857.0774
1451.1429	3794.0349
1451.7388	3782.7654
1452.3346	3788.5503
1452.9303	3731.0283
1453.5261	3768.9226
1454.1219	3802.4861
1454.7178	3806.6401
1455.3136	3689.429
1455.9094	3768.0488
1456.5052	3717.2505
1457.1011	3701.312
1457.6969	3757.1262
1458.2927	3735.2532
1458.8885	3815.2434
1459.4844	3764.4695
1460.0802	3760.4382
1460.676	3793.6091
1461.2719	3790.5718
1461.8677	3727.302
1462.4635	3750.3816
1463.0593	3721.4077
1463.655	3729.9766
1464.2509	3707.3191
1464.8467	3745.1218
1465.4425	3764.0303
1466.0383	3702.2312
1466.6342	3752.2588
1467.23	3760.4089
1467.8258	3687.3606
1468.4216	3721.8425
1469.0175	3755.1582
1469.6133	3742.1501
1470.2091	3663.1277
1470.8049	3685.241
1471.4008	3778.6492
1471.9966	3769.6697
1472.5924	3768.0901
1473.1882	3734.0613
1473.7839	3709.1667
1474.3798	3681.7886
1474.9756	3671.8254
1475.5714	3701.9988
1476.1672	3717.3582
1476.7631	3696.4446
1477.3589	3686.5505
1477.9547	3721.1396
1478.5505	3706.7415
1479.1464	3641.4907
1479.7422	3641.9517
1480.338	3648.7578
1480.9338	3658.9207
1481.5297	3739.1245
1482.1255	3729.2554
1482.7213	3636.7195
1483.3171	3655.8328
1483.913	3646.1406
1484.5087	3633.3552
1485.1045	3657.0454
1485.7003	3648.7817
1486.2961	3669.7129
1486.892	3650.626
1487.4878	3639.0854
1488.0836	3699.5059
1488.6794	3672.0222
1489.2753	3653.2434
1489.8711	3701.4023
1490.4669	3661.3733
1491.0627	3695.9487
1491.6586	3720.6001
1492.2544	3685.0051
1492.8502	3613.9202
1493.446	3648.9133
1494.0419	3661.4226
1494.6377	3680.0405
1495.2334	3676.3359
1495.8292	3652.8169
1496.425	3714.7366
1497.0209	3701.2429
1497.6167	3665.6604
1498.2125	3543.2285
1498.8083	3641.1716
1499.4042	3639.9265
1500	3672.8149
