15.057955	6274.1196
15.669138	7525.6758
16.280321	8575.1436
16.891506	8981.5059
17.502689	9128.0117
18.113873	9270.875
18.725056	9443.4688
19.336241	9611.251
19.947424	9764.4063
20.558607	9890.6523
21.16979	9962.7012
21.780975	10180.06
22.392159	10376.288
23.003342	10529.463
23.614525	10726.267
24.225708	10932.432
24.836893	11166.313
25.448076	11366.039
26.059259	11536.007
26.670443	11888.352
27.281628	12056.998
27.892811	12287.135
28.503994	12449.81
29.115177	12387.421
29.72636	12447.809
30.337545	12615.319
30.948729	12796.645
31.559912	12969.703
32.171097	13157.352
32.78228	13324.312
33.393463	13378.617
34.004646	13617.322
34.615829	13702.003
35.227013	13875.576
35.838196	14035.233
36.449383	14286.163
37.060566	14466.374
37.671749	14507.638
38.282932	14455.319
38.894115	14390.289
39.505299	14438.152
40.116482	14504.719
40.727665	14508.341
41.338848	14686.074
41.950035	14891.34
42.561218	15019.832
43.172401	15066.256
43.783585	15117.572
44.394768	15186.645
45.005951	15172.969
45.617134	15083.541
46.228317	15186.926
46.8395	15248.299
47.450687	15404.148
48.061871	15573.78
48.673054	15470.06
49.284237	15478.177
49.89542	15456.613
50.506603	15449.438
51.117786	15533.352
51.72897	15590.957
52.340153	15531.852
52.95134	15447.729
53.562523	15265.598
54.173706	15230.349
54.784889	15288.789
55.396072	15352.938
56.007256	15433.115
56.618439	15385.379
57.229622	15393.799
57.840809	15474.616
58.451992	15500.414
59.063175	15744.623
59.674358	15939.248
60.285542	16016.732
60.896725	15859.404
61.507908	15469.879
62.119091	15328.045
62.730274	15370.252
63.341461	15319.371
63.952644	15288.704
64.563828	15357.195
65.175011	15370.568
65.786194	15414.758
66.397377	15415.937
67.00856	15310.689
67.619743	15289.028
68.230927	15295.32
68.84211	15186.804
69.453293	15223.903
70.064476	15281.724
70.675659	15267.908
71.28685	15248.313
71.898033	15234.355
72.509216	15158.117
73.120399	15091.548
73.731583	15090.622
74.342766	15251.618
74.953949	15275.529
75.565132	15350.325
76.176315	15292.223
76.787498	15176.769
77.398682	15154.064
78.009865	15084.075
78.621048	14849.335
79.232231	14786.334
79.843414	14897.724
80.454597	14812.187
81.065781	14672.112
81.676964	14678.771
82.288155	14860.187
82.899338	14957.509
83.510521	14995.893
84.121704	14953.498
84.732887	14765.737
85.34407	14571.444
85.955254	14564.463
86.566437	14467.823
87.17762	14420.646
87.788803	14522.899
88.399986	14518.752
89.011169	14436.657
89.622353	14458.75
90.233536	14507.818
90.844719	14425.514
91.455902	14399.445
92.067085	14497.39
92.678276	14421.172
93.289459	14307.531
93.900642	14354.626
94.511826	14427.276
95.123009	14338.358
95.734192	14263.059
96.345375	14104.158
96.956558	14116.061
97.567741	14197.292
98.178925	14166.971
98.790108	14122.447
99.401291	14163.25
100.01247	14079.803
100.62366	13941.7
101.23484	13832.564
101.84602	13910.739
102.45721	13972.757
103.06839	14001.543
103.67958	13938.393
104.29076	13847.946
104.90195	13791.778
105.51313	13846.328
106.12431	13965.957
106.7355	13992.348
107.34668	13949.491
107.95786	13882.653
108.56905	13700.049
109.18023	13473.206
109.79141	13479.075
110.4026	13429.323
111.01378	13421.685
111.62496	13472.925
112.23615	13503.363
112.84733	13463.233
113.45851	13394.825
114.0697	13369.739
114.68089	13372.983
115.29207	13324.636
115.90325	13403.382
116.51443	13352.941
117.12562	13336.376
117.7368	13254.009
118.34798	13205.514
118.95917	13130.328
119.57035	13056.428
120.18153	13040.91
120.79272	13019.882
121.4039	12978.214
122.01508	13119.517
122.62627	13148.238
123.23745	12991.544
123.84863	13045.506
124.45982	12895.561
125.07101	12892.873
125.68219	12919.531
126.29337	12907.192
126.90456	12871.375
127.51574	12859.951
128.12692	12836.109
128.7381	12722.409
129.34929	12696.999
129.96048	12681.713
130.57166	12651.716
131.18285	12689.703
131.79402	12592.58
132.40521	12535.144
133.01639	12453.694
133.62758	12456.287
134.23875	12506.059
134.84995	12499.192
135.46112	12414.593
136.07231	12325.932
136.68349	12381.544
137.29468	12335.261
137.90585	12360.038
138.51704	12347.025
139.12822	12435.105
139.73941	12445.812
140.35059	12341.175
140.96178	12263.485
141.57297	12189.032
142.18414	12134.562
142.79533	12144.547
143.40651	12144.462
144.0177	12114.875
144.62888	12113.769
145.24007	12090.442
145.85124	12083.554
146.46243	12021.45
147.07361	11915.224
147.6848	11901.792
148.29597	11913.48
148.90717	11886.982
149.51834	11828.702
150.12953	11780.313
150.74071	11771.929
151.3519	11788.956
151.96309	11771.262
152.57426	11684.77
153.18546	11722.383
153.79663	11740.051
154.40782	11750.631
155.019	11774.99
155.63019	11698.346
156.24136	11628.006
156.85255	11595.342
157.46373	11517.963
158.07492	11496.106
158.6861	11619.145
159.29729	11593.834
159.90846	11523.547
160.51965	11404.632
161.13083	11324.767
161.74202	11385.814
162.35321	11412.563
162.96439	11621.692
163.57558	11590.285
164.18675	11411.495
164.79794	11338.957
165.40912	11294.131
166.02031	11242.79
166.63148	11323.979
167.24268	11283.155
167.85385	11176.563
168.46504	11261.955
169.07622	11258.796
169.68741	11152.382
170.29858	11132.389
170.90977	11125.105
171.52095	11090.279
172.13214	11137.767
172.74333	11171.403
173.35451	11172.405
173.9657	11147.676
174.57687	11058.445
175.18806	11122.783
175.79924	11045.339
176.41043	10997.769
177.02161	10988.541
177.6328	11051.713
178.24397	11015.413
178.85516	11017.92
179.46634	10926.405
180.07753	10898.746
180.68871	10910.42
181.2999	10953.483
181.91107	10985.002
182.52226	10893.28
183.13344	10860.549
183.74463	10899.803
184.35582	10907.917
184.967	10883.486
185.57819	10861.999
186.18936	10823.618
186.80055	10921.39
187.41173	10864.071
188.02292	10824.643
188.63409	10827.96
189.24529	10815.857
189.85646	10805.164
190.46765	10817.688
191.07883	10842.495
191.69002	10832.228
192.30119	10675.12
192.91238	10791.331
193.52356	10691.375
194.13475	10766.46
194.74594	10740.807
195.35712	10699.844
195.96831	10710.947
196.57948	10755.369
197.19067	10740.411
197.80185	10638.497
198.41304	10582.567
199.02422	10638.866
199.63541	10627.017
200.24658	10612.52
200.85777	10680.471
201.46895	10622.998
202.08014	10588.134
202.69131	10579.61
203.30251	10548.266
203.91368	10543.713
204.52487	10638.254
205.13606	10672.492
205.74724	10631.853
206.35843	10635.564
206.9696	10649.943
207.5808	10582.413
208.19197	10533.25
208.80316	10471.14
209.41434	10517.703
210.02553	10566.134
210.6367	10509.501
211.24789	10509.221
211.85907	10519.28
212.47026	10533.364
213.08144	10483.244
213.69263	10464.04
214.3038	10497.398
214.91499	10532.569
215.52618	10546.548
216.13736	10498.202
216.74855	10391.195
217.35973	10412.399
217.97092	10426.623
218.58209	10446.191
219.19328	10494.72
219.80446	10420.54
220.41565	10438.736
221.02682	10431.421
221.63802	10413.937
222.24919	10383.64
222.86038	10383.233
223.47156	10418.403
224.08275	10455.87
224.69392	10451.395
225.30511	10373.442
225.91631	10393.786
226.52748	10365.751
227.13867	10366.868
227.74985	10283.137
228.36104	10406.741
228.97221	10411.295
229.5834	10369.092
230.19458	10354.675
230.80577	10329.82
231.41695	10304.905
232.02814	10325.018
232.63931	10361.442
233.2505	10351.392
233.86168	10328.069
234.47287	10347.915
235.08405	10298.77
235.69524	10343.007
236.30641	10361.148
236.9176	10266.044
237.52879	10258.375
238.13997	10319.69
238.75116	10229.168
239.36234	10232.763
239.97353	10252.773
240.5847	10227.845
241.19589	10228.066
241.80707	10271.372
242.41826	10293.156
243.02943	10276.832
243.64063	10272.75
244.2518	10228.974
244.86299	10293.983
245.47417	10258.382
246.08536	10230.254
246.69653	10197.571
247.30772	10276.96
247.91891	10226.675
248.53009	10271.599
249.14128	10242.694
249.75246	10171.122
250.36365	10179.864
250.97482	10239.178
251.58601	10251.871
252.19719	10226.845
252.80838	10313.649
253.41956	10276.049
254.03075	10171.979
254.64192	10147.771
255.25311	10175.779
255.86429	10205.587
256.47546	10260.613
257.08667	10275.346
257.69785	10247.007
258.30902	10218.723
258.92023	10209.608
259.5314	10230.479
260.14258	10220.618
260.75375	10163.479
261.36496	10185.373
261.97614	10290.66
262.58731	10283.811
263.19849	10206.839
263.80969	10206.906
264.42087	10135.354
265.03204	10188.416
265.64322	10258.539
266.25443	10256.778
266.8656	10208.886
267.47678	10124.827
268.08795	10175.982
268.69916	10204.27
269.31033	10213.396
269.92151	10260.828
270.53271	10249.311
271.14389	10230.248
271.75507	10232.559
272.36624	10229.045
272.97745	10200.178
273.58862	10246.982
274.1998	10245.107
274.81097	10241
275.42218	10237.181
276.03336	10287.763
276.64453	10223.691
277.25571	10234.743
277.86691	10211.291
278.47809	10203.122
279.08926	10215.216
279.70047	10219.835
280.31165	10239.101
280.92282	10248.343
281.534	10292.26
282.1452	10229.649
282.75638	10255.445
283.36755	10291.335
283.97873	10254.202
284.58994	10287.183
285.20111	10342.801
285.81229	10290.185
286.42346	10338.17
287.03467	10341.651
287.64584	10290.508
288.25702	10260.177
288.86819	10326.139
289.4794	10353.322
290.09058	10334.516
290.70175	10410.253
291.31296	10380.735
291.92413	10266.956
292.53531	10268.305
293.14648	10336.404
293.75769	10321.584
294.36887	10374.722
294.98004	10362.818
295.59122	10331.578
296.20242	10333.271
296.8136	10375.46
297.42477	10353.838
298.03595	10384.68
298.64716	10388.642
299.25833	10333.346
299.86951	10327.215
300.48068	10360.798
301.09189	10348.231
301.70306	10345.316
302.31424	10399.755
302.92545	10393.93
303.53662	10445.229
304.1478	10367.891
304.75897	10427.709
305.37018	10419.407
305.98135	10402.508
306.59253	10368.697
307.2037	10387.925
307.81491	10419.56
308.42609	10417.588
309.03726	10393.292
309.64844	10432.57
310.25964	10464.448
310.87082	10410.928
311.48199	10401.731
312.0932	10455.566
312.70438	10436.213
313.31555	10511.36
313.92673	10503.163
314.53793	10485.216
315.14911	10353.93
315.76028	10375.723
316.37146	10414.258
316.98267	10415.874
317.59384	10380.573
318.20502	10437.74
318.81619	10494.055
319.4274	10504.631
320.03857	10455.779
320.64975	10414.432
321.26093	10457.784
321.87213	10539.903
322.48331	10562.288
323.09448	10506.206
323.70569	10447.048
324.31686	10500.959
324.92804	10395.626
325.53922	10364.573
326.15042	10437.383
326.7616	10448.271
327.37277	10488.855
327.98395	10526.616
328.59515	10517.49
329.20633	10456.27
329.8175	10456.349
330.42868	10457.52
331.03989	10527.752
331.65106	10565.699
332.26224	10589.338
332.87344	10607.207
333.48462	10536.07
334.09579	10506.672
334.70697	10466.389
335.31818	10561.938
335.92935	10573.748
336.54053	10635.329
337.1517	10517.788
337.76291	10566.053
338.37408	10530.31
338.98526	10540.721
339.59644	10561.96
340.20764	10631.813
340.81882	10588.419
341.42999	10606.655
342.04117	10611.886
342.65237	10634.177
343.26355	10637.848
343.87473	10592.425
344.48593	10621.763
345.09711	10696.115
345.70828	10667.974
346.31946	10632.521
346.93066	10633.284
347.54184	10587.318
348.15302	10638.525
348.76419	10640.247
349.3754	10716.951
349.98657	10735.149
350.59775	10713.51
351.20892	10757.719
351.82013	10785.396
352.4313	10802.766
353.04248	10770.436
353.65366	10763.792
354.26486	10723.368
354.87604	10747.896
355.48721	10790.503
356.09842	10739.428
356.70959	10728.877
357.32077	10783.072
357.93195	10789.592
358.54315	10846.27
359.15433	10822.279
359.7655	10821.364
360.37668	10822.996
360.98788	10753.989
361.59906	10888.84
362.21024	10817.481
362.82141	10806.574
363.43262	10896.305
364.04379	10933.493
364.65497	10935.667
365.26617	10954.804
365.87735	10918.315
366.48853	10932.42
367.0997	10927.763
367.71091	10942.831
368.32208	10992.844
368.93326	10991.146
369.54443	10998.828
370.15564	11004.634
370.76682	11028.986
371.37799	10965.823
371.98917	10982.208
372.60037	11002.594
373.21155	10968.659
373.82272	11051.622
374.4339	11028.558
375.0451	10986.47
375.65628	11075.56
376.26746	10998.482
376.87866	11102.927
377.48984	11100.484
378.10101	11076.63
378.71219	11099.922
379.32339	11136.785
379.93457	11141.798
380.54575	11107.697
381.15692	11094.736
381.76813	11120.413
382.3793	11147.441
382.99048	11184.976
383.60165	11202.48
384.21286	11205.068
384.82404	11113.736
385.43521	11127.531
386.04642	11190.638
386.65759	11246.369
387.26877	11214.378
387.87994	11190.688
388.49115	11261.64
389.10233	11249.938
389.7135	11242.384
390.32468	11269.331
390.93588	11327.26
391.54706	11342.326
392.15823	11357.085
392.76941	11357.39
393.38062	11352.893
393.99179	11380.5
394.60297	11390.77
395.21414	11374.729
395.82535	11373.062
396.43652	11361.366
397.0477	11354.875
397.65891	11273.479
398.27008	11432.414
398.88126	11397.54
399.49243	11504.212
400.10364	11508.008
400.71481	11554.406
401.32599	11533.565
401.93716	11560.921
402.54837	11529.376
403.15955	11590.46
403.77072	11634.728
404.3819	11643.872
404.9931	11616.092
405.60428	11578.639
406.21545	11595.103
406.82663	11624.753
407.43784	11615.582
408.04901	11641.657
408.66019	11712.45
409.27139	11773.455
409.88257	11778.06
410.49374	11701.626
411.10492	11772.159
411.71613	11823.704
412.3273	11834.903
412.93848	11860.914
413.54965	11796.547
414.16086	11879.933
414.77203	11888.563
415.38321	11932.97
415.99438	11936.469
416.60559	11943.052
417.21677	11942.857
417.82794	12012.036
418.43915	12129.96
419.05032	12123.344
419.6615	12099.249
420.27267	12086.783
420.88388	12145.159
421.49506	12128.825
422.10623	12140.828
422.71741	12198.084
423.32861	12216.033
423.93979	12267.055
424.55096	12246.806
425.16214	12184.346
425.77335	12264.66
426.38452	12322.234
426.9957	12348
427.60687	12374.011
428.21808	12430.319
428.82925	12465.993
429.44043	12383.334
430.05164	12496.62
430.66281	12501.428
431.27399	12481.599
431.88516	12564.342
432.49637	12648.244
433.10754	12587.817
433.71872	12601.253
434.3299	12723.732
434.9411	12652.467
435.55228	12640.192
436.16345	12715.419
436.77463	12778.014
437.38583	12804.695
437.99701	12792.409
438.60818	12815.471
439.21936	12881.554
439.83057	12910.028
440.44174	12951.727
441.05292	13018.328
441.66412	12998.973
442.2753	12991.41
442.88647	13170.738
443.49765	13092.072
444.10886	13157.862
444.72003	13025.664
445.33121	13170.64
445.94238	13236.363
446.55359	13192.614
447.16476	13283.914
447.77594	13410.911
448.38712	13301.664
448.99832	13340.11
449.6095	13418.837
450.22067	13430.247
450.83188	13379.329
451.44305	13552.268
452.05423	13595.885
452.66541	13585.459
453.27661	13600.045
453.88779	13621.462
454.49896	13684.536
455.11014	13748.203
455.72134	13777.141
456.33252	13803.944
456.9437	13874.878
457.55487	13931.819
458.16608	13912.087
458.77725	13984.454
459.38843	13967.406
459.9996	14141.685
460.61081	14160.953
461.22198	14273.388
461.83316	14344.81
462.44437	14283.021
463.05554	14264.572
463.66672	14406.04
464.27789	14391.196
464.8891	14530.001
465.50027	14585.244
466.11145	14650.061
466.72263	14659.772
467.33383	14716.468
467.94501	14773.382
468.55618	14769.846
469.16736	14872.331
469.77856	14964.111
470.38974	15092.868
471.00092	15186.337
471.61212	15244.709
472.2233	15299.016
472.83447	15303.901
473.44565	15356.797
474.05685	15431.433
474.66803	15464.141
475.27921	15522.438
475.89038	15504.54
476.50159	15618.953
477.11276	15665.211
477.72394	15782.974
478.33511	15827.685
478.94632	15891.385
479.5575	15967.046
480.16867	16081.503
480.77985	16109.819
481.39105	16202.526
482.00223	16053.474
482.6134	16203.241
483.22461	16260.931
483.83578	16277.061
484.44696	16393.746
485.05814	16452.197
485.66934	16342.03
486.28052	16421.287
486.89169	16490.32
487.50287	16529.246
488.11407	16636.309
488.72525	16641.082
489.33643	16550.434
489.9476	16632.768
490.55881	16661
491.16998	16654.215
491.78116	16666.41
492.39233	16655.434
493.00354	16690.502
493.61472	16709.748
494.22589	16685.311
494.8371	16628.328
495.44827	16606.012
496.05945	16548.906
496.67062	16533.609
497.28183	16439.402
497.89301	16520.438
498.50418	16508.906
499.11536	16513.08
499.72656	16491.309
500.33774	16422.969
500.94891	16230.715
501.56009	16232.929
502.1713	16228.043
502.78247	16062.636
503.39365	16133.662
504.00485	15965.158
504.61603	15995.405
505.2272	15901.567
505.83838	15815.728
506.44958	15702.797
507.06076	15791.133
507.67194	15775.58
508.28311	15617.694
508.89432	15495.742
509.50549	15471.541
510.11667	15440.815
510.72784	15301.256
511.33905	15122.055
511.95023	15134.104
512.5614	15080.57
513.17261	14928.507
513.78375	14846.079
514.39496	14752.454
515.00616	14612.539
515.61731	14494.46
516.22852	14447.156
516.83972	14341.931
517.45087	14277.825
518.06207	14269.12
518.67322	14198.598
519.28442	13990.859
519.89563	13830.839
520.50677	13675.375
521.11798	13666.165
521.72919	13647.349
522.34033	13503.05
522.95154	13451.292
523.56268	13363.808
524.17389	13143.235
524.7851	13104.475
525.39624	13051.787
526.00745	12924.667
526.61865	12833.562
527.2298	12739.717
527.841	12668.551
528.45221	12565.717
529.06335	12471.825
529.67456	12511.076
530.28571	12386.797
530.89691	12276.223
531.50812	12278.859
532.11926	12206.967
532.73047	12115.744
533.34167	12044.491
533.95282	11957.686
534.56403	11901.664
535.17517	11833.652
535.78638	11804.883
536.39758	11782.249
537.00873	11818.431
537.61993	11806.807
538.23114	11684.476
538.84229	11596.182
539.45349	11575.028
540.0647	11623.132
540.67584	11656.931
541.28705	11604.433
541.89819	11546.553
542.5094	11488.098
543.12061	11472.155
543.73175	11485.354
544.34296	11513.54
544.95416	11474.349
545.56531	11445.864
546.17651	11447.631
546.78772	11368.644
547.39886	11384.219
548.01007	11412.101
548.62122	11375.764
549.23242	11377.559
549.84363	11518.457
550.45477	11490.104
551.06598	11444.104
551.67719	11401.356
552.28833	11473.86
552.89954	11401.136
553.51068	11437.525
554.12189	11497.218
554.73309	11548.298
555.34424	11532.977
555.95544	11551.38
556.56665	11529.053
557.1778	11529.501
557.789	11570.601
558.40021	11589.52
559.01135	11713.156
559.62256	11789.249
560.2337	11762.242
560.84491	11742.158
561.45612	11707.063
562.06726	11774.261
562.67847	11807.926
563.28967	11811.771
563.90082	11797.619
564.51202	11835.888
565.12317	11898.575
565.73438	11888.745
566.34558	11849.854
566.95673	11875.288
567.56793	11927.659
568.17914	11972.343
568.79028	11991.974
569.40149	11997.409
570.0127	12011.55
570.62384	11987.635
571.23505	11938.173
571.84619	11927.528
572.4574	12003.028
573.0686	12051.214
573.67975	11982.195
574.29095	11943.685
574.90216	11966.187
575.51331	11909.975
576.12451	11907.275
576.73566	11931.054
577.34686	11936.517
577.95807	12059.271
578.56921	12020.238
579.18042	12005.778
579.79163	12023.068
580.40277	11998.191
581.01398	11976.617
581.62518	12030.985
582.23633	12012.366
582.84753	12103.166
583.45868	12075.5
584.06989	12037.016
584.68109	12045.033
585.29224	12077.474
585.90344	12073.063
586.51465	12079.566
587.12579	12107.051
587.737	12237.449
588.34814	12089.35
588.95935	12135.429
589.57056	12125.753
590.1817	12003.25
590.79291	12053.829
591.40411	12088.724
592.01526	12151.314
592.62646	12011.054
593.23767	12016.7
593.84882	12016.094
594.46002	11880.395
595.07117	11779.37
595.68237	11706.889
596.29358	11712.331
596.90472	11685.724
597.51593	11609.498
598.12714	11516.319
598.73828	11463.943
599.34949	11272.247
599.96069	11230.185
600.57184	11166.778
601.18304	11182.83
601.79419	11152.786
602.4054	11034.11
603.0166	10910.221
603.62775	10738.486
604.23895	10595.382
604.85016	10550.768
605.4613	10424.021
606.07251	10273.61
606.68365	10186.481
607.29486	10113.199
607.90607	9992.5439
608.51721	9886.25
609.12842	9786.2783
609.73962	9690.7754
610.35077	9629.9307
610.96198	9559.6797
611.57318	9477.7539
612.18433	9404.8311
612.79553	9277.1572
613.40668	9131.4385
614.01788	9031.0791
614.62909	8962.3262
615.24023	8925.5596
615.85144	8866.5537
616.46265	8776.8838
617.07379	8662.6748
617.685	8535.46
618.29614	8463.8154
618.90735	8412.8643
619.51855	8291.707
620.1297	8232.502
620.74091	8157.0747
621.35211	8064.4844
621.96326	7942.3804
622.57446	7890.6743
623.18567	7849.3936
623.79681	7781.2842
624.40802	7692.1641
625.01917	7629.9702
625.63037	7536.4575
626.24158	7476.6279
626.85272	7427.4419
627.46393	7391.8018
628.07513	7283.8779
628.68628	7211.2212
629.29749	7196.8535
629.90863	7140.5591
630.51984	7087.8687
631.13104	6994.7944
631.74219	6892.4165
632.35339	6841.7466
632.9646	6765.2061
633.57574	6718.8911
634.18695	6704.7676
634.79816	6613.5137
635.4093	6576.5825
636.02051	6519.4424
636.63165	6450.4624
637.24286	6405.2915
637.85406	6379.6152
638.46521	6317.3052
639.07642	6275.2881
639.68762	6249.6621
640.29877	6192.3408
640.90997	6121.127
641.52112	6057.6958
642.13232	5996.0957
642.74353	5927.7881
643.35468	5880.3193
643.96588	5902.0435
644.57709	5879.2295
645.18823	5828.1704
645.79944	5733.6465
646.41064	5698.8174
647.02179	5624.6523
647.633	5612.7417
648.24414	5608.8506
648.85535	5544.0049
649.46655	5539.8193
650.0777	5446.126
650.6889	5410.4478
651.30011	5375.0698
651.91125	5298.9097
652.52246	5290.7656
653.13367	5195.6431
653.74481	5233.6357
654.35602	5167.7041
654.96716	5150.6523
655.57837	5077.7939
656.18958	4997.2061
656.80072	5005.4824
657.41193	5006.1992
658.02313	4976.0063
658.63428	4909.063
659.24548	4845.5796
659.85663	4828.9087
660.46783	4802.5679
661.07904	4807.2329
661.69019	4790.9448
662.30139	4733.0503
662.9126	4703.7397
663.52374	4668.7729
664.13495	4642.3286
664.74615	4635.353
665.3573	4631.6436
665.96851	4579.1382
666.57965	4499.1123
667.19086	4470.1782
667.80206	4453.0347
668.41321	4456.3564
669.02441	4420.9155
669.63562	4400.9487
670.24677	4340.7681
670.85797	4306.5127
671.46912	4289.771
672.08032	4229.1309
672.69153	4181.4819
673.30267	4154.938
673.91388	4107.5718
674.52509	4097.4214
675.13623	4091.5618
675.74744	4077.9509
676.35864	4042.3892
676.96979	3983.5906
677.58099	4001.0806
678.19214	4010.0168
678.80334	3976.6138
679.41455	3917.2515
680.0257	3890.0825
680.6369	3874.1848
681.24811	3838.5754
681.85925	3833.8481
682.47046	3825.8357
683.0816	3805.1387
683.69281	3754.3342
684.30402	3721.4443
684.91516	3658.8408
685.52637	3636.2607
686.13757	3612.5342
686.74872	3580.5283
687.35992	3646.699
687.97113	3598.6021
688.58228	3551.7778
689.19348	3555.3625
689.80463	3567.2341
690.41583	3539.3875
691.02704	3472.1174
691.63818	3447.3452
692.24939	3423.6255
692.8606	3408.1797
693.47174	3408.1985
694.08295	3413.457
694.69409	3393.6482
695.3053	3403.7273
695.9165	3334.9263
696.52765	3373.4653
697.13885	3343.542
697.75006	3297.1536
698.36121	3296.9612
698.97241	3206.2778
699.58362	3237.1479
700.19476	3189.9434
700.80597	3225.7788
701.41711	3266.3318
702.02832	3212.7197
702.63953	3183.3655
703.25067	3170.6211
703.86188	3170.1018
704.47308	3168.3906
705.08423	3134.5334
705.69543	3143.8994
706.30664	3186.0347
706.91779	3148.239
707.52899	3119.7097
708.14014	3136.9978
708.75134	3106.3655
709.36255	3084.0366
709.97369	3087.0969
710.5849	3097.8716
711.19611	3088.9482
711.80725	3094.4407
712.41846	3094.1682
713.0296	3042.4299
713.64081	2998.3779
714.25201	2992.907
714.86316	2995.5103
715.47437	3005.9236
716.08557	3013.0725
716.69672	3036.0813
717.30792	3036.1482
717.91913	2999.6177
718.53027	2973.7715
719.14148	2962.8308
719.75262	2972.7334
720.36383	2983.051
720.97504	2984.3042
721.58618	2985.2664
722.19739	2977.6189
722.80859	2974.7869
723.41974	2979.7268
724.03094	2971.1179
724.64209	2995.1028
725.2533	3010.8865
725.8645	2932.6433
726.47565	2927.8206
727.08685	2980.2515
727.69806	2971.1484
728.3092	2970.616
728.92041	2935.7888
729.53162	2943.7583
730.14276	2976.8875
730.75397	2957.1062
731.36511	2947.4878
731.97632	2959.3936
732.58752	2972.4011
733.19867	2943.8818
733.80988	2971.2813
734.42108	3003.8188
735.03223	2970.1755
735.64343	2972.9666
736.25458	2963.1338
736.86578	2986.8853
737.47699	2980.6853
738.08813	2996.4353
738.69934	2987.4714
739.31055	2953.7837
739.92169	2987.7827
740.5329	2965.6365
741.1441	2953.033
741.75525	3007.5969
742.36646	2983.4307
742.9776	2962.9014
743.58881	3006.3877
744.20001	3032.5803
744.81116	3002.3967
745.42236	3004.9338
746.03357	2980.5315
746.64471	3011.4355
747.25592	3000.95
747.86707	3003.3269
748.47827	3003.3337
749.08948	3022.0327
749.70062	3013.5508
750.31183	3003.7478
750.92303	3030.3027
751.53418	2997.5662
752.14539	2999.6858
752.75659	3021.3616
753.36774	3027.6594
753.97894	3084.3203
754.59009	3039.5547
755.20129	3008.563
755.8125	3011.665
756.42365	3060.9988
757.03485	3029.3286
757.64606	3042.0693
758.2572	3049.6775
758.86841	3053.166
759.47955	3046.0293
760.09076	3055.5667
760.70197	2998.3071
761.31311	3038.4868
761.92432	3046.3677
762.53552	3066.6489
763.14667	3025.4092
763.75787	3052.2644
764.36908	3027.5664
764.98022	3036.282
765.59143	3022.3057
766.20258	2997.6379
766.81378	3028.5791
767.42499	3026.3772
768.03613	3017.0422
768.64734	2974.0947
769.25854	2993.1423
769.86969	3002.1675
770.4809	2980.1943
771.0921	2985.9976
771.70325	2968.7891
772.31445	2963.0288
772.9256	2970.3821
773.5368	2910.4814
774.14801	2929.1917
774.75916	2925.958
775.37036	2926.1165
775.98157	2917.2915
776.59271	2920.3323
777.20392	2928.0042
777.81506	2881.8894
778.42627	2863.811
779.03748	2891.7021
779.64862	2871.73
780.25983	2863.1384
780.87103	2846.2947
781.48218	2824.5256
782.09338	2794.063
782.70459	2832.4524
783.31573	2804.9363
783.92694	2824.1782
784.53809	2822.5881
785.14929	2771.324
785.7605	2779.7358
786.37164	2779.6694
786.98285	2710.2344
787.59406	2682.6013
788.2052	2691.5474
788.81641	2681.6328
789.42755	2687.9165
790.03876	2665.0645
790.64996	2642.2385
791.26111	2655.6631
791.87231	2606.5508
792.48352	2598.4761
793.09467	2561.0532
793.70587	2558.4236
794.31708	2536.1946
794.92822	2499.5942
795.53943	2499.4224
796.15057	2441.5923
796.76178	2484.6958
797.37299	2413.6169
797.98413	2416.7683
798.59534	2387.8533
799.20654	2403.8262
799.81769	2334.7593
800.42889	2339.0071
801.04004	2325.9038
801.65125	2299.1604
802.26245	2301.9058
802.8736	2234.373
803.4848	2200.8105
804.09601	2203.2915
804.70715	2182.1953
805.31836	2161.4109
805.92957	2167.2183
806.54071	2137.7942
807.15192	2073.7505
807.76306	2096.2603
808.37427	2071.6982
808.98547	2055.9954
809.59662	1979.6462
810.20782	1982.428
810.81903	1951.8491
811.43018	1884.2513
812.04138	1901.4664
812.65253	1864.4996
813.26373	1861.5859
813.87494	1846.4083
814.48608	1835.0925
815.09729	1764.8992
815.7085	1782.1154
816.31964	1759.2141
816.93085	1748.8674
817.54205	1710.3665
818.1532	1678.239
818.7644	1659.502
819.37555	1623.3851
819.98676	1652.1588
820.59796	1614.1154
821.20911	1593.7953
821.82031	1579.3175
822.43152	1549.3135
823.04266	1586.6754
823.65387	1546.0616
824.26508	1530.4753
824.87622	1486.0826
825.48743	1484.3412
826.09857	1494.9889
826.70978	1470.7698
827.32098	1476.7935
827.93213	1448.7629
828.54333	1391.3995
829.15454	1423.2273
829.76569	1412.1877
830.37689	1404.4171
830.98804	1380.0736
831.59924	1402.2732
832.21045	1393.9644
832.82159	1425.7396
833.4328	1396.1155
834.04401	1341.6328
834.65515	1327.8998
835.26636	1369.6963
835.87756	1370.7437
836.48871	1355.8524
837.09991	1368.6945
837.71106	1377.7709
838.32227	1380.205
838.93347	1351.6079
839.54462	1353.7777
840.15582	1364.8833
840.76703	1371.2344
841.37817	1374.4529
841.98938	1362.295
842.60052	1332.3395
843.21173	1333.1713
843.82294	1332.9773
844.43408	1322.4189
845.04529	1316.6045
845.65649	1321.3827
846.26764	1331.3918
846.87885	1314.526
847.49005	1308.1191
848.1012	1322.8823
848.7124	1330.8146
849.32355	1301.5686
849.93475	1282.6101
850.54596	1299.152
851.1571	1322.5093
851.76831	1301.4576
852.37952	1283.8922
852.99066	1303.3295
853.60187	1306.5535
854.21301	1306.0609
854.82422	1317.0889
855.43542	1314.9381
856.04657	1304.8452
856.65778	1316.5919
857.26898	1325.2653
857.88013	1280.699
858.49133	1288.8649
859.10254	1305.3431
859.71368	1289.6029
860.32489	1292.3601
860.93604	1290.9915
861.54724	1296.156
862.15845	1310.001
862.76959	1304.1667
863.3808	1309.3611
863.992	1300.6178
864.60315	1258.3875
865.21436	1279.2744
865.8255	1289.7451
866.43671	1267.9592
867.04791	1315.24
867.65906	1320.58
868.27026	1311.9603
868.88147	1308.8676
869.49261	1288.4894
870.10382	1294.2362
870.71503	1321.4331
871.32617	1321.137
871.93738	1317.0997
872.54852	1330.9785
873.15973	1299.5405
873.77094	1338.1344
874.38208	1337.713
874.99329	1318.4436
875.60449	1333.0973
876.21564	1323.7644
876.82684	1326.5817
877.43805	1346.9323
878.04919	1319.2623
878.6604	1339.6355
879.27155	1312.5414
879.88275	1347.6029
880.49396	1346.8749
881.1051	1330.4667
881.71631	1338.7179
882.32751	1342.0863
882.93866	1339.3523
883.54987	1341.9867
884.16101	1365.0077
884.77222	1378.3898
885.38342	1332.4753
885.99457	1354.5588
886.60577	1340.5607
887.21698	1357.1338
887.82813	1362.9471
888.43933	1365.9017
889.05054	1372.5192
889.66168	1384.2769
890.27289	1362.8802
890.88403	1349.5636
891.49524	1363.8467
892.10645	1373.4686
892.71759	1386.8262
893.3288	1396.0446
893.94	1393.1727
894.55115	1392.4082
895.16235	1409.1212
895.7735	1426.7793
896.3847	1435.7397
896.99591	1424.5117
897.60706	1431.4825
898.21826	1419.4379
898.82947	1416.6631
899.44061	1401.7311
900.05182	1394.8328
900.66302	1422.5874
901.27417	1449.3884
901.88538	1451.4196
902.49652	1428.0009
903.10773	1440.0334
903.71893	1461.5605
904.33008	1486.121
904.94128	1458.348
905.55249	1485.7694
906.16364	1493.7639
906.77484	1469.6982
907.38599	1512.2701
907.99719	1514.7145
908.6084	1495.3448
909.21954	1497.3837
909.83075	1512.743
910.44196	1517.3977
911.0531	1535.3687
911.66431	1561.8057
912.27551	1584.3016
912.88666	1560.489
913.49786	1596.5469
914.10901	1608.1848
914.72021	1596.4321
915.33142	1604.1825
915.94257	1614.1283
916.55377	1646.1344
917.16498	1653.8219
917.77612	1650.1476
918.38733	1659.2555
918.99847	1684.3568
919.60968	1701.7605
920.22089	1704.6198
920.83203	1735.6213
921.44324	1753.8083
922.05444	1758.2427
922.66559	1760.4187
923.27679	1790.506
923.888	1812.7173
924.49915	1801.373
925.11035	1844.7483
925.7215	1873.4845
926.3327	1882.6462
926.94391	1890.9115
927.55505	1924.5956
928.16626	1935.1947
928.77747	1944.7578
929.38861	1955.5024
929.99982	2004.9329
930.61102	2025.3586
931.22217	2045.8369
931.83337	2065.3877
932.44452	2080.2156
933.05573	2094.3774
933.66693	2124.6099
934.27808	2136.5842
934.88928	2154.9006
935.50049	2196.7234
936.11163	2210.8423
936.72284	2197.5522
937.33398	2248.7766
937.94519	2269.0046
938.5564	2229.9182
939.16754	2306.4302
939.77875	2302.0957
940.38995	2324.3254
941.0011	2352.6167
941.6123	2352.5938
942.22351	2334.0977
942.83466	2381.3752
943.44586	2396.4209
944.05701	2407.3213
944.66821	2448.8743
945.27942	2465.8606
945.89056	2480.4839
946.50177	2496.623
947.11298	2484.0356
947.72412	2475.4065
948.33533	2485.0676
948.94647	2512.2139
949.55768	2537.5479
950.16888	2547.1675
950.78003	2562.1995
951.39124	2569.4092
952.00244	2586.4863
952.61359	2576.5972
953.22479	2617.3359
953.836	2632.8972
954.44714	2617.6543
955.05835	2650.1396
955.66949	2659.4656
956.2807	2657.3848
956.89191	2706.9402
957.50305	2699.1609
958.11426	2698.1521
958.72546	2738.5527
959.33661	2740.3801
959.94781	2748.1621
960.55896	2774.8506
961.17017	2713.271
961.78137	2815.6541
962.39252	2839.1824
963.00372	2859.811
963.61493	2849.2991
964.22607	2830.1685
964.83728	2877.3667
965.44849	2880.1401
966.05963	2926.4768
966.67084	2925.0364
967.28198	2946.5076
967.89319	2939.5183
968.50439	2975.3489
969.11554	2975.5894
969.72675	3002.1763
970.33795	3027.8657
970.9491	3026.9246
971.5603	3052.9802
972.17145	3075.3728
972.78265	3109.4595
973.39386	3140.8225
974.005	3142.7979
974.61621	3144.0449
975.22742	3155.9272
975.83856	3178.4216
976.44977	3178.3328
977.06097	3222.4321
977.67212	3264.1436
978.28333	3239.8596
978.89447	3273.3225
979.50568	3302.7622
980.11688	3302.5884
980.72803	3305.9851
981.33923	3367.696
981.95044	3318.927
982.56158	3372.8506
983.17279	3371.5828
983.784	3387.6013
984.39514	3390.9832
985.00635	3377.4521
985.61749	3461.9646
986.2287	3446.7703
986.8399	3479.3408
987.45105	3481.5774
988.06226	3468.9453
988.67346	3477.6245
989.28461	3504.0183
989.89581	3529.8555
990.50696	3541.2004
991.11816	3539.261
991.72937	3603.3625
992.34052	3633.7319
992.95172	3602.5076
993.56293	3616.7329
994.17407	3611.9836
994.78528	3612.8918
995.39648	3659.5532
996.00763	3675.2554
996.61884	3683.1299
997.22998	3650.1252
997.84119	3754.0044
998.45239	3709.519
999.06354	3736.4917
999.67474	3773.8269
1000.2859	3761.7832
1000.8971	3825.7998
1001.5083	3816.5757
1002.1194	3800.6299
1002.7307	3825.3276
1003.3419	3828.0957
1003.953	3874.0725
1004.5642	3926.168
1005.1754	3929.2244
1005.7866	3934.3333
1006.3978	3948.6428
1007.009	3974.5698
1007.6201	3981.8413
1008.2313	4003.5571
1008.8425	4056.803
1009.4537	4085.1975
1010.0649	4090.0635
1010.676	4110.1758
1011.2872	4083.7876
1011.8984	4150.4546
1012.5096	4176.709
1013.1208	4226.1729
1013.7319	4193.5967
1014.3431	4251.6738
1014.9543	4296.2202
1015.5655	4346.5439
1016.1767	4356.6333
1016.7879	4384.3696
1017.399	4414.0376
1018.0103	4430.2378
1018.6215	4543.1606
1019.2326	4579.8037
1019.8438	4599.8984
1020.455	4609.5771
1021.0662	4665.4648
1021.6774	4730.333
1022.2885	4742.4131
1022.8997	4779.5
1023.5109	4856.6519
1024.1221	4924.9517
1024.7333	4944.2417
1025.3445	4998.6162
1025.9557	5059.0991
1026.5668	5116.9336
1027.178	5202.126
1027.7892	5235.626
1028.4004	5362.0786
1029.0116	5387.584
1029.6227	5429.5483
1030.2339	5502.4561
1030.8451	5601.2183
1031.4563	5637.7607
1032.0675	5770.0781
1032.6787	5861.4932
1033.2898	5912.6104
1033.901	5986.6753
1034.5122	6032.4688
1035.1234	6139.7695
1035.7346	6244.3345
1036.3457	6270.3047
1036.9569	6381.6602
1037.5681	6516.9692
1038.1793	6570.0762
1038.7905	6682.3511
1039.4017	6804.7202
1040.0128	6878.8184
1040.624	6986.7734
1041.2352	7110.7036
1041.8464	7300.668
1042.4576	7436.2778
1043.0687	7518.0605
1043.6799	7576.9678
1044.2911	7706.0449
1044.9023	7812.7808
1045.5135	7830.1177
1046.1246	8108.9063
1046.7358	8254.2939
1047.347	8356.9814
1047.9583	8455.8584
1048.5695	8516.1133
1049.1807	8697.8564
1049.7917	8852.6768
1050.403	8986.1055
1051.0142	9142.8408
1051.6254	9275.4424
1052.2366	9426.5693
1052.8477	9599.3223
1053.4589	9754.3203
1054.0701	9886.8848
1054.6813	9940.2588
1055.2925	10106.164
1055.9037	10259.859
1056.5148	10449.342
1057.126	10630.695
1057.7372	10624.29
1058.3484	10762.974
1058.9596	10948.321
1059.5707	11150.595
1060.1819	11277.826
1060.7931	11531.324
1061.4043	11623.358
1062.0155	11671.559
1062.6267	11912.744
1063.2378	12029.625
1063.849	12180.12
1064.4602	12321.457
1065.0714	12483.964
1065.6826	12665.413
1066.2937	12803.14
1066.9049	12904.189
1067.5161	12965.155
1068.1273	13142.267
1068.7385	13269.111
1069.3497	13383.854
1069.9608	13561.46
1070.572	13725.145
1071.1832	13939.933
1071.7944	13884.278
1072.4056	13940.781
1073.0167	14004.118
1073.6279	14207.296
1074.2391	14407.302
1074.8503	14531.916
1075.4615	14674.919
1076.0726	14773.033
1076.6838	14865.355
1077.295	14946.798
1077.9063	15019.906
1078.5175	15138.915
1079.1287	15273.589
1079.7397	15445.902
1080.351	15597.612
1080.9622	15599.199
1081.5734	15620.195
1082.1846	15741.371
1082.7957	15760.582
1083.4069	15901.701
1084.0181	16093.877
1084.6293	16165.563
1085.2405	16178.084
1085.8517	16283.213
1086.4628	16289.21
1087.074	16280.254
1087.6852	16346.38
1088.2964	16460.518
1088.9076	16597.854
1089.5187	16714.547
1090.1299	16803.672
1090.7411	16771.064
1091.3523	16762.998
1091.9635	16895.514
1092.5747	16913.691
1093.1858	16952.002
1093.797	17012.102
1094.4082	17049.371
1095.0194	17048.789
1095.6306	17028.865
1096.2417	16880.625
1096.8529	16922.316
1097.4641	17071.004
1098.0753	17093.373
1098.6865	17138.096
1099.2976	17139.408
1099.9088	17112.346
1100.52	17067.859
1101.1312	16963.002
1101.7424	16941.246
1102.3536	17070.107
1102.9647	17113.994
1103.5759	17088.176
1104.1871	16968.152
1104.7983	16805.902
1105.4095	16846.92
1106.0206	16691.678
1106.6318	16694.654
1107.243	16686.197
1107.8542	16657.424
1108.4655	16612.98
1109.0767	16455.977
1109.6877	16446.721
1110.299	16282.851
1110.9102	16306.143
1111.5214	16211.756
1112.1326	16232.319
1112.7437	16213.505
1113.3549	16067.242
1113.9661	15943.146
1114.5773	15792.556
1115.1885	15690.229
1115.7997	15653.153
1116.4108	15593.952
1117.022	15559.513
1117.6332	15391.593
1118.2444	15317.131
1118.8556	15103.735
1119.4667	14981.975
1120.0779	14805.306
1120.6891	14642.688
1121.3003	14740
1121.9115	14706.461
1122.5227	14586.288
1123.1338	14436.289
1123.745	14242.747
1124.3562	14089.242
1124.9674	13912.215
1125.5786	13734.36
1126.1897	13682.096
1126.8009	13567.017
1127.4121	13487.652
1128.0233	13269.075
1128.6345	13177.293
1129.2456	12963.458
1129.8568	12867.649
1130.468	12633.187
1131.0792	12655.814
1131.6904	12614.788
1132.3016	12498.38
1132.9127	12295.214
1133.5239	11960.492
1134.1351	11831.845
1134.7463	11679.917
1135.3575	11648.418
1135.9686	11596.188
1136.5798	11409.451
1137.191	11226.05
1137.8022	10979.896
1138.4135	10856.841
1139.0247	10708.123
1139.6357	10577.505
1140.2469	10492.824
1140.8582	10392.938
1141.4694	10190.012
1142.0806	10140.621
1142.6917	9938.0898
1143.3029	9697.9512
1143.9141	9566.9512
1144.5253	9466.7119
1145.1365	9362.6328
1145.7477	9234.7441
1146.3588	9077.2695
1146.97	8889.2607
1147.5812	8718.2676
1148.1924	8574.5596
1148.8036	8518.0225
1149.4147	8360.1963
1150.0259	8332.8877
1150.6371	8183.519
1151.2483	7989.5303
1151.8595	7832.9102
1152.4706	7697.3315
1153.0818	7595.8838
1153.693	7489.8735
1154.3042	7335.2642
1154.9154	7199.2578
1155.5266	7093.4072
1156.1377	6854.6587
1156.7489	6680.7852
1157.3601	6560.0557
1157.9713	6533.6909
1158.5825	6525.7954
1159.1936	6317.4302
1159.8048	6241.2314
1160.416	6212.6392
1161.0272	6080.4512
1161.6384	5897.1963
1162.2496	5753.5132
1162.8607	5654.5815
1163.4719	5574.2266
1164.0831	5461.4717
1164.6943	5383.4546
1165.3055	5280.3643
1165.9166	5146.7803
1166.5278	5014.4585
1167.139	4902.7471
1167.7502	4862.7568
1168.3615	4778.3169
1168.9727	4677.7988
1169.5837	4577.6333
1170.1949	4485.7344
1170.8062	4385.0337
1171.4174	4309.6943
1172.0286	4246.769
1172.6396	4137.2817
1173.2509	4030.0271
1173.8621	3930.5615
1174.4733	3867.1584
1175.0845	3791.4365
1175.6956	3696.1843
1176.3068	3624.7627
1176.918	3548.2397
1177.5292	3480.406
1178.1404	3433.6565
1178.7516	3365.4375
1179.3627	3289.3884
1179.9739	3204.9968
1180.5851	3101.2886
1181.1963	3049.3118
1181.8075	3023.6902
1182.4186	2951.2715
1183.0298	2892.7368
1183.641	2840.3647
1184.2522	2774.7607
1184.8634	2700.2896
1185.4746	2631.2893
1186.0857	2584.6035
1186.6969	2541.1252
1187.3081	2488.0908
1187.9193	2440.6199
1188.5305	2392.8105
1189.1416	2334.5161
1189.7528	2266.321
1190.364	2236.7358
1190.9752	2191.2886
1191.5864	2141.2925
1192.1976	2079.8162
1192.8087	2064.6277
1193.4199	2039.1123
1194.0311	1990.8228
1194.6423	1955.533
1195.2535	1905.7245
1195.8646	1858.5514
1196.4758	1796.4479
1197.087	1778.5007
1197.6982	1770.2549
1198.3094	1743.7561
1198.9207	1694.234
1199.5317	1662.8607
1200.1429	1618.139
1200.7542	1596.6633
1201.3654	1568.0216
1201.9766	1547.3011
1202.5876	1535.4999
1203.1989	1492.9244
1203.8101	1482.0203
1204.4213	1440.6041
1205.0325	1399.5642
1205.6436	1402.6306
1206.2548	1350.8894
1206.866	1355.0862
1207.4772	1352.7751
1208.0884	1313.665
1208.6996	1281.067
1209.3107	1281.6222
1209.9219	1268.7767
1210.5331	1239.3368
1211.1443	1234.4598
1211.7555	1209.0586
1212.3666	1196.5358
1212.9778	1177.6243
1213.589	1174.6139
1214.2002	1166.1233
1214.8114	1136.7731
1215.4226	1150.246
1216.0337	1085.4175
1216.6449	1086.7991
1217.2561	1087.3638
1217.8673	1081.8608
1218.4785	1073.976
1219.0896	1048.879
1219.7008	1038.7648
1220.312	1035.5707
1220.9232	1030.808
1221.5344	1017.3835
1222.1456	1007.2864
1222.7567	1013.0033
1223.3679	997.14081
1223.9791	970.28754
1224.5903	974.92426
1225.2015	983.63458
1225.8126	950.41321
1226.4238	961.53815
1227.035	945.22083
1227.6462	938.52441
1228.2574	910.57404
1228.8685	905.47467
1229.4797	927.98938
1230.0909	922.02789
1230.7021	909.6416
1231.3134	915.375
1231.9246	902.40192
1232.5356	898.16638
1233.1469	896.88727
1233.7581	870.99597
1234.3693	890.59802
1234.9805	889.50793
1235.5916	857.55652
1236.2028	867.78284
1236.814	907.01526
1237.4252	867.73285
1238.0364	861.4646
1238.6476	852.6698
1239.2587	849.64417
1239.8699	853.41376
1240.4811	845.59747
1241.0923	844.02789
1241.7035	830.44604
1242.3146	818.80579
1242.9258	824.96741
1243.537	829.65399
1244.1482	840.82324
1244.7594	816.59314
1245.3706	826.36749
1245.9817	814.599
1246.5929	801.47858
1247.2041	787.14587
1247.8153	810.099
1248.4265	811.47034
1249.0376	794.04547
1249.6488	800.66748
1250.26	790.28436
1250.8712	783.58441
1251.4824	781.13531
1252.0936	792.51447
1252.7047	800.33398
1253.3159	776.72644
1253.9271	793.59967
1254.5383	784.94214
1255.1495	753.88208
1255.7606	742.39081
1256.3718	785.03229
1256.983	770.47968
1257.5942	765.17902
1258.2054	768.07635
1258.8165	767.82385
1259.4277	757.57446
1260.0389	744.45142
1260.6501	758.22034
1261.2614	738.64215
1261.8726	751.29559
1262.4836	768.81268
1263.0948	766.18597
1263.7061	747.78253
1264.3173	743.56018
1264.9285	737.91321
1265.5396	756.61212
1266.1508	735.30762
1266.762	737.18555
1267.3732	743.92566
1267.9844	732.19147
1268.5956	737.12189
1269.2067	747.55664
1269.8179	750.48608
1270.4291	736.10468
1271.0403	722.50165
1271.6515	730.86249
1272.2626	722.07965
1272.8738	738.36139
1273.485	728.8681
1274.0962	738.77612
1274.7074	728.88849
1275.3186	709.86633
1275.9297	703.5155
1276.5409	704.61823
1277.1521	689.19507
1277.7633	693.50067
1278.3745	697.55219
1278.9856	714.55798
1279.5968	709.05774
1280.208	705.17261
1280.8192	693.9364
1281.4304	699.01404
1282.0415	715.18689
1282.6527	701.5105
1283.2639	703.22876
1283.8751	700.5108
1284.4863	690.63611
1285.0975	700.46411
1285.7086	680.52338
1286.3198	681.15375
1286.931	693.9502
1287.5422	695.70062
1288.1534	694.61731
1288.7645	698.24927
1289.3757	690.73352
1289.9869	689.26563
1290.5981	691.41602
1291.2094	688.51172
1291.8206	693.20184
1292.4316	702.85864
1293.0428	687.71124
1293.6541	680.52515
1294.2653	668.7804
1294.8765	671.28638
1295.4875	673.41559
1296.0988	681.09497
1296.71	676.37366
1297.3212	676.86951
1297.9324	692.17053
1298.5436	674.32172
1299.1547	657.20294
1299.7659	679.06903
1300.3771	685.5415
1300.9883	675.93341
1301.5995	673.86511
1302.2106	680.21759
1302.8218	659.79303
1303.433	677.56592
1304.0442	674.25305
1304.6554	669.08038
1305.2666	681.13434
1305.8777	676.80585
1306.4889	685.04346
1307.1001	691.59027
1307.7113	673.65167
1308.3225	664.98431
1308.9336	668.66522
1309.5448	655.17419
1310.156	673.43188
1310.7672	678.11237
1311.3784	675.93689
1311.9895	662.38599
1312.6007	674.56946
1313.2119	676.24231
1313.8231	684.16107
1314.4343	671.69232
1315.0455	661.88293
1315.6566	670.06934
1316.2678	670.01727
1316.879	661.85321
1317.4902	645.20166
1318.1014	655.43835
1318.7125	664.36548
1319.3237	678.34357
1319.9349	677.19684
1320.5461	664.42328
1321.1573	648.36505
1321.7686	648.58716
1322.3796	660.68225
1322.9908	671.46014
1323.6021	664.99548
1324.2133	670.25781
1324.8245	655.58746
1325.4355	669.81366
1326.0468	654.12964
1326.658	666.34247
1327.2692	648.15497
1327.8804	663.88239
1328.4916	672.8609
1329.1027	665.66547
1329.7139	668.63312
1330.3251	664.44556
1330.9363	647.3147
1331.5475	658.07343
1332.1586	655.69281
1332.7698	655.61188
1333.381	644.37195
1333.9922	670.10358
1334.6034	672.70648
1335.2145	659.91675
1335.8257	646.06085
1336.4369	655.49768
1337.0481	664.12976
1337.6593	659.07922
1338.2705	657.64594
1338.8816	659.35992
1339.4928	662.16992
1340.104	661.36877
1340.7152	649.15399
1341.3264	652.5542
1341.9375	628.94849
1342.5487	665.57611
1343.1599	664.17883
1343.7711	654.9953
1344.3823	662.92358
1344.9935	663.55066
1345.6046	661.38904
1346.2158	665.10419
1346.827	674.04822
1347.4382	667.35986
1348.0494	675.66077
1348.6605	660.2016
1349.2717	664.72809
1349.8829	654.20404
1350.4941	678.71448
1351.1053	664.8418
1351.7166	656.01331
1352.3276	663.98889
1352.9388	675.02625
1353.55	672.70862
1354.1613	667.75769
1354.7725	666.63318
1355.3835	663.43323
1355.9948	667.57007
1356.606	664.72015
1357.2172	672.38416
1357.8284	677.2265
1358.4396	671.31799
1359.0507	665.15332
1359.6619	661.33771
1360.2731	673.68195
1360.8843	664.10822
1361.4955	662.229
1362.1066	676.495
1362.7178	676.67206
1363.329	669.86005
1363.9402	663.99628
1364.5514	648.2406
1365.1625	662.20966
1365.7737	673.74713
1366.3849	672.01404
1366.9961	665.77203
1367.6073	671.37109
1368.2185	678.55414
1368.8296	663.72205
1369.4408	656.90259
1370.052	664.75421
1370.6632	672.02313
1371.2744	663.88605
1371.8855	686.98828
1372.4967	675.37897
1373.1079	669.23944
1373.7191	665.07629
1374.3303	673.7533
1374.9415	662.62531
1375.5526	664.41437
1376.1638	667.07764
1376.775	667.95154
1377.3862	674.79462
1377.9974	660.68152
1378.6085	655.75317
1379.2197	666.02588
1379.8309	659.36896
1380.4421	668.03485
1381.0533	669.66852
1381.6646	678.16284
1382.2756	678.70624
1382.8868	665.45135
1383.498	668.97064
1384.1093	664.97119
1384.7205	674.29675
1385.3315	648.75964
1385.9427	667.64001
1386.554	680.87775
1387.1652	673.03369
1387.7764	680.41626
1388.3875	690.1723
1388.9987	678.23737
1389.6099	677.87335
1390.2211	684.43427
1390.8323	677.09113
1391.4435	670.60138
1392.0546	665.65198
1392.6658	659.63434
1393.277	675.23279
1393.8882	669.82684
1394.4994	677.40094
1395.1105	660.27539
1395.7217	691.5885
1396.3329	682.07361
1396.9441	677.45734
1397.5553	665.05035
1398.1665	677.97357
1398.7776	682.4743
1399.3888	694.04785
1400	688.20013
