15.057955	9738.1152
15.669138	11357.353
16.280321	12271.798
16.891506	12412.569
17.502689	12546.687
18.113873	12636.927
18.725056	12720.486
19.336241	12903.728
19.947424	13050.049
20.558607	13186.272
21.16979	13456.264
21.780975	13614.411
22.392159	13819.115
23.003342	13889.636
23.614525	14090.1
24.225708	14310.796
24.836893	14533.48
25.448076	14747.316
26.059259	14943.089
26.670443	15235.251
27.281628	15335.023
27.892811	15351.404
28.503994	15605.591
29.115177	15577.4
29.72636	15743.795
30.337545	16072.433
30.948729	16254.271
31.559912	16321.917
32.171097	16442.381
32.78228	16557.424
33.393463	16765.215
34.004646	16821.68
34.615829	16980.039
35.227013	17331.922
35.838196	17503.188
36.449383	17599.246
37.060566	17639.227
37.671749	17581.061
38.282932	17529.885
38.894115	17656.357
39.505299	17877.061
40.116482	17936.773
40.727665	18081.754
41.338848	18040.496
41.950035	18093.193
42.561218	18184.119
43.172401	18317.547
43.783585	18425.729
44.394768	18570.74
45.005951	18657.061
45.617134	18469.078
46.228317	18427.35
46.8395	18430.094
47.450687	18429.188
48.061871	18665.07
48.673054	18848.186
49.284237	18769.41
49.89542	18769.74
50.506603	18879.76
51.117786	18884.17
51.72897	18783.396
52.340153	18797.299
52.95134	18836.48
53.562523	18768.48
54.173706	18927.744
54.784889	19028.406
55.396072	18977.281
56.007256	18920.389
56.618439	18860.965
57.229622	18838.072
57.840809	18914.307
58.451992	19057.213
59.063175	19173.434
59.674358	19275.266
60.285542	19315.082
60.896725	19199.877
61.507908	18988.342
62.119091	18909.221
62.730274	18936.912
63.341461	18965.766
63.952644	18966.48
64.563828	18958.299
65.175011	18936.729
65.786194	18892.873
66.397377	18855.863
67.00856	18796.848
67.619743	18989.672
68.230927	19035.637
68.84211	19003.152
69.453293	18936.348
70.064476	18812.939
70.675659	18845.639
71.28685	18997.955
71.898033	18960.904
72.509216	18871.369
73.120399	18929.191
73.731583	18970.986
74.342766	18886.701
74.953949	18868.129
75.565132	18918.559
76.176315	18891.744
76.787498	18785.762
77.398682	18800.531
78.009865	18875.641
78.621048	18772.857
79.232231	18632.555
79.843414	18592.354
80.454597	18388.59
81.065781	18504.785
81.676964	18595.342
82.288155	18743.195
82.899338	18772.93
83.510521	18750.547
84.121704	18681.791
84.732887	18537.607
85.34407	18379.41
85.955254	18328.008
86.566437	18449.117
87.17762	18463.629
87.788803	18339.357
88.399986	18322.523
89.011169	18178.611
89.622353	18146.078
90.233536	18197.541
90.844719	18323.748
91.455902	18431.975
92.067085	18403.281
92.678276	18224.51
93.289459	17970.877
93.900642	18098.508
94.511826	18087.545
95.123009	18100.184
95.734192	18167.008
96.345375	18075.141
96.956558	17985.314
97.567741	17915.676
98.178925	17818.205
98.790108	17802.268
99.401291	17904.168
100.01247	17882.418
100.62366	17853.777
101.23484	17943.838
101.84602	17847.836
102.45721	17700.238
103.06839	17648.225
103.67958	17463.119
104.29076	17509.789
104.90195	17674.803
105.51313	17729.092
106.12431	17744.855
106.7355	17764.357
107.34668	17582.1
107.95786	17564.74
108.56905	17391.814
109.18023	17393.473
109.79141	17451.617
110.4026	17504.266
111.01378	17413.48
111.62496	17252.404
112.23615	17132.924
112.84733	17130.225
113.45851	17166.898
114.0697	17120.363
114.68089	17170.387
115.29207	17112.516
115.90325	17084.236
116.51443	16843.805
117.12562	16838.924
117.7368	16924.957
118.34798	16762.105
118.95917	16711.193
119.57035	16827.941
120.18153	16870.303
120.79272	16807.768
121.4039	16751.734
122.01508	16635.836
122.62627	16589.389
123.23745	16711.262
123.84863	16596.725
124.45982	16555.449
125.07101	16527.168
125.68219	16429.063
126.29337	16279.408
126.90456	16218.243
127.51574	16297.231
128.12692	16380.933
128.7381	16353.146
129.34929	16326.15
129.96048	16342.915
130.57166	16234.441
131.18285	15949.123
131.79402	16011.51
132.40521	16068.454
133.01639	16098.142
133.62758	16107.5
134.23875	16023.288
134.84995	15899.576
135.46112	15824.692
136.07231	15738.34
136.68349	15670.147
137.29468	15709.485
137.90585	15671.966
138.51704	15848.434
139.12822	15859.933
139.73941	15765.355
140.35059	15660.735
140.96178	15571.394
141.57297	15517.317
142.18414	15522.896
142.79533	15547.415
143.40651	15518.006
144.0177	15429.833
144.62888	15244.843
145.24007	15352.074
145.85124	15348.399
146.46243	15244.296
147.07361	15310.709
147.6848	15257.341
148.29597	15225.121
148.90717	15179.984
149.51834	15063.926
150.12953	14986.066
150.74071	15021.711
151.3519	15053.545
151.96309	15040.505
152.57426	14990.159
153.18546	14992.917
153.79663	14948.378
154.40782	14887.658
155.019	14800.009
155.63019	14713.966
156.24136	14709.646
156.85255	14767.524
157.46373	14781.296
158.07492	14737.138
158.6861	14677.756
159.29729	14554.659
159.90846	14513.215
160.51965	14517.127
161.13083	14588.312
161.74202	14520.604
162.35321	14490.159
162.96439	14461.342
163.57558	14557.28
164.18675	14451.737
164.79794	14317.703
165.40912	14269.292
166.02031	14277.74
166.63148	14395.16
167.24268	14310.034
167.85385	14345.902
168.46504	14235.683
169.07622	14072.161
169.68741	14227.902
170.29858	14136.753
170.90977	14171.843
171.52095	14256.678
172.13214	14186.649
172.74333	14056.521
173.35451	14007.091
173.9657	14006.093
174.57687	14017.792
175.18806	14078.205
175.79924	14072.419
176.41043	13928.237
177.02161	13897.831
177.6328	13895.143
178.24397	13887.055
178.85516	13877.178
179.46634	13903.716
180.07753	13923.46
180.68871	13885.106
181.2999	13880.305
181.91107	13873.645
182.52226	13758.902
183.13344	13732.216
183.74463	13667.452
184.35582	13751.162
184.967	13684.534
185.57819	13837.191
186.18936	13705.704
186.80055	13659.4
187.41173	13678.398
188.02292	13603.908
188.63409	13564.354
189.24529	13602.174
189.85646	13670.965
190.46765	13691.86
191.07883	13572.794
191.69002	13585.552
192.30119	13516.655
192.91238	13401.306
193.52356	13563.498
194.13475	13429.188
194.74594	13453.98
195.35712	13502.015
195.96831	13485.006
196.57948	13442.364
197.19067	13422.569
197.80185	13392.374
198.41304	13376.916
199.02422	13442.668
199.63541	13457.299
200.24658	13342.728
200.85777	13194.936
201.46895	13267.239
202.08014	13251.015
202.69131	13279.883
203.30251	13327.086
203.91368	13358.011
204.52487	13383.997
205.13606	13337.457
205.74724	13261.252
206.35843	13198.097
206.9696	13168.335
207.5808	13239.446
208.19197	13317.51
208.80316	13227.908
209.41434	13166.824
210.02553	13229.201
210.6367	13028.752
211.24789	13099.505
211.85907	13098.607
212.47026	13141.448
213.08144	13155.437
213.69263	13099.563
214.3038	13040.512
214.91499	13013.585
215.52618	12966.667
216.13736	12916.363
216.74855	12983.853
217.35973	13047.116
217.97092	13111.556
218.58209	13081.737
219.19328	13079.297
219.80446	12994.183
220.41565	12912.642
221.02682	12923.098
221.63802	13007.917
222.24919	13054.599
222.86038	12937.229
223.47156	12854.202
224.08275	12836.98
224.69392	12743.96
225.30511	12834.449
225.91631	12784.662
226.52748	12973.33
227.13867	12877.618
227.74985	12833.932
228.36104	12820.558
228.97221	12726.971
229.5834	12746.482
230.19458	12772.023
230.80577	12822.265
231.41695	12825.17
232.02814	12864.195
232.63931	12862.937
233.2505	12751.657
233.86168	12751.765
234.47287	12675.569
235.08405	12615.63
235.69524	12704.426
236.30641	12728.507
236.9176	12811.412
237.52879	12625.633
238.13997	12757.753
238.75116	12611.355
239.36234	12612.582
239.97353	12675.122
240.5847	12635.969
241.19589	12623.291
241.80707	12643.081
242.41826	12604.112
243.02943	12617.107
243.64063	12593.523
244.2518	12514.068
244.86299	12427.788
245.47417	12616.543
246.08536	12604.702
246.69653	12641.106
247.30772	12571.812
247.91891	12501.682
248.53009	12495.627
249.14128	12472.814
249.75246	12497.611
250.36365	12559.964
250.97482	12547.803
251.58601	12513.026
252.19719	12507.85
252.80838	12365.11
253.41956	12417.337
254.03075	12446.47
254.64192	12420.281
255.25311	12585.924
255.86429	12482.716
256.47546	12560.437
257.08667	12363.857
257.69785	12380.671
258.30902	12343.9
258.92023	12430.514
259.5314	12553.012
260.14258	12546.186
260.75375	12514.516
261.36496	12440.889
261.97614	12355.752
262.58731	12376.861
263.19849	12424.943
263.80969	12479.221
264.42087	12317.35
265.03204	12470.359
265.64322	12350.044
266.25443	12375.688
266.8656	12384.729
267.47678	12365.96
268.08795	12410.673
268.69916	12478.155
269.31033	12483.668
269.92151	12463.619
270.53271	12440.765
271.14389	12368.007
271.75507	12357.813
272.36624	12411.851
272.97745	12407.177
273.58862	12496.993
274.1998	12446.488
274.81097	12445.8
275.42218	12449.418
276.03336	12353.696
276.64453	12329.964
277.25571	12371.508
277.86691	12415.894
278.47809	12454.548
279.08926	12517.936
279.70047	12493.932
280.31165	12353.969
280.92282	12349.781
281.534	12458.352
282.1452	12354.614
282.75638	12392.05
283.36755	12515.237
283.97873	12430.693
284.58994	12483.706
285.20111	12438.106
285.81229	12340.016
286.42346	12448.061
287.03467	12509.708
287.64584	12526.396
288.25702	12584.617
288.86819	12550.911
289.4794	12494.049
290.09058	12489.087
290.70175	12448.978
291.31296	12486.721
291.92413	12453.818
292.53531	12474.569
293.14648	12564.251
293.75769	12539.158
294.36887	12448.888
294.98004	12432.513
295.59122	12446.077
296.20242	12402.721
296.8136	12483.21
297.42477	12572.763
298.03595	12563.713
298.64716	12561.69
299.25833	12547.604
299.86951	12503.928
300.48068	12467.955
301.09189	12457.41
301.70306	12561.539
302.31424	12604.107
302.92545	12490.596
303.53662	12515.358
304.1478	12438.683
304.75897	12414.152
305.37018	12398.766
305.98135	12591.847
306.59253	12607.176
307.2037	12649.462
307.81491	12577.277
308.42609	12556.961
309.03726	12479.822
309.64844	12445.662
310.25964	12533.646
310.87082	12572.314
311.48199	12564.954
312.0932	12575.024
312.70438	12460.651
313.31555	12470
313.92673	12502.751
314.53793	12454.735
315.14911	12469.848
315.76028	12582.275
316.37146	12578.786
316.98267	12606.408
317.59384	12534.912
318.20502	12479.843
318.81619	12513.052
319.4274	12515.466
320.03857	12496.309
320.64975	12553.54
321.26093	12579.572
321.87213	12552.998
322.48331	12541.033
323.09448	12443.145
323.70569	12521.886
324.31686	12506.928
324.92804	12456.028
325.53922	12529.176
326.15042	12432.727
326.7616	12502.714
327.37277	12465.987
327.98395	12395.938
328.59515	12402.801
329.20633	12504.581
329.8175	12543.735
330.42868	12495.039
331.03989	12513.212
331.65106	12500.358
332.26224	12431.418
332.87344	12417.679
333.48462	12446.728
334.09579	12500.681
334.70697	12529.835
335.31818	12531.208
335.92935	12499.1
336.54053	12431.781
337.1517	12400.286
337.76291	12418.274
338.37408	12561.761
338.98526	12517.94
339.59644	12487.253
340.20764	12489.522
340.81882	12427.312
341.42999	12395.823
342.04117	12368.078
342.65237	12385.017
343.26355	12433.558
343.87473	12416.879
344.48593	12421.758
345.09711	12479.523
345.70828	12435.237
346.31946	12436.177
346.93066	12381.714
347.54184	12418.255
348.15302	12450.183
348.76419	12390.759
349.3754	12560.434
349.98657	12480.507
350.59775	12421.81
351.20892	12352.1
351.82013	12366.378
352.4313	12356.538
353.04248	12392.183
353.65366	12413.388
354.26486	12389.462
354.87604	12339.341
355.48721	12298.915
356.09842	12326.415
356.70959	12435.203
357.32077	12519.706
357.93195	12485.986
358.54315	12458.629
359.15433	12498.963
359.7655	12397.143
360.37668	12372.373
360.98788	12226.46
361.59906	12360.395
362.21024	12501.97
362.82141	12444.388
363.43262	12414.292
364.04379	12348.93
364.65497	12325.791
365.26617	12336.021
365.87735	12312.54
366.48853	12389.898
367.0997	12456.382
367.71091	12452.931
368.32208	12431.656
368.93326	12358.24
369.54443	12336.482
370.15564	12418.743
370.76682	12396.614
371.37799	12424.514
371.98917	12409.443
372.60037	12529.88
373.21155	12450.327
373.82272	12377.854
374.4339	12294.461
375.0451	12402.491
375.65628	12416.019
376.26746	12447.198
376.87866	12481.307
377.48984	12477.396
378.10101	12467.52
378.71219	12397.463
379.32339	12397.927
379.93457	12424.399
380.54575	12432.113
381.15692	12466.459
381.76813	12490.072
382.3793	12462.779
382.99048	12403.404
383.60165	12407.256
384.21286	12436.411
384.82404	12398.654
385.43521	12535.553
386.04642	12657.206
386.65759	12606.841
387.26877	12548.589
387.87994	12546.01
388.49115	12545.131
389.10233	12610.973
389.7135	12481.995
390.32468	12537.668
390.93588	12620.519
391.54706	12654.963
392.15823	12569.382
392.76941	12581.704
393.38062	12593.651
393.99179	12593.35
394.60297	12667.538
395.21414	12696.86
395.82535	12725.33
396.43652	12772.222
397.0477	12708.542
397.65891	12587.984
398.27008	12634.065
398.88126	12651.498
399.49243	12746.051
400.10364	12743.887
400.71481	12687.356
401.32599	12764.519
401.93716	12757.658
402.54837	12689.154
403.15955	12790.21
403.77072	12843.152
404.3819	12889.074
404.9931	12941.05
405.60428	12940.737
406.21545	12883.139
406.82663	12858.206
407.43784	12886.522
408.04901	12890.666
408.66019	12856.799
409.27139	12915.71
409.88257	13047.038
410.49374	13014.044
411.10492	12936.953
411.71613	12951.685
412.3273	12978.645
412.93848	13071.649
413.54965	13128.649
414.16086	13150.463
414.77203	13245.718
415.38321	13196.408
415.99438	13223.276
416.60559	13229.594
417.21677	13084.702
417.82794	13297.311
418.43915	13294.132
419.05032	13326.043
419.6615	13358.986
420.27267	13372.129
420.88388	13326.886
421.49506	13285.092
422.10623	13327.256
422.71741	13374.062
423.32861	13420.724
423.93979	13481.235
424.55096	13470.633
425.16214	13477.626
425.77335	13499.196
426.38452	13448.912
426.9957	13461.666
427.60687	13639.589
428.21808	13580.634
428.82925	13633.501
429.44043	13684.731
430.05164	13669.383
430.66281	13653.924
431.27399	13635.908
431.88516	13704.067
432.49637	13714.269
433.10754	13888.135
433.71872	13878.059
434.3299	13855.449
434.9411	13894.414
435.55228	13919.109
436.16345	13995.869
436.77463	14009.32
437.38583	13959.327
437.99701	14010.144
438.60818	14067.008
439.21936	14072.478
439.83057	14093.716
440.44174	14098.312
441.05292	14169.764
441.66412	14173.911
442.2753	14308.417
442.88647	14287.224
443.49765	14268.339
444.10886	14366.395
444.72003	14310.914
445.33121	14340.945
445.94238	14432.116
446.55359	14480.746
447.16476	14479.323
447.77594	14667.446
448.38712	14693.098
448.99832	14529.575
449.6095	14686.837
450.22067	14677.073
450.83188	14718.142
451.44305	14709.5
452.05423	14722.35
452.66541	14746.973
453.27661	14817.222
453.88779	14855.542
454.49896	14921.213
455.11014	15018.976
455.72134	15133.407
456.33252	15232.383
456.9437	15139.633
457.55487	15147.759
458.16608	15276.604
458.77725	15265.111
459.38843	15322.857
459.9996	15450.934
460.61081	15472.352
461.22198	15567.487
461.83316	15696.975
462.44437	15652.213
463.05554	15627.099
463.66672	15714.672
464.27789	15741.322
464.8891	15865.225
465.50027	16001.727
466.11145	16067.288
466.72263	16054.887
467.33383	16070.172
467.94501	16184.741
468.55618	16210.956
469.16736	16270.331
469.77856	16310.643
470.38974	16400.639
471.00092	16459.939
471.61212	16430.785
472.2233	16493.395
472.83447	16632.41
473.44565	16710.309
474.05685	16792.451
474.66803	16892.533
475.27921	16905.748
475.89038	16913.729
476.50159	17024.736
477.11276	17015.541
477.72394	17092.309
478.33511	17086.828
478.94632	17240.637
479.5575	17284.895
480.16867	17475.686
480.77985	17494.51
481.39105	17455.414
482.00223	17496.922
482.6134	17426.209
483.22461	17526.34
483.83578	17678.168
484.44696	17839.135
485.05814	17816.471
485.66934	17735.775
486.28052	17687.527
486.89169	17738.375
487.50287	17808.537
488.11407	17863.154
488.72525	17818.424
489.33643	17868.059
489.9476	17878.701
490.55881	17934.432
491.16998	17850.637
491.78116	17773.197
492.39233	17909.484
493.00354	18026.186
493.61472	18011.555
494.22589	17970.018
494.8371	18045.078
495.44827	17983.027
496.05945	18018.443
496.67062	18023.51
497.28183	18042.338
497.89301	18039.252
498.50418	18029.418
499.11536	17989.869
499.72656	17956.998
500.33774	17943.525
500.94891	17792.504
501.56009	17841.17
502.1713	17796.508
502.78247	17837.602
503.39365	17808.262
504.00485	17751.619
504.61603	17686.258
505.2272	17696.744
505.83838	17634.27
506.44958	17613.656
507.06076	17579.783
507.67194	17544.834
508.28311	17559.648
508.89432	17562.258
509.50549	17329.221
510.11667	17263.723
510.72784	17269.092
511.33905	17265.357
511.95023	17236.537
512.5614	17162.693
513.17261	17142.523
513.78375	17060.574
514.39496	17003.305
515.00616	17006.104
515.61731	16906.266
516.22852	16865.529
516.83972	16810.283
517.45087	16753.936
518.06207	16656.764
518.67322	16603.596
519.28442	16418.521
519.89563	16310.377
520.50677	16220.587
521.11798	16343.83
521.72919	16297.19
522.34033	16196.812
522.95154	16090.281
523.56268	16039.058
524.17389	16063.737
524.7851	15884.752
525.39624	15849.627
526.00745	15834.692
526.61865	15831.205
527.2298	15629.117
527.841	15546.119
528.45221	15455.364
529.06335	15484.848
529.67456	15371.009
530.28571	15326.428
530.89691	15266.807
531.50812	15250
532.11926	15217.715
532.73047	15182.074
533.34167	15155.863
533.95282	15185.637
534.56403	15074.71
535.17517	14968.944
535.78638	15064.494
536.39758	15058.057
537.00873	14993.927
537.61993	14940.414
538.23114	14890.903
538.84229	14847.623
539.45349	14827.37
540.0647	14864.099
540.67584	14831.753
541.28705	14849.221
541.89819	14879.01
542.5094	14846.222
543.12061	14905.946
543.73175	14901.947
544.34296	14871.518
544.95416	14837.48
545.56531	15014.604
546.17651	14894.743
546.78772	15003.41
547.39886	15006.943
548.01007	15097.328
548.62122	15305.682
549.23242	15341.158
549.84363	15487.688
550.45477	15512.05
551.06598	15570.326
551.67719	15693.544
552.28833	15739.646
552.89954	15928.573
553.51068	16085.28
554.12189	16249.149
554.73309	16267.462
555.34424	16260.893
555.95544	16485.143
556.56665	16530.066
557.1778	16672.398
557.789	16802.318
558.40021	17005.832
559.01135	17182.65
559.62256	17316.445
560.2337	17337.773
560.84491	17560.105
561.45612	17548.193
562.06726	17662.482
562.67847	17852.102
563.28967	17916.744
563.90082	18050.896
564.51202	18125.705
565.12317	18180.926
565.73438	18196.477
566.34558	18231.77
566.95673	18357.799
567.56793	18470.84
568.17914	18459.4
568.79028	18386.178
569.40149	18453.367
570.0127	18574.932
570.62384	18554.186
571.23505	18503.084
571.84619	18501.678
572.4574	18511.025
573.0686	18567.375
573.67975	18613.992
574.29095	18591.379
574.90216	18477.307
575.51331	18425.307
576.12451	18477.836
576.73566	18539.709
577.34686	18474.879
577.95807	18516.521
578.56921	18459.436
579.18042	18363.893
579.79163	18438.918
580.40277	18287.566
581.01398	18335.805
581.62518	18536.676
582.23633	18420.563
582.84753	18390.201
583.45868	18390.828
584.06989	18375.859
584.68109	18183.883
585.29224	18072.473
585.90344	18336.684
586.51465	18186.889
587.12579	18334.156
587.737	18211.424
588.34814	18173.691
588.95935	17982.631
589.57056	17971.945
590.1817	18001.094
590.79291	17995.098
591.40411	17809.816
592.01526	17892.93
592.62646	17610.926
593.23767	17644.938
593.84882	17644.734
594.46002	17531.951
595.07117	17464.691
595.68237	17364.934
596.29358	17307.752
596.90472	17203.701
597.51593	17102.688
598.12714	17002.352
598.73828	16809.766
599.34949	16732.895
599.96069	16652.338
600.57184	16532.336
601.18304	16483.832
601.79419	16358.066
602.4054	16143.131
603.0166	16003.122
603.62775	15974.887
604.23895	15883.152
604.85016	15749.306
605.4613	15696.541
606.07251	15599.803
606.68365	15429.157
607.29486	15284.811
607.90607	15195.657
608.51721	15124.255
609.12842	15029.675
609.73962	14921.09
610.35077	14846.902
610.96198	14770.591
611.57318	14627.868
612.18433	14528.402
612.79553	14454.375
613.40668	14295.313
614.01788	14173.348
614.62909	14128.014
615.24023	14059.911
615.85144	13939.983
616.46265	13866.284
617.07379	13724.577
617.685	13587.783
618.29614	13496.068
618.90735	13421.498
619.51855	13381.104
620.1297	13271.821
620.74091	13085.096
621.35211	12930.802
621.96326	12875.972
622.57446	12844.738
623.18567	12770.686
623.79681	12674.419
624.40802	12551.466
625.01917	12425.875
625.63037	12350.41
626.24158	12258.503
626.85272	12113.447
627.46393	12045.598
628.07513	12011.431
628.68628	11872.533
629.29749	11846.69
629.90863	11774.383
630.51984	11595.1
631.13104	11568.339
631.74219	11403.349
632.35339	11352.655
632.9646	11363.6
633.57574	11272.151
634.18695	11155.254
634.79816	11082.896
635.4093	10971.907
636.02051	10800.75
636.63165	10711.131
637.24286	10640.031
637.85406	10625.317
638.46521	10562.828
639.07642	10448.607
639.68762	10362.647
640.29877	10305.126
640.90997	10226.037
641.52112	10145.214
642.13232	10117.259
642.74353	10057.915
643.35468	9965.0859
643.96588	9871.9463
644.57709	9781.2598
645.18823	9649.2236
645.79944	9578.377
646.41064	9582.6758
647.02179	9527.7139
647.633	9451.9688
648.24414	9382.0576
648.85535	9323.9922
649.46655	9203.6582
650.0777	9144.0459
650.6889	9076.4375
651.30011	9021.2637
651.91125	8975.9951
652.52246	8904.2686
653.13367	8857.041
653.74481	8739.0283
654.35602	8706.373
654.96716	8544.4951
655.57837	8546.7969
656.18958	8418.3711
656.80072	8379.4297
657.41193	8395.333
658.02313	8238.3711
658.63428	8265.8047
659.24548	8207.4727
659.85663	8174.3818
660.46783	8108.083
661.07904	8006.0366
661.69019	8000.876
662.30139	7950.1001
662.9126	7863.1567
663.52374	7802.0776
664.13495	7725.6592
664.74615	7697.6611
665.3573	7544.5625
665.96851	7553.2168
666.57965	7551.8843
667.19086	7434.6323
667.80206	7418.731
668.41321	7321.0308
669.02441	7257.5195
669.63562	7235.7788
670.24677	7186.0288
670.85797	7212.3457
671.46912	7184.7739
672.08032	7120.3555
672.69153	6993.3633
673.30267	6906.7744
673.91388	6868.0063
674.52509	6854.9902
675.13623	6864.6621
675.74744	6808.9966
676.35864	6711.0059
676.96979	6628.1113
677.58099	6557.9458
678.19214	6493.1436
678.80334	6507.5137
679.41455	6515.3145
680.0257	6494.9644
680.6369	6441.7393
681.24811	6337.6128
681.85925	6236.5229
682.47046	6257.6465
683.0816	6181.7065
683.69281	6164.6787
684.30402	6174.6045
684.91516	6075.0396
685.52637	6027.0063
686.13757	6051.1504
686.74872	6008.6025
687.35992	5889.2798
687.97113	5896.9819
688.58228	5897.9629
689.19348	5827.2139
689.80463	5830.7646
690.41583	5846.8984
691.02704	5825.1177
691.63818	5689.6753
692.24939	5683.4834
692.8606	5690.2007
693.47174	5632.2588
694.08295	5704.4795
694.69409	5753.8286
695.3053	5614.1099
695.9165	5517.1626
696.52765	5539.9927
697.13885	5537.5952
697.75006	5452.2744
698.36121	5500.8857
698.97241	5492.395
699.58362	5471.0142
700.19476	5426.2803
700.80597	5384.9136
701.41711	5405.1753
702.02832	5388.5005
702.63953	5397.3906
703.25067	5368.2153
703.86188	5367.5405
704.47308	5356.4878
705.08423	5318.5454
705.69543	5328.2124
706.30664	5272.8574
706.91779	5244.5264
707.52899	5219.5176
708.14014	5183.1162
708.75134	5248.1621
709.36255	5227.3403
709.97369	5190.5278
710.5849	5218.269
711.19611	5160.7451
711.80725	5139.5645
712.41846	5193.5576
713.0296	5202.1318
713.64081	5191.9438
714.25201	5162.6401
714.86316	5131.3271
715.47437	5130.9785
716.08557	5108.3193
716.69672	5087.7583
717.30792	5126.9165
717.91913	5143.2446
718.53027	5129.5015
719.14148	5093.3926
719.75262	5066.5986
720.36383	5064.0742
720.97504	5065.3589
721.58618	5106.0991
722.19739	5120.7666
722.80859	5107.6992
723.41974	5064.8135
724.03094	5052.5171
724.64209	5020.6294
725.2533	4935.9209
725.8645	4942.1924
726.47565	5000.1572
727.08685	5002.4268
727.69806	5004.166
728.3092	5006.0825
728.92041	4975.3447
729.53162	4984.0688
730.14276	4953.7339
730.75397	5040.7749
731.36511	5013.3892
731.97632	4962.8706
732.58752	4970.9692
733.19867	4957.2642
733.80988	4916.0991
734.42108	4931.8311
735.03223	4961.9941
735.64343	4988.5376
736.25458	4963.2461
736.86578	4941.6152
737.47699	4948.2847
738.08813	4922.8115
738.69934	4877.6924
739.31055	4923.8423
739.92169	4919.7778
740.5329	4954.5254
741.1441	4902.1978
741.75525	4908.6177
742.36646	4937.4004
742.9776	4933.5737
743.58881	4924.4658
744.20001	4885.5054
744.81116	4891.7397
745.42236	4825.7222
746.03357	4832.4507
746.64471	4909.6821
747.25592	4852.355
747.86707	4830.6758
748.47827	4851.0371
749.08948	4807.7295
749.70062	4811.354
750.31183	4757.2627
750.92303	4837.7334
751.53418	4790.373
752.14539	4809.5439
752.75659	4800.1582
753.36774	4776.3984
753.97894	4714.856
754.59009	4834.4536
755.20129	4782.6255
755.8125	4722.3066
756.42365	4649.6982
757.03485	4680.3125
757.64606	4705.4829
758.2572	4734.9883
758.86841	4637.0933
759.47955	4719.6621
760.09076	4692.5073
760.70197	4707.0059
761.31311	4593.9155
761.92432	4533.1675
762.53552	4580.9224
763.14667	4575.4116
763.75787	4544.0059
764.36908	4536.4414
764.98022	4554.2534
765.59143	4555
766.20258	4458.5273
766.81378	4450.189
767.42499	4468.2607
768.03613	4452.002
768.64734	4478.3345
769.25854	4459.3086
769.86969	4398.875
770.4809	4368.0405
771.0921	4391.4463
771.70325	4315.6006
772.31445	4300.9189
772.9256	4271.5137
773.5368	4312.6436
774.14801	4256.9731
774.75916	4202.2651
775.37036	4127.3867
775.98157	4169.873
776.59271	4144.8706
777.20392	4139.4648
777.81506	4079.7744
778.42627	4124.249
779.03748	4037.7756
779.64862	4038.1121
780.25983	3980.0254
780.87103	3947.6458
781.48218	3900.6672
782.09338	3856.262
782.70459	3931.1465
783.31573	3857.4204
783.92694	3883.4326
784.53809	3800.2471
785.14929	3767.6758
785.7605	3760.687
786.37164	3717.502
786.98285	3681.4265
787.59406	3647.3479
788.2052	3607.9031
788.81641	3646.6802
789.42755	3583.8284
790.03876	3557.2188
790.64996	3581.5449
791.26111	3545.7402
791.87231	3507.5352
792.48352	3460.2229
793.09467	3458.9319
793.70587	3424.3083
794.31708	3385.4238
794.92822	3366.4092
795.53943	3341.1113
796.15057	3295.7813
796.76178	3283.8828
797.37299	3267.2949
797.98413	3239.1514
798.59534	3240.707
799.20654	3181.6008
799.81769	3186.3403
800.42889	3212.4092
801.04004	3094.0977
801.65125	3131.3303
802.26245	3132.1296
802.8736	3053.4734
803.4848	3074.5945
804.09601	2975.3516
804.70715	3040.634
805.31836	2984.7012
805.92957	3007.1184
806.54071	2988.7371
807.15192	2961.9282
807.76306	2944.6987
808.37427	2923.7756
808.98547	2939.8501
809.59662	2927.25
810.20782	2833.7908
810.81903	2795.4067
811.43018	2829.7051
812.04138	2878.8792
812.65253	2796.0039
813.26373	2831.6357
813.87494	2739.4192
814.48608	2785.969
815.09729	2770.832
815.7085	2797.9163
816.31964	2746.3743
816.93085	2760.3354
817.54205	2820.6067
818.1532	2808.0264
818.7644	2738.2009
819.37555	2742.8643
819.98676	2755.2219
820.59796	2724.7332
821.20911	2734.6865
821.82031	2770.0779
822.43152	2765.1687
823.04266	2702.7268
823.65387	2710.8823
824.26508	2713.1016
824.87622	2681.8936
825.48743	2722.0298
826.09857	2724.9258
826.70978	2691.4861
827.32098	2716.8547
827.93213	2730.7507
828.54333	2714.564
829.15454	2731.6575
829.76569	2711.437
830.37689	2707.9307
830.98804	2733.7034
831.59924	2730.4958
832.21045	2756.0408
832.82159	2720.575
833.4328	2722.5447
834.04401	2730.8037
834.65515	2717.4197
835.26636	2762.6997
835.87756	2685.9272
836.48871	2711.2991
837.09991	2704.271
837.71106	2707.7927
838.32227	2721.2878
838.93347	2753.666
839.54462	2753.2788
840.15582	2770.6499
840.76703	2753.5369
841.37817	2787.4893
841.98938	2768.5171
842.60052	2764.7229
843.21173	2734.5869
843.82294	2727.9998
844.43408	2725.1182
845.04529	2728.874
845.65649	2754.6223
846.26764	2758.0757
846.87885	2752.5623
847.49005	2755.5537
848.1012	2764.302
848.7124	2789.2405
849.32355	2749.0886
849.93475	2734.908
850.54596	2718.4248
851.1571	2714.4858
851.76831	2738.9678
852.37952	2758.8062
852.99066	2749.1396
853.60187	2745.2634
854.21301	2767.0061
854.82422	2789.8174
855.43542	2770.1172
856.04657	2731.9185
856.65778	2767.4607
857.26898	2794.4578
857.88013	2775.1099
858.49133	2783.668
859.10254	2772.8096
859.71368	2743.0852
860.32489	2767.0881
860.93604	2799.2493
861.54724	2808.874
862.15845	2779.6951
862.76959	2802.9929
863.3808	2805.2239
863.992	2800.5842
864.60315	2780.8303
865.21436	2802.6416
865.8255	2822.0493
866.43671	2771.321
867.04791	2832.2668
867.65906	2850.2437
868.27026	2859.6951
868.88147	2852.1807
869.49261	2830.9897
870.10382	2863.4316
870.71503	2904.6558
871.32617	2901.4646
871.93738	2885.7776
872.54852	2889.4194
873.15973	2924.9954
873.77094	2898.196
874.38208	2889.5867
874.99329	2911.3142
875.60449	2906.1621
876.21564	2910.9517
876.82684	2928.0986
877.43805	2956.3821
878.04919	2925.3103
878.6604	2908.0405
879.27155	2963.4053
879.88275	2982.5168
880.49396	2965.5488
881.1051	2988.644
881.71631	2979.7544
882.32751	3015.9395
882.93866	3075.1582
883.54987	3066.5156
884.16101	3032.5378
884.77222	3069.4087
885.38342	3033.4395
885.99457	3088.8047
886.60577	3117.7585
887.21698	3115.4004
887.82813	3112.2563
888.43933	3126.0652
889.05054	3130.0771
889.66168	3187.9355
890.27289	3196.1523
890.88403	3194.9541
891.49524	3184.1409
892.10645	3212.7354
892.71759	3243.2617
893.3288	3207.6301
893.94	3240.5623
894.55115	3274.9993
895.16235	3314.9802
895.7735	3325.075
896.3847	3350.374
896.99591	3373.1763
897.60706	3402.0247
898.21826	3423.0063
898.82947	3444.6833
899.44061	3490.9436
900.05182	3551.9683
900.66302	3564.1318
901.27417	3525.5388
901.88538	3547.5005
902.49652	3632.5278
903.10773	3613.8062
903.71893	3646.6794
904.33008	3666.0894
904.94128	3698.6802
905.55249	3777.7917
906.16364	3790.886
906.77484	3844.5168
907.38599	3838.5017
907.99719	3888.7915
908.6084	3952.4246
909.21954	4018.7332
909.83075	4043.1943
910.44196	4070.2446
911.0531	4074.1865
911.66431	4144.3745
912.27551	4174.2373
912.88666	4187.1895
913.49786	4297.5161
914.10901	4347.4868
914.72021	4296.1465
915.33142	4391.3057
915.94257	4483.481
916.55377	4590.8228
917.16498	4583.0669
917.77612	4602.562
918.38733	4661.5669
918.99847	4743.7944
919.60968	4828.4004
920.22089	4884.0488
920.83203	4911.9912
921.44324	4983.9692
922.05444	4989.2593
922.66559	5044.3755
923.27679	5110.5757
923.888	5221.8164
924.49915	5310.4141
925.11035	5283.5811
925.7215	5335.332
926.3327	5416.7104
926.94391	5479.1016
927.55505	5504.2832
928.16626	5523.4712
928.77747	5595.3818
929.38861	5689.7915
929.99982	5744.0327
930.61102	5738.7749
931.22217	5714.687
931.83337	5788.8745
932.44452	5856.0933
933.05573	5901.583
933.66693	5946.8984
934.27808	5963.6284
934.88928	6012.9771
935.50049	5988.8232
936.11163	5936.3599
936.72284	6051.5298
937.33398	6077.3882
937.94519	6162.459
938.5564	6136.5347
939.16754	6214.5132
939.77875	6082.8633
940.38995	6079.6152
941.0011	6073.8838
941.6123	6133.501
942.22351	6159.064
942.83466	6219.7588
943.44586	6127.4663
944.05701	6199.9707
944.66821	6208.4565
945.27942	6144.2339
945.89056	6149.1348
946.50177	6135.623
947.11298	6187.9277
947.72412	6208.8071
948.33533	6203.3867
948.94647	6164.5498
949.55768	6169.2622
950.16888	6175.6284
950.78003	6106.1621
951.39124	6130.627
952.00244	6193.8022
952.61359	6188.2515
953.22479	6206.9858
953.836	6171.3228
954.44714	6162.187
955.05835	6185.8496
955.66949	6150.2676
956.2807	6222.7661
956.89191	6241.2778
957.50305	6246.9707
958.11426	6260.2622
958.72546	6198.9971
959.33661	6218.9395
959.94781	6271.0293
960.55896	6297.6943
961.17017	6317.3149
961.78137	6390.3706
962.39252	6335.6499
963.00372	6375.4336
963.61493	6312.1704
964.22607	6311.4409
964.83728	6439.5747
965.44849	6454.6348
966.05963	6492.5171
966.67084	6527.2959
967.28198	6566.3662
967.89319	6598.1035
968.50439	6613.2002
969.11554	6608.5293
969.72675	6623.3911
970.33795	6711.626
970.9491	6720.3184
971.5603	6779.6226
972.17145	6853.98
972.78265	6860.5845
973.39386	6843.979
974.005	6894.645
974.61621	6932.457
975.22742	6959.5586
975.83856	7004.9844
976.44977	7010.0986
977.06097	7101.1948
977.67212	7096.4556
978.28333	7127.5566
978.89447	7259.5693
979.50568	7203.5942
980.11688	7268.5796
980.72803	7303.0757
981.33923	7327.7158
981.95044	7377.3384
982.56158	7322.7437
983.17279	7359.0137
983.784	7392.8071
984.39514	7532.8569
985.00635	7547.5942
985.61749	7612.4199
986.2287	7604.9673
986.8399	7631.9087
987.45105	7662.5532
988.06226	7680.0952
988.67346	7732.4902
989.28461	7797.1108
989.89581	7938.2681
990.50696	7921.1118
991.11816	7918.3008
991.72937	7933.9487
992.34052	7980.3838
992.95172	8036.3486
993.56293	8142.7305
994.17407	8161.3857
994.78528	8317.875
995.39648	8221.9307
996.00763	8363.373
996.61884	8338.0967
997.22998	8438.5762
997.84119	8548.4521
998.45239	8575.4648
999.06354	8544.999
999.67474	8641.0732
1000.2859	8697.2715
1000.8971	8658.0684
1001.5083	8705.4902
1002.1194	8812.1836
1002.7307	8854.9502
1003.3419	8955.625
1003.953	9012.8066
1004.5642	9056.6445
1005.1754	9085.4521
1005.7866	9129.0498
1006.3978	9191.1738
1007.009	9258.2129
1007.6201	9303.2939
1008.2313	9457.0391
1008.8425	9574.124
1009.4537	9539.7666
1010.0649	9554.3867
1010.676	9639.5537
1011.2872	9659.0859
1011.8984	9774.8613
1012.5096	9856.2939
1013.1208	9853.3779
1013.7319	10026.48
1014.3431	10103.016
1014.9543	10094.673
1015.5655	10189.509
1016.1767	10275.918
1016.7879	10441.092
1017.399	10572.828
1018.0103	10660.522
1018.6215	10728.522
1019.2326	10715.707
1019.8438	10789.548
1020.455	10843.397
1021.0662	10946.362
1021.6774	11045.982
1022.2885	11200.655
1022.8997	11278.531
1023.5109	11364.882
1024.1221	11439.813
1024.7333	11562.977
1025.3445	11634.371
1025.9557	11846.456
1026.5668	12033.583
1027.178	12068.302
1027.7892	12141.774
1028.4004	12258.575
1029.0116	12279.772
1029.6227	12280.193
1030.2339	12517.989
1030.8451	12540.912
1031.4563	12921.599
1032.0675	12945.729
1032.6787	13111.884
1033.2898	13169.104
1033.901	13226.905
1034.5122	13360.308
1035.1234	13536.826
1035.7346	13767.34
1036.3457	13849.038
1036.9569	13920.327
1037.5681	14116.056
1038.1793	14263.793
1038.7905	14308.125
1039.4017	14512.506
1040.0128	14716.447
1040.624	14891.743
1041.2352	15038.31
1041.8464	15106.288
1042.4576	15359.393
1043.0687	15413.188
1043.6799	15552.438
1044.2911	15685.397
1044.9023	15889.461
1045.5135	16111.113
1046.1246	16467.664
1046.7358	16483.551
1047.347	16578.648
1047.9583	16760.242
1048.5695	16985.131
1049.1807	17184.5
1049.7917	17360.105
1050.403	17448.412
1051.0142	17565.883
1051.6254	17830.516
1052.2366	17994
1052.8477	18081.965
1053.4589	18223.893
1054.0701	18407.111
1054.6813	18788.197
1055.2925	18867.41
1055.9037	19009.891
1056.5148	19156.887
1057.126	19320.668
1057.7372	19619.42
1058.3484	19619.135
1058.9596	19948.893
1059.5707	20190.627
1060.1819	20370.053
1060.7931	20446.275
1061.4043	20594.002
1062.0155	20759.541
1062.6267	20903.451
1063.2378	20941.922
1063.849	21332.838
1064.4602	21495.725
1065.0714	21599.17
1065.6826	21826.779
1066.2937	21934.172
1066.9049	22178.656
1067.5161	22402.131
1068.1273	22434.393
1068.7385	22741.813
1069.3497	22899.83
1069.9608	22923.813
1070.572	23289.752
1071.1832	23304.91
1071.7944	23398.813
1072.4056	23493.561
1073.0167	23770.65
1073.6279	23690.086
1074.2391	24139.766
1074.8503	24259.027
1075.4615	24268.365
1076.0726	24469.816
1076.6838	24578.725
1077.295	24610.348
1077.9063	24806.137
1078.5175	25014.166
1079.1287	25087.656
1079.7397	25159.797
1080.351	25179.846
1080.9622	25231.193
1081.5734	25297.979
1082.1846	25356.947
1082.7957	25561.596
1083.4069	25699.379
1084.0181	25737.992
1084.6293	25790.199
1085.2405	25703.137
1085.8517	25770.063
1086.4628	25863.348
1087.074	26109.602
1087.6852	25970.836
1088.2964	25995.135
1088.9076	26061.984
1089.5187	25920.207
1090.1299	25850.977
1090.7411	25847.135
1091.3523	25771.215
1091.9635	25788.977
1092.5747	25773.42
1093.1858	25755.605
1093.797	25713.77
1094.4082	25504.691
1095.0194	25431.586
1095.6306	25394.527
1096.2417	25243.363
1096.8529	25253.736
1097.4641	25115.393
1098.0753	25076.021
1098.6865	24819.127
1099.2976	24755.334
1099.9088	24624.953
1100.52	24402.77
1101.1312	24206.918
1101.7424	24090.783
1102.3536	23954.232
1102.9647	23720.07
1103.5759	23449.012
1104.1871	23256.32
1104.7983	23092.537
1105.4095	22817.682
1106.0206	22692.76
1106.6318	22546.709
1107.243	22424.906
1107.8542	21889.541
1108.4655	21609.752
1109.0767	21471.629
1109.6877	21212.541
1110.299	20999.123
1110.9102	20700.803
1111.5214	20516.033
1112.1326	20319.563
1112.7437	20032.949
1113.3549	19759.402
1113.9661	19608.551
1114.5773	19306.453
1115.1885	19143.393
1115.7997	18929.965
1116.4108	18667.955
1117.022	18402.273
1117.6332	18000.277
1118.2444	17655.324
1118.8556	17512.836
1119.4667	17202.92
1120.0779	17020.861
1120.6891	16738.99
1121.3003	16516.316
1121.9115	16133.212
1122.5227	15793.147
1123.1338	15607.424
1123.745	15286.225
1124.3562	15028.513
1124.9674	14889.764
1125.5786	14682.471
1126.1897	14482.999
1126.8009	14102.796
1127.4121	13841.26
1128.0233	13608.139
1128.6345	13365.462
1129.2456	13133.767
1129.8568	12927.365
1130.468	12703.674
1131.0792	12345.77
1131.6904	12095.391
1132.3016	11913.954
1132.9127	11721.571
1133.5239	11462.743
1134.1351	11340.365
1134.7463	11139.931
1135.3575	10797.267
1135.9686	10519.158
1136.5798	10384.588
1137.191	10192.541
1137.8022	9974.8867
1138.4135	9852.9072
1139.0247	9606.1016
1139.6357	9339.9717
1140.2469	9179.9053
1140.8582	9012.3496
1141.4694	8806.4443
1142.0806	8640.9844
1142.6917	8485.3809
1143.3029	8336.791
1143.9141	8148.3198
1144.5253	7970.0576
1145.1365	7725.1348
1145.7477	7613.7358
1146.3588	7490.3794
1146.97	7341.1919
1147.5812	7203.3086
1148.1924	7075.1787
1148.8036	6905.4937
1149.4147	6750.3389
1150.0259	6502.9932
1150.6371	6334.1592
1151.2483	6189.1035
1151.8595	6150.9165
1152.4706	6031.7007
1153.0818	5883.5718
1153.693	5743.998
1154.3042	5623.3462
1154.9154	5505.9063
1155.5266	5394.2192
1156.1377	5300.6431
1156.7489	5192.6353
1157.3601	5099.8506
1157.9713	4999.6914
1158.5825	4921.79
1159.1936	4764.1685
1159.8048	4628.7168
1160.416	4580.4131
1161.0272	4469.0317
1161.6384	4403.4165
1162.2496	4354.2734
1162.8607	4275.5322
1163.4719	4214.4194
1164.0831	4098.769
1164.6943	4052.1841
1165.3055	3962.5398
1165.9166	3872.6694
1166.5278	3852.4045
1167.139	3770.5544
1167.7502	3729.8298
1168.3615	3624.2734
1168.9727	3580.9739
1169.5837	3487.5637
1170.1949	3411.6951
1170.8062	3343.4482
1171.4174	3358.3445
1172.0286	3295.739
1172.6396	3237.394
1173.2509	3204.8237
1173.8621	3154.5974
1174.4733	3091.1992
1175.0845	3061.6826
1175.6956	3039.9541
1176.3068	2983.354
1176.918	2954.2754
1177.5292	2911.6641
1178.1404	2884.8655
1178.7516	2854.4424
1179.3627	2804.3787
1179.9739	2745.1646
1180.5851	2755.0608
1181.1963	2731.832
1181.8075	2717.7058
1182.4186	2655.2979
1183.0298	2633.3425
1183.641	2607.4336
1184.2522	2595.8755
1184.8634	2573.3623
1185.4746	2539.1697
1186.0857	2498.01
1186.6969	2504.5483
1187.3081	2490.9417
1187.9193	2440.3328
1188.5305	2438.5088
1189.1416	2418.2461
1189.7528	2405.8442
1190.364	2366.6428
1190.9752	2377.6462
1191.5864	2360.5413
1192.1976	2356.4998
1192.8087	2347.803
1193.4199	2307.5698
1194.0311	2306.5911
1194.6423	2304.9841
1195.2535	2291.2349
1195.8646	2270.2034
1196.4758	2269.0728
1197.087	2246.7268
1197.6982	2215.2725
1198.3094	2211.5642
1198.9207	2181.3606
1199.5317	2188.1006
1200.1429	2213.3896
1200.7542	2196.8889
1201.3654	2162.8816
1201.9766	2164.1665
1202.5876	2159.0061
1203.1989	2158.9216
1203.8101	2143.5281
1204.4213	2218.3281
1205.0325	2188.7417
1205.6436	2134.4863
1206.2548	2127.448
1206.866	2105.0144
1207.4772	2076.7283
1208.0884	2080.5049
1208.6996	2095.4727
1209.3107	2075.2705
1209.9219	2073.4229
1210.5331	2090.2244
1211.1443	2077.2607
1211.7555	2046.2308
1212.3666	2056.7571
1212.9778	2056.0388
1213.589	2074.0845
1214.2002	2073.1467
1214.8114	2047.7268
1215.4226	2075.6648
1216.0337	2011.8153
1216.6449	2045.355
1217.2561	2036.1935
1217.8673	2035.8062
1218.4785	2017.9281
1219.0896	2019.2997
1219.7008	2018.8375
1220.312	2010.8944
1220.9232	2010.1635
1221.5344	2011.2278
1222.1456	1958.2062
1222.7567	1999.3743
1223.3679	1969.8082
1223.9791	1981.3938
1224.5903	2001.0616
1225.2015	1999.0621
1225.8126	1947.5847
1226.4238	1961.0304
1227.035	1958.5244
1227.6462	1962.767
1228.2574	1969.0782
1228.8685	1959.5243
1229.4797	1947.647
1230.0909	1951.4152
1230.7021	1919.1235
1231.3134	1920.9785
1231.9246	1923.3895
1232.5356	1942.2396
1233.1469	1945.8824
1233.7581	1916.2362
1234.3693	1919.3151
1234.9805	1884.3862
1235.5916	1951.2786
1236.2028	1898.9961
1236.814	1945.9471
1237.4252	1937.5962
1238.0364	1911.0842
1238.6476	1897.9961
1239.2587	1880.0109
1239.8699	1880.0671
1240.4811	1897.6664
1241.0923	1917.8282
1241.7035	1917.1201
1242.3146	1891.7566
1242.9258	1870.2987
1243.537	1867.0237
1244.1482	1860.5338
1244.7594	1843.5586
1245.3706	1861.9623
1245.9817	1867.9933
1246.5929	1852.9371
1247.2041	1862.1191
1247.8153	1865.1752
1248.4265	1862.4282
1249.0376	1829.6686
1249.6488	1830.1897
1250.26	1821.7338
1250.8712	1832.3876
1251.4824	1838.7653
1252.0936	1845.9889
1252.7047	1828.4487
1253.3159	1825.9657
1253.9271	1799.056
1254.5383	1812.7054
1255.1495	1811.3712
1255.7606	1835.0826
1256.3718	1797.1204
1256.983	1848.1223
1257.5942	1808.0625
1258.2054	1821.832
1258.8165	1806.7715
1259.4277	1821.4088
1260.0389	1794.3441
1260.6501	1777.8583
1261.2614	1801.2306
1261.8726	1800.087
1262.4836	1786.6271
1263.0948	1785.2551
1263.7061	1769.493
1264.3173	1783.0686
1264.9285	1818.0511
1265.5396	1788.4811
1266.1508	1841.6937
1266.762	1772.4773
1267.3732	1788.7572
1267.9844	1760.2682
1268.5956	1737.3258
1269.2067	1747.9237
1269.8179	1777.2386
1270.4291	1791.6683
1271.0403	1792.8618
1271.6515	1767.5853
1272.2626	1786.1381
1272.8738	1733.5444
1273.485	1772.6771
1274.0962	1756.4248
1274.7074	1823.7065
1275.3186	1792.5637
1275.9297	1771.837
1276.5409	1795.686
1277.1521	1791.0248
1277.7633	1778.5471
1278.3745	1740.943
1278.9856	1740.3104
1279.5968	1751.0914
1280.208	1757.7266
1280.8192	1782.725
1281.4304	1784.5833
1282.0415	1749.2653
1282.6527	1741.8604
1283.2639	1782.1779
1283.8751	1778.0258
1284.4863	1755.8668
1285.0975	1778.7463
1285.7086	1771.7742
1286.3198	1735.9335
1286.931	1744.683
1287.5422	1746.5248
1288.1534	1742.4613
1288.7645	1763.0673
1289.3757	1762.8392
1289.9869	1769.7865
1290.5981	1728.8741
1291.2094	1721.7959
1291.8206	1749.1429
1292.4316	1748.5381
1293.0428	1723.1775
1293.6541	1722.9895
1294.2653	1779.8877
1294.8765	1751.025
1295.4875	1764.8433
1296.0988	1736.7124
1296.71	1734.0667
1297.3212	1751.3203
1297.9324	1760.6246
1298.5436	1751.5253
1299.1547	1721.9156
1299.7659	1744.8268
1300.3771	1747.0542
1300.9883	1753.8311
1301.5995	1733.5552
1302.2106	1693.0872
1302.8218	1765.9364
1303.433	1730.5387
1304.0442	1759.4319
1304.6554	1739.3752
1305.2666	1702.3196
1305.8777	1729.8076
1306.4889	1731.2134
1307.1001	1733.348
1307.7113	1744.132
1308.3225	1752.0618
1308.9336	1708.7311
1309.5448	1760.3302
1310.156	1759.1128
1310.7672	1699.3024
1311.3784	1723.9968
1311.9895	1729.8121
1312.6007	1736.283
1313.2119	1735.0011
1313.8231	1740.55
1314.4343	1740.6113
1315.0455	1741.5389
1315.6566	1737.6168
1316.2678	1736.7538
1316.879	1717.739
1317.4902	1732.9703
1318.1014	1693.8296
1318.7125	1712.8003
1319.3237	1711.4309
1319.9349	1731.5812
1320.5461	1708.3052
1321.1573	1730.705
1321.7686	1741.1033
1322.3796	1725.2251
1322.9908	1713.0421
1323.6021	1715.1869
1324.2133	1748.0394
1324.8245	1738.548
1325.4355	1708.0098
1326.0468	1730.5657
1326.658	1699.7244
1327.2692	1731.9966
1327.8804	1745.5208
1328.4916	1713.2417
1329.1027	1723.1952
1329.7139	1747.3192
1330.3251	1737.6085
1330.9363	1728.2484
1331.5475	1735.5996
1332.1586	1737.9038
1332.7698	1735.8994
1333.381	1732.7501
1333.9922	1736.6622
1334.6034	1712.1761
1335.2145	1738.7673
1335.8257	1750.6355
1336.4369	1734.3007
1337.0481	1735.6025
1337.6593	1719.0624
1338.2705	1708.012
1338.8816	1719.3623
1339.4928	1710.1796
1340.104	1727.0417
1340.7152	1732.8677
1341.3264	1737.734
1341.9375	1754.9255
1342.5487	1751.4113
1343.1599	1712.8384
1343.7711	1741.7859
1344.3823	1743.7856
1344.9935	1739.4255
1345.6046	1748.0605
1346.2158	1726.9305
1346.827	1717.5457
1347.4382	1736.308
1348.0494	1759.3508
1348.6605	1736.8257
1349.2717	1741.9275
1349.8829	1749.7728
1350.4941	1761.7721
1351.1053	1713.4819
1351.7166	1714.8969
1352.3276	1712.7162
1352.9388	1707.6084
1353.55	1743.9425
1354.1613	1773.5051
1354.7725	1721.6395
1355.3835	1734.9238
1355.9948	1761.2413
1356.606	1741.7616
1357.2172	1743.5896
1357.8284	1794.3943
1358.4396	1736.8875
1359.0507	1723.5511
1359.6619	1769.765
1360.2731	1767.1104
1360.8843	1761.9453
1361.4955	1713.6072
1362.1066	1701.6982
1362.7178	1707.1256
1363.329	1732.1813
1363.9402	1769.272
1364.5514	1779.8843
1365.1625	1749.1553
1365.7737	1774.0448
1366.3849	1738.8792
1366.9961	1738.2124
1367.6073	1744.6534
1368.2185	1749.4323
1368.8296	1754.1807
1369.4408	1761.1089
1370.052	1755.5691
1370.6632	1745.0588
1371.2744	1751.3423
1371.8855	1764.8218
1372.4967	1776.2888
1373.1079	1772.0939
1373.7191	1784.0242
1374.3303	1785.187
1374.9415	1792.4907
1375.5526	1757.2599
1376.1638	1744.1803
1376.775	1753.459
1377.3862	1758.6934
1377.9974	1781.2117
1378.6085	1837.0155
1379.2197	1767.4768
1379.8309	1777.5675
1380.4421	1733.2731
1381.0533	1745.2485
1381.6646	1760.2661
1382.2756	1756.7788
1382.8868	1775.8438
1383.498	1804.4143
1384.1093	1788.8606
1384.7205	1766.8158
1385.3315	1774.339
1385.9427	1731.9137
1386.554	1743.1826
1387.1652	1796.7915
1387.7764	1731.2651
1388.3875	1814.0166
1388.9987	1794.9327
1389.6099	1771.7085
1390.2211	1736.2194
1390.8323	1768.2343
1391.4435	1781.3051
1392.0546	1787.1764
1392.6658	1785.6946
1393.277	1772.2137
1393.8882	1781.1659
1394.4994	1819.2281
1395.1105	1784.6123
1395.7217	1770.599
1396.3329	1762.527
1396.9441	1752.4282
1397.5553	1801.4756
1398.1665	1823.1465
1398.7776	1818.3563
1399.3888	1762.502
1400	1797.2368
