15.057955	4205.5
15.669138	5069.6733
16.280321	5815.9854
16.891506	6167.623
17.502689	6248.7871
18.113873	6324.252
18.725056	6464.8608
19.336241	6577.957
19.947424	6627.8843
20.558607	6707.4092
21.16979	6855.689
21.780975	6976.7856
22.392159	7092.5693
23.003342	7308.8828
23.614525	7439.5269
24.225708	7567.106
24.836893	7788.4512
25.448076	8031.1353
26.059259	8223.7236
26.670443	8455.0176
27.281628	8576.8555
27.892811	8836.8447
28.503994	8999.9385
29.115177	9106.7168
29.72636	9199.6133
30.337545	9398.3008
30.948729	9615.2402
31.559912	9791.3779
32.171097	9941.7783
32.78228	10074.815
33.393463	10297.893
34.004646	10484.499
34.615829	10729.716
35.227013	10861.939
35.838196	11092.638
36.449383	11320.956
37.060566	11419.305
37.671749	11536.579
38.282932	11653.88
38.894115	11625.366
39.505299	11719.634
40.116482	11894.164
40.727665	11954.478
41.338848	12144.991
41.950035	12313.271
42.561218	12415.174
43.172401	12574.357
43.783585	12711.344
44.394768	12796.947
45.005951	12834.675
45.617134	12794.737
46.228317	12876.603
46.8395	13076.086
47.450687	13137.689
48.061871	13280.608
48.673054	13313.673
49.284237	13424.186
49.89542	13435.536
50.506603	13388.121
51.117786	13437.307
51.72897	13533.563
52.340153	13526.658
52.95134	13572.078
53.562523	13551.236
54.173706	13552.477
54.784889	13575.671
55.396072	13587.563
56.007256	13689.726
56.618439	13713.658
57.229622	13702.133
57.840809	13768.896
58.451992	13887.392
59.063175	14037.711
59.674358	14206.068
60.285542	14338.079
60.896725	14150.087
61.507908	13946.784
62.119091	13828.887
62.730274	13794.942
63.341461	13810.613
63.952644	13822.595
64.563828	13842.178
65.175011	13886.687
65.786194	13863.586
66.397377	13835.134
67.00856	13925.472
67.619743	13999.756
68.230927	13940.935
68.84211	13855.835
69.453293	13868.672
70.064476	13871.104
70.675659	13852.922
71.28685	13878.725
71.898033	13900.942
72.509216	13819.89
73.120399	13673.025
73.731583	13684.825
74.342766	13816.783
74.953949	13847.489
75.565132	13915.003
76.176315	13907.35
76.787498	13713.499
77.398682	13524.646
78.009865	13518.041
78.621048	13561.722
79.232231	13507.285
79.843414	13610.542
80.454597	13544.625
81.065781	13478.395
81.676964	13563.683
82.288155	13572.634
82.899338	13603.48
83.510521	13620.883
84.121704	13601.164
84.732887	13492.483
85.34407	13340.063
85.955254	13300.211
86.566437	13172.267
87.17762	13253.852
87.788803	13190.867
88.399986	13165.509
89.011169	13211.304
89.622353	13234.153
90.233536	13215.07
90.844719	13262.599
91.455902	13265.976
92.067085	13169.921
92.678276	13148.438
93.289459	13082.65
93.900642	13030.953
94.511826	13091.263
95.123009	12992.223
95.734192	12991.582
96.345375	12915.317
96.956558	12874.528
97.567741	12813.104
98.178925	12768.11
98.790108	12775.119
99.401291	12783.035
100.01247	12772.938
100.62366	12628.257
101.23484	12601.479
101.84602	12589.492
102.45721	12564.754
103.06839	12571.386
103.67958	12564.804
104.29076	12521.344
104.90195	12549.232
105.51313	12580.141
106.12431	12568.081
106.7355	12617.66
107.34668	12587.201
107.95786	12478.618
108.56905	12379.805
109.18023	12239.361
109.79141	12159.949
110.4026	12145.115
111.01378	12102.218
111.62496	12127.823
112.23615	12137.719
112.84733	12158.358
113.45851	12195.168
114.0697	12082.466
114.68089	12082.156
115.29207	12034.508
115.90325	11994.208
116.51443	11958.753
117.12562	11944.171
117.7368	11927.321
118.34798	11923.464
118.95917	11882.819
119.57035	11770.987
120.18153	11714.542
120.79272	11736.024
121.4039	11673.521
122.01508	11762.351
122.62627	11766.625
123.23745	11746.098
123.84863	11702.8
124.45982	11590.914
125.07101	11547.028
125.68219	11473.344
126.29337	11468.722
126.90456	11466.998
127.51574	11382.817
128.12692	11349.423
128.7381	11422.25
129.34929	11299.088
129.96048	11257.882
130.57166	11329.758
131.18285	11305.327
131.79402	11266.825
132.40521	11271.305
133.01639	11192.851
133.62758	11126.13
134.23875	11120.018
134.84995	11140.43
135.46112	11139.69
136.07231	11090.626
136.68349	11060.536
137.29468	11056.366
137.90585	11045.251
138.51704	10924.851
139.12822	11038.019
139.73941	11116.55
140.35059	10967.484
140.96178	10889.746
141.57297	10872.934
142.18414	10815.493
142.79533	10788.662
143.40651	10842.091
144.0177	10880.565
144.62888	10842.115
145.24007	10753.346
145.85124	10774.484
146.46243	10776.965
147.07361	10693.559
147.6848	10638.826
148.29597	10621.244
148.90717	10605.292
149.51834	10592.435
150.12953	10566.135
150.74071	10544.924
151.3519	10598.912
151.96309	10597.754
152.57426	10541.961
153.18546	10480.376
153.79663	10541.129
154.40782	10485.088
155.019	10458.099
155.63019	10497.524
156.24136	10477.754
156.85255	10388.955
157.46373	10350.601
158.07492	10376.011
158.6861	10366.165
159.29729	10347.703
159.90846	10351.867
160.51965	10342.915
161.13083	10223.029
161.74202	10224.016
162.35321	10274.637
162.96439	10292.961
163.57558	10327.022
164.18675	10309.271
164.79794	10267.092
165.40912	10240.141
166.02031	10228.798
166.63148	10210.899
167.24268	10121.184
167.85385	10134.275
168.46504	10182.802
169.07622	10147.695
169.68741	10142.144
170.29858	10095.972
170.90977	10086.104
171.52095	10087.366
172.13214	10089.737
172.74333	10094.868
173.35451	10080.908
173.9657	10076.536
174.57687	10084.97
175.18806	9976.3027
175.79924	9972.1055
176.41043	10074.916
177.02161	9987.4492
177.6328	9915.3311
178.24397	9972.2539
178.85516	9972.6162
179.46634	10003.724
180.07753	10022.911
180.68871	9957.4727
181.2999	9931.3604
181.91107	9983.5195
182.52226	9980.0244
183.13344	9974.625
183.74463	9928.125
184.35582	9961.9883
184.967	9947.6328
185.57819	9932.8535
186.18936	9937.9814
186.80055	9978.96
187.41173	9978.9063
188.02292	9956.3652
188.63409	9902.7158
189.24529	9905.6367
189.85646	9923.9541
190.46765	9875.0664
191.07883	9913.4922
191.69002	9960.3848
192.30119	9913.332
192.91238	9911.1455
193.52356	9929.1152
194.13475	9986.4541
194.74594	9919.9063
195.35712	9846.2002
195.96831	9847.3154
196.57948	9889.9629
197.19067	9877.3096
197.80185	9877.1426
198.41304	9912.9072
199.02422	9862.6201
199.63541	9829.2412
200.24658	9878.335
200.85777	9928.0977
201.46895	9835.7607
202.08014	9845.2715
202.69131	9935.999
203.30251	9927.8643
203.91368	9906.4365
204.52487	9958.5439
205.13606	9961.1035
205.74724	9932.5811
206.35843	9885.6133
206.9696	9858.4375
207.5808	9935.8057
208.19197	9914.5059
208.80316	9945.4023
209.41434	9847.1338
210.02553	9893.6963
210.6367	9897.3613
211.24789	9900.5068
211.85907	9919.2383
212.47026	9893.8457
213.08144	9910.0088
213.69263	9900.2725
214.3038	9924.9961
214.91499	10008.427
215.52618	10046.479
216.13736	10023.313
216.74855	9992.25
217.35973	10028.88
217.97092	10045.123
218.58209	10037.656
219.19328	9986.5791
219.80446	9980.6709
220.41565	9961.2568
221.02682	10001.656
221.63802	9993.5391
222.24919	10014.395
222.86038	10032.075
223.47156	10044.589
224.08275	10064.549
224.69392	10034.228
225.30511	10026.791
225.91631	10042.089
226.52748	10004.5
227.13867	10076.025
227.74985	10009.01
228.36104	10066.296
228.97221	10116.415
229.5834	10069.411
230.19458	10019.336
230.80577	10008.679
231.41695	10079.916
232.02814	10145.219
232.63931	10123.48
233.2505	10092.327
233.86168	10131.4
234.47287	10185.392
235.08405	10176.755
235.69524	10109.189
236.30641	10230.029
236.9176	10172.255
237.52879	10117.336
238.13997	10241.058
238.75116	10260.814
239.36234	10193.539
239.97353	10139.753
240.5847	10192.458
241.19589	10191.338
241.80707	10150.05
242.41826	10202.529
243.02943	10188.255
243.64063	10230.457
244.2518	10130.544
244.86299	10257.227
245.47417	10237.979
246.08536	10301.345
246.69653	10299.038
247.30772	10316.191
247.91891	10311.977
248.53009	10262.18
249.14128	10215.295
249.75246	10247.147
250.36365	10293.368
250.97482	10325.384
251.58601	10361.899
252.19719	10322.193
252.80838	10298.587
253.41956	10379.432
254.03075	10342.298
254.64192	10392.805
255.25311	10294.924
255.86429	10272.813
256.47546	10310.85
257.08667	10347.049
257.69785	10335.457
258.30902	10296.384
258.92023	10291.049
259.5314	10356.756
260.14258	10419.239
260.75375	10379.433
261.36496	10332.369
261.97614	10409.408
262.58731	10373.477
263.19849	10394.105
263.80969	10385.314
264.42087	10426.043
265.03204	10482.078
265.64322	10360.424
266.25443	10307.678
266.8656	10356.709
267.47678	10386.573
268.08795	10367.314
268.69916	10385.35
269.31033	10394.935
269.92151	10411.605
270.53271	10442.148
271.14389	10388.099
271.75507	10433.264
272.36624	10409.895
272.97745	10423.146
273.58862	10411.729
274.1998	10322.325
274.81097	10448.539
275.42218	10358.132
276.03336	10385.91
276.64453	10390.332
277.25571	10427.485
277.86691	10403.979
278.47809	10377.842
279.08926	10376.675
279.70047	10353.694
280.31165	10356.832
280.92282	10409.956
281.534	10399.798
282.1452	10303.586
282.75638	10248.016
283.36755	10388.256
283.97873	10392.49
284.58994	10332.909
285.20111	10370.811
285.81229	10350.599
286.42346	10394.457
287.03467	10337.929
287.64584	10336.958
288.25702	10294.766
288.86819	10270.581
289.4794	10315.083
290.09058	10313.829
290.70175	10295.129
291.31296	10327.991
291.92413	10338.731
292.53531	10351.487
293.14648	10343.771
293.75769	10333.236
294.36887	10307.031
294.98004	10265.939
295.59122	10287.214
296.20242	10298.398
296.8136	10281.208
297.42477	10261.744
298.03595	10281.5
298.64716	10258.001
299.25833	10189.579
299.86951	10163.229
300.48068	10220.319
301.09189	10295.61
301.70306	10273.878
302.31424	10223.782
302.92545	10233.317
303.53662	10219.071
304.1478	10227.093
304.75897	10263.404
305.37018	10276.661
305.98135	10233.607
306.59253	10192.251
307.2037	10162.837
307.81491	10153.374
308.42609	10133.026
309.03726	10090.188
309.64844	10100.479
310.25964	10133.661
310.87082	10140.434
311.48199	10179.921
312.0932	10197.5
312.70438	10093.487
313.31555	10050.042
313.92673	10203.324
314.53793	10165.332
315.14911	10185.258
315.76028	10126.241
316.37146	10189.673
316.98267	10105.077
317.59384	10066.829
318.20502	10052.372
318.81619	10062.771
319.4274	10080.948
320.03857	10068.817
320.64975	10069.097
321.26093	10061.185
321.87213	10044.046
322.48331	10069.166
323.09448	10062.674
323.70569	10078.484
324.31686	10054.678
324.92804	10046.771
325.53922	10079.373
326.15042	10100.754
326.7616	10032.303
327.37277	10035.44
327.98395	9999.5742
328.59515	10039.534
329.20633	10048.407
329.8175	10076.032
330.42868	10074.867
331.03989	10091.278
331.65106	10119.273
332.26224	10099.213
332.87344	10047.196
333.48462	10002.549
334.09579	9983.7158
334.70697	10009.57
335.31818	10041.501
335.92935	10140.958
336.54053	10016.307
337.1517	10053.604
337.76291	10091.579
338.37408	10070.761
338.98526	10050.632
339.59644	10097.282
340.20764	10151.179
340.81882	10117.763
341.42999	10074.279
342.04117	10061.329
342.65237	10039.877
343.26355	10047.855
343.87473	10084.656
344.48593	10102.256
345.09711	10105.425
345.70828	10089.74
346.31946	10089.837
346.93066	10110.599
347.54184	10075.669
348.15302	10141.821
348.76419	10077.278
349.3754	10154.913
349.98657	10204.032
350.59775	10143.049
351.20892	10161.176
351.82013	10099.986
352.4313	10136.56
353.04248	10187.124
353.65366	10215.801
354.26486	10233.455
354.87604	10259.723
355.48721	10236.177
356.09842	10163.998
356.70959	10149.834
357.32077	10180.684
357.93195	10212.596
358.54315	10313.518
359.15433	10305.05
359.7655	10310.467
360.37668	10365.904
360.98788	10234.474
361.59906	10267.692
362.21024	10314.712
362.82141	10309.639
363.43262	10377.249
364.04379	10337.69
364.65497	10334.104
365.26617	10325.191
365.87735	10343.293
366.48853	10412.678
367.0997	10439.381
367.71091	10406.122
368.32208	10406.647
368.93326	10407.667
369.54443	10369.388
370.15564	10416.927
370.76682	10466.742
371.37799	10472.943
371.98917	10504.223
372.60037	10546.265
373.21155	10520.806
373.82272	10485.046
374.4339	10514.208
375.0451	10542.002
375.65628	10492.534
376.26746	10503.339
376.87866	10558.137
377.48984	10597.517
378.10101	10594.244
378.71219	10546.069
379.32339	10540.632
379.93457	10604.634
380.54575	10642.99
381.15692	10646.774
381.76813	10707.362
382.3793	10774.565
382.99048	10755.958
383.60165	10725.176
384.21286	10645.967
384.82404	10665.351
385.43521	10719.537
386.04642	10738.967
386.65759	10854.296
387.26877	10784.573
387.87994	10770.549
388.49115	10785.165
389.10233	10759.143
389.7135	10727.776
390.32468	10904.524
390.93588	10956.552
391.54706	10961.076
392.15823	11002.787
392.76941	11017.997
393.38062	10999.157
393.99179	10967.195
394.60297	10970.854
395.21414	10991.044
395.82535	10968.619
396.43652	11008.451
397.0477	11049.499
397.65891	10986.226
398.27008	10980.241
398.88126	11092.32
399.49243	11112.501
400.10364	11142.063
400.71481	11167.989
401.32599	11119.604
401.93716	11183.21
402.54837	11185.154
403.15955	11144.757
403.77072	11187.827
404.3819	11186.608
404.9931	11240.827
405.60428	11263.934
406.21545	11197.005
406.82663	11263.439
407.43784	11271.426
408.04901	11235.693
408.66019	11291.726
409.27139	11354.697
409.88257	11397.83
410.49374	11299.376
411.10492	11391.972
411.71613	11400.607
412.3273	11505.854
412.93848	11417.23
413.54965	11446.594
414.16086	11566.334
414.77203	11544.604
415.38321	11510.282
415.99438	11522.287
416.60559	11518.395
417.21677	11505.581
417.82794	11565.839
418.43915	11686.382
419.05032	11662.273
419.6615	11624.929
420.27267	11591.415
420.88388	11599.854
421.49506	11657.402
422.10623	11686.041
422.71741	11675.04
423.32861	11668.328
423.93979	11702.481
424.55096	11737.048
425.16214	11707.691
425.77335	11733.824
426.38452	11728.997
426.9957	11688.616
427.60687	11719.508
428.21808	11810.9
428.82925	11807.858
429.44043	11841.174
430.05164	11743.703
430.66281	11782.072
431.27399	11755.65
431.88516	11788.852
432.49637	11841.331
433.10754	11900.719
433.71872	11905.032
434.3299	11904.495
434.9411	11939.538
435.55228	11872.151
436.16345	11904.15
436.77463	11965.74
437.38583	11975.984
437.99701	12008.349
438.60818	12007.588
439.21936	11951.996
439.83057	11913.369
440.44174	11914.354
441.05292	11975.936
441.66412	11999.62
442.2753	12035.89
442.88647	12117.857
443.49765	12001.207
444.10886	12085.715
444.72003	12048.393
445.33121	12037.985
445.94238	12037.518
446.55359	12125.474
447.16476	11984.284
447.77594	12057.813
448.38712	12151.112
448.99832	12081.559
449.6095	12075.935
450.22067	12165.752
450.83188	12216.797
451.44305	12246.108
452.05423	12296.641
452.66541	12283.078
453.27661	12233.516
453.88779	12217.74
454.49896	12187.059
455.11014	12196.926
455.72134	12324.998
456.33252	12393.513
456.9437	12342.036
457.55487	12351.378
458.16608	12345.465
458.77725	12333.305
459.38843	12334.893
459.9996	12400.394
460.61081	12468.622
461.22198	12556.563
461.83316	12534.759
462.44437	12683.755
463.05554	12499.847
463.66672	12571.665
464.27789	12590.86
464.8891	12703.538
465.50027	12758.685
466.11145	12756.152
466.72263	12777.718
467.33383	12666.891
467.94501	12664.807
468.55618	12751.275
469.16736	12766.674
469.77856	12853.95
470.38974	12925.823
471.00092	12966.458
471.61212	12992.616
472.2233	12946.918
472.83447	12900.807
473.44565	12907.981
474.05685	12910.105
474.66803	12928.08
475.27921	12983.64
475.89038	13022.034
476.50159	13035.618
477.11276	12981.78
477.72394	12933.969
478.33511	12971.157
478.94632	13123.235
479.5575	13139.788
480.16867	13137.627
480.77985	13188.854
481.39105	13132.197
482.00223	13003.47
482.6134	13074.745
483.22461	12968.845
483.83578	13097.123
484.44696	13032.281
485.05814	13089.811
485.66934	12923.823
486.28052	12907.099
486.89169	12898.572
487.50287	12800.121
488.11407	12848.013
488.72525	12890.983
489.33643	12837.224
489.9476	12777.239
490.55881	12744.16
491.16998	12621.865
491.78116	12581.289
492.39233	12679.395
493.00354	12628.874
493.61472	12505.779
494.22589	12447.138
494.8371	12350.614
495.44827	12290.335
496.05945	12162.154
496.67062	12134.313
497.28183	12167.592
497.89301	12100.639
498.50418	11980.419
499.11536	11956.606
499.72656	11892.141
500.33774	11759.69
500.94891	11592.61
501.56009	11554.458
502.1713	11525.258
502.78247	11433.841
503.39365	11374.038
504.00485	11301.448
504.61603	11216.829
505.2272	10972.157
505.83838	10912.589
506.44958	10853.594
507.06076	10829.531
507.67194	10829.471
508.28311	10718.832
508.89432	10625.693
509.50549	10567.014
510.11667	10411.896
510.72784	10276.889
511.33905	10252.111
511.95023	10230.587
512.5614	10155.585
513.17261	10028.909
513.78375	9937.8311
514.39496	9873.5908
515.00616	9774.25
515.61731	9693.2441
516.22852	9650.7998
516.83972	9606.3945
517.45087	9457.4707
518.06207	9419.4326
518.67322	9383.4727
519.28442	9218.2842
519.89563	9173.6035
520.50677	9181.2012
521.11798	9070.3164
521.72919	9016.6826
522.34033	9020.8008
522.95154	8939.8955
523.56268	8925.6055
524.17389	8803.2119
524.7851	8736.2119
525.39624	8756.7021
526.00745	8763.7314
526.61865	8728.1377
527.2298	8624.0615
527.841	8565.8203
528.45221	8487.5537
529.06335	8407.8057
529.67456	8407.9521
530.28571	8461.5791
530.89691	8402.5684
531.50812	8464.165
532.11926	8409.2334
532.73047	8298.9189
533.34167	8235.7617
533.95282	8259.2139
534.56403	8262.3398
535.17517	8215.6309
535.78638	8228.9678
536.39758	8254.3877
537.00873	8217.0439
537.61993	8162.8213
538.23114	8124.0151
538.84229	8128.79
539.45349	8137.1367
540.0647	8146.0845
540.67584	8188.4121
541.28705	8203.9229
541.89819	8202.792
542.5094	8128.29
543.12061	8099.0771
543.73175	8141.3525
544.34296	8183.3691
544.95416	8145.8706
545.56531	8201.4541
546.17651	8158.4766
546.78772	8122.6079
547.39886	8075.0542
548.01007	8260.4102
548.62122	8259.6357
549.23242	8262.9912
549.84363	8269.4355
550.45477	8408.1201
551.06598	8287.8828
551.67719	8269.6758
552.28833	8283.374
552.89954	8348.6377
553.51068	8437.0195
554.12189	8470.7764
554.73309	8463.4766
555.34424	8476.7549
555.95544	8527.1816
556.56665	8564.7178
557.1778	8507.2891
557.789	8549.5801
558.40021	8572.0137
559.01135	8674.0469
559.62256	8673.4795
560.2337	8773.4072
560.84491	8779.998
561.45612	8733.1504
562.06726	8756.3242
562.67847	8847.4736
563.28967	8870.1982
563.90082	8847.624
564.51202	8924.1045
565.12317	8944.6543
565.73438	8904.6172
566.34558	8881.4912
566.95673	8886.2832
567.56793	8920.3984
568.17914	8948.6631
568.79028	8962.791
569.40149	8939.4619
570.0127	8884.7617
570.62384	8855.2217
571.23505	8818.8652
571.84619	8777.5967
572.4574	8767.416
573.0686	8745.875
573.67975	8758.9951
574.29095	8745.6982
574.90216	8672.8623
575.51331	8606.876
576.12451	8552.8965
576.73566	8494.9209
577.34686	8475.0225
577.95807	8463.6699
578.56921	8387.7002
579.18042	8375.2725
579.79163	8282.7666
580.40277	8283.5693
581.01398	8228.5498
581.62518	8163.1123
582.23633	8145.0464
582.84753	8072.2275
583.45868	7949.2183
584.06989	8021.6367
584.68109	7780.8594
585.29224	7764.0981
585.90344	7696.1416
586.51465	7657.2007
587.12579	7565.3447
587.737	7605.5215
588.34814	7604.7261
588.95935	7447.0244
589.57056	7488.021
590.1817	7315.9219
590.79291	7355.4648
591.40411	7245.3491
592.01526	7272.1807
592.62646	7202.9639
593.23767	7141.0288
593.84882	7055.0552
594.46002	6973.4214
595.07117	6963.1768
595.68237	6975.8315
596.29358	6926.7881
596.90472	6875.9209
597.51593	6874.5039
598.12714	6814.3276
598.73828	6714.0664
599.34949	6640.0356
599.96069	6660.3857
600.57184	6646.6816
601.18304	6634.5171
601.79419	6596.7324
602.4054	6546.3022
603.0166	6457.2017
603.62775	6409.5293
604.23895	6383.0547
604.85016	6393.5557
605.4613	6386.1187
606.07251	6342.856
606.68365	6329.603
607.29486	6322.811
607.90607	6283.1133
608.51721	6237.7437
609.12842	6195.0273
609.73962	6190.23
610.35077	6191.438
610.96198	6185.1938
611.57318	6179.5957
612.18433	6134.5483
612.79553	6033.4316
613.40668	5972.1074
614.01788	6009.9023
614.62909	6032.3716
615.24023	6025.9609
615.85144	6048.2466
616.46265	6019.7573
617.07379	5993.854
617.685	5923.8203
618.29614	5890.3105
618.90735	5888.8726
619.51855	5873.5737
620.1297	5864.9082
620.74091	5829.917
621.35211	5811.2207
621.96326	5775.1675
622.57446	5760.2896
623.18567	5716.7407
623.79681	5647.1875
624.40802	5648.1592
625.01917	5615.3862
625.63037	5575.7554
626.24158	5552.8755
626.85272	5475.75
627.46393	5522.168
628.07513	5492.7251
628.68628	5482.2412
629.29749	5426.52
629.90863	5388.0806
630.51984	5395.2935
631.13104	5304.1528
631.74219	5270.3477
632.35339	5239.8057
632.9646	5203.0693
633.57574	5182.1758
634.18695	5200.3564
634.79816	5140.5547
635.4093	5090.9092
636.02051	5071.1821
636.63165	5043.2319
637.24286	4964.1982
637.85406	4944.4648
638.46521	4893.3799
639.07642	4906.1636
639.68762	4914.8677
640.29877	4807.4214
640.90997	4760.9131
641.52112	4724.792
642.13232	4692.8608
642.74353	4662.7397
643.35468	4639.0479
643.96588	4600.8105
644.57709	4588.7017
645.18823	4551.0469
645.79944	4521.7715
646.41064	4514.623
647.02179	4492.7529
647.633	4449.6753
648.24414	4426.0664
648.85535	4419.4131
649.46655	4387.5498
650.0777	4342.9556
650.6889	4332.4829
651.30011	4261.0142
651.91125	4240.7954
652.52246	4257.0547
653.13367	4230.3032
653.74481	4190.8721
654.35602	4191.5278
654.96716	4161.3164
655.57837	4133.9536
656.18958	4142.4092
656.80072	4134.9331
657.41193	4062.5088
658.02313	4085.8235
658.63428	4101.0732
659.24548	4068.9651
659.85663	4003.4915
660.46783	4040.522
661.07904	4053.9802
661.69019	4044.6245
662.30139	3979.6636
662.9126	3948.2551
663.52374	3961.8896
664.13495	3975.8381
664.74615	3960.3669
665.3573	3942.9136
665.96851	3958.0012
666.57965	3956.4641
667.19086	3998.3003
667.80206	3978.6182
668.41321	3962.665
669.02441	3950.8389
669.63562	3926.4182
670.24677	3950.9519
670.85797	3951.6934
671.46912	3944.4629
672.08032	3931.165
672.69153	3930.6108
673.30267	3889.741
673.91388	3845.9221
674.52509	3895.4731
675.13623	3950.9084
675.74744	3941.6926
676.35864	3932.47
676.96979	3958.3606
677.58099	3945.7209
678.19214	3931.7039
678.80334	3947.7334
679.41455	3910.0918
680.0257	3915.0566
680.6369	3899.939
681.24811	3922.7368
681.85925	3935.2629
682.47046	3940.8645
683.0816	3977.2205
683.69281	3964.1511
684.30402	3939.4934
684.91516	3948.907
685.52637	3927.7444
686.13757	3952.4758
686.74872	3951.8059
687.35992	3963.4783
687.97113	3939.1548
688.58228	3943.1755
689.19348	3942.614
689.80463	3986.6665
690.41583	3985.5518
691.02704	3944.0723
691.63818	4010.9426
692.24939	3923.3071
692.8606	4005.9412
693.47174	3973.9551
694.08295	3961.5029
694.69409	3976.748
695.3053	4012.5139
695.9165	3998.2686
696.52765	4000.176
697.13885	4033.7141
697.75006	4008.3892
698.36121	3995.5847
698.97241	3984.5007
699.58362	4039.1909
700.19476	4008.4084
700.80597	4017.895
701.41711	3997.4829
702.02832	3976.9932
702.63953	4002.9675
703.25067	3968.1313
703.86188	4001.7559
704.47308	3972.7778
705.08423	4019.0388
705.69543	4026.2441
706.30664	4007.0771
706.91779	3995.5723
707.52899	3971.7534
708.14014	3989.5168
708.75134	3990.2144
709.36255	4005.8757
709.97369	3997.2551
710.5849	3974.4258
711.19611	3967.2622
711.80725	3963.6045
712.41846	3964.4531
713.0296	3958.03
713.64081	3959.1982
714.25201	3901.5364
714.86316	3926.0554
715.47437	3967.8645
716.08557	3967.6355
716.69672	3986.332
717.30792	3987.6543
717.91913	3961.1001
718.53027	3968.1624
719.14148	3971.6831
719.75262	3898.2041
720.36383	3905.7729
720.97504	3906.55
721.58618	3869.3669
722.19739	3907.1443
722.80859	3875.3752
723.41974	3898.9619
724.03094	3933.0386
724.64209	3890.2549
725.2533	3859.4363
725.8645	3880.885
726.47565	3887.4817
727.08685	3890.7395
727.69806	3898.1062
728.3092	3906.6289
728.92041	3891.8171
729.53162	3887.9285
730.14276	3818.8508
730.75397	3842.0862
731.36511	3814.2751
731.97632	3814.3757
732.58752	3833.6978
733.19867	3801.5544
733.80988	3820.0527
734.42108	3815.9917
735.03223	3781.0171
735.64343	3797.8179
736.25458	3731.7671
736.86578	3776.9043
737.47699	3766.3508
738.08813	3740.2769
738.69934	3716.2856
739.31055	3711.6221
739.92169	3682.3892
740.5329	3718.4353
741.1441	3703.2241
741.75525	3657.8967
742.36646	3672.6206
742.9776	3668.8088
743.58881	3652.7219
744.20001	3620.509
744.81116	3649.4395
745.42236	3616.4746
746.03357	3633.0559
746.64471	3643.7349
747.25592	3618.4126
747.86707	3530.2786
748.47827	3566.2837
749.08948	3535.189
749.70062	3520.7791
750.31183	3512.8376
750.92303	3505.5662
751.53418	3507.9858
752.14539	3497.2263
752.75659	3424.8613
753.36774	3492.4983
753.97894	3451.5198
754.59009	3379.5781
755.20129	3461.5862
755.8125	3391.8108
756.42365	3426.1833
757.03485	3375.5134
757.64606	3385.8613
758.2572	3329.4946
758.86841	3381.0696
759.47955	3371.4165
760.09076	3297.2969
760.70197	3341.7483
761.31311	3326.2681
761.92432	3267.5369
762.53552	3268.3257
763.14667	3262.7832
763.75787	3186.8198
764.36908	3188.3562
764.98022	3215.3833
765.59143	3190.5266
766.20258	3181.4888
766.81378	3145.1604
767.42499	3142.064
768.03613	3141.6394
768.64734	3083.8943
769.25854	3084.2549
769.86969	3018.6899
770.4809	3028.4238
771.0921	3022.8347
771.70325	3023.8909
772.31445	2994.6628
772.9256	2932.2043
773.5368	2951.6267
774.14801	2940.48
774.75916	2924.75
775.37036	2926.8274
775.98157	2913.3464
776.59271	2935.041
777.20392	2850.376
777.81506	2806.7146
778.42627	2755.886
779.03748	2786.2627
779.64862	2752.95
780.25983	2739.364
780.87103	2702
781.48218	2708.4802
782.09338	2690.4329
782.70459	2697.1152
783.31573	2656.635
783.92694	2652.377
784.53809	2641.1636
785.14929	2600.6218
785.7605	2597.4048
786.37164	2559.1599
786.98285	2550.8152
787.59406	2529.6104
788.2052	2489.8262
788.81641	2420.0815
789.42755	2451.1553
790.03876	2449.2061
790.64996	2420.2498
791.26111	2369.0732
791.87231	2374.5176
792.48352	2369.6772
793.09467	2330.7783
793.70587	2316.5059
794.31708	2320.8904
794.92822	2309.0952
795.53943	2283.761
796.15057	2260.0093
796.76178	2232.605
797.37299	2278.125
797.98413	2163.845
798.59534	2173.8394
799.20654	2202.9575
799.81769	2190.5444
800.42889	2138.0286
801.04004	2143.761
801.65125	2111.478
802.26245	2107.2512
802.8736	2093.2837
803.4848	2098.6614
804.09601	2081.3171
804.70715	2072.9714
805.31836	2005.4374
805.92957	2016.7513
806.54071	2040.1343
807.15192	2034.6045
807.76306	2054.7676
808.37427	2006.7196
808.98547	1969.1637
809.59662	1986.6476
810.20782	1966.3456
810.81903	1964.3947
811.43018	1975.5239
812.04138	1965.0217
812.65253	1947.3785
813.26373	1960.2705
813.87494	1923.6522
814.48608	1953.8763
815.09729	1921.2914
815.7085	1917.7087
816.31964	1929.8473
816.93085	1893.3431
817.54205	1894.0896
818.1532	1933.5807
818.7644	1902.5778
819.37555	1906.1279
819.98676	1902.0184
820.59796	1898.4927
821.20911	1847.2485
821.82031	1885.8031
822.43152	1890.7288
823.04266	1845.432
823.65387	1897.8789
824.26508	1901.2388
824.87622	1896.791
825.48743	1874.3723
826.09857	1848.3555
826.70978	1885.1631
827.32098	1888.3158
827.93213	1873.942
828.54333	1869.8037
829.15454	1831.3231
829.76569	1859.3446
830.37689	1868.0916
830.98804	1889.1643
831.59924	1872.2545
832.21045	1863.5074
832.82159	1849.6012
833.4328	1846.8967
834.04401	1877.4175
834.65515	1872.7695
835.26636	1884.4774
835.87756	1877.8402
836.48871	1856.6191
837.09991	1865.5292
837.71106	1895.8359
838.32227	1866.0297
838.93347	1856.2374
839.54462	1869.7731
840.15582	1856.303
840.76703	1864.9746
841.37817	1873.5359
841.98938	1855.5964
842.60052	1821.6161
843.21173	1855.7969
843.82294	1854.9276
844.43408	1880.7656
845.04529	1863.1165
845.65649	1878.8846
846.26764	1885.8406
846.87885	1860.6447
847.49005	1869.1698
848.1012	1879.6278
848.7124	1884.7828
849.32355	1896.1437
849.93475	1901.1266
850.54596	1901.6123
851.1571	1892.621
851.76831	1873.5499
852.37952	1866.7703
852.99066	1866.2557
853.60187	1875.0856
854.21301	1881.6548
854.82422	1877.9913
855.43542	1892.3552
856.04657	1906.7924
856.65778	1907.6193
857.26898	1890.7668
857.88013	1873.0428
858.49133	1874.8292
859.10254	1913.6169
859.71368	1925.9363
860.32489	1920.3771
860.93604	1917.275
861.54724	1914.7922
862.15845	1910.3081
862.76959	1922.5951
863.3808	1910.2661
863.992	1926.0132
864.60315	1920.9053
865.21436	1920.6732
865.8255	1954.5487
866.43671	1960.7791
867.04791	1948.2987
867.65906	1931.0387
868.27026	1928.2791
868.88147	1919.3627
869.49261	1941.5691
870.10382	1941.0793
870.71503	1961.9894
871.32617	1968.1198
871.93738	1951.4733
872.54852	1948.4738
873.15973	1974.0201
873.77094	1983.4803
874.38208	1990.0248
874.99329	1999.0256
875.60449	2017.1429
876.21564	1976.7755
876.82684	2021.4612
877.43805	2011.0181
878.04919	1993.9077
878.6604	2009.0781
879.27155	2006.0339
879.88275	2044.2582
880.49396	2033.2148
881.1051	2047.4014
881.71631	2019.7593
882.32751	2027.927
882.93866	2027.1108
883.54987	2068.0588
884.16101	2047.1918
884.77222	2066.0579
885.38342	2057.8069
885.99457	2105.0413
886.60577	2087.719
887.21698	2104.8196
887.82813	2100.9058
888.43933	2106.0645
889.05054	2152.7632
889.66168	2129.6677
890.27289	2112.1895
890.88403	2133.4458
891.49524	2195.3738
892.10645	2207.3384
892.71759	2198.7739
893.3288	2206.6541
893.94	2200.4385
894.55115	2187.5964
895.16235	2204.2612
895.7735	2222.6047
896.3847	2234.3604
896.99591	2245.0422
897.60706	2273.3093
898.21826	2268.4578
898.82947	2277.8823
899.44061	2291.2051
900.05182	2330.4717
900.66302	2355.886
901.27417	2376.9856
901.88538	2373.9131
902.49652	2358.3833
903.10773	2391.0388
903.71893	2418.8608
904.33008	2437.0391
904.94128	2442.8816
905.55249	2422.2722
906.16364	2453.9604
906.77484	2498.9404
907.38599	2487.0964
907.99719	2547.4209
908.6084	2535.4158
909.21954	2439.321
909.83075	2570.5828
910.44196	2592.562
911.0531	2577.6174
911.66431	2628.9597
912.27551	2617.5537
912.88666	2654.1975
913.49786	2690.3616
914.10901	2687.0396
914.72021	2732.3542
915.33142	2744.1257
915.94257	2782.6248
916.55377	2780.7563
917.16498	2789.0166
917.77612	2811.1309
918.38733	2805.4185
918.99847	2888.2478
919.60968	2926.7375
920.22089	2936.0886
920.83203	2973.3281
921.44324	2987.8711
922.05444	3004.7949
922.66559	3034.7493
923.27679	3065.261
923.888	3078.0239
924.49915	3134.3145
925.11035	3155.6606
925.7215	3156.8398
926.3327	3163.5874
926.94391	3192.2231
927.55505	3209.6096
928.16626	3240.3538
928.77747	3260.2612
929.38861	3298.187
929.99982	3351.4854
930.61102	3381.22
931.22217	3356.4058
931.83337	3361.5964
932.44452	3398.3665
933.05573	3442.9243
933.66693	3461.3181
934.27808	3486.1914
934.88928	3532.9319
935.50049	3559.9854
936.11163	3634.0793
936.72284	3627.9055
937.33398	3561.5583
937.94519	3694.7937
938.5564	3695.7935
939.16754	3720.6809
939.77875	3772.3848
940.38995	3783.7556
941.0011	3733.7393
941.6123	3795.0264
942.22351	3834.7896
942.83466	3895.9036
943.44586	3928.7358
944.05701	3908.1567
944.66821	3967.4548
945.27942	3997.3252
945.89056	3976.5754
946.50177	4022.229
947.11298	4016.4922
947.72412	4020.6165
948.33533	4108.8193
948.94647	4143.2046
949.55768	4138.7129
950.16888	4140.0034
950.78003	4169.3521
951.39124	4181.9185
952.00244	4224.6147
952.61359	4308.8374
953.22479	4343.6958
953.836	4305.2104
954.44714	4354.8638
955.05835	4348.9453
955.66949	4358.3813
956.2807	4390.5562
956.89191	4417.1528
957.50305	4469.2549
958.11426	4501.5928
958.72546	4482.1553
959.33661	4540.7046
959.94781	4521.6533
960.55896	4507.6621
961.17017	4514.0283
961.78137	4607.7988
962.39252	4582.1982
963.00372	4633.8423
963.61493	4671.333
964.22607	4655.1973
964.83728	4644.147
965.44849	4705.2715
966.05963	4699.835
966.67084	4735.2354
967.28198	4743.5688
967.89319	4793.5269
968.50439	4781.9453
969.11554	4762.7764
969.72675	4808.5674
970.33795	4823.3936
970.9491	4870.8887
971.5603	4913.3984
972.17145	4922.9189
972.78265	4943.9746
973.39386	4972.0918
974.005	4977.9966
974.61621	4988.7715
975.22742	4958.4946
975.83856	4997.4712
976.44977	5040.314
977.06097	5015.4351
977.67212	5049.1504
978.28333	4987.7642
978.89447	5005.1602
979.50568	5047.9731
980.11688	5069.6782
980.72803	5061.415
981.33923	5089.689
981.95044	5166.8281
982.56158	5160.7139
983.17279	5180.0474
983.784	5132.2676
984.39514	5129.9253
985.00635	5156.939
985.61749	5201.8149
986.2287	5212.2808
986.8399	5220.9307
987.45105	5220.3291
988.06226	5176.9854
988.67346	5172.5005
989.28461	5242.9761
989.89581	5292.9644
990.50696	5280.3345
991.11816	5338.9761
991.72937	5339.6445
992.34052	5264.4863
992.95172	5269.2349
993.56293	5270.9751
994.17407	5299.2344
994.78528	5350.3115
995.39648	5407.1504
996.00763	5373.3672
996.61884	5416.5796
997.22998	5453.0718
997.84119	5409.4854
998.45239	5364.4722
999.06354	5458.604
999.67474	5515.458
1000.2859	5499.0288
1000.8971	5473.2085
1001.5083	5515.4683
1002.1194	5561.7891
1002.7307	5482.4019
1003.3419	5477.085
1003.953	5524.5708
1004.5642	5552.1528
1005.1754	5551.5371
1005.7866	5558.9644
1006.3978	5534.8174
1007.009	5567.8271
1007.6201	5541.1792
1008.2313	5550.0845
1008.8425	5540.1709
1009.4537	5563.6431
1010.0649	5576.7935
1010.676	5569.9731
1011.2872	5615.5405
1011.8984	5483.7725
1012.5096	5574.7925
1013.1208	5585.0933
1013.7319	5645.6846
1014.3431	5659.542
1014.9543	5648.4253
1015.5655	5665.5977
1016.1767	5657.3984
1016.7879	5599.377
1017.399	5597.1328
1018.0103	5594.2666
1018.6215	5666.5239
1019.2326	5660.6201
1019.8438	5656.4478
1020.455	5624.4976
1021.0662	5617.2329
1021.6774	5615.7148
1022.2885	5628.7524
1022.8997	5653.2578
1023.5109	5681.7197
1024.1221	5628.1895
1024.7333	5596.7202
1025.3445	5645.8594
1025.9557	5596.7158
1026.5668	5636.9834
1027.178	5616.2275
1027.7892	5584.5303
1028.4004	5581.2495
1029.0116	5576.1396
1029.6227	5640.3491
1030.2339	5577.0645
1030.8451	5627.0557
1031.4563	5591.0654
1032.0675	5613.8159
1032.6787	5646.4253
1033.2898	5663.5376
1033.901	5659.0361
1034.5122	5598.625
1035.1234	5565.5405
1035.7346	5569.23
1036.3457	5532.7749
1036.9569	5537.5557
1037.5681	5574.2729
1038.1793	5588.9639
1038.7905	5552.4902
1039.4017	5557.6787
1040.0128	5530.7803
1040.624	5497.627
1041.2352	5472.7007
1041.8464	5456.8618
1042.4576	5471.085
1043.0687	5472.0498
1043.6799	5488.6973
1044.2911	5429.3511
1044.9023	5447.2178
1045.5135	5337.5161
1046.1246	5435.1504
1046.7358	5435.0229
1047.347	5398.3047
1047.9583	5340.1641
1048.5695	5305.1157
1049.1807	5288.9614
1049.7917	5278.7676
1050.403	5312.9526
1051.0142	5336.0879
1051.6254	5331.0044
1052.2366	5282.0928
1052.8477	5259.167
1053.4589	5224.9868
1054.0701	5194.2295
1054.6813	5154.7856
1055.2925	5132.5376
1055.9037	5163.9146
1056.5148	5153.9795
1057.126	5125.4785
1057.7372	5092.7017
1058.3484	5087.4902
1058.9596	4985.6367
1059.5707	4983.8843
1060.1819	4974.1831
1060.7931	5015.3447
1061.4043	5000.9946
1062.0155	4964.1924
1062.6267	4933.6226
1063.2378	4923.73
1063.849	4894.5356
1064.4602	4887.6157
1065.0714	4836.0127
1065.6826	4832.2383
1066.2937	4798.376
1066.9049	4758.3896
1067.5161	4749.1436
1068.1273	4689.5708
1068.7385	4661.3965
1069.3497	4679.1211
1069.9608	4653.3237
1070.572	4628.0742
1071.1832	4647.625
1071.7944	4604.4907
1072.4056	4548.0693
1073.0167	4433.4478
1073.6279	4442.1978
1074.2391	4500.1802
1074.8503	4492.2358
1075.4615	4434.207
1076.0726	4387.0415
1076.6838	4361.4731
1077.295	4341.1226
1077.9063	4289.7939
1078.5175	4241.5791
1079.1287	4268.3486
1079.7397	4248.646
1080.351	4244.7651
1080.9622	4195.7334
1081.5734	4190.7837
1082.1846	4113.0166
1082.7957	4073.5901
1083.4069	3990.5093
1084.0181	4030.2764
1084.6293	4059.8025
1085.2405	3992.7671
1085.8517	3963.8132
1086.4628	3954.2236
1087.074	3891.501
1087.6852	3897.6555
1088.2964	3900.2988
1088.9076	3877.2537
1089.5187	3836.9966
1090.1299	3812.0232
1090.7411	3807.4463
1091.3523	3734.5283
1091.9635	3716.7026
1092.5747	3719.9812
1093.1858	3688.3262
1093.797	3683.6929
1094.4082	3635.6113
1095.0194	3559.2419
1095.6306	3569.9883
1096.2417	3558.8005
1096.8529	3479.0439
1097.4641	3472.3091
1098.0753	3487.8218
1098.6865	3477.0093
1099.2976	3468.2402
1099.9088	3445.1418
1100.52	3368.7996
1101.1312	3308.3035
1101.7424	3329.0637
1102.3536	3334.2615
1102.9647	3326.0867
1103.5759	3289.603
1104.1871	3282.3938
1104.7983	3237.2874
1105.4095	3199.7336
1106.0206	3186.1907
1106.6318	3148.8071
1107.243	3156.9563
1107.8542	3146.1641
1108.4655	3060.8694
1109.0767	3084.7991
1109.6877	3071.73
1110.299	3041.9985
1110.9102	2997.2993
1111.5214	2994.0386
1112.1326	2990.1177
1112.7437	2965.407
1113.3549	2963.0867
1113.9661	2928.3145
1114.5773	2858.4761
1115.1885	2816.1462
1115.7997	2804.8704
1116.4108	2832.7334
1117.022	2826.5852
1117.6332	2805.8057
1118.2444	2799.3638
1118.8556	2746.3887
1119.4667	2686.6064
1120.0779	2681.6914
1120.6891	2692.5466
1121.3003	2694.1223
1121.9115	2669.7568
1122.5227	2617.1755
1123.1338	2589.5505
1123.745	2592.4614
1124.3562	2559.2563
1124.9674	2534.9353
1125.5786	2520.6401
1126.1897	2506.6968
1126.8009	2491.958
1127.4121	2493.104
1128.0233	2449.1663
1128.6345	2407.3965
1129.2456	2393.6069
1129.8568	2367.5093
1130.468	2337.1343
1131.0792	2398.1702
1131.6904	2374.3035
1132.3016	2346.259
1132.9127	2324.8005
1133.5239	2309.7041
1134.1351	2277.7542
1134.7463	2237.0972
1135.3575	2199.8938
1135.9686	2217.5591
1136.5798	2214.7734
1137.191	2197.7222
1137.8022	2170.0105
1138.4135	2134.502
1139.0247	2116.0762
1139.6357	2105.4829
1140.2469	2111.6494
1140.8582	2126.5879
1141.4694	2053.5454
1142.0806	2054.061
1142.6917	2045.769
1143.3029	2006.3959
1143.9141	1987.0802
1144.5253	1983.7104
1145.1365	1951.6635
1145.7477	1956.5674
1146.3588	1949.2646
1146.97	1936.4799
1147.5812	1853.8856
1148.1924	1870.1448
1148.8036	1877.1554
1149.4147	1835.0532
1150.0259	1873.3273
1150.6371	1868.5382
1151.2483	1836.5
1151.8595	1823.506
1152.4706	1800.9563
1153.0818	1774.9799
1153.693	1762.0602
1154.3042	1750.4794
1154.9154	1731.3973
1155.5266	1699.6406
1156.1377	1694.2819
1156.7489	1674.0081
1157.3601	1676.3873
1157.9713	1651.1946
1158.5825	1667.0247
1159.1936	1632.2632
1159.8048	1659.5231
1160.416	1641.4426
1161.0272	1601.0326
1161.6384	1587.2897
1162.2496	1588.6919
1162.8607	1564.8284
1163.4719	1539.5355
1164.0831	1562.4822
1164.6943	1561.6366
1165.3055	1541.0754
1165.9166	1521.5848
1166.5278	1516.6626
1167.139	1489.9781
1167.7502	1496.9974
1168.3615	1476.3533
1168.9727	1471.4001
1169.5837	1489.4036
1170.1949	1473.1807
1170.8062	1469.4055
1171.4174	1454.2161
1172.0286	1427.1002
1172.6396	1410.3732
1173.2509	1432.5682
1173.8621	1444.453
1174.4733	1437.4716
1175.0845	1418.4558
1175.6956	1391.6545
1176.3068	1390.7985
1176.918	1390.4386
1177.5292	1361.1458
1178.1404	1370.7183
1178.7516	1376.3462
1179.3627	1362.1946
1179.9739	1341.423
1180.5851	1376.1077
1181.1963	1359.0094
1181.8075	1342.7397
1182.4186	1346.6031
1183.0298	1341.9213
1183.641	1332.0005
1184.2522	1337.3953
1184.8634	1325.6735
1185.4746	1307.7823
1186.0857	1301.6804
1186.6969	1305.4614
1187.3081	1306.5956
1187.9193	1309.8853
1188.5305	1303.3514
1189.1416	1303.4619
1189.7528	1296.109
1190.364	1288.8796
1190.9752	1297.4585
1191.5864	1301.9369
1192.1976	1290.4208
1192.8087	1295.2014
1193.4199	1300.0265
1194.0311	1285.6143
1194.6423	1287.5995
1195.2535	1268.8864
1195.8646	1282.5352
1196.4758	1270.1176
1197.087	1272.7198
1197.6982	1275.1569
1198.3094	1262.2117
1198.9207	1275.8473
1199.5317	1274.574
1200.1429	1266.2737
1200.7542	1262.8472
1201.3654	1261.8694
1201.9766	1253.6895
1202.5876	1259.2937
1203.1989	1278.701
1203.8101	1250.1057
1204.4213	1255.2188
1205.0325	1247.8652
1205.6436	1231.5889
1206.2548	1247.6342
1206.866	1251.9108
1207.4772	1255.6497
1208.0884	1265.9861
1208.6996	1243.3571
1209.3107	1240.1653
1209.9219	1257.4614
1210.5331	1263.6855
1211.1443	1272.0359
1211.7555	1247.926
1212.3666	1259.7441
1212.9778	1261.9916
1213.589	1282.5585
1214.2002	1258.2526
1214.8114	1220.7039
1215.4226	1254.0345
1216.0337	1263.5074
1216.6449	1262.6313
1217.2561	1250.1476
1217.8673	1240.6831
1218.4785	1233.5598
1219.0896	1227.6156
1219.7008	1214.1744
1220.312	1218.33
1220.9232	1253.2886
1221.5344	1259.1273
1222.1456	1262.7168
1222.7567	1255.5803
1223.3679	1260.873
1223.9791	1231.6074
1224.5903	1248.5221
1225.2015	1278.4688
1225.8126	1263.7686
1226.4238	1250.9802
1227.035	1240.0939
1227.6462	1232.6062
1228.2574	1241.024
1228.8685	1256.3687
1229.4797	1234.4846
1230.0909	1229.6136
1230.7021	1239.1274
1231.3134	1243.4685
1231.9246	1254.4863
1232.5356	1244.8248
1233.1469	1239.238
1233.7581	1227.969
1234.3693	1222.9056
1234.9805	1252.2524
1235.5916	1194.7513
1236.2028	1210.9652
1236.814	1202.9652
1237.4252	1215.5746
1238.0364	1236.3984
1238.6476	1240.3578
1239.2587	1234.2373
1239.8699	1236.582
1240.4811	1220.9883
1241.0923	1226.5593
1241.7035	1224.9868
1242.3146	1222.1743
1242.9258	1216.7269
1243.537	1235.5723
1244.1482	1213.741
1244.7594	1237.666
1245.3706	1205.9398
1245.9817	1243.7086
1246.5929	1237.0756
1247.2041	1226.2543
1247.8153	1203.3151
1248.4265	1220.5629
1249.0376	1225.9275
1249.6488	1218.7787
1250.26	1230.4114
1250.8712	1239.3934
1251.4824	1236.3794
1252.0936	1241.2078
1252.7047	1234.9579
1253.3159	1224.7725
1253.9271	1234.3146
1254.5383	1214.8069
1255.1495	1220.5331
1255.7606	1212.3767
1256.3718	1233.7695
1256.983	1223.2451
1257.5942	1210.062
1258.2054	1199.9386
1258.8165	1212.7109
1259.4277	1204.7555
1260.0389	1221.6307
1260.6501	1233.6646
1261.2614	1200.495
1261.8726	1205.0087
1262.4836	1221.2222
1263.0948	1230.8325
1263.7061	1238.9332
1264.3173	1216.5265
1264.9285	1216.1068
1265.5396	1212.9414
1266.1508	1205.9493
1266.762	1210.5006
1267.3732	1224.6023
1267.9844	1223.7279
1268.5956	1215.6763
1269.2067	1205.2152
1269.8179	1216.3484
1270.4291	1220.6991
1271.0403	1208.2069
1271.6515	1215.6838
1272.2626	1221.2583
1272.8738	1207.0842
1273.485	1187.8573
1274.0962	1200.0782
1274.7074	1210.1921
1275.3186	1188.8754
1275.9297	1170.9252
1276.5409	1209.4233
1277.1521	1196.4574
1277.7633	1192.2252
1278.3745	1200.8285
1278.9856	1193.4023
1279.5968	1201.9386
1280.208	1202.3156
1280.8192	1185.3431
1281.4304	1206.7024
1282.0415	1206.6982
1282.6527	1202.5551
1283.2639	1182.8152
1283.8751	1195.2266
1284.4863	1195.7402
1285.0975	1200.2338
1285.7086	1190.063
1286.3198	1208.9912
1286.931	1187.6221
1287.5422	1184.1998
1288.1534	1184.5063
1288.7645	1192.3348
1289.3757	1181.4244
1289.9869	1192.3876
1290.5981	1194.8306
1291.2094	1209.7347
1291.8206	1219.2634
1292.4316	1187.807
1293.0428	1207.4893
1293.6541	1168.5836
1294.2653	1182.3005
1294.8765	1180.3883
1295.4875	1170.051
1296.0988	1193.4684
1296.71	1198.4158
1297.3212	1223.3319
1297.9324	1225.8839
1298.5436	1212.1272
1299.1547	1190.1532
1299.7659	1205.3204
1300.3771	1202.5265
1300.9883	1221.1659
1301.5995	1212.4949
1302.2106	1184.5737
1302.8218	1195.7014
1303.433	1178.791
1304.0442	1194.9845
1304.6554	1202.3483
1305.2666	1193.9703
1305.8777	1193.6698
1306.4889	1187.1433
1307.1001	1197.5717
1307.7113	1200.4709
1308.3225	1179.1233
1308.9336	1196.8441
1309.5448	1212.0288
1310.156	1205.8391
1310.7672	1179.9922
1311.3784	1224.4659
1311.9895	1199.9661
1312.6007	1193.1433
1313.2119	1191.6293
1313.8231	1206.7926
1314.4343	1199.8948
1315.0455	1206.47
1315.6566	1221.1218
1316.2678	1201.016
1316.879	1179.7898
1317.4902	1191.9795
1318.1014	1217.4287
1318.7125	1212.5892
1319.3237	1197.329
1319.9349	1204.8748
1320.5461	1202.4064
1321.1573	1198.554
1321.7686	1206.0874
1322.3796	1209.582
1322.9908	1192.8903
1323.6021	1215.7366
1324.2133	1206.3518
1324.8245	1211.0725
1325.4355	1198.8015
1326.0468	1201.8967
1326.658	1203.3462
1327.2692	1207.9985
1327.8804	1189.6049
1328.4916	1194.9736
1329.1027	1225.756
1329.7139	1237.98
1330.3251	1234.0317
1330.9363	1210.119
1331.5475	1201.3901
1332.1586	1207.5238
1332.7698	1198.76
1333.381	1197.202
1333.9922	1182.2006
1334.6034	1176.3035
1335.2145	1184.2594
1335.8257	1221.5782
1336.4369	1195.7063
1337.0481	1215.7794
1337.6593	1194.9286
1338.2705	1211.9956
1338.8816	1218.7856
1339.4928	1194.48
1340.104	1198.3258
1340.7152	1209.5167
1341.3264	1170.848
1341.9375	1217.6655
1342.5487	1202.47
1343.1599	1196.9918
1343.7711	1197.0347
1344.3823	1210.2738
1344.9935	1206.3088
1345.6046	1187.7338
1346.2158	1194.0179
1346.827	1220.521
1347.4382	1215.424
1348.0494	1200.1229
1348.6605	1212.3384
1349.2717	1203.01
1349.8829	1227.3523
1350.4941	1231.9866
1351.1053	1194.3997
1351.7166	1193.8915
1352.3276	1177.8398
1352.9388	1216.2693
1353.55	1212.2582
1354.1613	1206.8116
1354.7725	1184.6185
1355.3835	1192.3315
1355.9948	1194.178
1356.606	1191.4261
1357.2172	1189.4125
1357.8284	1228.5566
1358.4396	1190.1743
1359.0507	1205.8589
1359.6619	1194.8107
1360.2731	1200.4551
1360.8843	1212.186
1361.4955	1212.9835
1362.1066	1207.6056
1362.7178	1213.0155
1363.329	1218.5118
1363.9402	1199.0654
1364.5514	1205.2614
1365.1625	1184.3845
1365.7737	1208.3926
1366.3849	1212.486
1366.9961	1217.5383
1367.6073	1235.5594
1368.2185	1219.0715
1368.8296	1230.037
1369.4408	1239.8643
1370.052	1240.3741
1370.6632	1248.8461
1371.2744	1233.7924
1371.8855	1220.2651
1372.4967	1218.2821
1373.1079	1179.4342
1373.7191	1223.0967
1374.3303	1199.7966
1374.9415	1217.4413
1375.5526	1215.2617
1376.1638	1209.2765
1376.775	1215.6561
1377.3862	1223.2197
1377.9974	1207.7472
1378.6085	1203.7925
1379.2197	1235.6958
1379.8309	1211.2845
1380.4421	1213.3583
1381.0533	1215.7756
1381.6646	1207.2789
1382.2756	1198.0344
1382.8868	1192.088
1383.498	1188.124
1384.1093	1207.9276
1384.7205	1229.5989
1385.3315	1219.921
1385.9427	1209.2174
1386.554	1195.8348
1387.1652	1187.0592
1387.7764	1188.6898
1388.3875	1233.2799
1388.9987	1239.6757
1389.6099	1235.2444
1390.2211	1220.8507
1390.8323	1220.7896
1391.4435	1228.8434
1392.0546	1201.3213
1392.6658	1192.0138
1393.277	1181.316
1393.8882	1221.1045
1394.4994	1242.8766
1395.1105	1201.8105
1395.7217	1207.6665
1396.3329	1212.6409
1396.9441	1206.9875
1397.5553	1207.766
1398.1665	1216.1095
1398.7776	1221.2051
1399.3888	1219.5773
1400	1227.2743
