15.057955	5108
15.669138	5894.2627
16.280321	6452.0693
16.891506	6572.106
17.502689	6536.6748
18.113873	6606.29
18.725056	6770.4546
19.336241	6909.7163
19.947424	7010.0659
20.558607	7099.8027
21.16979	7068.0713
21.780975	7185.147
22.392159	7329.2012
23.003342	7450.2246
23.614525	7620.605
24.225708	7775.9272
24.836893	7938.46
25.448076	8084.3745
26.059259	8197.1523
26.670443	8422.9453
27.281628	8589.5342
27.892811	8733.3125
28.503994	8800.4971
29.115177	8785.7998
29.72636	8741.7871
30.337545	8828.4375
30.948729	8900.6865
31.559912	8919.5938
32.171097	9013.9668
32.78228	9205.7246
33.393463	9413.2168
34.004646	9378.6914
34.615829	9418.0078
35.227013	9596.002
35.838196	9763.5
36.449383	9955.6357
37.060566	10022.77
37.671749	10061.054
38.282932	10048.316
38.894115	9877.0332
39.505299	9868.7764
40.116482	9930.0684
40.727665	9980.7754
41.338848	10101.614
41.950035	10246.16
42.561218	10336.358
43.172401	10437.566
43.783585	10482.499
44.394768	10462.082
45.005951	10364.222
45.617134	10189.1
46.228317	10250.411
46.8395	10266.024
47.450687	10454.493
48.061871	10533.291
48.673054	10605.605
49.284237	10668.848
49.89542	10573.501
50.506603	10476.173
51.117786	10526.438
51.72897	10594.848
52.340153	10540.191
52.95134	10536.947
53.562523	10356.52
54.173706	10220.677
54.784889	10297.014
55.396072	10367.524
56.007256	10353.276
56.618439	10341.524
57.229622	10352.078
57.840809	10430.065
58.451992	10570.061
59.063175	10639.414
59.674358	10987.015
60.285542	11025.121
60.896725	10926.321
61.507908	10500.934
62.119091	10306.051
62.730274	10202.703
63.341461	10184.473
63.952644	10194.173
64.563828	10213.763
65.175011	10299.853
65.786194	10339.789
66.397377	10281.56
67.00856	10420.473
67.619743	10393.111
68.230927	10394.986
68.84211	10249.364
69.453293	10121.161
70.064476	10151.923
70.675659	10276.224
71.28685	10363.265
71.898033	10384.498
72.509216	10347.212
73.120399	10133.435
73.731583	10040.261
74.342766	10207.913
74.953949	10318.091
75.565132	10409.011
76.176315	10415.656
76.787498	10286.139
77.398682	10158.562
78.009865	10081.234
78.621048	9968.0293
79.232231	9889.7695
79.843414	9884.9951
80.454597	9874.085
81.065781	9777.6387
81.676964	9825.7725
82.288155	9956.7256
82.899338	10101.368
83.510521	10232.831
84.121704	10164.43
84.732887	9930.8994
85.34407	9757.8984
85.955254	9667.6338
86.566437	9654.4736
87.17762	9589.6563
87.788803	9544.9199
88.399986	9653.8389
89.011169	9669.3838
89.622353	9687.498
90.233536	9768.7744
90.844719	9796.2686
91.455902	9811.3525
92.067085	9849.5986
92.678276	9727.5645
93.289459	9507.0791
93.900642	9677.8799
94.511826	9647.7305
95.123009	9649.5791
95.734192	9553.416
96.345375	9388.793
96.956558	9342.9336
97.567741	9453.2539
98.178925	9519.5918
98.790108	9501.6768
99.401291	9503.0732
100.01247	9449.8467
100.62366	9452.877
101.23484	9261.4375
101.84602	9380.2988
102.45721	9305.9336
103.06839	9316.916
103.67958	9266.127
104.29076	9227.042
104.90195	9274.9355
105.51313	9314.7813
106.12431	9352.1973
106.7355	9473.3779
107.34668	9455.2686
107.95786	9433.1807
108.56905	9224.1621
109.18023	9110.3809
109.79141	9112.9385
110.4026	9067.9746
111.01378	9104.6084
111.62496	9093.8926
112.23615	9054.4307
112.84733	9002.165
113.45851	8960.3164
114.0697	9030.8652
114.68089	9037.9629
115.29207	9076.6895
115.90325	9070.7842
116.51443	8970.2939
117.12562	9031.6572
117.7368	9068.0645
118.34798	9000.3984
118.95917	8938.6289
119.57035	8882.5
120.18153	8825.3037
120.79272	8814.752
121.4039	8818.915
122.01508	8820.0518
122.62627	8925.4756
123.23745	8890.2432
123.84863	8889.4229
124.45982	8733.7109
125.07101	8710.0225
125.68219	8670.9053
126.29337	8630.9043
126.90456	8673.542
127.51574	8696.5068
128.12692	8612.5557
128.7381	8596.0332
129.34929	8702.6934
129.96048	8669.8193
130.57166	8687.3027
131.18285	8578.8135
131.79402	8557.2598
132.40521	8499.3955
133.01639	8485.2178
133.62758	8500.4766
134.23875	8471.377
134.84995	8461.5703
135.46112	8481.1182
136.07231	8424.0771
136.68349	8455.0654
137.29468	8323.1025
137.90585	8391.0127
138.51704	8493.3613
139.12822	8455.0029
139.73941	8408.332
140.35059	8395.8447
140.96178	8325.9531
141.57297	8272.5186
142.18414	8256.4004
142.79533	8215.3496
143.40651	8193.29
144.0177	8237.834
144.62888	8182.3994
145.24007	8171.4971
145.85124	8216.0908
146.46243	8193.1963
147.07361	8145.4722
147.6848	8136.6929
148.29597	8097.0649
148.90717	8066.3203
149.51834	8079.6226
150.12953	8089.0811
150.74071	8075.9307
151.3519	8061.626
151.96309	7948.3701
152.57426	7938.5298
153.18546	7955.4878
153.79663	8014.6357
154.40782	8021.5513
155.019	7999.4697
155.63019	7945.8994
156.24136	7904.665
156.85255	7850.0991
157.46373	7811.5898
158.07492	7825.2417
158.6861	7827.9922
159.29729	7796.96
159.90846	7830.5083
160.51965	7803.6338
161.13083	7873.2793
161.74202	7742.0171
162.35321	7735.1357
162.96439	7722.0625
163.57558	7756.6733
164.18675	7731.2612
164.79794	7715.0313
165.40912	7691.0757
166.02031	7630.7153
166.63148	7641.5215
167.24268	7625.3818
167.85385	7662.2144
168.46504	7659.9365
169.07622	7706.1299
169.68741	7684.8203
170.29858	7664.4717
170.90977	7621.9922
171.52095	7626.1748
172.13214	7634.7715
172.74333	7622.6841
173.35451	7593.3975
173.9657	7559.4253
174.57687	7550.9321
175.18806	7569.3823
175.79924	7582.6631
176.41043	7537.3965
177.02161	7513.3564
177.6328	7508.5098
178.24397	7550.5483
178.85516	7564.4258
179.46634	7524.6572
180.07753	7490.0635
180.68871	7461.7583
181.2999	7433.0259
181.91107	7456.6187
182.52226	7505.2041
183.13344	7451.9219
183.74463	7458.4136
184.35582	7431.6973
184.967	7447.4287
185.57819	7438.1899
186.18936	7439.9028
186.80055	7461.3525
187.41173	7504.6523
188.02292	7455.0781
188.63409	7405.3604
189.24529	7428.0991
189.85646	7443.0859
190.46765	7420.5273
191.07883	7431.1895
191.69002	7405.4683
192.30119	7369.959
192.91238	7320.6108
193.52356	7352.1016
194.13475	7367.748
194.74594	7340.3389
195.35712	7335.9243
195.96831	7359.0864
196.57948	7315.562
197.19067	7297.5513
197.80185	7357.6323
198.41304	7366.8154
199.02422	7287.7192
199.63541	7285.3257
200.24658	7343.9141
200.85777	7291.1431
201.46895	7375.4976
202.08014	7373.9336
202.69131	7299.915
203.30251	7257.3457
203.91368	7333.2114
204.52487	7353.6699
205.13606	7336.812
205.74724	7343.1011
206.35843	7335.7905
206.9696	7324.0078
207.5808	7361.772
208.19197	7367.4307
208.80316	7375.7344
209.41434	7324.0845
210.02553	7372.0786
210.6367	7360.96
211.24789	7259.4468
211.85907	7338.2495
212.47026	7303.6621
213.08144	7303.127
213.69263	7317.1123
214.3038	7306.3804
214.91499	7348.9604
215.52618	7413.2461
216.13736	7373.8691
216.74855	7305.0835
217.35973	7266.1528
217.97092	7378.1367
218.58209	7331.9639
219.19328	7361.9165
219.80446	7410.8735
220.41565	7386.4302
221.02682	7386.6523
221.63802	7376.5054
222.24919	7310.2729
222.86038	7318.8091
223.47156	7356.8257
224.08275	7355.9673
224.69392	7395.5942
225.30511	7386.7866
225.91631	7382.8721
226.52748	7364.4346
227.13867	7363.0049
227.74985	7363.5171
228.36104	7385.6963
228.97221	7390.6006
229.5834	7395.7979
230.19458	7372.6499
230.80577	7395.103
231.41695	7329.0146
232.02814	7318.4893
232.63931	7360.3169
233.2505	7315.2056
233.86168	7368.3003
234.47287	7417.0366
235.08405	7488.4512
235.69524	7419.7466
236.30641	7415.0947
236.9176	7428.3071
237.52879	7474.5049
238.13997	7450.1738
238.75116	7375.4746
239.36234	7379.7222
239.97353	7427.4438
240.5847	7427.3101
241.19589	7428.2207
241.80707	7458.8149
242.41826	7448.9438
243.02943	7455.4219
243.64063	7572.7637
244.2518	7580.6895
244.86299	7537.8159
245.47417	7446.7568
246.08536	7461.374
246.69653	7434.2222
247.30772	7539.5264
247.91891	7612.3115
248.53009	7630.9404
249.14128	7608.7295
249.75246	7586.6025
250.36365	7527.7559
250.97482	7483.4517
251.58601	7532.9497
252.19719	7567.6714
252.80838	7568.6685
253.41956	7547.5225
254.03075	7600.123
254.64192	7474.792
255.25311	7646.293
255.86429	7623.8174
256.47546	7649.8799
257.08667	7644.082
257.69785	7577.2275
258.30902	7596.9429
258.92023	7640.0103
259.5314	7637.355
260.14258	7635.6934
260.75375	7666.6235
261.36496	7682.4087
261.97614	7657.1074
262.58731	7685.8945
263.19849	7662.7583
263.80969	7631.7676
264.42087	7672.9639
265.03204	7701.0625
265.64322	7746.2959
266.25443	7711.6021
266.8656	7742.2881
267.47678	7727.6895
268.08795	7719.0645
268.69916	7764.7529
269.31033	7759.9307
269.92151	7711.7866
270.53271	7714.3198
271.14389	7742.4463
271.75507	7809.3042
272.36624	7796.9136
272.97745	7787.4863
273.58862	7819.6992
274.1998	7777.0059
274.81097	7804.4775
275.42218	7882.7529
276.03336	7877.9634
276.64453	7851.832
277.25571	7894.6221
277.86691	7874.9209
278.47809	7870.7373
279.08926	7870.1333
279.70047	7838.5322
280.31165	7855.7559
280.92282	7865.9502
281.534	7834.6958
282.1452	7914.1948
282.75638	7905.8076
283.36755	7999.4478
283.97873	7967.0322
284.58994	7932.2744
285.20111	7915.0161
285.81229	7953.1182
286.42346	7973.1553
287.03467	7943.7773
287.64584	7952.4546
288.25702	7984.9883
288.86819	8001.9683
289.4794	8026.8936
290.09058	8044.1777
290.70175	8019.7632
291.31296	7987.6978
291.92413	7945.3325
292.53531	8042.3535
293.14648	8049.7573
293.75769	8025.752
294.36887	8096.7085
294.98004	8128.188
295.59122	8146.0547
296.20242	8089.4595
296.8136	8100.5386
297.42477	8061.9092
298.03595	8087.6709
298.64716	8116.5503
299.25833	8132.3281
299.86951	8122.7974
300.48068	8095.999
301.09189	8158.5132
301.70306	8175.8584
302.31424	8055.4282
302.92545	8223.3027
303.53662	8194.8555
304.1478	8060.1411
304.75897	8260.583
305.37018	8207.7656
305.98135	8159.7993
306.59253	8194.1377
307.2037	8202.0586
307.81491	8184.1733
308.42609	8193.0469
309.03726	8213.6768
309.64844	8231.1836
310.25964	8269.2598
310.87082	8299.8516
311.48199	8299.9492
312.0932	8317.1445
312.70438	8305.8359
313.31555	8305.7236
313.92673	8397.457
314.53793	8339.5283
315.14911	8303.6367
315.76028	8268.2539
316.37146	8385.0723
316.98267	8458.2881
317.59384	8322.3535
318.20502	8361.4941
318.81619	8401.8887
319.4274	8358.668
320.03857	8304.2021
320.64975	8365.5254
321.26093	8457.6309
321.87213	8434.4434
322.48331	8425.7568
323.09448	8503.8545
323.70569	8488.8799
324.31686	8497.2969
324.92804	8436.0459
325.53922	8528.2803
326.15042	8521.6611
326.7616	8566.6016
327.37277	8547.7178
327.98395	8539.9922
328.59515	8623.8076
329.20633	8557.8887
329.8175	8586.2422
330.42868	8607.2949
331.03989	8651.3535
331.65106	8679.083
332.26224	8634.1963
332.87344	8601.5713
333.48462	8610.3652
334.09579	8640.7266
334.70697	8721.2295
335.31818	8733.7881
335.92935	8698.2764
336.54053	8741.8086
337.1517	8773.8242
337.76291	8853.7754
338.37408	8738.877
338.98526	8766.8242
339.59644	8798.4258
340.20764	8851.7627
340.81882	8799.6123
341.42999	8861.0908
342.04117	8904.7285
342.65237	8892.7656
343.26355	8895.5332
343.87473	8961.6797
344.48593	8981.708
345.09711	8936.0342
345.70828	9032.8672
346.31946	9064.9629
346.93066	9035.916
347.54184	9053.6777
348.15302	9106.5713
348.76419	9007.2373
349.3754	9132.3604
349.98657	9154.0186
350.59775	9187.6533
351.20892	9175.4209
351.82013	9235.7158
352.4313	9216.2529
353.04248	9292.1494
353.65366	9249.8018
354.26486	9260.2412
354.87604	9336.2695
355.48721	9338.2627
356.09842	9322.0039
356.70959	9324.3721
357.32077	9342.5947
357.93195	9415.2666
358.54315	9397.6963
359.15433	9376.1113
359.7655	9378.165
360.37668	9455.6309
360.98788	9441.8096
361.59906	9465.5371
362.21024	9536.2549
362.82141	9529.2188
363.43262	9568.9307
364.04379	9630.041
364.65497	9695.0303
365.26617	9637.3281
365.87735	9603.1338
366.48853	9616.7686
367.0997	9628.625
367.71091	9667.1953
368.32208	9727.8545
368.93326	9703.3574
369.54443	9652.9063
370.15564	9737.9004
370.76682	9763.125
371.37799	9824.4424
371.98917	9841.0273
372.60037	9888.0664
373.21155	9823.7539
373.82272	9817.0781
374.4339	9961.6318
375.0451	9950.0664
375.65628	9936.5469
376.26746	9997.1221
376.87866	9940.9229
377.48984	9962.1055
378.10101	9931.1016
378.71219	10014.433
379.32339	10041.301
379.93457	10022.185
380.54575	10046.569
381.15692	10053.665
381.76813	10095.725
382.3793	10152.904
382.99048	10125.617
383.60165	10179.474
384.21286	10172.129
384.82404	10136.087
385.43521	10153.309
386.04642	10201.386
386.65759	10279.914
387.26877	10261.771
387.87994	10324.601
388.49115	10294.421
389.10233	10354.974
389.7135	10339.466
390.32468	10397.987
390.93588	10361.717
391.54706	10373.539
392.15823	10375.225
392.76941	10372.064
393.38062	10398.083
393.99179	10452.292
394.60297	10497.217
395.21414	10500.295
395.82535	10510.744
396.43652	10515.468
397.0477	10471.728
397.65891	10427.593
398.27008	10368.545
398.88126	10463.795
399.49243	10581.681
400.10364	10592.496
400.71481	10635.957
401.32599	10548.321
401.93716	10594.993
402.54837	10647.635
403.15955	10655.64
403.77072	10649.475
404.3819	10652.564
404.9931	10699.639
405.60428	10718.054
406.21545	10776.157
406.82663	10806.05
407.43784	10782.037
408.04901	10799.869
408.66019	10759.276
409.27139	10713.299
409.88257	10843.636
410.49374	10876.061
411.10492	10847.339
411.71613	10874.554
412.3273	10928.027
412.93848	10914.337
413.54965	10859.308
414.16086	10967.234
414.77203	11056.18
415.38321	11091.315
415.99438	10988.164
416.60559	10894.525
417.21677	10977.495
417.82794	11006.113
418.43915	11075.787
419.05032	11026.229
419.6615	11118.868
420.27267	11115.531
420.88388	11070.717
421.49506	11102.56
422.10623	11122.23
422.71741	11161.23
423.32861	11204.078
423.93979	11188.884
424.55096	11205.069
425.16214	11214.742
425.77335	11253.634
426.38452	11373.95
426.9957	11317.506
427.60687	11399.862
428.21808	11333.039
428.82925	11421.604
429.44043	11297.424
430.05164	11452.294
430.66281	11405.563
431.27399	11368.563
431.88516	11471.853
432.49637	11536.074
433.10754	11485.803
433.71872	11480.381
434.3299	11523.451
434.9411	11600.728
435.55228	11590.941
436.16345	11552.525
436.77463	11525.055
437.38583	11499.344
437.99701	11533.123
438.60818	11625.527
439.21936	11675.303
439.83057	11654.399
440.44174	11641.714
441.05292	11678.746
441.66412	11735.612
442.2753	11795.408
442.88647	11844.79
443.49765	11895.709
444.10886	11764.261
444.72003	11678.829
445.33121	11767.151
445.94238	11739.816
446.55359	11834.521
447.16476	11734.714
447.77594	11824.573
448.38712	11829.175
448.99832	11820.632
449.6095	11803.952
450.22067	11840.35
450.83188	11826.703
451.44305	11784.29
452.05423	11839.85
452.66541	11907.129
453.27661	11908.135
453.88779	11855.207
454.49896	11877.309
455.11014	11968.949
455.72134	11959.444
456.33252	11959.896
456.9437	12025.511
457.55487	11921.251
458.16608	11887.72
458.77725	11943.34
459.38843	11952.992
459.9996	11934.218
460.61081	11892.691
461.22198	12085.053
461.83316	11937.36
462.44437	12111.814
463.05554	11946.201
463.66672	12009.489
464.27789	11910.402
464.8891	11994.756
465.50027	12060.855
466.11145	12082.351
466.72263	12040.775
467.33383	12078.146
467.94501	12046.313
468.55618	12053.495
469.16736	12101.058
469.77856	12097.32
470.38974	12142.117
471.00092	12214.674
471.61212	12264.035
472.2233	12212.118
472.83447	12156.241
473.44565	12210.191
474.05685	12309.293
474.66803	12393.692
475.27921	12379.729
475.89038	12379.116
476.50159	12370.905
477.11276	12361.284
477.72394	12468.011
478.33511	12447.218
478.94632	12506.544
479.5575	12529.659
480.16867	12694.228
480.77985	12626.235
481.39105	12655.902
482.00223	12565.891
482.6134	12560.713
483.22461	12664.776
483.83578	12663.478
484.44696	12739.006
485.05814	12748.813
485.66934	12733.419
486.28052	12669.617
486.89169	12699.262
487.50287	12705.303
488.11407	12737.744
488.72525	12697.403
489.33643	12680.205
489.9476	12605.633
490.55881	12561.003
491.16998	12606.221
491.78116	12564.688
492.39233	12434.297
493.00354	12352.489
493.61472	12334.523
494.22589	12332.895
494.8371	12278.553
495.44827	12149.404
496.05945	12059.798
496.67062	11990.203
497.28183	11875.896
497.89301	11802.035
498.50418	11713.734
499.11536	11609.907
499.72656	11498.249
500.33774	11358.682
500.94891	11243.566
501.56009	11232.75
502.1713	11111.62
502.78247	11024.153
503.39365	10891.973
504.00485	10889.358
504.61603	10717.763
505.2272	10719.177
505.83838	10426.063
506.44958	10229.517
507.06076	10256.918
507.67194	10090.104
508.28311	9961.4424
508.89432	9925.4053
509.50549	9806.5918
510.11667	9701.165
510.72784	9620.8848
511.33905	9489.5
511.95023	9360.4297
512.5614	9251.877
513.17261	9132.5947
513.78375	9051.9512
514.39496	8961.2529
515.00616	8839.2168
515.61731	8721.5469
516.22852	8584.8779
516.83972	8512.8477
517.45087	8451.0752
518.06207	8417.5996
518.67322	8259.5928
519.28442	8109.8916
519.89563	8077.79
520.50677	7954.0288
521.11798	7948.1792
521.72919	7892.584
522.34033	7862.6621
522.95154	7683.9155
523.56268	7615.502
524.17389	7590.0845
524.7851	7548.5317
525.39624	7503.2114
526.00745	7423.7017
526.61865	7372.3926
527.2298	7281.6538
527.841	7131.2666
528.45221	7110.8896
529.06335	7056.9263
529.67456	7030.27
530.28571	7022.5996
530.89691	6991.6548
531.50812	6925.3462
532.11926	6918.8213
532.73047	6875.9902
533.34167	6808.3057
533.95282	6748.5635
534.56403	6693.8018
535.17517	6614.9141
535.78638	6598.2358
536.39758	6640.4336
537.00873	6626.3872
537.61993	6572.1016
538.23114	6484.5366
538.84229	6395.5884
539.45349	6372
540.0647	6374.3223
540.67584	6360.2607
541.28705	6385.0259
541.89819	6432.9097
542.5094	6318.1401
543.12061	6205.0088
543.73175	6153.1035
544.34296	6142.4175
544.95416	6195.7441
545.56531	6138.23
546.17651	6134.791
546.78772	6048.5361
547.39886	6056.6968
548.01007	5958.2813
548.62122	5987.105
549.23242	5948.7686
549.84363	5938.6064
550.45477	5955.2422
551.06598	5887.3462
551.67719	5925.396
552.28833	5827.5488
552.89954	5793.9399
553.51068	5815.8184
554.12189	5830.0117
554.73309	5787.4082
555.34424	5836.0039
555.95544	5733.4126
556.56665	5741.6851
557.1778	5672.8936
557.789	5672.5762
558.40021	5697.376
559.01135	5709.5981
559.62256	5653.3213
560.2337	5706.2075
560.84491	5676.5439
561.45612	5626.2051
562.06726	5623.8286
562.67847	5603.5723
563.28967	5556.0903
563.90082	5578.0928
564.51202	5638.082
565.12317	5607.3687
565.73438	5562.228
566.34558	5555.9077
566.95673	5544.209
567.56793	5543.2134
568.17914	5554.5
568.79028	5514.2222
569.40149	5470.0981
570.0127	5504.0991
570.62384	5469.7983
571.23505	5378.9814
571.84619	5417.1602
572.4574	5439.5947
573.0686	5406.6001
573.67975	5411.3262
574.29095	5416.4121
574.90216	5378.3345
575.51331	5316.2485
576.12451	5278.9746
576.73566	5325.0186
577.34686	5326.7173
577.95807	5348.416
578.56921	5284.8901
579.18042	5364.6865
579.79163	5304.792
580.40277	5272.937
581.01398	5238.2817
581.62518	5244.7002
582.23633	5299.583
582.84753	5262.186
583.45868	5316.896
584.06989	5313.189
584.68109	5272.042
585.29224	5226.9341
585.90344	5205.3862
586.51465	5245.7915
587.12579	5173.0098
587.737	5294.667
588.34814	5265.6909
588.95935	5202.127
589.57056	5291.8398
590.1817	5245.6646
590.79291	5208.7954
591.40411	5256.3813
592.01526	5339.5493
592.62646	5334.0889
593.23767	5300.0703
593.84882	5281.2993
594.46002	5240.5537
595.07117	5235.5254
595.68237	5203.3066
596.29358	5247.7476
596.90472	5241.7842
597.51593	5228.9556
598.12714	5168.7852
598.73828	5102.7061
599.34949	5022.5894
599.96069	5056.5591
600.57184	5053.3164
601.18304	5028.6191
601.79419	5014.7539
602.4054	4979.4541
603.0166	4897.7676
603.62775	4806.1914
604.23895	4741.0049
604.85016	4708.8066
605.4613	4660.0645
606.07251	4652.3091
606.68365	4591.8232
607.29486	4511.8667
607.90607	4476.3877
608.51721	4433.3008
609.12842	4399.9819
609.73962	4364.3394
610.35077	4347.9175
610.96198	4348.1528
611.57318	4311.8472
612.18433	4238.9961
612.79553	4145.3623
613.40668	4055.0002
614.01788	3983.0986
614.62909	3983.4412
615.24023	3988.7524
615.85144	3973.0105
616.46265	3924.3403
617.07379	3883.2646
617.685	3811.9465
618.29614	3774.8242
618.90735	3745.1536
619.51855	3674.2307
620.1297	3688.2593
620.74091	3644.7974
621.35211	3627.7532
621.96326	3599.0505
622.57446	3542.2202
623.18567	3486.6094
623.79681	3455.3955
624.40802	3454.6912
625.01917	3413.4563
625.63037	3395.5378
626.24158	3401.8127
626.85272	3351.0752
627.46393	3279.1069
628.07513	3299.3787
628.68628	3244.2007
629.29749	3213.2815
629.90863	3260.1208
630.51984	3262.1584
631.13104	3228.2095
631.74219	3247.9712
632.35339	3191.4192
632.9646	3098.9348
633.57574	3083.6179
634.18695	3068.1323
634.79816	3010.5867
635.4093	3026.1333
636.02051	3047.1533
636.63165	3018.2773
637.24286	2963.9485
637.85406	2935.2358
638.46521	2958.4116
639.07642	2952.5566
639.68762	2946.1763
640.29877	2943.3188
640.90997	2895.6843
641.52112	2903.4624
642.13232	2875.2681
642.74353	2850.4165
643.35468	2863.3755
643.96588	2842.4705
644.57709	2853.5222
645.18823	2825.4048
645.79944	2798.2275
646.41064	2785.5708
647.02179	2780.6299
647.633	2755.6926
648.24414	2719.9263
648.85535	2741.7029
649.46655	2745.2424
650.0777	2753.8423
650.6889	2709.3577
651.30011	2714.3237
651.91125	2703.533
652.52246	2711.0896
653.13367	2693.9106
653.74481	2680.4194
654.35602	2681.9622
654.96716	2634.1348
655.57837	2658.2537
656.18958	2611.7439
656.80072	2632.9004
657.41193	2659.7036
658.02313	2621.9839
658.63428	2589.6262
659.24548	2642.1406
659.85663	2579.9246
660.46783	2631.6733
661.07904	2625.8855
661.69019	2603.4353
662.30139	2553.0723
662.9126	2544.4353
663.52374	2558.0295
664.13495	2538.6672
664.74615	2556.5471
665.3573	2558.9678
665.96851	2541.9641
666.57965	2508.6809
667.19086	2498.5591
667.80206	2492.9417
668.41321	2529.8921
669.02441	2521.7139
669.63562	2489.5874
670.24677	2506.2473
670.85797	2547.6016
671.46912	2499.116
672.08032	2451.188
672.69153	2462.2673
673.30267	2442.1406
673.91388	2417.0603
674.52509	2442.3953
675.13623	2446.2983
675.74744	2409.7214
676.35864	2398.7119
676.96979	2397.1233
677.58099	2397.6033
678.19214	2411.4607
678.80334	2390.1326
679.41455	2391.0894
680.0257	2408.6179
680.6369	2368
681.24811	2373.6194
681.85925	2368.5713
682.47046	2332.0149
683.0816	2329.4277
683.69281	2303.8906
684.30402	2345.748
684.91516	2308.4836
685.52637	2321.9949
686.13757	2331.3533
686.74872	2348.896
687.35992	2314.7544
687.97113	2294.4612
688.58228	2313.6455
689.19348	2296.6829
689.80463	2291.1514
690.41583	2261.6624
691.02704	2246.1233
691.63818	2249.7727
692.24939	2284.488
692.8606	2268.9829
693.47174	2267.7527
694.08295	2198.7
694.69409	2296.656
695.3053	2238.533
695.9165	2208.5562
696.52765	2222.8625
697.13885	2216.6411
697.75006	2194.314
698.36121	2167.1042
698.97241	2158.7407
699.58362	2147.6575
700.19476	2232.8784
700.80597	2232.9912
701.41711	2190.5332
702.02832	2121.2744
702.63953	2173.1589
703.25067	2160.9983
703.86188	2146.085
704.47308	2128.8416
705.08423	2171.6648
705.69543	2163.8618
706.30664	2144.9304
706.91779	2138.9023
707.52899	2158.1648
708.14014	2162.2195
708.75134	2155.9741
709.36255	2150.0674
709.97369	2148.0117
710.5849	2150.563
711.19611	2143.9045
711.80725	2130.4517
712.41846	2108.2
713.0296	2114.6685
713.64081	2103.3215
714.25201	2126.7805
714.86316	2103.0901
715.47437	2084.0193
716.08557	2111.4211
716.69672	2100.8599
717.30792	2089.0605
717.91913	2080.5212
718.53027	2088.0369
719.14148	2098.9165
719.75262	2097.0063
720.36383	2082.1233
720.97504	2080.4768
721.58618	2109.5303
722.19739	2067.4143
722.80859	2054.1108
723.41974	2090.9448
724.03094	2069.4329
724.64209	2074.6909
725.2533	2047.8921
725.8645	2027.4067
726.47565	2076.5225
727.08685	2058.7988
727.69806	2065.7222
728.3092	2045.4337
728.92041	2021.2242
729.53162	2066.886
730.14276	2072.8782
730.75397	2089.5601
731.36511	2059.4238
731.97632	2065.3181
732.58752	2069.8975
733.19867	2041.4502
733.80988	2064.2178
734.42108	2061.4097
735.03223	2083.6941
735.64343	2071.8518
736.25458	2072.6938
736.86578	2088.3838
737.47699	2085.7939
738.08813	2081.4028
738.69934	2067.1917
739.31055	2070.7861
739.92169	2073.9678
740.5329	2040.2834
741.1441	2085.5801
741.75525	2111.5146
742.36646	2125.1499
742.9776	2122.5913
743.58881	2101.8633
744.20001	2095.3264
744.81116	2060.5908
745.42236	2088.0908
746.03357	2104.667
746.64471	2116.425
747.25592	2171.1448
747.86707	2160.9309
748.47827	2136.3635
749.08948	2100.2175
749.70062	2127.1956
750.31183	2141.1914
750.92303	2132.8403
751.53418	2175.9277
752.14539	2189.2695
752.75659	2156.3135
753.36774	2144.7317
753.97894	2207.6709
754.59009	2173.8669
755.20129	2200.7419
755.8125	2154.8574
756.42365	2235.2385
757.03485	2247.5913
757.64606	2215.0964
758.2572	2222.0591
758.86841	2247.9753
759.47955	2238.074
760.09076	2311.2461
760.70197	2259.7268
761.31311	2282.6338
761.92432	2347.7495
762.53552	2311.0022
763.14667	2255.6335
763.75787	2332.4722
764.36908	2323.4063
764.98022	2300.9138
765.59143	2335.4636
766.20258	2347.5085
766.81378	2334.6934
767.42499	2335.9026
768.03613	2353.9548
768.64734	2382.366
769.25854	2424.4446
769.86969	2395.0913
770.4809	2356.4778
771.0921	2389.5156
771.70325	2374.2788
772.31445	2387.8435
772.9256	2420.4749
773.5368	2425.8032
774.14801	2419.5757
774.75916	2454.9224
775.37036	2471.7937
775.98157	2452.8315
776.59271	2488.6262
777.20392	2479.1848
777.81506	2478.9143
778.42627	2473.5203
779.03748	2458.4041
779.64862	2544.4761
780.25983	2478.3582
780.87103	2509.2261
781.48218	2543.0198
782.09338	2497.9126
782.70459	2473.95
783.31573	2585.363
783.92694	2527.2625
784.53809	2519.1277
785.14929	2490.0356
785.7605	2476.1716
786.37164	2537.4236
786.98285	2546.7227
787.59406	2519.7673
788.2052	2511.584
788.81641	2544.5869
789.42755	2534.384
790.03876	2516.6582
790.64996	2527.7429
791.26111	2524.4766
791.87231	2504.8499
792.48352	2521.2788
793.09467	2552.2451
793.70587	2532.1675
794.31708	2518.0767
794.92822	2502.3098
795.53943	2504.6753
796.15057	2509.5977
796.76178	2451.811
797.37299	2466.4202
797.98413	2474.5117
798.59534	2481.49
799.20654	2488.5496
799.81769	2464.7549
800.42889	2469.5676
801.04004	2446.5422
801.65125	2398.9729
802.26245	2450.5994
802.8736	2449.2695
803.4848	2430.0728
804.09601	2437.5474
804.70715	2423.7141
805.31836	2371.354
805.92957	2416.9465
806.54071	2381.4558
807.15192	2398.3801
807.76306	2386.3782
808.37427	2355.8325
808.98547	2369.6812
809.59662	2361.1704
810.20782	2332.4832
810.81903	2298.3716
811.43018	2264.3198
812.04138	2294.957
812.65253	2261.0347
813.26373	2273.1196
813.87494	2286.7163
814.48608	2254.426
815.09729	2215.1069
815.7085	2219.8052
816.31964	2209.1812
816.93085	2121.5896
817.54205	2167.3215
818.1532	2174.958
818.7644	2171.7722
819.37555	2128.8315
819.98676	2126.335
820.59796	2127.4148
821.20911	2076.6465
821.82031	2068.8105
822.43152	2030.8336
823.04266	2025.3135
823.65387	1987.6707
824.26508	1987.0127
824.87622	1935.8406
825.48743	2004.875
826.09857	1903.5151
826.70978	1909.7708
827.32098	1925.799
827.93213	1900.7904
828.54333	1876.0393
829.15454	1875.7153
829.76569	1838.9362
830.37689	1820.2419
830.98804	1777.5833
831.59924	1754.2778
832.21045	1738.6067
832.82159	1713.8887
833.4328	1672.5868
834.04401	1670.5774
834.65515	1666.1326
835.26636	1649.8341
835.87756	1614.7852
836.48871	1570.9725
837.09991	1572.9579
837.71106	1560.4741
838.32227	1549.2152
838.93347	1511.4901
839.54462	1487.196
840.15582	1481.4028
840.76703	1436.9999
841.37817	1437.3135
841.98938	1432.5148
842.60052	1423.6665
843.21173	1409.9094
843.82294	1363.8809
844.43408	1356.7257
845.04529	1361.4283
845.65649	1337.7238
846.26764	1341.0162
846.87885	1331.6948
847.49005	1307.5717
848.1012	1301.5338
848.7124	1287.2842
849.32355	1280.7766
849.93475	1280.2699
850.54596	1283.7726
851.1571	1255.2539
851.76831	1252.4816
852.37952	1253.5239
852.99066	1231.8547
853.60187	1216.6531
854.21301	1214.6573
854.82422	1216.5614
855.43542	1205.9264
856.04657	1199.4
856.65778	1202.0233
857.26898	1179.8182
857.88013	1172.5194
858.49133	1189.1165
859.10254	1188.3446
859.71368	1191.1819
860.32489	1176.141
860.93604	1174.7783
861.54724	1180.6655
862.15845	1181
862.76959	1186.5167
863.3808	1173.5204
863.992	1175.595
864.60315	1185.5754
865.21436	1157.6826
865.8255	1174.9021
866.43671	1163.2953
867.04791	1153.9108
867.65906	1174.4342
868.27026	1164.6783
868.88147	1172.4996
869.49261	1172.4973
870.10382	1173.7213
870.71503	1219.7107
871.32617	1180.674
871.93738	1165.1002
872.54852	1159.4838
873.15973	1190.1688
873.77094	1163.2151
874.38208	1179.9288
874.99329	1150.2822
875.60449	1159.7466
876.21564	1160.9906
876.82684	1131.061
877.43805	1148.8405
878.04919	1142.0283
878.6604	1170.2067
879.27155	1136.8856
879.88275	1148.0848
880.49396	1126.2177
881.1051	1132.1917
881.71631	1162.1475
882.32751	1136.5555
882.93866	1144.1028
883.54987	1133.4827
884.16101	1140.8419
884.77222	1180.1805
885.38342	1157.0863
885.99457	1122.6404
886.60577	1137.8956
887.21698	1113.9763
887.82813	1127.4694
888.43933	1139.2169
889.05054	1134.7021
889.66168	1125.9019
890.27289	1125.1843
890.88403	1154.8687
891.49524	1143.2239
892.10645	1131.7793
892.71759	1132.949
893.3288	1099.5404
893.94	1105.2213
894.55115	1125.6852
895.16235	1125.9586
895.7735	1120.8113
896.3847	1115.7106
896.99591	1112.9808
897.60706	1132.9071
898.21826	1119.3474
898.82947	1118.8772
899.44061	1134.621
900.05182	1124.1169
900.66302	1140.4398
901.27417	1135.1266
901.88538	1128.4224
902.49652	1131.8649
903.10773	1138.8658
903.71893	1125.9456
904.33008	1122.5447
904.94128	1155.4987
905.55249	1149.3953
906.16364	1142.6742
906.77484	1150.5133
907.38599	1115.4071
907.99719	1140.3003
908.6084	1094.795
909.21954	1139.3604
909.83075	1118.2595
910.44196	1154.9
911.0531	1160.0017
911.66431	1135.8502
912.27551	1124
912.88666	1124.1069
913.49786	1126.074
914.10901	1125.6744
914.72021	1116.0033
915.33142	1140.7997
915.94257	1142.8623
916.55377	1103.616
917.16498	1145.583
917.77612	1139.7765
918.38733	1138.5109
918.99847	1127.6975
919.60968	1110.3345
920.22089	1130.7136
920.83203	1134.3323
921.44324	1115.6848
922.05444	1086.3311
922.66559	1122.4073
923.27679	1107.4762
923.888	1093.1189
924.49915	1107
925.11035	1124.5842
925.7215	1150.1705
926.3327	1143.085
926.94391	1123.7615
927.55505	1126.1492
928.16626	1135.0288
928.77747	1142.6522
929.38861	1162.3159
929.99982	1147.3306
930.61102	1117.832
931.22217	1164.3099
931.83337	1154.3661
932.44452	1162.5079
933.05573	1177.5804
933.66693	1163.651
934.27808	1146.4855
934.88928	1155.3191
935.50049	1173.9703
936.11163	1169.5786
936.72284	1167.1177
937.33398	1155.3865
937.94519	1179.7793
938.5564	1168.5825
939.16754	1144.4153
939.77875	1154
940.38995	1153.9077
941.0011	1160.5016
941.6123	1216.5779
942.22351	1212.3766
942.83466	1175.1945
943.44586	1176.4424
944.05701	1183.6595
944.66821	1201.2819
945.27942	1200.5341
945.89056	1199.2904
946.50177	1201.2037
947.11298	1205.0686
947.72412	1216.765
948.33533	1217.5942
948.94647	1230.0426
949.55768	1224.3632
950.16888	1241.6566
950.78003	1266.7621
951.39124	1266.264
952.00244	1260.2922
952.61359	1267.4276
953.22479	1276.2999
953.836	1242.5126
954.44714	1232.3341
955.05835	1253.3147
955.66949	1301.7324
956.2807	1267.0026
956.89191	1293.9733
957.50305	1290.3265
958.11426	1258.2855
958.72546	1298.1019
959.33661	1292.7816
959.94781	1321.7363
960.55896	1287.4446
961.17017	1323.3173
961.78137	1285.0361
962.39252	1308.3969
963.00372	1310.9827
963.61493	1300.5272
964.22607	1348.7051
964.83728	1338.7467
965.44849	1333.4493
966.05963	1353.9392
966.67084	1335.745
967.28198	1367.0374
967.89319	1389.7092
968.50439	1412.3375
969.11554	1414.0531
969.72675	1388.3271
970.33795	1412.7606
970.9491	1435.1356
971.5603	1460.2299
972.17145	1466.1373
972.78265	1463.5176
973.39386	1454.8643
974.005	1456.8213
974.61621	1467.4663
975.22742	1463.9004
975.83856	1489.1587
976.44977	1494.3671
977.06097	1542.0076
977.67212	1510.597
978.28333	1508.9282
978.89447	1530.6423
979.50568	1467.9711
980.11688	1514.0889
980.72803	1550.8514
981.33923	1526.302
981.95044	1538.5406
982.56158	1560.9055
983.17279	1545.9242
983.784	1585.9396
984.39514	1565.854
985.00635	1544.8129
985.61749	1619.2738
986.2287	1652.6754
986.8399	1629.5632
987.45105	1622.1442
988.06226	1658.2885
988.67346	1621.4049
989.28461	1645.3373
989.89581	1675.8378
990.50696	1643.2417
991.11816	1637.4882
991.72937	1658.5931
992.34052	1669.8785
992.95172	1688.1719
993.56293	1700.4796
994.17407	1705.6509
994.78528	1658.9042
995.39648	1723.9791
996.00763	1783.2089
996.61884	1788.4233
997.22998	1777.1855
997.84119	1785.4086
998.45239	1733.376
999.06354	1790.1007
999.67474	1800.9382
1000.2859	1781.6654
1000.8971	1816.7554
1001.5083	1770.0254
1002.1194	1821.4316
1002.7307	1847.6603
1003.3419	1841.1787
1003.953	1855.4972
1004.5642	1901.6677
1005.1754	1884.4447
1005.7866	1868.1783
1006.3978	1878.0343
1007.009	1882.3654
1007.6201	1883.5699
1008.2313	1870.552
1008.8425	1878.6755
1009.4537	1907.2111
1010.0649	1901.0917
1010.676	1910.6964
1011.2872	1935.9994
1011.8984	1943.5532
1012.5096	1946.4734
1013.1208	2013.4108
1013.7319	1949.3663
1014.3431	1973.4396
1014.9543	1961.5316
1015.5655	2048.8774
1016.1767	2014.4456
1016.7879	1981.3275
1017.399	2009.6279
1018.0103	2031.2067
1018.6215	2047.3374
1019.2326	2076.7971
1019.8438	2097.2617
1020.455	2054.6899
1021.0662	2060.4175
1021.6774	2053.177
1022.2885	2077.4951
1022.8997	2103.7231
1023.5109	2120.8813
1024.1221	2165.1758
1024.7333	2190.3044
1025.3445	2181.4072
1025.9557	2165.3135
1026.5668	2168.113
1027.178	2184.5398
1027.7892	2172.3862
1028.4004	2226.2517
1029.0116	2212.6868
1029.6227	2253.7954
1030.2339	2251.3438
1030.8451	2275.7964
1031.4563	2312.2795
1032.0675	2350.844
1032.6787	2364.2366
1033.2898	2394.2998
1033.901	2410.9417
1034.5122	2374.2771
1035.1234	2408.3762
1035.7346	2431.7964
1036.3457	2444.8538
1036.9569	2506.8462
1037.5681	2522.1494
1038.1793	2540.9019
1038.7905	2597.1755
1039.4017	2605.552
1040.0128	2614.8853
1040.624	2605.4351
1041.2352	2649.5825
1041.8464	2732.5225
1042.4576	2741.1589
1043.0687	2793.7307
1043.6799	2841.8777
1044.2911	2840.592
1044.9023	2869.8755
1045.5135	2919.4368
1046.1246	2994.6396
1046.7358	2989.8828
1047.347	3019.7661
1047.9583	3095.8093
1048.5695	3116.9236
1049.1807	3161.572
1049.7917	3189.8926
1050.403	3278.6367
1051.0142	3350.1152
1051.6254	3362.7615
1052.2366	3398.4771
1052.8477	3412.7527
1053.4589	3472.3269
1054.0701	3533.5059
1054.6813	3577.9382
1055.2925	3633.5159
1055.9037	3695.4585
1056.5148	3817.6235
1057.126	3837.0686
1057.7372	3831.5229
1058.3484	3949.8694
1058.9596	3910.6082
1059.5707	4051.4268
1060.1819	4066.9507
1060.7931	4123.751
1061.4043	4216.4136
1062.0155	4294.689
1062.6267	4354.3911
1063.2378	4371.0059
1063.849	4484.9189
1064.4602	4578.9727
1065.0714	4642.1401
1065.6826	4667.499
1066.2937	4671.4893
1066.9049	4734.8447
1067.5161	4790.3994
1068.1273	4827.939
1068.7385	4915.4609
1069.3497	5012.501
1069.9608	5148.4707
1070.572	5152.6572
1071.1832	5189.8481
1071.7944	5227.1528
1072.4056	5193.1758
1073.0167	5281.748
1073.6279	5359.8823
1074.2391	5480.7422
1074.8503	5519.3472
1075.4615	5589.6382
1076.0726	5650.502
1076.6838	5682.6245
1077.295	5675.8306
1077.9063	5683.1875
1078.5175	5722.8018
1079.1287	5841.1934
1079.7397	5910.9155
1080.351	5982.2686
1080.9622	5954.8921
1081.5734	5995.5479
1082.1846	6012.7607
1082.7957	6067.0591
1083.4069	6107.7964
1084.0181	6316.9688
1084.6293	6222.0073
1085.2405	6217.8696
1085.8517	6200.4409
1086.4628	6206.418
1087.074	6217.939
1087.6852	6217.1611
1088.2964	6291.4507
1088.9076	6408.0493
1089.5187	6336.7236
1090.1299	6333.7397
1090.7411	6348.6431
1091.3523	6284.1846
1091.9635	6271.9648
1092.5747	6340.0161
1093.1858	6362.6763
1093.797	6393.6816
1094.4082	6434.5591
1095.0194	6406.6436
1095.6306	6303.9771
1096.2417	6289.1479
1096.8529	6289.2886
1097.4641	6312.9233
1098.0753	6237.8936
1098.6865	6285.7695
1099.2976	6288.4238
1099.9088	6208.3413
1100.52	6187.686
1101.1312	6130.2197
1101.7424	6069.8057
1102.3536	6117.7969
1102.9647	6157.0249
1103.5759	6147.5503
1104.1871	6064.9785
1104.7983	5986.5986
1105.4095	5978.1055
1106.0206	5973.3223
1106.6318	5941.5635
1107.243	5955.1147
1107.8542	5882.146
1108.4655	5925.9258
1109.0767	5889.5303
1109.6877	5851.8359
1110.299	5736.2896
1110.9102	5760.0566
1111.5214	5715.4946
1112.1326	5830.9424
1112.7437	5859.1812
1113.3549	5759.6172
1113.9661	5701.1509
1114.5773	5683.5864
1115.1885	5650.7725
1115.7997	5645.1226
1116.4108	5623.3696
1117.022	5630.999
1117.6332	5656.2661
1118.2444	5611.7222
1118.8556	5531.7495
1119.4667	5470.5029
1120.0779	5526.2676
1120.6891	5527.8555
1121.3003	5517.7993
1121.9115	5489.8867
1122.5227	5506.2856
1123.1338	5507.998
1123.745	5470.2842
1124.3562	5384.9976
1124.9674	5336.6064
1125.5786	5387.4414
1126.1897	5383.8579
1126.8009	5343.6797
1127.4121	5368.5723
1128.0233	5326.0869
1128.6345	5230.6284
1129.2456	5189.7441
1129.8568	5245.5439
1130.468	5278.9644
1131.0792	5229.606
1131.6904	5211.9434
1132.3016	5174.4668
1132.9127	5152.1704
1133.5239	5098.6875
1134.1351	5090.4648
1134.7463	5110.146
1135.3575	5116.3286
1135.9686	5096.1489
1136.5798	5104.2529
1137.191	5053.313
1137.8022	5008.7979
1138.4135	5030.7588
1139.0247	4956.1006
1139.6357	4970.769
1140.2469	5009.2437
1140.8582	4989.0381
1141.4694	4950.1411
1142.0806	4899.2407
1142.6917	4837.0771
1143.3029	4832.7207
1143.9141	4803.9473
1144.5253	4878.2227
1145.1365	4855.5259
1145.7477	4830.1899
1146.3588	4793.6211
1146.97	4747.7993
1147.5812	4695.0791
1148.1924	4685.3677
1148.8036	4622.8242
1149.4147	4634.3555
1150.0259	4634
1150.6371	4623.708
1151.2483	4519.6958
1151.8595	4506.4961
1152.4706	4438.9653
1153.0818	4457.2881
1153.693	4453.2783
1154.3042	4488.2329
1154.9154	4470.1274
1155.5266	4458.6782
1156.1377	4369.4595
1156.7489	4300.2964
1157.3601	4285.1621
1157.9713	4296.3472
1158.5825	4268.104
1159.1936	4314.1909
1159.8048	4288.5781
1160.416	4188.6523
1161.0272	4192.874
1161.6384	4130.52
1162.2496	4131.8569
1162.8607	4134.6201
1163.4719	4127.8257
1164.0831	4151.0698
1164.6943	4119.5957
1165.3055	4082.7368
1165.9166	4036.9126
1166.5278	3970.6982
1167.139	3953.3423
1167.7502	3937.9209
1168.3615	3953.5115
1168.9727	3939.2219
1169.5837	3857.5552
1170.1949	3820.6633
1170.8062	3769.5964
1171.4174	3766.9287
1172.0286	3756.7205
1172.6396	3751.5178
1173.2509	3737.665
1173.8621	3726.7595
1174.4733	3704.5154
1175.0845	3660.469
1175.6956	3593.4729
1176.3068	3547.687
1176.918	3552.6833
1177.5292	3555.281
1178.1404	3506.3545
1178.7516	3476.5171
1179.3627	3443.4722
1179.9739	3404.1177
1180.5851	3368.6921
1181.1963	3358.4204
1181.8075	3336.3115
1182.4186	3307.7788
1183.0298	3320.1204
1183.641	3284.1729
1184.2522	3217.0583
1184.8634	3177.0083
1185.4746	3123.9058
1186.0857	3085.3423
1186.6969	3089.0847
1187.3081	3066.0654
1187.9193	3070.9226
1188.5305	3004.8755
1189.1416	2973.9187
1189.7528	2936.1958
1190.364	2897.9026
1190.9752	2875.8806
1191.5864	2882.1025
1192.1976	2871.0903
1192.8087	2830.7122
1193.4199	2788.731
1194.0311	2737.7043
1194.6423	2734.4333
1195.2535	2718.3574
1195.8646	2672.1624
1196.4758	2658.0139
1197.087	2625.7107
1197.6982	2601.5569
1198.3094	2561.4695
1198.9207	2536.7222
1199.5317	2480.0549
1200.1429	2457.1919
1200.7542	2431.2327
1201.3654	2415.6091
1201.9766	2383.0813
1202.5876	2346.7979
1203.1989	2326.4324
1203.8101	2295.2517
1204.4213	2292.0803
1205.0325	2275.9856
1205.6436	2218.9443
1206.2548	2208.0425
1206.866	2171.1702
1207.4772	2140.7944
1208.0884	2100.8994
1208.6996	2086.0034
1209.3107	2036.0568
1209.9219	2037.6967
1210.5331	2026.99
1211.1443	2009.4689
1211.7555	1952.446
1212.3666	1934.0432
1212.9778	1875.1705
1213.589	1874.8247
1214.2002	1840.7104
1214.8114	1846.5911
1215.4226	1780.2283
1216.0337	1770.7191
1216.6449	1782.7289
1217.2561	1696.3442
1217.8673	1685.1189
1218.4785	1675.251
1219.0896	1643.1399
1219.7008	1630.7196
1220.312	1619.2057
1220.9232	1588.0177
1221.5344	1550.6493
1222.1456	1525.2549
1222.7567	1502.4446
1223.3679	1472.5668
1223.9791	1467.8666
1224.5903	1440.6049
1225.2015	1403.0625
1225.8126	1406.9186
1226.4238	1400.3766
1227.035	1350.8347
1227.6462	1316.0337
1228.2574	1319.3679
1228.8685	1305.5846
1229.4797	1263.1224
1230.0909	1244.286
1230.7021	1222.8104
1231.3134	1196.6998
1231.9246	1207.6498
1232.5356	1188.1089
1233.1469	1154.9453
1233.7581	1138.0271
1234.3693	1108.0272
1234.9805	1101.5659
1235.5916	1074.655
1236.2028	1085.141
1236.814	1019.5304
1237.4252	1016.6703
1238.0364	1022.5944
1238.6476	1008.1979
1239.2587	1003.3967
1239.8699	1002.6112
1240.4811	986.46735
1241.0923	955.08807
1241.7035	951.5697
1242.3146	946.37708
1242.9258	913.0647
1243.537	916.48901
1244.1482	908.33344
1244.7594	879.14105
1245.3706	876.33331
1245.9817	888.98145
1246.5929	839.14307
1247.2041	863.17969
1247.8153	836.06207
1248.4265	821.73029
1249.0376	829.93097
1249.6488	836.64752
1250.26	813.63629
1250.8712	794.77441
1251.4824	809.44446
1252.0936	798.32898
1252.7047	794.4649
1253.3159	772.26318
1253.9271	766.0813
1254.5383	781.14594
1255.1495	816.72357
1255.7606	797.64386
1256.3718	759.16803
1256.983	749.81378
1257.5942	714.82037
1258.2054	739.90393
1258.8165	750.03754
1259.4277	758.52234
1260.0389	743.48242
1260.6501	711.9848
1261.2614	717.02161
1261.8726	724.13904
1262.4836	718.33337
1263.0948	707.63263
1263.7061	705.07312
1264.3173	700.60199
1264.9285	702.2619
1265.5396	727.08545
1266.1508	690.51764
1266.762	708.49139
1267.3732	701.45612
1267.9844	703.83649
1268.5956	691.74194
1269.2067	696.43481
1269.8179	676.30176
1270.4291	667.01923
1271.0403	667.56989
1271.6515	670.92377
1272.2626	684.91132
1272.8738	683.66785
1273.485	697.41827
1274.0962	667.06097
1274.7074	668.95728
1275.3186	672.71637
1275.9297	650.83704
1276.5409	691.3902
1277.1521	665.39667
1277.7633	664.75281
1278.3745	667.13232
1278.9856	668.61218
1279.5968	669.98651
1280.208	678.36328
1280.8192	650.375
1281.4304	640.35791
1282.0415	642.87537
1282.6527	645.06183
1283.2639	658.92938
1283.8751	629.10858
1284.4863	660.96204
1285.0975	657.6662
1285.7086	644.30823
1286.3198	661.06042
1286.931	642.56525
1287.5422	629.85284
1288.1534	652.10504
1288.7645	649.61456
1289.3757	639.59442
1289.9869	642.35669
1290.5981	656.76349
1291.2094	639.35577
1291.8206	615.42474
1292.4316	623.87921
1293.0428	634.56219
1293.6541	653.23431
1294.2653	622.87335
1294.8765	607.11768
1295.4875	620.3877
1296.0988	632.52728
1296.71	638.42957
1297.3212	639.69702
1297.9324	637.99005
1298.5436	642.16919
1299.1547	623.88287
1299.7659	629.02313
1300.3771	631.13177
1300.9883	635.1203
1301.5995	632.02777
1302.2106	635.27557
1302.8218	635.18005
1303.433	621.54303
1304.0442	636.9856
1304.6554	628.49066
1305.2666	618.45605
1305.8777	628.3114
1306.4889	609.84644
1307.1001	600.21997
1307.7113	622.23187
1308.3225	634.10425
1308.9336	619.77234
1309.5448	620.78674
1310.156	622.22534
1310.7672	635.99084
1311.3784	614.42303
1311.9895	614.30469
1312.6007	620.65338
1313.2119	614.13348
1313.8231	618.25775
1314.4343	609.44373
1315.0455	610.61896
1315.6566	599.96155
1316.2678	599.4826
1316.879	615.96808
1317.4902	605.98047
1318.1014	619.84845
1318.7125	607.53357
1319.3237	640.80603
1319.9349	612.31976
1320.5461	608.08063
1321.1573	608.44916
1321.7686	611.4483
1322.3796	596.1156
1322.9908	595.26306
1323.6021	603.69086
1324.2133	609.55164
1324.8245	603.53052
1325.4355	579.85333
1326.0468	590.4494
1326.658	616.83661
1327.2692	603.66895
1327.8804	607.16144
1328.4916	604.7168
1329.1027	587.34534
1329.7139	598.91602
1330.3251	600.7558
1330.9363	592.81293
1331.5475	599.59808
1332.1586	599.78137
1332.7698	609.7168
1333.381	604.48969
1333.9922	574.25562
1334.6034	613.24103
1335.2145	591.49805
1335.8257	597.63727
1336.4369	605.008
1337.0481	605.78326
1337.6593	592.88477
1338.2705	616.55457
1338.8816	619.54736
1339.4928	604.35559
1340.104	610.45526
1340.7152	602.97058
1341.3264	593.3255
1341.9375	580.78363
1342.5487	596.04761
1343.1599	600.30524
1343.7711	607.79291
1344.3823	597.1983
1344.9935	584.78168
1345.6046	584.14459
1346.2158	587.77112
1346.827	593.45459
1347.4382	583.13623
1348.0494	579.10901
1348.6605	608.00922
1349.2717	592.89069
1349.8829	600.62384
1350.4941	606.27942
1351.1053	583.80847
1351.7166	591.61224
1352.3276	581.2821
1352.9388	597.98273
1353.55	595.1886
1354.1613	588.08917
1354.7725	589.36566
1355.3835	610.45667
1355.9948	601.76813
1356.606	594.51105
1357.2172	582.25909
1357.8284	604.29871
1358.4396	594.51642
1359.0507	589.69299
1359.6619	609.30261
1360.2731	610.93445
1360.8843	598.23694
1361.4955	593.19458
1362.1066	596.31079
1362.7178	588.09814
1363.329	588.08423
1363.9402	589.49829
1364.5514	597.24176
1365.1625	610.33533
1365.7737	613.03094
1366.3849	596.10883
1366.9961	592.61078
1367.6073	590.18787
1368.2185	575.75372
1368.8296	580.10303
1369.4408	584.12341
1370.052	590.17584
1370.6632	592.16553
1371.2744	589.74048
1371.8855	562.66425
1372.4967	611.66119
1373.1079	600.67822
1373.7191	604.16266
1374.3303	604.7525
1374.9415	603.79956
1375.5526	610.48767
1376.1638	605.1897
1376.775	593.50073
1377.3862	583.96704
1377.9974	575.73907
1378.6085	608.89081
1379.2197	608.56128
1379.8309	604.39288
1380.4421	603.18213
1381.0533	597.92328
1381.6646	602.74469
1382.2756	583.34137
1382.8868	599.77203
1383.498	603.82965
1384.1093	573.20673
1384.7205	585.85388
1385.3315	612.18506
1385.9427	612.64789
1386.554	596.68829
1387.1652	596.45001
1387.7764	605.10071
1388.3875	592.5094
1388.9987	577.97418
1389.6099	583.22485
1390.2211	602.51208
1390.8323	610.40265
1391.4435	591.43085
1392.0546	574.26245
1392.6658	588.42157
1393.277	587.43347
1393.8882	601.38306
1394.4994	597.18054
1395.1105	597.98615
1395.7217	626.23291
1396.3329	580.37793
1396.9441	560.51288
1397.5553	560.37402
1398.1665	598.65161
1398.7776	623.23743
1399.3888	603.65076
1400	594.84174
