15.057955	7687.5127
15.669138	9052.4668
16.280321	10320.878
16.891506	10658.918
17.502689	10861.058
18.113873	10972.214
18.725056	11068.263
19.336241	11284.555
19.947424	11498.864
20.558607	11704.998
21.16979	11945.32
21.780975	12166.728
22.392159	12382.736
23.003342	12481.064
23.614525	12659.901
24.225708	12955.787
24.836893	13310.857
25.448076	13557.371
26.059259	13691.836
26.670443	14010.837
27.281628	14225.191
27.892811	14316.059
28.503994	14627.557
29.115177	14614.328
29.72636	14730.112
30.337545	14953.211
30.948729	15233.698
31.559912	15430.083
32.171097	15478.769
32.78228	15571.662
33.393463	15793.665
34.004646	15932.451
34.615829	15915.258
35.227013	16146.453
35.838196	16385.641
36.449383	16629.264
37.060566	16759.457
37.671749	16786.982
38.282932	16773.725
38.894115	16728.389
39.505299	16699.996
40.116482	16736.912
40.727665	16925.25
41.338848	17034.813
41.950035	17129.195
42.561218	17206.328
43.172401	17265.514
43.783585	17367.182
44.394768	17477.488
45.005951	17425.949
45.617134	17213.646
46.228317	17267.734
46.8395	17342.223
47.450687	17414.246
48.061871	17481.699
48.673054	17512.139
49.284237	17609.949
49.89542	17525.172
50.506603	17500.908
51.117786	17577.803
51.72897	17521.549
52.340153	17448.813
52.95134	17311.318
53.562523	17294.092
54.173706	17231.334
54.784889	17336.916
55.396072	17210.398
56.007256	17172.621
56.618439	17186.24
57.229622	17193.037
57.840809	17227.496
58.451992	17346.607
59.063175	17571.461
59.674358	17672.73
60.285542	17865.076
60.896725	17538.875
61.507908	17129.688
62.119091	16826.697
62.730274	16860.539
63.341461	16912.209
63.952644	16932.309
64.563828	16969.703
65.175011	16939.404
65.786194	16969.02
66.397377	16984.953
67.00856	16907.779
67.619743	16898.869
68.230927	16886.516
68.84211	16744.738
69.453293	16584.365
70.064476	16633.25
70.675659	16689.74
71.28685	16658.021
71.898033	16717.385
72.509216	16678.141
73.120399	16498.367
73.731583	16542.445
74.342766	16607.107
74.953949	16543.531
75.565132	16647.6
76.176315	16797.266
76.787498	16807.611
77.398682	16790.936
78.009865	16634.014
78.621048	16232.179
79.232231	16108.492
79.843414	16114.736
80.454597	16052.002
81.065781	16067.807
81.676964	15958.69
82.288155	16136.989
82.899338	16224.979
83.510521	16300.063
84.121704	16266.681
84.732887	16045.459
85.34407	15816.592
85.955254	15755.301
86.566437	15824.41
87.17762	15685.741
87.788803	15797.126
88.399986	15755.438
89.011169	15577.86
89.622353	15592.488
90.233536	15682.899
90.844719	15696.061
91.455902	15743.723
92.067085	15822.199
92.678276	15701.401
93.289459	15536.072
93.900642	15461.03
94.511826	15596.691
95.123009	15474.272
95.734192	15448.596
96.345375	15415.578
96.956558	15420.374
97.567741	15383.028
98.178925	15378.165
98.790108	15318.849
99.401291	15140.142
100.01247	15204.104
100.62366	15284.021
101.23484	15024.736
101.84602	15168.284
102.45721	15108.456
103.06839	15019.802
103.67958	14958.087
104.29076	14892.831
104.90195	14947.005
105.51313	15065.845
106.12431	15158.819
106.7355	15218.893
107.34668	15059.501
107.95786	15025.762
108.56905	14909.563
109.18023	14630.061
109.79141	14644.882
110.4026	14775.274
111.01378	14782.101
111.62496	14694.13
112.23615	14607.348
112.84733	14548.663
113.45851	14529.08
114.0697	14593.383
114.68089	14694.18
115.29207	14585.183
115.90325	14731.217
116.51443	14410.299
117.12562	14521.373
117.7368	14465.16
118.34798	14355.161
118.95917	14308.392
119.57035	14302.219
120.18153	14290.891
120.79272	14283.639
121.4039	14294.271
122.01508	14247.598
122.62627	14107.328
123.23745	14299.759
123.84863	14207.803
124.45982	14139.357
125.07101	14120.063
125.68219	14048.039
126.29337	13959.578
126.90456	13964.311
127.51574	13948.992
128.12692	13858.26
128.7381	13922.521
129.34929	13960.832
129.96048	13860.531
130.57166	13893.21
131.18285	13893.181
131.79402	13831.188
132.40521	13700.049
133.01639	13718.172
133.62758	13728.763
134.23875	13741.102
134.84995	13726.393
135.46112	13651.818
136.07231	13640.474
136.68349	13529.597
137.29468	13548.859
137.90585	13651.196
138.51704	13630.11
139.12822	13589.054
139.73941	13667.384
140.35059	13553.607
140.96178	13409.25
141.57297	13325.682
142.18414	13338.662
142.79533	13388.117
143.40651	13345.707
144.0177	13332.888
144.62888	13353.065
145.24007	13270.502
145.85124	13359.124
146.46243	13311.175
147.07361	13179.571
147.6848	13239.998
148.29597	13264.897
148.90717	13192.708
149.51834	13211.559
150.12953	13256.479
150.74071	13145.697
151.3519	13056.418
151.96309	13055.881
152.57426	13087.482
153.18546	13017.624
153.79663	13191.729
154.40782	13025.649
155.019	12995.891
155.63019	13033.651
156.24136	13002.758
156.85255	12995.944
157.46373	13021.574
158.07492	12987.63
158.6861	12922.924
159.29729	12881.265
159.90846	12790.355
160.51965	12830.36
161.13083	12825.272
161.74202	12818.904
162.35321	12894.597
162.96439	12939.604
163.57558	12934.511
164.18675	12925.168
164.79794	12869.61
165.40912	12831.289
166.02031	12873.605
166.63148	12911.429
167.24268	12932.73
167.85385	12870.411
168.46504	12922.572
169.07622	12950.761
169.68741	12889.473
170.29858	12761.454
170.90977	12898.045
171.52095	12917.445
172.13214	12826.736
172.74333	12804.848
173.35451	12879.484
173.9657	12879.911
174.57687	12767.181
175.18806	12836.578
175.79924	12875.639
176.41043	12818.359
177.02161	12852.096
177.6328	12862.725
178.24397	12797.667
178.85516	12815.726
179.46634	12815.026
180.07753	12790.809
180.68871	12788.127
181.2999	12835.656
181.91107	12849.528
182.52226	12753.648
183.13344	12719.835
183.74463	12831.72
184.35582	12800.579
184.967	12836.219
185.57819	12740.303
186.18936	12910.36
186.80055	12962.887
187.41173	12888.113
188.02292	12801.464
188.63409	12845.952
189.24529	12923.915
189.85646	12928.797
190.46765	12914.625
191.07883	12868.849
191.69002	12791.706
192.30119	12884.257
192.91238	12820.018
193.52356	12829.279
194.13475	12872.712
194.74594	12833.567
195.35712	12988.4
195.96831	13005.429
196.57948	12922.098
197.19067	12858.373
197.80185	12878.372
198.41304	12904.841
199.02422	12864.452
199.63541	12968.931
200.24658	13074.599
200.85777	13015.43
201.46895	13023.321
202.08014	13014.468
202.69131	13007.266
203.30251	13012.828
203.91368	13025.678
204.52487	13087.542
205.13606	13140.406
205.74724	13129.318
206.35843	13118.254
206.9696	13162.681
207.5808	13161.438
208.19197	13064.744
208.80316	13119.72
209.41434	13145.829
210.02553	13164.927
210.6367	13043.634
211.24789	13175.605
211.85907	13189.384
212.47026	13254.625
213.08144	13244.276
213.69263	13306.564
214.3038	13311.292
214.91499	13310.161
215.52618	13369.358
216.13736	13310.363
216.74855	13444.927
217.35973	13386.531
217.97092	13397.802
218.58209	13470.482
219.19328	13403.802
219.80446	13461.751
220.41565	13414.313
221.02682	13438.46
221.63802	13540.639
222.24919	13543.769
222.86038	13537.965
223.47156	13606.229
224.08275	13649.988
224.69392	13634.172
225.30511	13616.602
225.91631	13592.542
226.52748	13619.698
227.13867	13591.151
227.74985	13549.775
228.36104	13715.392
228.97221	13731.299
229.5834	13775.521
230.19458	13799.467
230.80577	13736.959
231.41695	13811.196
232.02814	13872.505
232.63931	13823.454
233.2505	13828.315
233.86168	13835.877
234.47287	13877.824
235.08405	13881.25
235.69524	14006.24
236.30641	13918.788
236.9176	13996.116
237.52879	14039.137
238.13997	14102.775
238.75116	14056.688
239.36234	14091.597
239.97353	14071.337
240.5847	14086.624
241.19589	14117.621
241.80707	14129.801
242.41826	14212.174
243.02943	14234.063
243.64063	14194.146
244.2518	14316.428
244.86299	14358.21
245.47417	14242.796
246.08536	14348.067
246.69653	14369.516
247.30772	14348.94
247.91891	14426.906
248.53009	14487.859
249.14128	14468.77
249.75246	14500.56
250.36365	14545.351
250.97482	14562.049
251.58601	14614.024
252.19719	14577.538
252.80838	14473.267
253.41956	14737.903
254.03075	14586.197
254.64192	14780.285
255.25311	14799.112
255.86429	14732.875
256.47546	14800.516
257.08667	14824.532
257.69785	14869.775
258.30902	14889.098
258.92023	14919.349
259.5314	14840.73
260.14258	14799.885
260.75375	14901.737
261.36496	14920.01
261.97614	14976.155
262.58731	14933.078
263.19849	15122.033
263.80969	15025.502
264.42087	15110.248
265.03204	15261.596
265.64322	15078.032
266.25443	15101.625
266.8656	15188.126
267.47678	15169.805
268.08795	15252.926
268.69916	15278.557
269.31033	15271.348
269.92151	15363.84
270.53271	15398.343
271.14389	15377.339
271.75507	15489.278
272.36624	15431.555
272.97745	15425.978
273.58862	15463.563
274.1998	15666.465
274.81097	15445.106
275.42218	15564.932
276.03336	15509.084
276.64453	15619.262
277.25571	15699.565
277.86691	15652.557
278.47809	15596.47
279.08926	15573.909
279.70047	15666.475
280.31165	15774.939
280.92282	15692.024
281.534	15739.529
282.1452	15818.327
282.75638	15929.826
283.36755	15942.464
283.97873	15941.045
284.58994	16067.697
285.20111	15901.47
285.81229	15953.196
286.42346	16018.905
287.03467	16062.765
287.64584	16092.601
288.25702	16114.239
288.86819	16159.873
289.4794	16172.388
290.09058	16123.513
290.70175	16125.918
291.31296	16193.209
291.92413	16230.006
292.53531	16304.148
293.14648	16237.369
293.75769	16194.752
294.36887	16265.673
294.98004	16303.39
295.59122	16328.293
296.20242	16383.924
296.8136	16373.681
297.42477	16397.584
298.03595	16402.096
298.64716	16480.607
299.25833	16507.895
299.86951	16487.008
300.48068	16523.455
301.09189	16527.646
301.70306	16557.551
302.31424	16534.018
302.92545	16559.451
303.53662	16659.473
304.1478	16685.555
304.75897	16651.131
305.37018	16767.801
305.98135	16705.541
306.59253	16663.689
307.2037	16799.213
307.81491	16749.611
308.42609	16778.781
309.03726	16723.771
309.64844	16721.209
310.25964	16838.373
310.87082	16941.449
311.48199	17010.973
312.0932	16910.461
312.70438	16846.76
313.31555	16928.412
313.92673	17011.012
314.53793	16938.975
315.14911	16987.145
315.76028	17060.848
316.37146	17101.41
316.98267	17120.357
317.59384	17015.432
318.20502	17089.996
318.81619	17047.549
319.4274	17067.4
320.03857	17166.539
320.64975	17206.246
321.26093	17208.287
321.87213	17227.83
322.48331	17231.918
323.09448	17248.008
323.70569	17358.154
324.31686	17370.424
324.92804	17392.023
325.53922	17382.592
326.15042	17384.482
326.7616	17479.811
327.37277	17489.201
327.98395	17492.377
328.59515	17614.207
329.20633	17571.139
329.8175	17545.928
330.42868	17555.857
331.03989	17559.182
331.65106	17604.002
332.26224	17622.389
332.87344	17661.848
333.48462	17795.961
334.09579	17821.027
334.70697	17858.85
335.31818	18023.012
335.92935	17889.057
336.54053	17854.912
337.1517	18072.811
337.76291	18154.23
338.37408	18060.287
338.98526	18047.508
339.59644	18044.592
340.20764	18061.621
340.81882	18112.424
341.42999	18188.629
342.04117	18326.32
342.65237	18369.877
343.26355	18447.957
343.87473	18535.715
344.48593	18518.633
345.09711	18542.139
345.70828	18550.309
346.31946	18561.205
346.93066	18610.541
347.54184	18542.68
348.15302	18621.943
348.76419	18722.455
349.3754	18673.164
349.98657	18610.834
350.59775	18683.602
351.20892	18795.428
351.82013	18895.543
352.4313	19009.889
353.04248	19062.271
353.65366	19081.531
354.26486	19135.861
354.87604	19134.703
355.48721	19186.256
356.09842	19283.783
356.70959	19255.213
357.32077	19247.381
357.93195	19329.537
358.54315	19392.336
359.15433	19410.004
359.7655	19337.441
360.37668	19366.34
360.98788	19692.377
361.59906	19634.967
362.21024	19749.221
362.82141	19750.598
363.43262	19856.785
364.04379	19912.049
364.65497	19966.207
365.26617	19951.381
365.87735	19850.414
366.48853	19930.979
367.0997	20012.031
367.71091	20094.104
368.32208	20148.395
368.93326	20089.18
369.54443	20159.979
370.15564	20250.832
370.76682	20353.926
371.37799	20458.869
371.98917	20517.359
372.60037	20634.869
373.21155	20589.711
373.82272	20432.369
374.4339	20517.855
375.0451	20698.486
375.65628	20605.238
376.26746	20667.465
376.87866	20617.553
377.48984	20712.402
378.10101	20813.211
378.71219	20825.982
379.32339	20816.438
379.93457	20989.615
380.54575	21060.475
381.15692	21004.07
381.76813	21057.084
382.3793	21091.971
382.99048	21189.857
383.60165	21147.691
384.21286	21155.506
384.82404	21084.861
385.43521	21309.273
386.04642	21347.219
386.65759	21324.029
387.26877	21330.715
387.87994	21413.77
388.49115	21424.545
389.10233	21396.961
389.7135	21509.912
390.32468	21659.607
390.93588	21654.598
391.54706	21701.734
392.15823	21666.465
392.76941	21627.516
393.38062	21701.652
393.99179	21846.018
394.60297	21938.963
395.21414	21937.514
395.82535	21910.094
396.43652	21826.861
397.0477	21828.396
397.65891	22015.674
398.27008	21902.803
398.88126	22048.734
399.49243	22076.424
400.10364	22208.014
400.71481	21978.508
401.32599	22055.145
401.93716	22116.631
402.54837	22065.961
403.15955	22220.912
403.77072	22404.305
404.3819	22411.555
404.9931	22424.777
405.60428	22454.887
406.21545	22362.729
406.82663	22293.174
407.43784	22316.277
408.04901	22472.947
408.66019	22564.471
409.27139	22483.551
409.88257	22546.346
410.49374	22579.475
411.10492	22541.514
411.71613	22708.148
412.3273	22730.125
412.93848	22816.297
413.54965	22931.975
414.16086	22927.402
414.77203	22979.297
415.38321	22813.064
415.99438	22890.248
416.60559	22871.98
417.21677	22921.572
417.82794	22969.596
418.43915	23020.221
419.05032	22938.449
419.6615	23080.59
420.27267	23014.773
420.88388	22995.201
421.49506	23112.996
422.10623	23201.656
422.71741	23334.92
423.32861	23348.646
423.93979	23315.164
424.55096	23470.059
425.16214	23379.367
425.77335	23259.848
426.38452	23325.023
426.9957	23489.99
427.60687	23604.996
428.21808	23602.885
428.82925	23371.523
429.44043	23410.229
430.05164	23419.354
430.66281	23580.695
431.27399	23813.605
431.88516	23719.381
432.49637	23761.387
433.10754	23815.35
433.71872	23768.045
434.3299	23679.629
434.9411	23738.564
435.55228	23816.789
436.16345	23928.574
436.77463	23885.604
437.38583	23862.391
437.99701	23808.82
438.60818	23667.26
439.21936	23673.84
439.83057	23798.52
440.44174	23917.791
441.05292	23923.088
441.66412	24003.895
442.2753	24081.748
442.88647	23993.025
443.49765	23929.531
444.10886	23771.764
444.72003	23809.58
445.33121	23954.063
445.94238	24004.029
446.55359	23913.305
447.16476	23943.932
447.77594	23723.783
448.38712	23756.426
448.99832	23803.602
449.6095	23808.904
450.22067	23916.539
450.83188	24013.578
451.44305	23945.506
452.05423	23800.381
452.66541	23729.598
453.27661	23695.447
453.88779	23694.26
454.49896	23694.283
455.11014	23736.82
455.72134	23808.088
456.33252	23719.979
456.9437	23546.441
457.55487	23517.844
458.16608	23572
458.77725	23461.939
459.38843	23487.506
459.9996	23538.25
460.61081	23521.031
461.22198	23425.068
461.83316	23349.648
462.44437	23304.189
463.05554	23182.479
463.66672	22986.203
464.27789	23055.561
464.8891	23271.863
465.50027	23182.219
466.11145	23114.02
466.72263	22932.529
467.33383	23004.193
467.94501	22987.811
468.55618	22904.986
469.16736	22960.262
469.77856	23078.986
470.38974	23098.602
471.00092	22949.645
471.61212	22913.447
472.2233	22916.832
472.83447	22893.676
473.44565	23051.613
474.05685	23156.443
474.66803	23081.113
475.27921	23100.611
475.89038	23118.068
476.50159	23063.023
477.11276	23135.443
477.72394	23202.137
478.33511	23421.695
478.94632	23591.824
479.5575	23515.395
480.16867	23521.965
480.77985	23519.748
481.39105	23793.98
482.00223	23581.047
482.6134	23777.971
483.22461	23916.125
483.83578	23924.041
484.44696	23972.4
485.05814	24019.609
485.66934	23806.324
486.28052	23643.578
486.89169	23715.205
487.50287	23785.561
488.11407	23739.941
488.72525	23741.352
489.33643	23512.664
489.9476	23297.627
490.55881	23186.359
491.16998	23042.086
491.78116	22958.844
492.39233	22909.262
493.00354	22800.955
493.61472	22607.98
494.22589	22353.305
494.8371	22137.09
495.44827	21802.441
496.05945	21478.611
496.67062	21473.844
497.28183	21320.48
497.89301	21000.941
498.50418	20595.93
499.11536	20431.643
499.72656	20057.623
500.33774	19750.48
500.94891	19462.594
501.56009	19371.998
502.1713	19182.672
502.78247	18843.324
503.39365	18392.492
504.00485	18201.236
504.61603	17862.494
505.2272	17521.094
505.83838	17332.104
506.44958	17105.121
507.06076	16868.111
507.67194	16521.732
508.28311	16281.111
508.89432	15940.24
509.50549	15652.736
510.11667	15468.714
510.72784	15290.504
511.33905	15037.335
511.95023	14803.907
512.5614	14551.416
513.17261	14250.5
513.78375	13925.821
514.39496	13649.105
515.00616	13396.178
515.61731	13119.277
516.22852	12987.455
516.83972	12854.213
517.45087	12603.675
518.06207	12331.449
518.67322	12094.746
519.28442	11989.11
519.89563	11909.959
520.50677	11700.45
521.11798	11572.515
521.72919	11497.998
522.34033	11291.699
522.95154	11015.162
523.56268	10768.378
524.17389	10659.375
524.7851	10571.235
525.39624	10544.391
526.00745	10391.108
526.61865	10241.613
527.2298	10096.387
527.841	9982.9014
528.45221	9911.3965
529.06335	9754.5313
529.67456	9788.6826
530.28571	9572.6357
530.89691	9521.085
531.50812	9461.9746
532.11926	9333.6885
532.73047	9184.8477
533.34167	9068.4199
533.95282	9105.2441
534.56403	9131.3066
535.17517	8974.6426
535.78638	8842.1328
536.39758	8772.4854
537.00873	8650.46
537.61993	8530.9102
538.23114	8516.498
538.84229	8525.3623
539.45349	8445.4971
540.0647	8379.9512
540.67584	8370.0439
541.28705	8264.0859
541.89819	8110.2202
542.5094	8087.4043
543.12061	8107.4502
543.73175	8079.5342
544.34296	8078.1143
544.95416	8003.5815
545.56531	7933.124
546.17651	7839.3452
546.78772	7782.2393
547.39886	7702.1914
548.01007	7656.1108
548.62122	7764.6987
549.23242	7608.2598
549.84363	7551.3604
550.45477	7585.814
551.06598	7550.2485
551.67719	7425.7573
552.28833	7405.2095
552.89954	7364.1758
553.51068	7415.292
554.12189	7376.6528
554.73309	7342.6348
555.34424	7255.8477
555.95544	7201.1797
556.56665	7137.4819
557.1778	7111.7285
557.789	7211.7515
558.40021	7165.1528
559.01135	7206.6958
559.62256	7182.8306
560.2337	7101.2354
560.84491	7062.5996
561.45612	7033.7305
562.06726	7029.9209
562.67847	7075.4067
563.28967	7043.9072
563.90082	7022.1929
564.51202	7037.731
565.12317	6978.9233
565.73438	6905.4771
566.34558	6904.9419
566.95673	6935.7612
567.56793	6994.8813
568.17914	7003.8779
568.79028	6934.5864
569.40149	6917.4048
570.0127	6933.4414
570.62384	6891.6465
571.23505	6880.2324
571.84619	6929.688
572.4574	6932.4473
573.0686	6912.1821
573.67975	6838.3486
574.29095	6829.5186
574.90216	6859.2134
575.51331	6811.3198
576.12451	6822.752
576.73566	6878.2407
577.34686	6878.2114
577.95807	6840.4336
578.56921	6842.3569
579.18042	6706.2217
579.79163	6702.6406
580.40277	6800.3428
581.01398	6845.248
581.62518	6762.752
582.23633	6811.7915
582.84753	6873.3286
583.45868	6902.2803
584.06989	6819.0112
584.68109	6781.1377
585.29224	6865.0449
585.90344	6920.082
586.51465	6979.6919
587.12579	6932.9404
587.737	6939.2573
588.34814	6982.8022
588.95935	7057.1851
589.57056	7036.2402
590.1817	7131.8037
590.79291	7269.4937
591.40411	7302.123
592.01526	7276.4346
592.62646	7312.7852
593.23767	7275.6953
593.84882	7356.6118
594.46002	7372.3721
595.07117	7414.8208
595.68237	7377.5605
596.29358	7427.355
596.90472	7428.0205
597.51593	7411.2646
598.12714	7394.4141
598.73828	7407.7212
599.34949	7429.3843
599.96069	7465.4395
600.57184	7451.666
601.18304	7408.3765
601.79419	7315.7456
602.4054	7336.6909
603.0166	7213.4897
603.62775	7080.25
604.23895	7063.4087
604.85016	7020.5835
605.4613	6966.4609
606.07251	6874.2886
606.68365	6754.4585
607.29486	6676.2876
607.90607	6588.6973
608.51721	6538.5024
609.12842	6524.001
609.73962	6438.0215
610.35077	6360.417
610.96198	6291.5146
611.57318	6153.8667
612.18433	6072.4199
612.79553	5982.2563
613.40668	5874.3237
614.01788	5803.147
614.62909	5746.2246
615.24023	5668.8672
615.85144	5555.8545
616.46265	5494.7539
617.07379	5386.2437
617.685	5303.1128
618.29614	5263.5635
618.90735	5181.0488
619.51855	5128.7524
620.1297	5086.5635
620.74091	4993.5195
621.35211	4885.7578
621.96326	4807.3838
622.57446	4778.6699
623.18567	4675.0425
623.79681	4627.8975
624.40802	4629.4331
625.01917	4582.2979
625.63037	4456.4556
626.24158	4402.2983
626.85272	4357.1826
627.46393	4325.2051
628.07513	4289.4038
628.68628	4283.6074
629.29749	4199.8506
629.90863	4150.7744
630.51984	4064.2532
631.13104	4038.366
631.74219	4002.6509
632.35339	3948.4421
632.9646	3928.5115
633.57574	3875.8015
634.18695	3880.7136
634.79816	3790.3638
635.4093	3751.0935
636.02051	3724.3508
636.63165	3720.5515
637.24286	3692.6265
637.85406	3656.283
638.46521	3666.2373
639.07642	3642.6609
639.68762	3611.7327
640.29877	3530.8889
640.90997	3551.1643
641.52112	3536.6206
642.13232	3474.7205
642.74353	3497.9087
643.35468	3486.2117
643.96588	3435.2075
644.57709	3402.4238
645.18823	3347.6494
645.79944	3361.719
646.41064	3339.2317
647.02179	3347.8596
647.633	3336.5476
648.24414	3294.5393
648.85535	3259.2935
649.46655	3229.928
650.0777	3221.8267
650.6889	3208.772
651.30011	3186.2505
651.91125	3163.9307
652.52246	3130.1528
653.13367	3150.3542
653.74481	3202.6921
654.35602	3129.0256
654.96716	3094.4949
655.57837	3108.1904
656.18958	3070.4512
656.80072	3066.7715
657.41193	3080.1406
658.02313	3077.5183
658.63428	3008.3232
659.24548	3035.51
659.85663	3044.0068
660.46783	2997.3552
661.07904	2999.3767
661.69019	2981.3713
662.30139	2998.2036
662.9126	2957.3223
663.52374	2927.1831
664.13495	2919.0684
664.74615	2935.8447
665.3573	2920.5261
665.96851	2895.8845
666.57965	2913.2219
667.19086	2916.238
667.80206	2887.1631
668.41321	2905.7283
669.02441	2907.6401
669.63562	2882.5349
670.24677	2845.3308
670.85797	2851.4602
671.46912	2881.9309
672.08032	2871.8853
672.69153	2863.2314
673.30267	2859.9297
673.91388	2855.3687
674.52509	2846.8103
675.13623	2838.8364
675.74744	2840.4939
676.35864	2827.4111
676.96979	2815.0823
677.58099	2809.9773
678.19214	2785.7061
678.80334	2778.5696
679.41455	2808.7915
680.0257	2803.3103
680.6369	2790.0032
681.24811	2781.4041
681.85925	2810.2998
682.47046	2788.5466
683.0816	2762.7224
683.69281	2750.321
684.30402	2767.9841
684.91516	2735.1609
685.52637	2740.4133
686.13757	2737.0146
686.74872	2747.2947
687.35992	2658.822
687.97113	2731.6614
688.58228	2742.8069
689.19348	2751.7703
689.80463	2777.9331
690.41583	2767.4714
691.02704	2765.2729
691.63818	2738.5693
692.24939	2729.6597
692.8606	2720.4436
693.47174	2745.917
694.08295	2722.7466
694.69409	2677.0945
695.3053	2740.7988
695.9165	2672.5364
696.52765	2728.2297
697.13885	2682.8396
697.75006	2699.7354
698.36121	2712.2476
698.97241	2720.5295
699.58362	2724.9688
700.19476	2690.6035
700.80597	2699.554
701.41711	2701.6895
702.02832	2694.2246
702.63953	2731.9585
703.25067	2658.8391
703.86188	2678.0859
704.47308	2702.2764
705.08423	2707.4893
705.69543	2665.5754
706.30664	2672.2971
706.91779	2697.2632
707.52899	2676.5562
708.14014	2680.9016
708.75134	2715.0073
709.36255	2702.9543
709.97369	2687.7424
710.5849	2690.3242
711.19611	2699.6768
711.80725	2692.072
712.41846	2701.0178
713.0296	2713.4792
713.64081	2715.9487
714.25201	2705.967
714.86316	2696.4021
715.47437	2685.4504
716.08557	2679.1292
716.69672	2692.7324
717.30792	2715.4924
717.91913	2721.5103
718.53027	2734.7986
719.14148	2750.2014
719.75262	2759.8389
720.36383	2740.6443
720.97504	2713.1331
721.58618	2709.4927
722.19739	2691.6943
722.80859	2711.5027
723.41974	2709.1592
724.03094	2690.1123
724.64209	2712.8647
725.2533	2749.6965
725.8645	2751.844
726.47565	2739.7605
727.08685	2703.0654
727.69806	2717.8384
728.3092	2776.1831
728.92041	2780.2756
729.53162	2800.4553
730.14276	2787.1416
730.75397	2774.7637
731.36511	2780.5122
731.97632	2808.3127
732.58752	2793.1902
733.19867	2829.8059
733.80988	2764.6245
734.42108	2734.6899
735.03223	2733.7412
735.64343	2770.5718
736.25458	2748.5879
736.86578	2809.0466
737.47699	2798.252
738.08813	2796.7075
738.69934	2818.5635
739.31055	2821.0518
739.92169	2812.3347
740.5329	2800.6057
741.1441	2754.6792
741.75525	2803.4792
742.36646	2859.4255
742.9776	2878.9001
743.58881	2842.8821
744.20001	2829.8325
744.81116	2828.9045
745.42236	2812.7512
746.03357	2854.9551
746.64471	2848.4658
747.25592	2904.3445
747.86707	2941.5354
748.47827	2916.134
749.08948	2909.0999
749.70062	2932.615
750.31183	2922.7249
750.92303	2937.272
751.53418	2904.9229
752.14539	2925.2583
752.75659	3012.2161
753.36774	3014.9624
753.97894	2980.9856
754.59009	3043.0181
755.20129	2962.1055
755.8125	2968.4797
756.42365	3075.4009
757.03485	3068.9644
757.64606	3104.9324
758.2572	3097.4048
758.86841	3050.5562
759.47955	3144.1292
760.09076	3142.0266
760.70197	3138.5596
761.31311	3179.3101
761.92432	3181.4824
762.53552	3257.0105
763.14667	3255.6113
763.75787	3306.8569
764.36908	3292.0872
764.98022	3317.908
765.59143	3332.4065
766.20258	3376.4717
766.81378	3383.7407
767.42499	3390.1895
768.03613	3443.4309
768.64734	3507.7786
769.25854	3480.9336
769.86969	3508.5735
770.4809	3562.0173
771.0921	3585.1387
771.70325	3568.3132
772.31445	3583.2458
772.9256	3677.5369
773.5368	3696.0891
774.14801	3707.6201
774.75916	3828.6938
775.37036	3801.7678
775.98157	3862.312
776.59271	3901.0083
777.20392	3875.6174
777.81506	3923.761
778.42627	3960.9226
779.03748	3955.7896
779.64862	4040.6536
780.25983	4065.3845
780.87103	4033.8167
781.48218	4062.759
782.09338	4101.4097
782.70459	4104.5571
783.31573	4086.3784
783.92694	4180.5601
784.53809	4220.3989
785.14929	4216.7119
785.7605	4200.1748
786.37164	4154.626
786.98285	4200.3813
787.59406	4276.3169
788.2052	4229.4922
788.81641	4258.9561
789.42755	4333.7578
790.03876	4331.478
790.64996	4284.645
791.26111	4309.6309
791.87231	4273.7393
792.48352	4295.5474
793.09467	4337.7202
793.70587	4292.6333
794.31708	4283.4141
794.92822	4334.8853
795.53943	4362.4814
796.15057	4339.2134
796.76178	4337.4727
797.37299	4396.6968
797.98413	4323.2695
798.59534	4346.2046
799.20654	4301.9521
799.81769	4391.771
800.42889	4352.7578
801.04004	4310.5576
801.65125	4323.5205
802.26245	4293.9072
802.8736	4327.4897
803.4848	4233.7695
804.09601	4317.2803
804.70715	4335.3633
805.31836	4266.6699
805.92957	4292.7285
806.54071	4289.1821
807.15192	4286.5972
807.76306	4323.8833
808.37427	4265.6382
808.98547	4233.1812
809.59662	4194.25
810.20782	4208.2617
810.81903	4250.5356
811.43018	4209.354
812.04138	4185.5698
812.65253	4181.5083
813.26373	4149.8271
813.87494	4121.5029
814.48608	4066.4478
815.09729	4095.6936
815.7085	4105.0835
816.31964	4145.769
816.93085	4059.3555
817.54205	4067.3013
818.1532	4015.229
818.7644	4031.9038
819.37555	4043.7734
819.98676	3953.8042
820.59796	3904
821.20911	3903.293
821.82031	3893.5332
822.43152	3890.7891
823.04266	3910.2024
823.65387	3803.5989
824.26508	3840.4761
824.87622	3780.304
825.48743	3761.178
826.09857	3809.7048
826.70978	3721.1846
827.32098	3649.6455
827.93213	3643.6584
828.54333	3600.8882
829.15454	3584.0798
829.76569	3530.946
830.37689	3551.3784
830.98804	3533.4749
831.59924	3489.7222
832.21045	3388.5334
832.82159	3349.7668
833.4328	3353.0183
834.04401	3293.6748
834.65515	3255.6841
835.26636	3277.1311
835.87756	3202.1892
836.48871	3135.967
837.09991	3132.197
837.71106	3080.5942
838.32227	3022.2051
838.93347	2982.2468
839.54462	2903.7068
840.15582	2856.8069
840.76703	2860.5959
841.37817	2812.5566
841.98938	2777.0835
842.60052	2696.6453
843.21173	2633.2659
843.82294	2613.5051
844.43408	2565.3127
845.04529	2545.2173
845.65649	2497.5449
846.26764	2444.0481
846.87885	2373.3335
847.49005	2354.7476
848.1012	2311.0708
848.7124	2246.7185
849.32355	2215.9626
849.93475	2194.6582
850.54596	2148.0815
851.1571	2121.1418
851.76831	2080.2129
852.37952	2037.6343
852.99066	2009.2557
853.60187	1953.2339
854.21301	1940.5132
854.82422	1947.9135
855.43542	1923.7109
856.04657	1875.9666
856.65778	1840.6704
857.26898	1822.5316
857.88013	1810.6891
858.49133	1796.6169
859.10254	1779.067
859.71368	1745.5662
860.32489	1718.469
860.93604	1726.675
861.54724	1709.2197
862.15845	1737.8783
862.76959	1649.614
863.3808	1649.614
863.992	1853.7098
864.60315	1641.9191
865.21436	1655.5363
865.8255	1672.7906
866.43671	1634.636
867.04791	1585.9077
867.65906	1615.192
868.27026	1583.9724
868.88147	1586.7415
869.49261	1605.769
870.10382	1592.5035
870.71503	1593.8212
871.32617	1563.0223
871.93738	1519.3365
872.54852	1540.2434
873.15973	1558.5691
873.77094	1552.5454
874.38208	1547.2761
874.99329	1521.0537
875.60449	1516.1044
876.21564	1519.4779
876.82684	1513.6085
877.43805	1541.6115
878.04919	1521.782
878.6604	1501.3831
879.27155	1517.2101
879.88275	1504.7128
880.49396	1494.2006
881.1051	1488.351
881.71631	1541.3992
882.32751	1523.9663
882.93866	1513.7292
883.54987	1527.6281
884.16101	1469.4191
884.77222	1499.2942
885.38342	1469.6902
885.99457	1464.4478
886.60577	1507.3826
887.21698	1493.7419
887.82813	1447.2275
888.43933	1427.9255
889.05054	1462.9554
889.66168	1474.5165
890.27289	1451.1149
890.88403	1497.7535
891.49524	1479.4336
892.10645	1462.5522
892.71759	1469.339
893.3288	1477.3525
893.94	1447.4883
894.55115	1438.7935
895.16235	1452.048
895.7735	1449.0005
896.3847	1468.9135
896.99591	1473.2783
897.60706	1467.6573
898.21826	1456.5552
898.82947	1435.8793
899.44061	1427.6486
900.05182	1439.3154
900.66302	1445.515
901.27417	1453.1152
901.88538	1421.5828
902.49652	1434.5532
903.10773	1417.4038
903.71893	1426.2032
904.33008	1427.4827
904.94128	1428.376
905.55249	1439.9679
906.16364	1423.7946
906.77484	1382.1257
907.38599	1408.1737
907.99719	1385.3733
908.6084	1403.4241
909.21954	1403.6492
909.83075	1408.2697
910.44196	1401.2119
911.0531	1383.1416
911.66431	1393.6757
912.27551	1369.0704
912.88666	1399.8701
913.49786	1390.5107
914.10901	1412.1979
914.72021	1382.9907
915.33142	1399.4817
915.94257	1383.1161
916.55377	1379.0043
917.16498	1379.6173
917.77612	1405.4435
918.38733	1362.2889
918.99847	1365.9539
919.60968	1386.799
920.22089	1385.3457
920.83203	1366.515
921.44324	1339.576
922.05444	1343.5769
922.66559	1344.6128
923.27679	1358.8973
923.888	1363.7148
924.49915	1344.3708
925.11035	1351.2388
925.7215	1348.1647
926.3327	1334.3301
926.94391	1328.3016
927.55505	1327.6014
928.16626	1321.2715
928.77747	1337.0311
929.38861	1332.3367
929.99982	1313.856
930.61102	1286.9971
931.22217	1318.0452
931.83337	1305.1116
932.44452	1300.1323
933.05573	1319.8103
933.66693	1288.4706
934.27808	1297.824
934.88928	1288.4175
935.50049	1290.5127
936.11163	1319.002
936.72284	1274.4528
937.33398	1288.9323
937.94519	1287.5295
938.5564	1291.1697
939.16754	1271.9922
939.77875	1261.3003
940.38995	1278.2614
941.0011	1273.5004
941.6123	1291.427
942.22351	1284.6865
942.83466	1270.8459
943.44586	1269.0085
944.05701	1243.8881
944.66821	1278.0496
945.27942	1228.6182
945.89056	1213.7021
946.50177	1266.7833
947.11298	1276.1761
947.72412	1272.2666
948.33533	1285.6138
948.94647	1271.0682
949.55768	1265.7936
950.16888	1268.3406
950.78003	1268.4988
951.39124	1254.1917
952.00244	1271.8892
952.61359	1260.795
953.22479	1242.6827
953.836	1259.7476
954.44714	1289.1136
955.05835	1287.0111
955.66949	1264.0306
956.2807	1267.058
956.89191	1256.4594
957.50305	1281.3933
958.11426	1297.4259
958.72546	1267.4987
959.33661	1296.5131
959.94781	1278.8778
960.55896	1287.3947
961.17017	1307.2559
961.78137	1292.5981
962.39252	1294.6927
963.00372	1297.4619
963.61493	1303.7568
964.22607	1313.1704
964.83728	1290.0157
965.44849	1317.7584
966.05963	1353.6685
966.67084	1359.9827
967.28198	1339.4868
967.89319	1343.8187
968.50439	1347.4141
969.11554	1357.5118
969.72675	1359.8699
970.33795	1373.583
970.9491	1386.4906
971.5603	1393.5217
972.17145	1403.3754
972.78265	1409.1272
973.39386	1412.8406
974.005	1411.1078
974.61621	1455.2537
975.22742	1458.1945
975.83856	1457.1809
976.44977	1475.7272
977.06097	1488.1348
977.67212	1427.8268
978.28333	1464.4324
978.89447	1501.6176
979.50568	1508.2626
980.11688	1496.9446
980.72803	1520.4099
981.33923	1506.4691
981.95044	1559.1637
982.56158	1566.5977
983.17279	1544.4836
983.784	1592.8131
984.39514	1588.7983
985.00635	1594.6127
985.61749	1586.8812
986.2287	1602.1147
986.8399	1602.0323
987.45105	1628.9202
988.06226	1659.9235
988.67346	1661.9667
989.28461	1688.3635
989.89581	1711.5763
990.50696	1709.3154
991.11816	1707.4355
991.72937	1691.1184
992.34052	1708.7429
992.95172	1738.2091
993.56293	1759.6147
994.17407	1787.9049
994.78528	1769.6708
995.39648	1809.8735
996.00763	1816.9989
996.61884	1812.9652
997.22998	1812.0491
997.84119	1875.7506
998.45239	1824.4515
999.06354	1920.6292
999.67474	1934.4207
1000.2859	1930.3604
1000.8971	1907.7891
1001.5083	1924.9263
1002.1194	1931.0082
1002.7307	1957.8835
1003.3419	1962.8457
1003.953	1996.1273
1004.5642	2000.0585
1005.1754	1976.1785
1005.7866	1993.9873
1006.3978	2026.7823
1007.009	2049.3809
1007.6201	2041.0308
1008.2313	2041.1786
1008.8425	2099.5544
1009.4537	2114.1877
1010.0649	2140.667
1010.676	2098.4226
1011.2872	2092.5566
1011.8984	2115.9287
1012.5096	2202.4504
1013.1208	2183.1245
1013.7319	2193.8525
1014.3431	2188.5691
1014.9543	2189.9292
1015.5655	2214.9629
1016.1767	2205.043
1016.7879	2210.834
1017.399	2264.7637
1018.0103	2267.4133
1018.6215	2285.5806
1019.2326	2275.3088
1019.8438	2313.7847
1020.455	2299.3442
1021.0662	2283.6248
1021.6774	2332.4797
1022.2885	2366.8677
1022.8997	2348.6199
1023.5109	2340.9534
1024.1221	2366.8301
1024.7333	2376.6401
1025.3445	2405.9895
1025.9557	2416.832
1026.5668	2441.4304
1027.178	2420.0991
1027.7892	2454.6252
1028.4004	2442.7852
1029.0116	2441.4915
1029.6227	2468.0474
1030.2339	2491.9006
1030.8451	2423.0859
1031.4563	2472.1309
1032.0675	2562.5161
1032.6787	2536.0107
1033.2898	2517.9619
1033.901	2486.6257
1034.5122	2506.8774
1035.1234	2534.9175
1035.7346	2539.9343
1036.3457	2535.9919
1036.9569	2572.627
1037.5681	2585.2788
1038.1793	2560.5225
1038.7905	2576.0671
1039.4017	2588.8044
1040.0128	2584.4983
1040.624	2584.7917
1041.2352	2599.9363
1041.8464	2610.1069
1042.4576	2602.5271
1043.0687	2631.2024
1043.6799	2601.5408
1044.2911	2628.2483
1044.9023	2605.5012
1045.5135	2651.8887
1046.1246	2719.011
1046.7358	2657.9465
1047.347	2691.7542
1047.9583	2687.3152
1048.5695	2645.9641
1049.1807	2666.0886
1049.7917	2706.3579
1050.403	2691.49
1051.0142	2723.8994
1051.6254	2736.8557
1052.2366	2690.0437
1052.8477	2684.3083
1053.4589	2663.2422
1054.0701	2693.3127
1054.6813	2731.3525
1055.2925	2726.4167
1055.9037	2755.1968
1056.5148	2668.094
1057.126	2695.7129
1057.7372	2674.0442
1058.3484	2652.1042
1058.9596	2716.1929
1059.5707	2711.4338
1060.1819	2621.2273
1060.7931	2696.9829
1061.4043	2685.3049
1062.0155	2670.8276
1062.6267	2646.1028
1063.2378	2688.9419
1063.849	2750.3013
1064.4602	2738.748
1065.0714	2712.5398
1065.6826	2744.2783
1066.2937	2757.9131
1066.9049	2686.1689
1067.5161	2664.5813
1068.1273	2704.5938
1068.7385	2720.5886
1069.3497	2682.3445
1069.9608	2662.7688
1070.572	2669.8076
1071.1832	2675.1807
1071.7944	2692.1001
1072.4056	2670.134
1073.0167	2712.4565
1073.6279	2689.2417
1074.2391	2716.7637
1074.8503	2706.876
1075.4615	2669.1687
1076.0726	2667.3647
1076.6838	2641.1377
1077.295	2643.9937
1077.9063	2649.0051
1078.5175	2628.4419
1079.1287	2622.7031
1079.7397	2622.9507
1080.351	2624.8333
1080.9622	2622.8733
1081.5734	2623.5186
1082.1846	2636.9563
1082.7957	2622.7939
1083.4069	2636.801
1084.0181	2637.0635
1084.6293	2661.0662
1085.2405	2610.4219
1085.8517	2600.6206
1086.4628	2545.9805
1087.074	2605.4468
1087.6852	2598.1665
1088.2964	2647.1929
1088.9076	2630.8196
1089.5187	2635.4441
1090.1299	2620.5205
1090.7411	2607.8911
1091.3523	2628.7114
1091.9635	2635.2375
1092.5747	2654.6084
1093.1858	2657.6145
1093.797	2662.1135
1094.4082	2665.4246
1095.0194	2642.585
1095.6306	2611.4956
1096.2417	2609.9929
1096.8529	2661.5876
1097.4641	2660.8984
1098.0753	2637.5825
1098.6865	2656.9917
1099.2976	2661.3792
1099.9088	2665.8462
1100.52	2670.8394
1101.1312	2668.0417
1101.7424	2685.8047
1102.3536	2729.1296
1102.9647	2747.8101
1103.5759	2751.6123
1104.1871	2764.9546
1104.7983	2773.7644
1105.4095	2775.8953
1106.0206	2809.5562
1106.6318	2870.1753
1107.243	2831.4209
1107.8542	2859.9805
1108.4655	2853.0378
1109.0767	2862.5977
1109.6877	2819.4282
1110.299	2918.3142
1110.9102	2937.2556
1111.5214	2962.083
1112.1326	2985.3545
1112.7437	2978.2114
1113.3549	3005.446
1113.9661	3065.2097
1114.5773	3051.6963
1115.1885	3054.4326
1115.7997	3093.0598
1116.4108	3146.3286
1117.022	3169.4216
1117.6332	3162.605
1118.2444	3147.79
1118.8556	3134.5405
1119.4667	3146.5579
1120.0779	3226.8184
1120.6891	3287.3464
1121.3003	3315.4197
1121.9115	3317.5007
1122.5227	3312.3091
1123.1338	3305.9805
1123.745	3301.6975
1124.3562	3362.8911
1124.9674	3372.9231
1125.5786	3449.064
1126.1897	3438.231
1126.8009	3429.2734
1127.4121	3431.4917
1128.0233	3470.6509
1128.6345	3440.2107
1129.2456	3404.6902
1129.8568	3492.2217
1130.468	3491.0806
1131.0792	3538.5476
1131.6904	3481.2979
1132.3016	3491.2158
1132.9127	3503.1108
1133.5239	3485.824
1134.1351	3532.4722
1134.7463	3560.3
1135.3575	3588.009
1135.9686	3588.7649
1136.5798	3589.6753
1137.191	3551.7207
1137.8022	3516.4377
1138.4135	3599.9929
1139.0247	3661.7795
1139.6357	3583.908
1140.2469	3617.9712
1140.8582	3649.9895
1141.4694	3583.9688
1142.0806	3596.124
1142.6917	3579.5049
1143.3029	3642.6228
1143.9141	3646.3003
1144.5253	3678.9739
1145.1365	3688.7214
1145.7477	3671.7546
1146.3588	3608.4902
1146.97	3608.1379
1147.5812	3643.8054
1148.1924	3703.7991
1148.8036	3685.1196
1149.4147	3703.2168
1150.0259	3674.0796
1150.6371	3673.6284
1151.2483	3640.3123
1151.8595	3646.1025
1152.4706	3650.6157
1153.0818	3677.217
1153.693	3695.2358
1154.3042	3717.4661
1154.9154	3717.2131
1155.5266	3670.0867
1156.1377	3639.3564
1156.7489	3639.1316
1157.3601	3623.6785
1157.9713	3676.083
1158.5825	3701.803
1159.1936	3741.093
1159.8048	3661.5261
1160.416	3649.281
1161.0272	3632.0027
1161.6384	3682.7625
1162.2496	3700.0063
1162.8607	3703.2166
1163.4719	3689.2651
1164.0831	3697.7644
1164.6943	3681.6985
1165.3055	3666.853
1165.9166	3633.9558
1166.5278	3638.3438
1167.139	3680.9966
1167.7502	3663.5173
1168.3615	3666.3557
1168.9727	3650.2495
1169.5837	3627.9714
1170.1949	3619.8979
1170.8062	3604.863
1171.4174	3601.6606
1172.0286	3656.6912
1172.6396	3639.3237
1173.2509	3626.8896
1173.8621	3607.3848
1174.4733	3585.5034
1175.0845	3549.7976
1175.6956	3562.6624
1176.3068	3589.5454
1176.918	3618.3735
1177.5292	3618.4368
1178.1404	3523.3982
1178.7516	3600.9285
1179.3627	3572.0347
1179.9739	3551.7566
1180.5851	3555.3767
1181.1963	3555.7786
1181.8075	3523.8677
1182.4186	3536.0967
1183.0298	3501.428
1183.641	3519.9932
1184.2522	3486.1414
1184.8634	3468.1372
1185.4746	3447.355
1186.0857	3451.8381
1186.6969	3456.6035
1187.3081	3490.1511
1187.9193	3424.625
1188.5305	3368.6404
1189.1416	3362.8496
1189.7528	3390.8274
1190.364	3379.3772
1190.9752	3366.3389
1191.5864	3360.0391
1192.1976	3364.5054
1192.8087	3315.0088
1193.4199	3316.5664
1194.0311	3286.8577
1194.6423	3266.1206
1195.2535	3257.8892
1195.8646	3279.9834
1196.4758	3293.8833
1197.087	3254.3721
1197.6982	3198.3237
1198.3094	3177.0867
1198.9207	3150.1563
1199.5317	3116.9121
1200.1429	3142.6118
1200.7542	3133.2573
1201.3654	3110.2024
1201.9766	3078.8418
1202.5876	3098.9602
1203.1989	3034.2847
1203.8101	2997.1577
1204.4213	3012.9822
1205.0325	3002.2327
1205.6436	2984.4854
1206.2548	2959.2014
1206.866	2919.0461
1207.4772	2903.467
1208.0884	2898.3926
1208.6996	2869.4104
1209.3107	2872.927
1209.9219	2831.9744
1210.5331	2792.4712
1211.1443	2765.6379
1211.7555	2762.8743
1212.3666	2724.3872
1212.9778	2711.1272
1213.589	2699.4917
1214.2002	2696.9998
1214.8114	2655.175
1215.4226	2617.6829
1216.0337	2615.6257
1216.6449	2543.1082
1217.2561	2514.0491
1217.8673	2484.3513
1218.4785	2496.405
1219.0896	2445.895
1219.7008	2426.5759
1220.312	2398.3396
1220.9232	2383.8538
1221.5344	2374.9802
1222.1456	2310.9614
1222.7567	2282.5645
1223.3679	2276.6179
1223.9791	2260.2644
1224.5903	2193.082
1225.2015	2207.4902
1225.8126	2144.9236
1226.4238	2122.6797
1227.035	2113.1663
1227.6462	2056.208
1228.2574	2025.6184
1228.8685	2064.0178
1229.4797	2008.9303
1230.0909	1988.5842
1230.7021	1936.2601
1231.3134	1921.061
1231.9246	1889.3853
1232.5356	1860.9148
1233.1469	1854.7305
1233.7581	1810.5847
1234.3693	1782.0187
1234.9805	1723.0361
1235.5916	1751.0474
1236.2028	1690.0588
1236.814	1633.5172
1237.4252	1631.6149
1238.0364	1628.6953
1238.6476	1568.9144
1239.2587	1568.452
1239.8699	1533.6399
1240.4811	1534.3326
1241.0923	1497.5015
1241.7035	1464.307
1242.3146	1419.5227
1242.9258	1408.6044
1243.537	1366.9342
1244.1482	1363.4303
1244.7594	1394.7589
1245.3706	1330.4863
1245.9817	1321.8661
1246.5929	1307.1011
1247.2041	1300.8519
1247.8153	1228.8541
1248.4265	1232.0179
1249.0376	1206.2159
1249.6488	1180.4222
1250.26	1138.0955
1250.8712	1102.8191
1251.4824	1109.8308
1252.0936	1119.3939
1252.7047	1109.9866
1253.3159	1081.0127
1253.9271	1049.7876
1254.5383	1050.0391
1255.1495	1049.1486
1255.7606	1017.2214
1256.3718	1006.2672
1256.983	961.86517
1257.5942	974.21954
1258.2054	936.18616
1258.8165	949.23694
1259.4277	923.89886
1260.0389	899.56812
1260.6501	893.90021
1261.2614	898.4201
1261.8726	903.93713
1262.4836	891.7757
1263.0948	894.63062
1263.7061	886.55737
1264.3173	858.4917
1264.9285	854.99994
1265.5396	858.98291
1266.1508	871.7597
1266.762	838.18097
1267.3732	809.32153
1267.9844	818.76984
1268.5956	817.2677
1269.2067	801.03271
1269.8179	813.71295
1270.4291	805.82819
1271.0403	796.94336
1271.6515	785.09467
1272.2626	788.44397
1272.8738	775.26752
1273.485	789.82452
1274.0962	759.69391
1274.7074	772.71301
1275.3186	789.82379
1275.9297	769.37543
1276.5409	767.3266
1277.1521	776.93939
1277.7633	761.30475
1278.3745	745.02844
1278.9856	756.82397
1279.5968	744.5401
1280.208	744.35944
1280.8192	742.27686
1281.4304	722.19983
1282.0415	755.52856
1282.6527	719.40393
1283.2639	718.47662
1283.8751	719
1284.4863	712.13806
1285.0975	754.17944
1285.7086	725.05615
1286.3198	737.86884
1286.931	726.35468
1287.5422	692.52625
1288.1534	706.57874
1288.7645	697.9704
1289.3757	714.48157
1289.9869	726.14685
1290.5981	710.00189
1291.2094	709.78387
1291.8206	701.10675
1292.4316	718.13092
1293.0428	718.88916
1293.6541	683.44843
1294.2653	695.56689
1294.8765	680.50732
1295.4875	682.55682
1296.0988	685.1109
1296.71	693.06061
1297.3212	695.21832
1297.9324	693.26282
1298.5436	688.854
1299.1547	694.79944
1299.7659	700.63715
1300.3771	695.90399
1300.9883	695
1301.5995	676.0376
1302.2106	693.37744
1302.8218	676.63263
1303.433	691.45972
1304.0442	694.47766
1304.6554	670.53247
1305.2666	683.49854
1305.8777	668.49695
1306.4889	671.36078
1307.1001	657.96112
1307.7113	664.77332
1308.3225	670.79797
1308.9336	664.05585
1309.5448	688.27039
1310.156	650.29681
1310.7672	677.8028
1311.3784	648.58215
1311.9895	664.47534
1312.6007	664.38397
1313.2119	657.20251
1313.8231	658.71204
1314.4343	649.33496
1315.0455	663.23669
1315.6566	659.4964
1316.2678	631.31116
1316.879	629.58197
1317.4902	645.24957
1318.1014	639.1391
1318.7125	668.60059
1319.3237	656.82709
1319.9349	641.6991
1320.5461	648.17358
1321.1573	638.09296
1321.7686	622.50549
1322.3796	630.28107
1322.9908	643.41656
1323.6021	633.57898
1324.2133	629.45837
1324.8245	634.79333
1325.4355	626.50159
1326.0468	652.03772
1326.658	639.70581
1327.2692	625.80756
1327.8804	616.85065
1328.4916	639.59338
1329.1027	654.70935
1329.7139	632.58917
1330.3251	631.26733
1330.9363	623.58746
1331.5475	629.25336
1332.1586	626.71509
1332.7698	622.63538
1333.381	626.26434
1333.9922	603.67926
1334.6034	613.021
1335.2145	635.15833
1335.8257	625.06366
1336.4369	623.2179
1337.0481	623.65552
1337.6593	619.68292
1338.2705	628.15594
1338.8816	606.52313
1339.4928	611.00153
1340.104	623.87598
1340.7152	621.99402
1341.3264	614.96497
1341.9375	642.10364
1342.5487	613.37659
1343.1599	637.40033
1343.7711	609.54919
1344.3823	593.19177
1344.9935	614.25372
1345.6046	620.30914
1346.2158	613.16571
1346.827	616.74664
1347.4382	607.68164
1348.0494	613.56195
1348.6605	616.86023
1349.2717	623.05084
1349.8829	616.13379
1350.4941	619.63464
1351.1053	593.86176
1351.7166	603.74554
1352.3276	611.43488
1352.9388	603.81641
1353.55	615.34473
1354.1613	604.87439
1354.7725	608.10406
1355.3835	600.54974
1355.9948	611.25867
1356.606	629.45282
1357.2172	603.11169
1357.8284	605.14478
1358.4396	627.98932
1359.0507	602.57776
1359.6619	621.75519
1360.2731	615.71606
1360.8843	605.57635
1361.4955	625.44128
1362.1066	627.83441
1362.7178	612.28552
1363.329	607.95691
1363.9402	613.87292
1364.5514	614.07581
1365.1625	614.85596
1365.7737	602.57776
1366.3849	609.56866
1366.9961	605.39948
1367.6073	612.35974
1368.2185	608.20355
1368.8296	604.55023
1369.4408	615.99652
1370.052	635.47687
1370.6632	617.1402
1371.2744	610.82806
1371.8855	619.18433
1372.4967	612.05212
1373.1079	590.96503
1373.7191	609.18152
1374.3303	625.74817
1374.9415	605.9632
1375.5526	615.42816
1376.1638	593.35767
1376.775	576.10583
1377.3862	611.0274
1377.9974	601.31299
1378.6085	617.72913
1379.2197	620.21704
1379.8309	607.09851
1380.4421	629.89532
1381.0533	608.05548
1381.6646	600.92456
1382.2756	603.90942
1382.8868	611.81403
1383.498	622.9798
1384.1093	628.78845
1384.7205	606.23761
1385.3315	627.02673
1385.9427	621.08112
1386.554	609.29041
1387.1652	586.63934
1387.7764	607.63666
1388.3875	624.76343
1388.9987	597.88531
1389.6099	612.64136
1390.2211	617.79266
1390.8323	612.82117
1391.4435	614.34747
1392.0546	619.81244
1392.6658	616.19153
1393.277	576.51373
1393.8882	586.98517
1394.4994	617.72687
1395.1105	614.26184
1395.7217	604.76819
1396.3329	592.63287
1396.9441	609.43347
1397.5553	620.45709
1398.1665	617.13336
1398.7776	599.33533
1399.3888	614.43225
1400	605.64044
