20.072487	4526.7832
20.661806	5412.8735
21.251125	6121.0532
21.840445	6491.3901
22.429762	6640.2192
23.019081	6710.3823
23.6084	6790.2651
24.19772	6916.7695
24.787039	7002.3354
25.376358	7275.1616
25.965677	7513.3662
26.554996	7694.2085
27.144314	7879.2456
27.733633	8034.0967
28.322952	8092.563
28.912271	8138.1323
29.501591	8000.8354
30.09091	8009.3945
30.680229	8106.7188
31.269547	8261.1748
31.858866	8350.7832
32.448185	8395.0732
33.037506	8518.2002
33.626823	8608.3779
34.216141	8733.1992
34.805462	8903.4111
35.394779	9137.5693
35.9841	9313.5166
36.573418	9347.9082
37.162739	9314.9121
37.752056	9354.3535
38.341373	9326.4941
38.930695	9229.1631
39.520012	9295.0752
40.109333	9391.6807
40.69865	9498.1641
41.287971	9541.0977
41.877289	9527.1641
42.466606	9623.6094
43.055927	9923.8965
43.645245	9974.7236
44.234566	9954.332
44.823883	9820.1748
45.413204	9802.6729
46.002522	9844.8203
46.591839	9835.7715
47.18116	9910.1367
47.770477	10073.083
48.359798	10149.741
48.949116	10224.282
49.538437	10173.094
50.127754	10135.351
50.717072	10178.104
51.306393	10205.645
51.89571	10100.228
52.485031	10099.295
53.074348	10050.536
53.66367	10053.839
54.252987	10129.92
54.842304	10129.158
55.431625	10076.002
56.020943	10046.533
56.610264	9982.0215
57.199581	10060.123
57.788902	10165.971
58.37822	10379.008
58.967541	10602.956
59.556858	10738.805
60.146175	10717.08
60.735497	10499.741
61.324814	10139.911
61.914135	10056.351
62.503452	10158.057
63.092773	10294.854
63.682091	10404.118
64.271408	10967.834
64.860725	10180.63
65.45005	10789.806
66.039368	10851.897
66.628685	10493.115
67.218002	10468.605
67.80732	10231.278
68.396645	10229.44
68.985962	10135.271
69.575279	10078.314
70.164597	10137.609
70.753922	10189.839
71.343239	10178.819
71.932556	10283.052
72.521873	10165.892
73.111191	10150.537
73.700516	10147.376
74.289833	10220.465
74.87915	10471.914
75.468468	10102.045
76.057793	10007.005
76.64711	10130.684
77.236427	10960.344
77.825745	10383.729
78.415062	10454.034
79.004387	9907.0811
79.593704	9874.0146
80.183022	9950.9121
80.772339	9926.9434
81.361656	10026.893
81.950981	10187.533
82.540298	10330.244
83.129616	10441.686
83.718933	10344.673
84.308258	10081.682
84.897575	9894.6377
85.486893	9845.0928
86.07621	9948.5996
86.665527	9951.6025
87.254852	9964.9746
87.84417	9941.9229
88.433487	9926.3555
89.022804	9908.8057
89.612122	9902.8691
90.201447	10019.245
90.790764	10087.259
91.380081	10093.026
91.969398	10152.641
92.558723	10042.338
93.148041	9935.8125
93.737358	9937.5068
94.326675	9964.8066
94.915993	9909.5332
95.505318	9916.0381
96.094635	9829.6924
96.683952	9876.3711
97.27327	9896.5049
97.862595	9873.5059
98.451912	9878.4863
99.041229	9908.3076
99.630547	9912.2881
100.21986	9947.4375
100.80919	9805.0723
101.39851	9739.9365
101.98782	9739.5635
102.57714	9712.0146
103.16646	9723.2598
103.75578	9720.9033
104.3451	9683.8115
104.93442	9785.0889
105.52374	9877.0332
106.11306	9919.8096
106.70238	9967.9746
107.29169	9899.3701
107.88101	9732.8193
108.47033	9613.4365
109.05965	9610.4424
109.64897	9646.585
110.23829	9666.2373
110.82761	9695.3574
111.41692	9640.4189
112.00625	9557.2646
112.59557	9513.6787
113.18488	9518.916
113.7742	9564.5039
114.36353	9662.4688
114.95284	9818.7734
115.54216	9888.3457
116.13148	9906.8867
116.72079	9887.0342
117.31012	9638.1729
117.89944	9497.8457
118.48875	9500.4072
119.07807	9563.4219
119.6674	9685.75
120.25671	9736.2471
120.84603	9512.1855
121.43535	9483.9795
122.02467	9502.6982
122.61399	9450.2344
123.20331	9439.8545
123.79263	9469.2031
124.38194	9438.04
124.97126	9369.46
125.56059	9433.8008
126.1499	9278.2471
126.73922	9382.9502
127.32854	9364.083
127.91786	9349.6143
128.50717	9360.9287
129.0965	9396.6533
129.68582	9466.4502
130.27513	9477.9492
130.86446	9474.8545
131.45377	9326.626
132.04309	9317.5
132.63242	9266.4561
133.22173	9263.2041
133.81105	9308.2402
134.40036	9312.5879
134.98969	9259.3105
135.57901	9268.9443
136.16832	9233.877
136.75764	9204.7441
137.34695	9289.96
137.93628	9342.9326
138.5256	9387.2461
139.11491	9427.4102
139.70424	9399.707
140.29356	9288.5439
140.88287	9253.1016
141.4722	9204.2471
142.06151	9120.9521
142.65083	9157.3076
143.24016	9240.2832
143.82947	9284.6396
144.41879	9257.0762
145.0081	9216.1699
145.59743	9259.4336
146.18675	9235.4521
146.77606	9205.3379
147.36539	9188.457
147.9547	9247.1367
148.54402	9299.2754
149.13335	9261.4619
149.72266	9172.2207
150.31198	9135.3545
150.90129	9149.7607
151.49062	9104.124
152.07994	9214.9902
152.66925	9246.3711
153.25858	9232.2275
153.8479	9246.0068
154.43721	9201.9063
155.02654	9142.8945
155.61584	9191.7031
156.20517	9175.9951
156.79449	9192.0088
157.3838	9197.9482
157.97313	9239.8711
158.56244	9231.6348
159.15176	9149.7041
159.74109	9088.2158
160.3304	9122.833
160.91972	9203.7871
161.50903	9218.2305
162.09836	9246.1748
162.68768	9260.2813
163.27699	9289.2109
163.86632	9225.5293
164.45563	9153.71
165.04495	9156.5537
165.63428	9180.251
166.22359	9156.6309
166.81291	9223.5342
167.40222	9331.3779
167.99155	9229.5977
168.58087	9200.2334
169.17018	9165.3975
169.75951	9170.5283
170.34883	9243.9561
170.93814	9278.6045
171.52747	9221.543
172.11678	9296.8633
172.7061	9271.4668
173.29543	9313.7754
173.88474	9275.9082
174.47406	9255.29
175.06337	9221.458
175.65269	9292.1777
176.24202	9387.8926
176.83133	9340.5
177.42065	9322.2246
178.00996	9342.9072
178.59929	9276.0293
179.18861	9299.291
179.77792	9307.668
180.36725	9308.9609
180.95656	9351.8369
181.54588	9390.8252
182.13521	9363.1865
182.72452	9334.5176
183.31384	9369.4648
183.90317	9275.2842
184.49248	9357.5
185.0818	9414.2832
185.67111	9467.4893
186.26044	9413.8584
186.84976	9359.4131
187.43907	9387.583
188.0284	9351.3926
188.61771	9359.8262
189.20703	9436.7236
189.79636	9478.8359
190.38567	9493.5361
190.97499	9521.2168
191.5643	9490.9707
192.15363	9437.7705
192.74295	9433.7715
193.33226	9475.9717
193.92159	9528.9863
194.51089	9577.2725
195.10022	9640.0713
195.68954	9635.8828
196.27885	9578.4092
196.86818	9557.4092
197.4575	9578.002
198.04681	9599.2529
198.63614	9621.6582
199.22545	9678.5664
199.81477	9673.7324
200.4041	9672.3916
200.99341	9645.1807
201.58273	9665.3848
202.17204	9693.4814
202.76137	9703.0859
203.35069	9714.0215
203.94	9748.6279
204.52933	9782.7246
205.11864	9759.9902
205.70796	9659.3916
206.29729	9683.7861
206.8866	9734.0898
207.47592	9787.8691
208.06523	9791.0781
208.65456	9823.4336
209.24388	9902.1621
209.83319	9944.9209
210.42252	9918.2871
211.01183	9760.3877
211.60115	9855.2305
212.19048	9907.2559
212.77979	9992.5781
213.36911	10008.743
213.95844	9998.4922
214.54774	10007.792
215.13707	10011.3
215.72638	9974.7715
216.3157	9951.5029
216.90503	10019.094
217.49434	10160.241
218.08366	10166.52
218.67297	10189.478
219.2623	10177.598
219.85162	10137.789
220.44093	10102.913
221.03026	10109.707
221.61957	10181.324
222.20889	10209.577
222.79822	10287.512
223.38753	10321.651
223.97685	10300.892
224.56616	10305.631
225.15549	10330.056
225.74481	10344.097
226.33412	10390.332
226.92345	10479.684
227.51277	10479.998
228.10208	10495.953
228.69141	10461.893
229.28072	10445.578
229.87004	10452.971
230.45937	10507.827
231.04868	10568.16
231.638	10622.332
232.22731	10669.915
232.81664	10698.521
233.40596	10704.813
233.99527	10585.909
234.58459	10654.758
235.1739	10664.542
235.76323	10758.962
236.35255	10825.563
236.94186	10889.458
237.53119	10908.36
238.1205	10856.993
238.70982	10826.328
239.29915	10845.201
239.88846	10891.605
240.47778	11001.991
241.06709	10975.172
241.65642	11015.181
242.24574	11043.655
242.83505	11080.508
243.42438	11103.97
244.0137	11106.192
244.60301	11153.667
245.19234	11223.487
245.78165	11294.659
246.37097	11268.134
246.9603	11285.79
247.54961	11320.052
248.13893	11272.973
248.72824	11275.617
249.31757	11342.259
249.90689	11387.518
250.4962	11406.313
251.08553	11425.355
251.67484	11471.054
252.26416	11488.579
252.85349	11472.841
253.44279	11496.966
254.03212	11526.426
254.62143	11618.026
255.21075	11710.628
255.80008	11759.097
256.3894	11803.682
256.9787	11791.15
257.56802	11878.015
258.15735	11845.028
258.74667	11858.413
259.336	11862.149
259.92529	11925.469
260.51462	12002.619
261.10394	12017.475
261.69327	12010.792
262.28259	12023.753
262.87189	11954.985
263.46121	12015.805
264.05054	12080.269
264.63986	12317.921
265.22919	12328.452
265.81851	12275.093
266.40781	12257.72
266.99713	12256.968
267.58646	12242.684
268.17578	12270.707
268.76511	12392.633
269.3544	12427.537
269.94373	12486.508
270.53305	12622.564
271.12238	12567.859
271.7117	12558.3
272.30099	12541.427
272.89032	12571.901
273.47964	12631.435
274.06897	12688.237
274.65829	12764.993
275.24759	12744.605
275.83691	12714.297
276.42624	12802.426
277.01556	12803.713
277.60489	12860.146
278.19418	12906.406
278.78351	12974.479
279.37283	13067.982
279.96216	13120.657
280.55148	13084.105
281.14078	13016.138
281.7301	13039.432
282.31943	13192.221
282.90875	13212.634
283.49808	13312.173
284.08737	13268.203
284.6767	13293.65
285.26602	13349.85
285.85535	13314.261
286.44467	13264.567
287.03397	13391.22
287.62329	13624.948
288.21262	13590.128
288.80194	13582.969
289.39127	13537.876
289.98056	13520.037
290.56989	13651.07
291.15921	13639.855
291.74854	13633.301
292.33786	13730.777
292.92719	13768.411
293.51648	13759.956
294.1058	13867.343
294.69513	13862.329
295.28445	13825.195
295.87378	13804.313
296.46307	13941.1
297.0524	13995.717
297.64172	14002.798
298.23105	14043.608
298.82037	14066.487
299.40967	14028.233
299.99899	14031.652
300.58832	14035.705
301.17764	14003.986
301.76697	14173.135
302.35626	14209.854
302.94559	14283.277
303.53491	14329.186
304.12424	14326.567
304.71356	14329.76
305.30286	14361.898
305.89218	14408.329
306.48151	14478.437
307.07083	14473.808
307.66016	14551.475
308.24945	14587.797
308.83878	14559.99
309.4281	14552.745
310.01743	14546.354
310.60675	14628.986
311.19604	14698.436
311.78537	14681.031
312.37469	14700.06
312.96402	14757.34
313.55334	14704.724
314.14264	14695.617
314.73196	14743.055
315.32129	14848.621
315.91061	14899.396
316.49994	14941.099
317.08923	15003.511
317.67856	15007.197
318.26788	14967.762
318.85721	14938.722
319.44653	14838.634
320.03583	14977.231
320.62515	15161.89
321.21448	15192.116
321.8038	15134.989
322.39313	15116.429
322.98245	15125.842
323.57175	15149.262
324.16107	15176.174
324.7504	15224.373
325.33972	15312.444
325.92905	15398.063
326.51834	15425.97
327.10767	15412.277
327.69699	15335.304
328.28632	15382.166
328.87564	15428.941
329.46494	15459.31
330.05426	15489.216
330.64359	15520.592
331.23291	15582.641
331.82224	15608.716
332.41153	15532.488
333.00085	15636.426
333.59018	15641.812
334.1795	15775.181
334.76883	15802.635
335.35812	15831.425
335.94745	15836.2
336.53677	15807.281
337.1261	15798.087
337.71542	15814.771
338.30472	15857.17
338.89404	15936.523
339.48337	16001.88
340.07269	16073.922
340.66202	16125.515
341.25131	16088.319
341.84064	16048.486
342.42996	16135.188
343.01929	16204.161
343.60861	16172.291
344.19791	16189.385
344.78723	16285.011
345.37656	16328.254
345.96588	16329.117
346.55521	16387.52
347.1445	16294.495
347.73383	16244.776
348.32315	16469.65
348.91248	16447.58
349.5018	16497.867
350.09109	16504.119
350.68042	16465.17
351.26974	16469.135
351.85907	16540.578
352.44839	16626.924
353.03772	16684.645
353.62701	16727.461
354.21634	16797.84
354.80566	16892.805
355.39499	16974.887
355.98431	16779.77
356.57361	16763.857
357.16293	16917.406
357.75226	16939
358.34158	16945.791
358.93091	17061.043
359.5202	17080.166
360.10953	17028.326
360.69885	17101.314
361.28818	16970.771
361.8775	17161.639
362.4668	17201.361
363.05612	17371.336
363.64545	17282.514
364.23477	17346.875
364.8241	17317.582
365.41339	17255.201
366.00272	17375.443
366.59204	17433.713
367.18137	17374.574
367.77069	17555.611
368.35999	17444.152
368.94931	17489.945
369.53864	17556.1
370.12796	17519.324
370.71729	17541.879
371.30658	17530.615
371.8959	17651.049
372.48523	17771.66
373.07455	17741.445
373.66388	17733.74
374.25317	17782.092
374.8425	17687.635
375.43182	17715.91
376.02115	17766.496
376.61047	17909.17
377.19977	17918.166
377.78909	17892.037
378.37842	17934.473
378.96774	17882.484
379.55707	17884.568
380.14636	17957.959
380.73569	17945.566
381.32501	18011.633
381.91434	18141.707
382.50366	18138.486
383.09299	18155.916
383.68228	18178.738
384.27161	18155.861
384.86093	18248.17
385.45026	18269.176
386.03958	18312.57
386.62888	18360.961
387.2182	18329.102
387.80753	18281.898
388.39685	18301.605
388.98618	18281.063
389.57547	18277.465
390.16479	18314.023
390.75412	18443.963
391.34344	18449.193
391.93277	18529.428
392.52206	18504.953
393.11139	18461.68
393.70071	18473.934
394.29004	18519.539
394.87936	18560.365
395.46866	18570.871
396.05798	18572.002
396.64731	18670.861
397.23663	18647.578
397.82596	18619.781
398.41525	18604.799
399.00458	18590.926
399.5939	18624.379
400.18323	18666.354
400.77255	18672.602
401.36185	18728.535
401.95117	18765.42
402.5405	18737.805
403.12982	18735.043
403.71915	18748.064
404.30844	18823.879
404.89777	18864.969
405.48709	18854.359
406.07642	18745.258
406.66574	18839.592
407.25504	18766.777
407.84436	18771.305
408.43369	18751.387
409.02301	18859.326
409.61234	18962.371
410.20163	18936.459
410.79095	18978.713
411.38028	19036.752
411.9696	19047.5
412.55893	19102.732
413.14825	18873.695
413.73755	19021.039
414.32687	19168.145
414.9162	19132.391
415.50552	19054.033
416.09485	19032.508
416.68414	19018.678
417.27347	18973.346
417.86279	18980.531
418.45212	19057.178
419.04144	19073.693
419.63074	19130.139
420.22006	19185.482
420.80939	19292.26
421.39871	19072.014
421.98804	19187.807
422.57733	19145.906
423.16666	19229.826
423.75598	19359.715
424.34531	19370.566
424.93463	19222.582
425.52393	19127.205
426.11325	19198.895
426.70258	19194.498
427.2919	19098.254
427.88123	19225.068
428.47052	19289.225
429.05984	19248.066
429.64917	19324.99
430.23849	19288.436
430.82782	19123.727
431.41711	19195.316
432.00644	19312.02
432.59576	19377.045
433.18509	19361.615
433.77441	19281.99
434.36371	19245.896
434.95303	19214.207
435.54236	19140.096
436.13168	19273.846
436.72101	19229.262
437.3103	19327.563
437.89963	19308.172
438.48895	19222.721
439.07828	19141.193
439.6676	19190.785
440.2569	19183.393
440.84622	19127.254
441.43555	19127.016
442.02487	19120.699
442.6142	19069.492
443.20352	19083.111
443.79282	19080.113
444.38214	19066.361
444.97147	18998.965
445.56079	18979.826
446.15012	18959.979
446.73941	19054.52
447.32874	19027.873
447.91806	18907.65
448.50739	18853.299
449.09671	18829.691
449.686	18765.467
450.27533	18660.842
450.86465	18563.6
451.45398	18591.074
452.0433	18645.152
452.6326	18795.67
453.22192	18682.553
453.81125	18564.012
454.40057	18570.252
454.9899	18391.998
455.57919	18465.887
456.16852	18407.66
456.75784	18408.395
457.34717	18394.012
457.93649	18253.281
458.52579	18147.865
459.11511	18131.506
459.70444	18079.959
460.29376	17966.963
460.88309	18032.922
461.47238	18013.229
462.06171	17925.465
462.65103	17837.902
463.24036	17878.607
463.82968	17722.906
464.41898	17609.854
465.0083	17596.461
465.59763	17559.555
466.18695	17516.182
466.77628	17457.15
467.36557	17372.602
467.9549	17357.457
468.54422	17260.979
469.13354	17141.922
469.72287	17100.447
470.31219	17142.449
470.90149	17038.016
471.49081	17064.496
472.08014	16906.002
472.66946	16926.613
473.25879	16842.221
473.84808	16760.564
474.43741	16763.117
475.02673	16824.164
475.61606	16864.658
476.20538	16805.734
476.79468	16760.26
477.384	16827.547
477.97333	16834.412
478.56265	16807.934
479.15198	16899.365
479.74127	17057.525
480.3306	17081.168
480.91992	17204.979
481.50925	17315.113
482.09857	17307.369
482.68787	17308.285
483.27719	17510.893
483.86652	17703.703
484.45584	17752.688
485.04517	17839.148
485.63446	17851.943
486.22379	17754.215
486.81311	17835.074
487.40244	17728.705
487.99176	17761.672
488.58105	17762.088
489.17038	17825.148
489.7597	17776.113
490.34903	17627.754
490.93835	17434.334
491.52765	17344.451
492.11697	17176.922
492.7063	17007.09
493.29562	16857.541
493.88495	16635.572
494.47424	16467.129
495.06357	16222.755
495.65289	16011.176
496.24222	15721.16
496.83154	15395.808
497.42084	15147.683
498.01016	14970.414
498.59949	14700.637
499.18881	14420.05
499.77814	14135.47
500.36746	13878.863
500.95676	13569.696
501.54608	13306.933
502.13541	13073.831
502.72473	12819.41
503.31406	12644.563
503.90335	12495.91
504.49268	12218.648
505.082	11872.132
505.67133	11701.226
506.26065	11534.989
506.84995	11263.142
507.43927	11125.645
508.02859	10867.115
508.61792	10759.052
509.20724	10481.093
509.79654	10303.406
510.38586	10105.688
510.97519	9940.002
511.56451	9817.7188
512.15381	9681.8174
512.74316	9558.7363
513.33246	9350.3096
513.92175	9152.1777
514.51111	9097.5732
515.1004	8919.7363
515.68976	8779.2969
516.27905	8596.8496
516.86841	8511.5049
517.4577	8464.0732
518.047	8380.1563
518.63635	8255.5625
519.22565	8137.6982
519.815	7987.5352
520.4043	7903.5518
520.99359	7854.959
521.58295	7712.7271
522.17224	7621.1348
522.7616	7565.8511
523.35089	7527.6118
523.94019	7417.7407
524.52954	7325.7212
525.11884	7188.2671
525.70819	7100.2617
526.29749	7092.6343
526.88678	7092.2427
527.47614	7015.4067
528.06543	6934.5396
528.65479	6860.2021
529.24408	6811.7612
529.83337	6786.0767
530.42273	6703.377
531.01202	6631.9302
531.60138	6623.8164
532.19067	6576.5654
532.77997	6521.1475
533.36932	6496.2163
533.95862	6412.3008
534.54797	6368.7959
535.13727	6323.5654
535.72656	6308.7358
536.31592	6313.7495
536.90521	6238.356
537.49457	6202.3809
538.08386	6171.7139
538.67316	6116.145
539.26251	6068.0825
539.85181	6031.8096
540.44116	6005.1064
541.03046	5999.4849
541.61975	5998.0605
542.20911	5947.2891
542.7984	5904.1001
543.38776	5823.5464
543.97705	5790.7202
544.56635	5780.4375
545.1557	5762.8608
545.745	5736.2793
546.33435	5735.1494
546.92365	5657.3022
547.51294	5650.625
548.10229	5573.8643
548.69159	5570.6938
549.28094	5545.4839
549.87024	5567.9219
550.45953	5520.0093
551.04889	5491.4136
551.63818	5490.1353
552.22754	5423.9492
552.81683	5384.019
553.40613	5419.8145
553.99548	5409.3794
554.58478	5371.2227
555.17413	5311.5752
555.76343	5313.374
556.35272	5320.3193
556.94208	5288.5625
557.53137	5225.2734
558.12073	5230.7285
558.71002	5188.3301
559.29932	5181.2739
559.88867	5190.1309
560.47797	5176.0381
561.06732	5151.9912
561.65662	5116.1909
562.24591	5090.4648
562.83527	5068.2944
563.42456	5041.1924
564.01392	5042.5864
564.60321	5031.3848
565.1925	5026.4063
565.78186	4995.4111
566.37115	4955.814
566.96051	4964.4219
567.5498	4974.1343
568.1391	4933.7622
568.72845	4922.0264
569.31775	4917.0669
569.9071	4934.2202
570.4964	4906.4517
571.08569	4848.8374
571.67505	4834.2104
572.26434	4849.9468
572.8537	4829.1626
573.44299	4828.3672
574.03235	4829.186
574.62164	4837.729
575.21094	4798.9683
575.80029	4802.1699
576.38959	4767.6646
576.97894	4772.4619
577.56824	4784.6489
578.15753	4789.9141
578.74689	4789.4341
579.33618	4792.9551
579.92554	4773.3765
580.51483	4751.1479
581.10413	4761.5405
581.69348	4757.4302
582.28278	4775.0112
582.87213	4755.2095
583.46143	4771.1626
584.05072	4771.332
584.64008	4748.125
585.22937	4770.3452
585.81873	4761.5474
586.40802	4780.8164
586.99731	4763.7031
587.58667	4795.644
588.17596	4817.3105
588.76532	4823.7861
589.35461	4802.4556
589.94391	4826.5049
590.53326	4835.8862
591.12256	4874.2549
591.71191	4893.6445
592.30121	4907.4795
592.8905	4957.6558
593.47986	4969.3174
594.06915	5021.4351
594.65851	5034.3696
595.2478	5040.6294
595.8371	5046.252
596.42645	5083.0957
597.01575	5116.7056
597.6051	5124.0913
598.1944	5146.6528
598.78369	5155.7891
599.37305	5168.8066
599.96234	5162.9102
600.5517	5141.9424
601.14099	5159.1333
601.73029	5201.3916
602.31964	5211.5464
602.90894	5232.314
603.49829	5199.5356
604.08759	5226.7539
604.67688	5182.9243
605.26624	5127.7578
605.85553	5097.125
606.44489	5079.4463
607.03418	5039.3447
607.62347	5008.4771
608.21283	4991.4116
608.80212	4957.6543
609.39148	4904.9849
609.98077	4857.022
610.57007	4829.4224
611.15942	4803.3584
611.74872	4770.4595
612.33807	4755.6899
612.92737	4675.6396
613.51666	4679.5059
614.10602	4567.2124
614.69531	4558.54
615.28467	4526.3145
615.87396	4503.6182
616.46326	4464.3071
617.05261	4405.9541
617.64191	4349.2075
618.23126	4341.8003
618.82056	4302.1167
619.40985	4229.1421
619.99921	4211.1167
620.5885	4198.4858
621.17786	4152.3779
621.76715	4099.9614
622.35645	4068.5313
622.9458	4027.9961
623.5351	3986.5706
624.12445	3963.6035
624.71375	3951.2466
625.30304	3932.5305
625.8924	3915.4397
626.48169	3889.5286
627.07104	3859.063
627.66034	3820.8818
628.24963	3804.7302
628.83899	3788.9963
629.42828	3776.5308
630.01764	3762.7773
630.60693	3749.0793
631.19623	3714.6184
631.78558	3692.3723
632.37488	3650.4514
632.96423	3674.2847
633.55353	3622.9121
634.14288	3603.4221
634.73218	3609.5249
635.32147	3609.9697
635.91083	3584.6204
636.50012	3564.2344
637.08948	3558.9595
637.67877	3525.3831
638.26807	3528.0183
638.85742	3530.9863
639.44672	3500.9954
640.03607	3497.1807
640.62537	3502.3784
641.21466	3448.6987
641.80402	3432.8904
642.39331	3413.0637
642.98267	3426.282
643.57196	3422.8914
644.16125	3440.1475
644.75061	3405.25
645.3399	3408.6052
645.92926	3374.2664
646.51855	3359.4067
647.10785	3368.8193
647.6972	3350.0435
648.2865	3334.1104
648.87585	3328.3306
649.46515	3329.2898
650.05444	3337.1863
650.6438	3336.2424
651.23309	3303.2676
651.82245	3279.0417
652.41174	3313.4705
653.00104	3309.634
653.59039	3272.3933
654.17969	3269.6223
654.76904	3248.6204
655.35834	3252.5181
655.94763	3222.5032
656.53699	3272.9072
657.12628	3255.3376
657.71564	3227.3765
658.30493	3237.1594
658.89423	3251.5745
659.48358	3241.3252
660.07288	3217.0835
660.66223	3192.6758
661.25153	3208.3291
661.84082	3229.6108
662.43018	3225.7727
663.01947	3219.1462
663.60883	3206.5698
664.19812	3209.676
664.78741	3201.519
665.37677	3194.2463
665.96606	3155.6772
666.55542	3173.5447
667.14471	3130.3467
667.73401	3163.626
668.32336	3171.9644
668.91266	3179.886
669.50201	3171.9421
670.09131	3160.6353
670.6806	3168.1982
671.26996	3116.2532
671.85925	3111.2915
672.44861	3137.4297
673.0379	3164.4456
673.6272	3155.8162
674.21655	3102.7688
674.80585	3107.748
675.3952	3128.627
675.9845	3097.241
676.57379	3111.3689
677.16315	3121.9937
677.75244	3121.4192
678.3418	3096.1982
678.93109	3138.7888
679.52039	3073.3225
680.10974	3112.1099
680.69904	3089.2427
681.28839	3123.0366
681.87769	3119.3115
682.46698	3089.2524
683.05634	3127.0405
683.64563	3140.9841
684.23499	3114.562
684.82428	3108.283
685.41357	3115.4104
686.00293	3117.3135
686.59222	3120.4871
687.18158	3105.6213
687.77087	3094.2966
688.36017	3133.8281
688.94952	3117.6255
689.53882	3122.8118
690.12817	3091.7273
690.71747	3102.7827
691.30682	3072.4717
691.89612	3126.2795
692.48541	3091.8611
693.07477	3071.4844
693.66406	3069.4756
694.25342	3095.791
694.84271	3087.2483
695.43201	3116.3643
696.02136	3132.8555
696.61066	3085.6201
697.20001	3086.2048
697.78931	3121.7397
698.3786	3090.123
698.96796	3067.0273
699.55725	3104.2329
700.14661	3108.3069
700.7359	3103.2939
701.3252	3076.2612
701.91455	3118.5728
702.50385	3118.1204
703.0932	3115.6804
703.6825	3130.7002
704.27179	3058.4731
704.86115	3125.4683
705.45044	3135.5232
706.03979	3148.3254
706.62909	3131.0894
707.21838	3121.541
707.80774	3095.9365
708.39703	3108.4685
708.98639	3132.4739
709.57568	3159.4526
710.16498	3128.9587
710.75433	3105.4299
711.34363	3112.9924
711.93298	3103.8745
712.52228	3099.8743
713.11157	3086.8425
713.70093	3131.1306
714.29022	3137.0237
714.87958	3160.8784
715.46887	3157.0076
716.05817	3125.9373
716.64752	3131.252
717.23682	3143.5493
717.82617	3125.2034
718.41547	3138.3638
719.00476	3160.4407
719.59412	3146.1848
720.18341	3180.9033
720.77277	3151.7542
721.36206	3140.5212
721.95135	3122.7612
722.54071	3156.0156
723.13	3174.6973
723.71936	3174.3057
724.30865	3162.3921
724.89795	3161.1926
725.4873	3170.6455
726.0766	3166.6133
726.66595	3177.179
727.25525	3165.5852
727.84454	3200.4856
728.4339	3171.105
729.02319	3171.1909
729.61255	3146.7839
730.20184	3196.2192
730.79114	3213.448
731.38049	3142.3057
731.96979	3159.7502
732.55914	3156.1987
733.14844	3186.1326
733.73773	3204.6794
734.32709	3169.8494
734.91638	3204.5823
735.50574	3219.106
736.09503	3206.0837
736.68433	3219.4646
737.27368	3218.678
737.86298	3226.3054
738.45233	3254.9404
739.04163	3255.1011
739.63092	3230.114
740.22028	3225.1345
740.80957	3242.3401
741.39893	3253.4292
741.98822	3258.2239
742.57751	3283.8093
743.16687	3278.1938
743.75616	3265.21
744.34552	3269.1267
744.93481	3252.5601
745.52411	3288.2371
746.11346	3274.7998
746.70276	3309.3208
747.29211	3288.0991
747.88141	3283.4407
748.4707	3290.2432
749.06006	3309.2258
749.64935	3294.0359
750.23871	3314.3145
750.828	3324.0854
751.41736	3303.8594
752.00665	3315.6431
752.59595	3333.3831
753.1853	3294.3835
753.7746	3287.8318
754.36395	3334.9126
754.95325	3348.4663
755.54254	3315.8826
756.1319	3312.8794
756.72119	3381.7383
757.31055	3393.0535
757.89984	3377.5012
758.48914	3385.7205
759.07849	3372.3887
759.66779	3380.8108
760.25714	3366.0374
760.84644	3411.6487
761.43573	3479.4478
762.02509	3433.4382
762.61438	3441.5376
763.20374	3425.2871
763.79303	3505.6489
764.38232	3480.8325
764.97168	3513.7983
765.56097	3543.9102
766.15033	3545.3818
766.73962	3590.1101
767.32892	3645.9207
767.91827	3667.8628
768.50757	3695.4636
769.09692	3724.5063
769.68622	3767.8169
770.27551	3850.5017
770.86487	3932.4734
771.45416	3972.9207
772.04352	4016.7742
772.63281	4086.6455
773.22211	4126.0161
773.81146	4165.5376
774.40076	4228.3228
774.99011	4294.5649
775.57941	4332.7266
776.1687	4416.2646
776.75806	4504.5859
777.34735	4531.1479
777.93671	4612.8906
778.526	4691.3926
779.1153	4765.9565
779.70465	4803.6733
780.29395	4801.4321
780.8833	4885.6362
781.4726	4882.5068
782.06189	4893.5166
782.65125	4942.6177
783.24054	4937.1167
783.8299	5003.9385
784.41919	5039.7964
785.00848	5034.8853
785.59784	5063.0396
786.18713	5077.8296
786.77649	5109.4966
787.36578	5150.8535
787.95508	5142.5967
788.54443	5158.2061
789.13373	5200.7095
789.72308	5212.0518
790.31238	5230.7373
790.90167	5234.0898
791.49103	5238.3779
792.08032	5191.8872
792.66968	5156.3936
793.25897	5195.9858
793.84827	5211.9087
794.43762	5278.9736
795.02692	5252.1987
795.61627	5233.3589
796.20557	5252.9629
796.79486	5230.564
797.38422	5217.8296
797.97351	5251.0547
798.56287	5265.9697
799.15216	5200.7285
799.74146	5158.5645
800.33081	5222.0513
800.9201	5222.8091
801.50946	5204.9473
802.09875	5172.5293
802.68805	5182.272
803.2774	5189.2412
803.8667	5217.5674
804.45605	5204.0874
805.04535	5184.2744
805.63464	5157.0195
806.224	5114.9194
806.81329	5118.8247
807.40265	5124.2476
807.99194	5081.7383
808.58124	5069.9463
809.17059	5104.644
809.75989	5122.0552
810.34924	5100.5859
810.93854	5055.7446
811.52789	5054.9399
812.11719	5063.8647
812.70648	5045.6411
813.29584	4978.3213
813.88513	5026.8384
814.47449	4977.8633
815.06378	5004.4878
815.65308	4960.2769
816.24243	4959.145
816.83173	4895.6802
817.42108	4987.9741
818.01038	4940.4678
818.59967	4985.5474
819.18903	4854.0356
819.77832	4889.2192
820.36768	4856.1118
820.95697	4888.6992
821.54626	4878.5386
822.13562	4905.9756
822.72491	4895.9702
823.31427	4850.8257
823.90356	4814.1763
824.49286	4772.5576
825.08221	4763.8174
825.67151	4778.1611
826.26086	4813.8657
826.85016	4824.7144
827.43945	4752.4736
828.02881	4710.7632
828.6181	4702.605
829.20746	4694.5298
829.79675	4672.0288
830.38605	4636.0581
830.9754	4655.5923
831.5647	4638.3823
832.15405	4621.481
832.74335	4637.6479
833.33264	4598.6431
833.922	4515.4629
834.51129	4479.6069
835.10065	4508.4233
835.68994	4501.1006
836.27924	4499.062
836.86859	4452.895
837.45789	4425.1108
838.04724	4429.0957
838.63654	4386.8008
839.22583	4358.2661
839.81519	4313.7056
840.40448	4338.5171
840.99384	4266.8794
841.58313	4253.6392
842.17242	4171.0313
842.76178	4179.02
843.35107	4159.9849
843.94043	4111.9751
844.52972	4019.3635
845.11902	4125.0557
845.70837	4049.9556
846.29767	4001.5596
846.88702	3969.4529
847.47632	3924.2031
848.06561	3919.3909
848.65497	3878.8911
849.24426	3829.9685
849.83362	3798.6475
850.42291	3765.2786
851.01221	3759.0068
851.60156	3717.4507
852.19086	3659.3845
852.78021	3596.9834
853.36951	3543.2302
853.9588	3526.3567
854.54816	3514.7832
855.13745	3468.5068
855.72681	3410.5415
856.3161	3406.5862
856.9054	3397.2495
857.49475	3380.3342
858.08405	3358.6189
858.6734	3301.0977
859.2627	3280.9116
859.85199	3260.4836
860.44135	3267.6455
861.03064	3191.3809
861.62	3154.0854
862.20929	3131.9595
862.79858	3155.3352
863.38794	3136.2458
863.97723	3071.7603
864.56659	3148.0398
865.15588	3130.8213
865.74518	3119.1189
866.33453	3069.3452
866.92383	3122.3728
867.51318	3094.2219
868.10248	3069.3801
868.69183	3104.01
869.28113	3077.4829
869.87042	3068.3916
870.45978	3040.7686
871.04907	3032.4607
871.63843	3033.9609
872.22772	2986.6943
872.81702	3031.8237
873.40637	2987.4192
873.99567	3005.002
874.58502	3017.5354
875.17432	3023.6604
875.76361	2998.0481
876.35297	2997.9656
876.94226	2968.8887
877.53162	2991.7651
878.12091	2983.9026
878.71021	2968.0894
879.29956	2973.8013
879.88885	2970.4514
880.47821	2975.2104
881.0675	2919.0225
881.6568	2898.2949
882.24615	2934.9304
882.83545	2938.981
883.4248	2928.5313
884.0141	2933.8237
884.60339	2930.416
885.19275	2912.0303
885.78204	2912.9248
886.3714	2927.2368
886.96069	2924.571
887.54999	2931.7251
888.13934	2950.3022
888.72864	2926.8206
889.31799	2920.2209
889.90729	2907.4146
890.49658	2891.9634
891.08594	2878.8718
891.67523	2870.2083
892.26459	2888.6035
892.85388	2899.8018
893.44318	2921.3262
894.03253	2882.4639
894.62183	2827.0603
895.21118	2900.3691
895.80048	2879.4355
896.38977	2895.6479
896.97913	2914.3518
897.56842	2807.3289
898.15778	2882.8684
898.74707	2878.7144
899.33636	2857.9807
899.92572	2880.2634
900.51501	2873.3308
901.10437	2827.854
901.69366	2850.6653
902.28296	2831.8003
902.87231	2839.9546
903.46161	2853.4724
904.05096	2871.4875
904.64026	2847.2795
905.22955	2838.0894
905.81891	2852.1768
906.4082	2831.5454
906.99756	2776.553
907.58685	2823.1211
908.17615	2872.6028
908.7655	2830.4658
909.3548	2793.8682
909.94415	2787.2842
910.53345	2835.3596
911.12274	2797.717
911.7121	2811.4236
912.30139	2801.9106
912.89075	2787.4734
913.48004	2787.2358
914.06934	2767.7961
914.65869	2783.9973
915.24799	2765.6638
915.83734	2780.7446
916.42664	2764.2883
917.01593	2756.9844
917.60529	2784.7805
918.19458	2785.8264
918.78394	2739.1428
919.37323	2756.4968
919.96252	2763.6311
920.55188	2746.4939
921.14117	2732.2676
921.73053	2712.4268
922.31982	2719.9019
922.90912	2746.9543
923.49847	2724.5425
924.08777	2718.554
924.67712	2719.2661
925.26642	2719.4148
925.85571	2712.8276
926.44507	2697.8513
927.03436	2697.8093
927.62372	2669.6899
928.21301	2674.1255
928.80237	2689.0483
929.39166	2657.9277
929.98096	2641.4019
930.57031	2656.7209
931.15961	2671.7617
931.74896	2673.575
932.33826	2664.3521
932.92755	2625.3645
933.51691	2621.1082
934.1062	2636.6472
934.69556	2654.7981
935.28485	2654.1697
935.87415	2619.8726
936.4635	2617.3865
937.0528	2597.1506
937.64215	2605.3386
938.23145	2603.9526
938.82074	2604.6711
939.4101	2609.6621
939.99939	2590.9221
940.58875	2590.4421
941.17804	2558.6401
941.76733	2568.5872
942.35669	2567.8362
942.94598	2556.5701
943.53534	2532.9224
944.12463	2549.1387
944.71393	2552.2593
945.30328	2570.2847
945.89258	2545.7466
946.48193	2540.353
947.07123	2545.5342
947.66052	2542.0986
948.24988	2532.3276
948.83917	2521.8398
949.42853	2534.2957
950.01782	2531.7478
950.60712	2517.0364
951.19647	2504.9761
951.78577	2488.3792
952.37512	2482.0518
952.96442	2501.6792
953.55371	2503.7837
954.14307	2481.2505
954.73236	2510.1169
955.32172	2515.3953
955.91101	2487.9836
956.50031	2503.4709
957.08966	2496.1729
957.67896	2492.7925
958.26831	2511.1895
958.8576	2523.4956
959.4469	2500.1926
960.03625	2499.2339
960.62555	2483.887
961.2149	2502.0178
961.8042	2491.4949
962.39349	2475.0178
962.98285	2494.9524
963.57214	2526.9805
964.1615	2482.8357
964.75079	2472.1389
965.34009	2472.7671
965.92944	2476.9346
966.51874	2504.9478
967.10809	2479.8477
967.69739	2501.3201
968.28668	2485.5906
968.87604	2478.6279
969.46533	2506.8049
970.05469	2459.2966
970.64398	2439.8926
971.23328	2481.2905
971.82263	2431.7119
972.41193	2430.2544
973.00128	2430.698
973.59058	2479.8103
974.17987	2447.3193
974.76923	2448.5107
975.35852	2428.7385
975.94788	2448.1926
976.53717	2455.5515
977.12646	2444.5203
977.71582	2435.0513
978.30511	2452.2317
978.89447	2411.7166
979.48376	2411.6995
980.07306	2386.1611
980.66241	2420.5305
981.25171	2427.519
981.84106	2411.9209
982.43036	2419.1184
983.01965	2402.1489
983.60901	2399.3872
984.1983	2399.8684
984.78766	2375.2102
985.37695	2395.5745
985.96631	2412.5518
986.5556	2398.6411
987.1449	2382.6895
987.73425	2408.2981
988.32355	2373.2715
988.9129	2386.2402
989.5022	2380.1465
990.09149	2390.4634
990.68085	2380.5901
991.27014	2361.9631
991.8595	2383.8203
992.44879	2384.0146
993.03809	2397.3809
993.62744	2354.7717
994.21674	2381.877
994.80609	2390.5876
995.39539	2401.2239
995.98468	2382.8794
996.57404	2390.1484
997.16333	2362.3677
997.75269	2358.7571
998.34198	2377.3965
998.93127	2385.3838
999.52063	2379.7219
1000.1099	2363.7417
1000.6993	2369.2297
1001.2886	2382.9558
1001.8779	2380.1252
1002.4672	2370.8113
1003.0565	2409.8027
1003.6459	2383.4248
1004.2352	2388.9351
1004.8245	2402.8574
1005.4138	2385.4324
1006.0031	2413.3779
1006.5925	2396.1194
1007.1818	2421.6724
1007.7711	2405.0334
1008.3604	2414.1289
1008.9497	2404.5669
1009.5391	2393.563
1010.1284	2412.4275
1010.7177	2409.9368
1011.307	2434.7463
1011.8963	2422.3538
1012.4857	2415.0718
1013.075	2435.9717
1013.6642	2434.0249
1014.2536	2428.3452
1014.8429	2435.1055
1015.4323	2455.1685
1016.0215	2449.3264
1016.6108	2472.8462
1017.2002	2466.332
1017.7895	2464.2522
1018.3788	2488.4768
1018.9681	2476.8142
1019.5574	2490.8677
1020.1468	2479.5483
1020.7361	2498.3538
1021.3254	2504.4238
1021.9147	2505.4402
1022.504	2505.3367
1023.0934	2524.1384
1023.6827	2551.8296
1024.272	2552.989
1024.8613	2551.0464
1025.4507	2570.7402
1026.0399	2584.8293
1026.6293	2592.5188
1027.2186	2572.8545
1027.808	2588.2153
1028.3972	2601.9814
1028.9866	2613.7224
1029.5759	2622.0645
1030.1652	2622.6956
1030.7545	2625.3213
1031.3439	2658.5254
1031.9331	2669.7095
1032.5225	2680.0708
1033.1118	2679.7012
1033.7012	2708.45
1034.2904	2735.9988
1034.8798	2719.3201
1035.4691	2723.9858
1036.0583	2738.0022
1036.6477	2752.3452
1037.2371	2779.1775
1037.8263	2791.6997
1038.4156	2788.0271
1039.005	2788.7061
1039.5944	2804.2285
1040.1836	2809.9263
1040.7729	2809.697
1041.3623	2820.0334
1041.9515	2843.1304
1042.5409	2853.3274
1043.1302	2853.5581
1043.7195	2860.0713
1044.3088	2877.2358
1044.8982	2877.0811
1045.4875	2890.7266
1046.0768	2908.4619
1046.6661	2914.5811
1047.2555	2914.2144
1047.8447	2921.1577
1048.4341	2927.6294
1049.0234	2920.5522
1049.6127	2928.5835
1050.202	2949.5442
1050.7914	2961.3884
1051.3807	2950.991
1051.97	2955.1235
1052.5593	2956.2329
1053.1487	2957.0764
1053.7379	2959.7761
1054.3273	2984.2043
1054.9166	2975.9636
1055.5059	2999.8469
1056.0952	2987.1731
1056.6846	2977.3508
1057.2739	2998.345
1057.8632	3000.3679
1058.4525	2975.4734
1059.0419	3014.926
1059.6311	3023.6885
1060.2205	3011.2446
1060.8098	3002.0217
1061.399	2998.7163
1061.9884	2992.8633
1062.5778	2998.376
1063.1671	3006.9636
1063.7563	3027.0066
1064.3457	3013.658
1064.9351	3017.6511
1065.5243	2993.8513
1066.1136	2984.198
1066.703	2989.6194
1067.2922	2996.5964
1067.8816	2992.8545
1068.4709	2994.4207
1069.0603	2990.7983
1069.6495	3011.2939
1070.2389	3019.3508
1070.8282	2990.9043
1071.4175	2977.0291
1072.0068	2983.9338
1072.5962	2954.0659
1073.1854	2945.8196
1073.7748	2934.0056
1074.3641	2941.8123
1074.9535	2942.9521
1075.5427	2931.6172
1076.1321	2905.074
1076.7214	2878.741
1077.3107	2900.5662
1077.9	2912.1853
1078.4894	2893.415
1079.0787	2884.3694
1079.668	2895.8198
1080.2573	2887.4231
1080.8467	2861.1006
1081.4359	2844.3813
1082.0253	2834.1143
1082.6146	2805.5823
1083.2039	2796.3376
1083.7932	2822.782
1084.3826	2834.1746
1084.9719	2802.2039
1085.5612	2778.5662
1086.1505	2773.5437
1086.7399	2759.4163
1087.3291	2745.4514
1087.9185	2719.7
1088.5078	2706.1689
1089.097	2737.3936
1089.6864	2747.491
1090.2758	2713.2791
1090.8651	2695.7041
1091.4543	2693.3162
1092.0437	2671.7585
1092.6331	2653.1545
1093.2223	2634.251
1093.8116	2637.2969
1094.401	2623.6877
1094.9902	2614.8262
1095.5796	2623.2922
1096.1689	2622.4897
1096.7583	2619.4473
1097.3475	2581.3718
1097.9369	2560.1284
1098.5262	2584.2502
1099.1155	2589.7588
1099.7048	2563.8369
1100.2942	2534.2209
1100.8834	2524.4241
1101.4728	2515.0398
1102.0621	2491.52
1102.6515	2497.2571
1103.2407	2507.2292
1103.8301	2496.375
1104.4194	2473.9883
1105.0087	2459.8667
1105.598	2429.9504
1106.1874	2421.0979
1106.7766	2424.3037
1107.366	2416.6563
1107.9553	2430.8091
1108.5447	2431.3169
1109.1339	2433.176
1109.7233	2398.0649
1110.3126	2371.9353
1110.9019	2372.8374
1111.4912	2364.3923
1112.0806	2370.0073
1112.6698	2367.2253
1113.2592	2357.0583
1113.8485	2371.5596
1114.4379	2366.5503
1115.0271	2359.8665
1115.6165	2360.3857
1116.2058	2334.8071
1116.795	2347.3474
1117.3844	2341.8462
1117.9738	2351.8831
1118.563	2340.4355
1119.1523	2310.5706
1119.7417	2329.103
1120.3311	2343.5469
1120.9203	2357.4224
1121.5096	2380.6658
1122.099	2355.0522
1122.6882	2384.9526
1123.2776	2383.9395
1123.8669	2324.0422
1124.4562	2310.2292
1125.0455	2334.1887
1125.6349	2350.0981
1126.2242	2381.8435
1126.8135	2370.8479
1127.4028	2350.7261
1127.9922	2347.802
1128.5814	2315.8914
1129.1708	2339.9778
1129.7601	2335.968
1130.3494	2329.0879
1130.9387	2356.8069
1131.5281	2371.6997
1132.1174	2387.7231
1132.7067	2367.3792
1133.296	2360.9375
1133.8854	2370.0669
1134.4746	2374.5208
1135.064	2386.699
1135.6533	2412.0898
1136.2427	2388.731
1136.8319	2373.8789
1137.4213	2412.3774
1138.0106	2408.7075
1138.5999	2339.2073
1139.1892	2453.9902
1139.7786	2406.0693
1140.3678	2438.1921
1140.9572	2426.7864
1141.5465	2456.822
1142.1359	2438.7156
1142.7251	2408.0137
1143.3145	2454.0391
1143.9038	2420.8318
1144.493	2464.6272
1145.0824	2433.7239
1145.6718	2432.6362
1146.261	2485.1113
1146.8503	2449.1423
1147.4397	2434.5237
1148.0291	2419.8733
1148.6183	2452.5813
1149.2076	2471.6353
1149.797	2475.5088
1150.3862	2490.3975
1150.9756	2464.0537
1151.5649	2483.7639
1152.1542	2476.1787
1152.7435	2517.2546
1153.3329	2525.6216
1153.9222	2508.0645
1154.5115	2499.7722
1155.1008	2507.9136
1155.6902	2501.9529
1156.2794	2521.6384
1156.8688	2522.2666
1157.4581	2526.3005
1158.0474	2521.4028
1158.6367	2521.3838
1159.2261	2522.4578
1159.8154	2527.5669
1160.4047	2536.8728
1160.994	2532.6995
1161.5834	2527.8049
1162.1726	2525.7815
1162.762	2553.9751
1163.3513	2555.2786
1163.9406	2580.3096
1164.5299	2578.3708
1165.1193	2559.616
1165.7086	2519.9756
1166.2979	2567.5559
1166.8872	2543.5784
1167.4766	2582.0376
1168.0658	2593.6782
1168.6552	2573.5349
1169.2445	2584.0735
1169.8337	2597.051
1170.4231	2586.1245
1171.0125	2584.9534
1171.6018	2592.4473
1172.191	2581.2266
1172.7804	2598.0789
1173.3698	2630.1646
1173.959	2603.6711
1174.5483	2595.2747
1175.1377	2627.7358
1175.7269	2592.9673
1176.3163	2614.5767
1176.9056	2570.1531
1177.495	2611.8562
1178.0842	2636.3945
1178.6736	2634.7722
1179.2629	2626.519
1179.8522	2604.5308
1180.4415	2591.6021
1181.0309	2619.5759
1181.6201	2621.7639
1182.2095	2638.1953
1182.7988	2638.9849
1183.3882	2642.9932
1183.9774	2620.4954
1184.5668	2639.2646
1185.1561	2643.2954
1185.7454	2625.3828
1186.3347	2637.8464
1186.9241	2626.7441
1187.5133	2627.3804
1188.1027	2643.8196
1188.692	2646.0281
1189.2814	2614.8816
1189.8706	2633.2832
1190.46	2654.5095
1191.0493	2654.699
1191.6385	2667.3843
1192.2279	2650.147
1192.8173	2645.4341
1193.4066	2639.2051
1193.9958	2632.6716
1194.5852	2628.6741
1195.1746	2629.314
1195.7638	2624.6787
1196.3531	2656.2827
1196.9425	2618.4995
1197.5317	2654.0393
1198.1211	2656.4133
1198.7104	2629.4414
1199.2998	2619.1736
1199.889	2655.4246
1200.4784	2613.5898
1201.0677	2613.4187
1201.657	2603.2754
1202.2463	2639.407
1202.8357	2620.6162
1203.4249	2641.1321
1204.0143	2660.3589
1204.6036	2603.6597
1205.193	2647.3933
1205.7822	2620.1316
1206.3716	2668.4521
1206.9609	2616.1165
1207.5502	2623.3035
1208.1395	2606.1362
1208.7289	2616.1836
1209.3181	2593.6421
1209.9075	2607.6104
1210.4968	2634.2175
1211.0862	2607.397
1211.6754	2595.6445
1212.2648	2606.6221
1212.8541	2608.6885
1213.4434	2630.5381
1214.0327	2631.1636
1214.6221	2566.2312
1215.2113	2531.4314
1215.8007	2582.2422
1216.39	2605.7139
1216.9794	2622.0396
1217.5686	2599.748
1218.158	2578.5173
1218.7473	2589.6453
1219.3365	2581.1028
1219.9259	2558.3894
1220.5153	2577.6982
1221.1045	2568.8826
1221.6938	2547.6165
1222.2832	2554.3259
1222.8726	2589.0728
1223.4618	2558.1313
1224.0511	2564.0969
1224.6405	2558.1113
1225.2297	2581.5291
1225.8191	2551.5535
1226.4084	2585.5195
1226.9977	2563.5908
1227.587	2541.1428
1228.1764	2545.0439
1228.7657	2539.698
1229.355	2518.9656
1229.9443	2558.4119
1230.5337	2535.696
1231.1229	2525.4998
1231.7123	2497.446
1232.3016	2472.928
1232.8909	2521.3447
1233.4802	2488.8447
1234.0696	2473.5586
1234.6589	2498.5647
1235.2482	2503.9792
1235.8375	2488.0273
1236.4269	2508.3706
1237.0161	2523.1462
1237.6055	2506.5613
1238.1948	2472.7383
1238.7841	2498.394
1239.3734	2489.0664
1239.9628	2484.719
1240.5521	2460.2219
1241.1414	2452.072
1241.7307	2468.1841
1242.3201	2467.5386
1242.9093	2450.0208
1243.4987	2444.4832
1244.088	2451.9897
1244.6772	2471.4971
1245.2666	2426.3999
1245.856	2436.5566
1246.4453	2410.4246
1247.0345	2389.4402
1247.6239	2434.9714
1248.2133	2378.1094
1248.8025	2421.6431
1249.3918	2430.2371
1249.9812	2401.9915
1250.5704	2414.429
1251.1598	2366.7073
1251.7491	2339.0662
1252.3385	2374.2573
1252.9277	2383.4812
1253.5171	2372.3806
1254.1064	2384.3767
1254.6957	2352.8601
1255.285	2336.1165
1255.8744	2325.7361
1256.4637	2329.6516
1257.053	2345.1396
1257.6423	2324.5728
1258.2317	2322.5222
1258.8209	2315.4131
1259.4103	2309.9951
1259.9996	2325.5776
1260.5889	2337.1062
1261.1782	2329.0938
1261.7676	2322.4448
1262.3569	2352.2595
1262.9462	2336.3877
1263.5355	2297.6892
1264.1249	2315.3438
1264.7141	2315.3186
1265.3035	2277.4255
1265.8928	2327.0105
1266.4821	2276.7378
1267.0714	2286.4895
1267.6608	2269.9036
1268.2501	2280.9814
1268.8394	2308.7776
1269.4287	2307.5908
1270.0181	2258.8521
1270.6073	2234.4534
1271.1967	2214.2708
1271.786	2236.4729
1272.3752	2283.1941
1272.9646	2269.3865
1273.554	2276.407
1274.1433	2280.521
1274.7325	2251.9893
1275.3219	2243.657
1275.9113	2227.3887
1276.5005	2219.4856
1277.0898	2226.0305
1277.6792	2253.5464
1278.2684	2253.5647
1278.8578	2219.5649
1279.4471	2223.3833
1280.0365	2244.6641
1280.6257	2235.8081
1281.2151	2245.5854
1281.8044	2245.2534
1282.3937	2222.3018
1282.983	2239.7832
1283.5724	2261.2747
1284.1616	2242.0789
1284.751	2214.3535
1285.3403	2197.7983
1285.9297	2218.991
1286.5189	2242.1819
1287.1083	2246.3254
1287.6976	2226.3274
1288.2869	2209.6062
1288.8762	2207.9873
1289.4656	2199.2498
1290.0548	2199.4097
1290.6442	2214.4114
1291.2335	2237.7234
1291.8229	2241.6572
1292.4121	2192.0898
1293.0015	2193.5972
1293.5908	2211.8376
1294.1801	2235.8425
1294.7694	2216.4805
1295.3588	2213.2891
1295.948	2218.6257
1296.5374	2224.1292
1297.1267	2234.2461
1297.7161	2196.9263
1298.3053	2188.4775
1298.8947	2213.3765
1299.484	2216.0647
1300.0732	2209.6379
1300.6626	2214.9336
1301.252	2200.4392
1301.8412	2198.1653
1302.4305	2206.374
1303.0199	2179.8333
1303.6093	2210.6013
1304.1985	2217.1992
1304.7878	2215.5652
1305.3772	2205.1475
1305.9664	2211.2708
1306.5558	2211.333
1307.1451	2230.1394
1307.7344	2217.4644
1308.3237	2217.3103
1308.9131	2207.2102
1309.5024	2217.2275
1310.0917	2199.3806
1310.681	2203.6865
1311.2704	2171.3884
1311.8596	2201.6704
1312.449	2192.8113
1313.0383	2201.9565
1313.6277	2194.8562
1314.2169	2196.1257
1314.8063	2193.5505
1315.3956	2195.7302
1315.9849	2179.77
1316.5742	2204.4175
1317.1636	2179.5754
1317.7528	2175.4639
1318.3422	2150.1702
1318.9315	2191.8623
1319.5209	2195.9368
1320.1101	2197.5649
1320.6995	2202.6257
1321.2888	2203.6211
1321.8781	2212.0054
1322.4674	2189.001
1323.0568	2193.0066
1323.646	2201.9832
1324.2354	2186.4343
1324.8247	2188.9561
1325.4141	2199.397
1326.0033	2170.072
1326.5927	2198.3191
1327.182	2207.4529
1327.7712	2203.2512
1328.3606	2202.4685
1328.95	2196.354
1329.5392	2185.6355
1330.1285	2205.7327
1330.7179	2195.2241
1331.3073	2208.2314
1331.8965	2198.155
1332.4858	2200.3845
1333.0752	2210.8054
1333.6644	2202.0012
1334.2538	2246.9785
1334.8431	2232.6621
1335.4324	2204.5237
1336.0217	2202.1123
1336.6111	2201.418
1337.2004	2194.2727
1337.7897	2183.8303
1338.379	2167.3706
1338.9684	2214.6873
1339.5576	2224.564
1340.147	2190.9734
1340.7363	2207.7253
1341.3256	2201.9373
1341.9149	2182.9045
1342.5043	2207.54
1343.0936	2194.0549
1343.6829	2190.9417
1344.2722	2167.9058
1344.8616	2165.0234
1345.4508	2179.0513
1346.0402	2175.8591
1346.6295	2175.1384
1347.2188	2166.2776
1347.8081	2168.447
1348.3975	2165.0698
1348.9868	2184.655
1349.576	2214.8506
1350.1654	2186.8083
1350.7548	2198.7251
1351.344	2155.2297
1351.9333	2160.3298
1352.5227	2120.2178
1353.1119	2180.0479
1353.7013	2166.531
1354.2906	2178.8665
1354.88	2190.4775
1355.4692	2180.123
1356.0586	2171.7234
1356.6479	2155.999
1357.2372	2151.541
1357.8265	2153.0195
1358.4159	2173.7542
1359.0051	2154.9697
1359.5945	2133.2717
1360.1838	2138.6707
1360.7732	2168.2429
1361.3624	2146.7148
1361.9518	2197.0635
1362.5411	2165.6099
1363.1304	2153.0862
1363.7197	2122.2302
1364.3091	2149.8804
1364.8983	2150.7205
1365.4877	2144.6904
1366.077	2124.5762
1366.6664	2143.0894
1367.2556	2136.8066
1367.845	2121.2222
1368.4343	2109.4829
1369.0236	2130.0923
1369.6129	2139.6548
1370.2023	2144.0713
1370.7916	2136.0916
1371.3809	2142.2798
1371.9702	2132.938
1372.5596	2131.9016
1373.1488	2134.8091
1373.7382	2109.085
1374.3275	2133.8967
1374.9167	2113.3176
1375.5061	2141.3416
1376.0955	2129.0886
1376.6848	2118.4963
1377.274	2125.6084
1377.8634	2097.7554
1378.4528	2099.1455
1379.042	2114.3833
1379.6313	2124.2656
1380.2207	2107.2485
1380.8099	2119.6638
1381.3993	2105.6802
1381.9886	2113.4949
1382.578	2097.6853
1383.1672	2102.9082
1383.7566	2079.1321
1384.3459	2093.7703
1384.9352	2093.9048
1385.5245	2058.4207
1386.1139	2110.2095
1386.7031	2098.6311
1387.2925	2094.7856
1387.8818	2084.7971
1388.4712	2075.0103
1389.0604	2078.7842
1389.6498	2074.6782
1390.2391	2084.1067
1390.8284	2099.3362
1391.4177	2080.9185
1392.0071	2073.668
1392.5963	2074.2354
1393.1857	2080.387
1393.775	2047.2051
1394.3644	2083.7139
1394.9536	2061.5476
1395.543	2083.533
1396.1323	2053.1096
1396.7216	2067.1245
1397.3109	2059.1619
1397.9003	2056.9968
1398.4895	2049.2529
1399.0789	2076.9539
1399.6682	2075.5452
1400.2576	2077.9214
1400.8468	2071.5112
1401.4362	2055.8926
1402.0255	2065.8381
1402.6147	2087.0151
1403.2041	2041.0342
1403.7935	2042.5375
1404.3827	2050.5422
1404.972	2059.624
1405.5614	2078.958
1406.1508	2043.3948
1406.74	2048.2988
1407.3293	2045.7938
1407.9187	2037.335
1408.5079	2037.8108
1409.0973	2065.8174
1409.6866	2037.2748
1410.2759	2031.0999
1410.8652	2045.321
1411.4546	2046.9742
1412.0439	2070.2444
1412.6332	2040.2911
1413.2225	2040.2627
1413.8119	2023.6533
1414.4011	2023.5997
1414.9905	2022.3398
1415.5798	2064.7275
1416.1691	2048.5183
1416.7584	2029.4857
1417.3478	2035.219
1417.9371	2056.6599
1418.5264	2039.8268
1419.1157	2046.0946
1419.7051	2042.5883
1420.2943	2044.2938
1420.8837	2038.1768
1421.473	2054.0864
1422.0623	2042.8555
1422.6516	2046.3394
1423.241	2021.7092
1423.8303	2032.2227
1424.4196	2042.8236
1425.0089	2051.2876
1425.5983	2039.6814
1426.1875	2054.8723
1426.7769	2036.3292
1427.3662	2019.7031
1427.9554	2040.535
1428.5448	2031.062
1429.1342	2026.7103
1429.7235	2031.256
1430.3127	2002.7629
1430.9021	2049.3027
1431.4915	2042.1371
1432.0807	2043.7151
1432.67	2058.196
1433.2594	2037.3406
1433.8488	2035.1648
1434.438	2043.1705
1435.0273	2050.7117
1435.6167	2040.568
1436.2059	2028.3207
1436.7953	2043.3824
1437.3846	2053.5364
1437.9739	2040.9475
1438.5632	2054.0308
1439.1526	2046.3284
1439.7419	2032.0898
1440.3312	2041.6763
1440.9205	2047.2777
1441.5099	2040.4618
1442.0991	2026.9961
1442.6885	2024.9928
1443.2778	2047.6831
1443.8671	2012.9408
1444.4564	2010.8917
1445.0458	2021.6378
1445.6351	2025.6475
1446.2244	2024.906
1446.8137	2035.11
1447.4031	2057.3604
1447.9923	2052.78
1448.5817	2027.1171
1449.171	2034.8915
1449.7603	2020.1155
1450.3496	2043.1339
1450.939	2038.8073
1451.5283	2007.5448
1452.1176	2033.6648
1452.7069	2027.9462
1453.2963	2040.9771
1453.8855	2032.9911
1454.4749	2029.876
1455.0642	2030.0106
1455.6534	2037.3789
1456.2428	2033.8981
1456.8322	2046.1975
1457.4215	2047.4971
1458.0107	2047.5768
1458.6001	2053.7805
1459.1895	2063.4802
1459.7787	2039.6594
1460.368	2041.4846
1460.9574	2038.0015
1461.5466	2030.1569
1462.136	2047.0068
1462.7253	2040.0131
1463.3147	2023.8269
1463.9039	2072.4016
1464.4933	2046.7715
1465.0826	2082.3838
1465.6719	2056.4292
1466.2612	2030.1855
1466.8506	2024.5355
1467.4398	2031.0599
1468.0292	2038.7412
1468.6185	2027.0454
1469.2079	2038.1082
1469.7971	2039.2306
1470.3865	2060.8564
1470.9758	2073.2146
1471.5651	2075.8962
1472.1544	2068.0596
1472.7438	2033.3712
1473.333	2020.5179
1473.9224	2041.1958
1474.5117	2039.5551
1475.1011	2052.3667
1475.6903	2034.3268
1476.2797	2017.1113
1476.869	2026.5184
1477.4583	2047.603
1478.0476	2062.9404
1478.637	2060.5554
1479.2262	2039.4049
1479.8156	2054.0876
1480.4049	2064.708
1480.9943	2034.5591
1481.5835	2040.0172
1482.1729	2042.1548
1482.7622	2020.2388
1483.3514	2064.6892
1483.9408	2058.875
1484.5302	2045.7892
1485.1194	2070.4724
1485.7087	2048.1162
1486.2981	2052.6997
1486.8875	2056.9019
1487.4767	2037.4846
1488.066	2036.54
1488.6554	2045.4518
1489.2446	2048.915
1489.834	2070.6777
1490.4233	2035.1079
1491.0127	2044.2637
1491.6019	2080.6201
1492.1913	2045.5562
1492.7806	2054.3057
1493.3699	2097.1936
1493.9592	2055.0054
1494.5486	2045.7389
1495.1378	2053.5999
1495.7272	2030.3553
1496.3165	2050.8936
1496.9059	2064.3154
1497.4951	2059.6958
1498.0845	2045.3595
1498.6738	2052.2139
1499.2631	2054.4805
1499.8524	2067.884
1500.4418	2078.8979
1501.031	2077.5703
1501.6204	2072.2124
1502.2097	2072.0266
1502.7991	2056.0715
1503.3883	2059.9465
1503.9777	2045.5894
1504.567	2092.0293
1505.1563	2066.0713
1505.7456	2080.0376
1506.335	2074.9658
1506.9242	2091.9905
1507.5135	2101.3606
1508.1029	2076.2957
1508.6923	2059.0791
1509.2815	2066.6108
1509.8708	2049.2739
1510.4602	2080.7439
1511.0494	2076.9204
1511.6388	2059.2908
1512.2281	2090.9937
1512.8174	2074.1057
1513.4067	2066.8313
1513.9961	2070.1013
1514.5854	2063.6897
1515.1747	2081.2463
1515.764	2081.9746
1516.3534	2093.8496
1516.9426	2106.2532
1517.532	2078.1226
1518.1213	2092.0713
1518.7106	2090.6008
1519.2999	2090.5791
1519.8893	2087.6099
1520.4786	2079.2361
1521.0679	2066.8428
1521.6572	2021.0551
1522.2466	2065.5747
1522.8358	2089.469
1523.4252	2079.1145
1524.0145	2073.8689
1524.6038	2087.8494
1525.1931	2087.3601
1525.7825	2083.5974
1526.3718	2092.9075
1526.9611	2091.0283
1527.5504	2107.7585
1528.1398	2100.4238
1528.729	2108.7671
1529.3184	2090.0186
1529.9077	2089.7498
1530.4969	2114.7874
1531.0863	2111.2883
1531.6757	2106.5764
1532.265	2106.8491
1532.8542	2097.2209
1533.4436	2083.4329
1534.033	2122.4624
1534.6222	2126.4695
1535.2115	2120.3704
1535.8009	2109.9053
1536.3901	2126.0618
1536.9795	2124.8186
1537.5688	2117.3867
1538.1582	2122.5647
1538.7474	2110.0991
1539.3368	2120.8074
1539.9261	2132.1584
1540.5154	2116.874
1541.1047	2121.9165
1541.6941	2129.5227
1542.2833	2147.3474
1542.8727	2150.4241
1543.462	2176.666
1544.0514	2182.1182
1544.6406	2150.5557
1545.23	2150.0696
1545.8193	2149.0244
1546.4086	2163.1318
1546.9979	2126.3264
1547.5873	2163.0767
1548.1766	2129.2861
1548.7659	2158.8584
1549.3552	2181.4353
1549.9446	2189.6282
1550.5338	2175.6152
1551.1232	2165.9858
1551.7125	2171.0334
1552.3018	2184.917
1552.8911	2195.5051
1553.4805	2196.2178
1554.0698	2202.5676
1554.6591	2247.1982
1555.2484	2243.8359
1555.8378	2244.9866
1556.427	2203.9373
1557.0164	2204.0869
1557.6057	2195.8171
1558.1949	2178.0686
1558.7843	2197.1768
1559.3737	2208.1824
1559.963	2206.9146
1560.5522	2194.604
1561.1416	2222.7966
1561.731	2204.8633
1562.3202	2186.4392
1562.9095	2166.657
1563.4989	2201.6643
1564.0881	2198.7104
1564.6775	2199.1941
1565.2668	2214.2461
1565.8562	2208.9873
1566.4454	2186.7112
1567.0348	2178.8462
1567.6241	2199.6479
1568.2134	2209.6633
1568.8027	2213.3293
1569.3921	2233.7664
1569.9813	2221.0862
1570.5707	2219.4392
1571.16	2230.125
1571.7494	2242.8184
1572.3386	2229.9197
1572.928	2232.5361
1573.5173	2241.0698
1574.1066	2238.135
1574.6959	2226.8633
1575.2853	2225.5066
1575.8745	2233.1431
1576.4639	2233.8542
1577.0532	2242.0725
1577.6426	2222.7815
1578.2318	2230.4697
1578.8212	2242.7192
1579.4105	2239.5205
1579.9998	2231.8511
1580.5891	2258.842
1581.1785	2259.2539
1581.7677	2261.3926
1582.3571	2252.0034
1582.9464	2255.8403
1583.5358	2241.0083
1584.125	2240.8896
1584.7144	2233.1074
1585.3037	2269.5142
1585.8929	2245.5034
1586.4823	2245.0925
1587.0717	2287.3376
1587.6609	2215.0813
1588.2502	2237.958
1588.8396	2245.6628
1589.429	2253.3762
1590.0182	2253.2449
1590.6075	2282.1509
1591.1969	2270.3208
1591.7861	2273.2837
1592.3755	2262.5759
1592.9648	2238.6516
1593.5541	2243.6033
1594.1434	2239.043
1594.7328	2238.1733
1595.3221	2225.9404
1595.9114	2234.4851
1596.5007	2255.1868
1597.0901	2260.6633
1597.6793	2261.98
1598.2687	2273.9631
1598.858	2262.6736
1599.4473	2249.0225
1600.0366	2250.5913
1600.626	2228.2651
1601.2153	2231.4741
1601.8046	2256.9197
1602.3939	2267.051
1602.9833	2254.9673
1603.5725	2236.998
1604.1619	2247.5408
1604.7512	2245.8623
1605.3406	2231.4421
1605.9298	2239.6753
1606.5192	2256.3171
1607.1085	2234.6992
1607.6978	2259.6567
1608.2871	2191.8604
1608.8765	2234.9421
1609.4657	2243.5608
1610.0551	2268.4236
1610.6444	2249.552
1611.2338	2267.7888
1611.823	2238.1091
1612.4124	2236.6228
1613.0017	2228.3875
1613.5909	2237.135
1614.1803	2217.4753
1614.7697	2219.5867
1615.3589	2265.177
1615.9482	2225.8579
1616.5376	2262.1055
1617.127	2243.241
1617.7162	2244.6133
1618.3055	2243.2588
1618.8949	2236.9048
1619.4841	2245.9189
1620.0735	2235.6101
1620.6628	2233.2634
1621.2521	2254.6377
1621.8414	2255.9995
1622.4308	2204.9485
1623.0201	2195.5217
1623.6094	2198.2585
1624.1987	2240.3347
1624.7881	2250.6033
1625.3773	2244.3987
1625.9667	2263.3167
1626.556	2259.7537
1627.1453	2208.8904
1627.7346	2216.6875
1628.324	2194.0325
1628.9133	2215.792
1629.5026	2225.1633
1630.0919	2166.2461
1630.6813	2194.4734
1631.2705	2206.135
1631.8599	2189.884
1632.4492	2177.4968
1633.0385	2186.072
1633.6278	2194.248
1634.2172	2187.1462
1634.8065	2184.5007
1635.3958	2174.2817
1635.9851	2180.7305
1636.5745	2208.1072
1637.1637	2211.6047
1637.7531	2190.6753
1638.3424	2179.5547
1638.9316	2165.4814
1639.521	2156.6594
1640.1104	2180.9685
1640.6997	2191.1921
1641.2889	2167.5479
1641.8783	2171.2957
1642.4677	2179.8145
1643.0569	2189.9868
1643.6462	2169.9189
1644.2356	2188.1455
1644.8248	2190.3772
1645.4142	2190.583
1646.0035	2166.375
1646.5929	2177.4604
1647.1821	2169.0024
1647.7715	2163.0015
1648.3608	2157.8923
1648.9501	2165.2253
1649.5394	2190.7969
1650.1288	2158.3643
1650.718	2151.8254
1651.3074	2165.7046
1651.8967	2178.53
1652.4861	2186.2458
1653.0753	2164.4055
1653.6647	2179.1555
1654.254	2162.6187
1654.8433	2144.2671
1655.4326	2136.0527
1656.022	2140.4583
1656.6112	2171.905
1657.2006	2163.3242
1657.7899	2137.748
1658.3793	2149.6338
1658.9685	2129.4236
1659.5579	2130.075
1660.1472	2148.3108
1660.7365	2175.5977
1661.3258	2144.521
1661.9152	2132.6111
1662.5044	2115.9517
1663.0938	2158.5049
1663.6831	2135.6343
1664.2725	2127.1602
1664.8617	2149.9426
1665.451	2137.0957
1666.0404	2138.5891
1666.6296	2106.7275
1667.219	2134.5869
1667.8083	2134.1577
1668.3977	2148.1975
1668.9869	2084.9602
1669.5763	2113.1716
1670.1656	2134.6348
1670.7549	2119.1628
1671.3442	2115.1448
1671.9336	2119.3286
1672.5228	2123.1855
1673.1122	2147.3296
1673.7015	2130.1609
1674.2909	2127.2434
1674.8801	2065.3164
1675.4695	2122.4932
1676.0588	2120.4285
1676.6481	2134.6484
1677.2374	2125.7109
1677.8268	2124.4626
1678.416	2125.168
1679.0054	2101.2998
1679.5947	2085.9626
1680.1841	2115.5664
1680.7733	2116.0259
1681.3627	2093.7273
1681.952	2109.52
1682.5413	2076.5181
1683.1306	2063.5505
1683.72	2094.4675
1684.3092	2091.2791
1684.8986	2077.7979
1685.4879	2097.4031
1686.0773	2075.7085
1686.6665	2082.5955
1687.2559	2087.7991
1687.8452	2074.2476
1688.4344	2074.7664
1689.0238	2092.3745
1689.6132	2084.4712
1690.2024	2057.7734
1690.7917	2079.6541
1691.3811	2068.9155
1691.9705	2081.5063
1692.5597	2082.238
1693.149	2061.7903
1693.7384	2123.3391
1694.3276	2091.7932
1694.917	2061.8577
1695.5063	2061.5198
1696.0956	2072.3528
1696.6849	2080.0867
1697.2743	2067.8337
1697.8636	2072.6392
1698.4529	2053.4705
1699.0422	2072.1128
1699.6316	2061.0518
1700.2208	2057.2766
1700.8102	2069.2878
1701.3995	2048.7732
1701.9888	2052.7661
1702.5781	2045.0604
1703.1675	2042.865
1703.7568	2055.2764
1704.3461	2064.8179
1704.9354	2093.6816
1705.5248	2067.906
1706.114	2034.3573
1706.7034	2030.0601
1707.2927	2038.3215
1707.882	2066.6821
1708.4713	2050.6199
1709.0607	2037.0007
1709.65	2057.0674
1710.2393	2056.0737
1710.8286	2015.433
1711.418	2061.3298
1712.0072	2027.3971
1712.5966	2037.1123
1713.1859	2053.7388
1713.7751	2053.4883
1714.3645	2049.6904
1714.9539	2055.8904
1715.5432	2047.2378
1716.1324	2038.1453
1716.7218	2054.2256
1717.3112	2041.1287
1717.9004	2039.4535
1718.4897	2048.0903
1719.0791	2059.9329
1719.6683	2063.7197
1720.2577	2052.269
1720.847	2059.3496
1721.4364	2046.114
1722.0256	2001.8533
1722.615	2053.1968
1723.2043	2040.9902
1723.7936	2040.0912
1724.3829	2025.6566
1724.9723	2036.2806
1725.5616	2015.9982
1726.1509	2017.8646
1726.7402	2044.8276
1727.3296	2001.3977
1727.9188	2013.9895
1728.5082	2055.7437
1729.0975	2030.9043
1729.6868	2031.8813
1730.2761	2018.3057
1730.8655	2013.8623
1731.4548	2019.2904
1732.0441	2034.1918
1732.6334	2012.5614
1733.2228	2056.6716
1733.812	2001.3529
1734.4014	2028.6167
1734.9907	2018.7325
1735.58	2027.1893
1736.1693	2026.58
1736.7587	2015.463
1737.348	2025.5135
1737.9373	2038.4006
1738.5266	2020.2603
1739.116	2010.1543
1739.7052	2010.9882
1740.2946	2007.4119
1740.8839	2027.64
1741.4731	1994.9282
1742.0625	1995.1056
1742.6519	2010.0977
1743.2412	1993.5122
1743.8304	2008.0895
1744.4198	2010.254
1745.0092	1994.908
1745.5984	1984.1934
1746.1877	1990.4969
1746.7771	1998.0176
1747.3663	1980.1011
1747.9557	1997.7583
1748.545	2001.0317
1749.1344	1971.0957
1749.7236	1984.6554
1750.313	1988.1112
1750.9023	1962.5104
1751.4916	1988.4843
1752.0809	2010.3948
1752.6703	1966.3911
1753.2595	1966.9628
1753.8489	1970.4286
1754.4382	1979.5454
1755.0276	1964.1912
1755.6168	1964.8894
1756.2062	1985.7129
1756.7955	1985.1812
1757.3848	1972.0314
1757.9741	1987.2493
1758.5635	2003.4272
1759.1527	1987.4391
1759.7421	1950.6534
1760.3314	1956.8047
1760.9208	1981.4088
1761.51	1954.1246
1762.0994	1971.9086
1762.6887	1979.7224
1763.278	1989.6671
1763.8673	1971.3129
1764.4567	1953.6267
1765.0459	1966.5743
1765.6353	1977.1624
1766.2246	1956.6185
1766.814	1961.639
1767.4032	1947.3201
1767.9926	1942.8114
1768.5819	1931.6091
1769.1711	1948.0173
1769.7605	1966.1284
1770.3499	1951.0909
1770.9391	1939.5024
1771.5284	1951.4641
1772.1178	1949.2026
1772.7072	1960.3732
1773.2964	1933.0068
1773.8857	1938.6749
1774.4751	1946.6245
1775.0643	1943.1108
1775.6537	1950.3914
1776.243	1957.3196
1776.8323	1949.4982
1777.4216	1959.5537
1778.011	1947.6215
1778.6003	1960.4878
1779.1896	1956.5468
1779.7789	1933.2634
1780.3683	1943.5829
1780.9575	1930.9673
1781.5469	1933.2008
1782.1362	1950.3512
1782.7256	1939.5298
1783.3148	1940.436
1783.9042	1937.6857
1784.4935	1940.6479
1785.0828	1943.6948
1785.6721	1921.5632
1786.2615	1931.2156
1786.8507	1889.9927
1787.4401	1921.2112
1788.0294	1946.002
1788.6188	1932.1492
1789.208	1916.9293
1789.7974	1921.4633
1790.3867	1932.3912
1790.976	1919.3457
1791.5653	1916.6193
1792.1547	1889.3738
1792.7439	1923.302
1793.3333	1914.9288
1793.9226	1932.5282
1794.512	1928.7239
1795.1012	1919.9564
1795.6906	1926.7959
1796.2799	1918.4974
1796.8691	1894.3915
1797.4585	1918.4775
1798.0479	1917.697
1798.6371	1924.0488
1799.2264	1908.4155
1799.8158	1905.4125
1800.4052	1907.7374
1800.9944	1921.2638
1801.5837	1904.1029
1802.1731	1925.6664
1802.7623	1895.3474
1803.3517	1904.9166
1803.941	1910.6281
1804.5303	1907.2113
1805.1196	1906.5441
1805.709	1912.0356
1806.2983	1909.9346
1806.8876	1916.9202
1807.4769	1911.1664
1808.0663	1924.821
1808.6555	1889.5785
1809.2449	1893.1621
1809.8342	1908.2059
1810.4235	1889.2482
1811.0128	1876.3021
1811.6022	1895.0105
1812.1915	1901.8665
1812.7808	1896.1329
1813.3701	1880.9513
1813.9595	1902.9194
1814.5487	1904.1997
1815.1381	1906.6094
1815.7274	1902.5355
1816.3167	1907.8488
1816.906	1901.929
1817.4954	1907.4048
1818.0847	1909.7847
1818.674	1909.5939
1819.2633	1881.046
1819.8527	1906.1931
1820.4419	1886.9406
1821.0313	1900.8973
1821.6206	1917.2817
1822.2098	1916.4945
1822.7992	1907.6263
1823.3885	1913.1847
1823.9779	1907.1454
1824.5671	1901.3159
1825.1565	1924.4244
1825.7458	1921.0211
1826.3351	1921.9512
1826.9244	1921.2484
1827.5138	1911.7549
1828.103	1899.9146
1828.6924	1896.575
1829.2817	1922.694
1829.8711	1909.0652
1830.4603	1914.5706
1831.0497	1912.6498
1831.639	1911.9358
1832.2283	1921.6409
1832.8176	1917.3058
1833.407	1928.1108
1833.9962	1898.7578
1834.5856	1915.1312
1835.1749	1921.9449
1835.7643	1926.3357
1836.3535	1918.7189
1836.9429	1925.7848
1837.5322	1912.8477
1838.1215	1913.8202
1838.7108	1935.698
1839.3002	1921.7336
1839.8894	1920.0759
1840.4788	1927.868
1841.0681	1933.4839
1841.6575	1922.3365
1842.2467	1903.1334
1842.8361	1911.3693
1843.4254	1919.1716
1844.0146	1928.9198
1844.604	1904.6353
1845.1934	1917.0029
1845.7827	1921.5577
1846.3719	1918.5819
1846.9613	1920.0861
1847.5507	1911.2697
1848.1399	1940.5281
1848.7292	1923.6189
1849.3186	1904.5253
1849.9078	1903.6581
1850.4972	1920.2799
1851.0865	1954.2605
1851.6759	1923.3829
1852.2651	1929.125
1852.8545	1930.1382
1853.4438	1934.2827
1854.0331	1943.5459
1854.6224	1923.0657
1855.2118	1922.5638
1855.801	1953.2043
1856.3904	1924.2379
1856.9797	1919.2274
1857.5691	1929.6351
1858.1583	1946.1141
1858.7477	1969.0313
1859.337	1958.468
1859.9263	1939.6918
1860.5156	1937.3323
1861.105	1921.4963
1861.6942	1936.1332
1862.2836	1954.8827
1862.8729	1928.666
1863.4623	1940.1469
1864.0515	1941.4977
1864.6409	1961.7004
1865.2302	1945.9287
1865.8195	1928.5103
1866.4088	1960.2419
1866.9982	1941.2201
1867.5874	1928.4001
1868.1768	1964.0211
1868.7661	1950.3851
1869.3555	1954.25
1869.9447	1892.955
1870.5341	1952.4753
1871.1234	1962.5771
1871.7126	1965.8438
1872.302	1937.5616
1872.8914	1963.798
1873.4806	1962.4642
1874.0699	1951.3848
1874.6593	1974.7174
1875.2487	1975.9473
1875.8379	1963.5316
1876.4272	1937.2405
1877.0166	1952.5244
1877.6058	1951.9546
1878.1952	1981.0792
1878.7845	1944.7949
1879.3738	1939.9497
1879.9631	1954.5092
1880.5525	1943.9781
1881.1418	1931.8345
1881.7311	1940.2252
1882.3204	1961.583
1882.9098	1951.1896
1883.499	1959.7123
1884.0884	1958.7803
1884.6777	1938.7404
1885.267	1968.2421
1885.8563	1972.2122
1886.4457	1964.2399
1887.035	1950.9078
1887.6243	1959.9136
1888.2136	1965.4216
1888.803	1977.626
1889.3922	1954.317
1889.9816	1941.4995
1890.5709	1926.9421
1891.1602	1935.2867
1891.7495	1951.9039
1892.3389	1969.2778
1892.9282	1964.7739
1893.5175	1929.8065
1894.1068	1970.35
1894.6962	1964.4666
1895.2854	1990.5397
1895.8748	1973.3947
1896.4641	1996.3046
1897.0533	1992.6637
1897.6427	1957.6742
1898.2321	1947.026
1898.8214	1974.4788
1899.4106	1935.1387
1900	1932.8199
