24.091003	2991.1611
24.793983	3121.0889
25.496964	3241.5266
26.199944	3353.6101
26.902924	3378.0867
27.605904	3368.1353
28.308884	3408.2822
29.011864	3470.6365
29.714846	3539.0427
30.417826	3650.4414
31.120806	3722.2126
31.823786	3782.2478
32.526764	3802.2451
33.229744	3843.4922
33.932724	3881.782
34.635704	3948.6611
35.338688	4009.5237
36.041668	4105.9653
36.744648	4161.2075
37.447628	4215.9004
38.150608	4395.271
38.853588	4587.8184
39.556568	4536.4907
40.259548	4478.9565
40.962528	4283.6792
41.665508	4429.645
42.368488	4436.1953
43.071468	4377.7495
43.774448	4292.564
44.477428	4384.8555
45.180408	4502.5938
45.883389	4465.8501
46.586369	4404.8926
47.289349	4460.0449
47.992329	4468.709
48.695309	4505.6528
49.398289	4587.873
50.101269	4609.9238
50.804249	4570.6108
51.507229	4543.8916
52.210209	4580.8472
52.913189	4562.0596
53.616169	4490.7964
54.319149	4471.0054
55.022129	4511.7588
55.725109	4534.499
56.428089	4537.0747
57.131073	4543.0557
57.834053	4430.6685
58.537033	4559.7505
59.240013	4614.418
59.942993	4665.1831
60.645973	4674.5181
61.348953	4652.4116
62.051933	4599.0254
62.754913	4558.6309
63.457893	4532.5659
64.160873	4515.1899
64.863853	4530.9932
65.566833	4557.52
66.269814	4616.2749
66.972794	4499.1948
67.675774	4532.6748
68.378754	4564.4868
69.081734	4516.3745
69.784714	4545.3706
70.487694	4504.9004
71.190674	4511.5972
71.893654	4536.8423
72.596634	4543.7085
73.299614	4561.9634
74.002594	4531.8008
74.705574	4511.0986
75.408554	4536.6279
76.111534	4592.9443
76.814514	4476.3555
77.517494	4482.6299
78.220474	4503.6421
78.923454	4489.7144
79.626434	4460.6973
80.329414	4432.0737
81.032394	4406.1523
81.735374	4413.3652
82.438354	4471.0366
83.141335	4510.6001
83.844315	4467.9624
84.547295	4456.5493
85.250275	4474.6431
85.953255	4403.6841
86.656235	4377.0073
87.359215	4444.0166
88.062195	4448.1772
88.765175	4464.022
89.468155	4349.6626
90.171143	4285.062
90.874123	4338.8027
91.577103	4343.1719
92.280083	4388.6245
92.983063	4450.5107
93.686043	4352.0376
94.389023	4294.1226
95.092003	4312.0337
95.794983	4334.1025
96.497963	4319.3057
97.200943	4345.4951
97.903923	4306.3413
98.606903	4295.085
99.309883	4285.4556
100.01286	4266.6099
100.71584	4301.373
101.41882	4319.3315
102.1218	4251.1001
102.82478	4259.6255
103.52776	4315.2559
104.23074	4275.9019
104.93372	4257.3169
105.6367	4255.0605
106.33968	4180.6221
107.04266	4213.0439
107.74564	4232.2612
108.44862	4221.834
109.1516	4191.2441
109.85458	4173.1436
110.55756	4192.9893
111.26054	4161.0518
111.96352	4169.9399
112.6665	4118.3784
113.36948	4122.751
114.07246	4105.2183
114.77544	4107.5049
115.47842	4118.5439
116.1814	4144.4316
116.88438	4157.3208
117.58736	4106.6655
118.29034	4078.5586
118.99332	4108.9414
119.6963	4096.5986
120.39928	4031.3079
121.10226	4047.0952
121.80524	4079.2581
122.50822	4040.1487
123.2112	3986.6445
123.91418	4106.9717
124.61716	3993.4397
125.32014	4012.3589
126.02312	4024.1162
126.7261	3963.7876
127.42908	3949.7261
128.13206	3992.7427
128.83505	4028.2742
129.53802	4025.5076
130.24101	3972.0493
130.94398	3915.7981
131.64697	3942.4546
132.34995	3925.9978
133.05293	3891.0286
133.75591	3907.5945
134.45889	3966.8794
135.16187	3882.4084
135.86485	3836.1204
136.56783	3854.3564
137.27081	3877.5471
137.97379	3878.4602
138.67677	3902.4729
139.37975	3907.6948
140.08273	3853.0173
140.78571	3868.833
141.48869	3789.7625
142.19167	3875.5913
142.89465	3774.5393
143.59763	3825.6018
144.30061	3739.2007
145.00359	3760.4094
145.70657	3760.3567
146.40955	3785.5576
147.11253	3768.7756
147.81551	3771.4265
148.51849	3800.1858
149.22147	3740.3428
149.92445	3612.3745
150.62743	3616.9607
151.33041	3754.0645
152.03339	3637.033
152.73637	3697.0339
153.43935	3731.6873
154.14233	3667.3398
154.84531	3639.2712
155.54829	3614.782
156.25128	3638.3508
156.95425	3651.5662
157.65724	3650.365
158.36021	3616.6118
159.0632	3586.3477
159.76617	3588.8376
160.46916	3587.28
161.17213	3604.6069
161.87512	3616.7397
162.57809	3567.4595
163.28108	3521.2971
163.98405	3532.5852
164.68704	3517.8533
165.39001	3490.2932
166.093	3444.8159
166.79597	3453.0532
167.49896	3471.2139
168.20193	3469.5618
168.90492	3427.1934
169.60789	3413.4407
170.31088	3451.5352
171.01385	3460.0303
171.71684	3463.5083
172.41982	3437.843
173.1228	3387.7969
173.82578	3416.2539
174.52876	3373.6033
175.23174	3392.396
175.93472	3418.8123
176.6377	3410.2366
177.34068	3420.7397
178.04366	3381.1721
178.74664	3331.896
179.44962	3308.4993
180.1526	3318.0288
180.85558	3321.8843
181.55856	3339.6538
182.26154	3416.6284
182.96452	3331.3643
183.6675	3307.9395
184.37048	3274.5618
185.07346	3294.5588
185.77644	3325.8062
186.47942	3259.3999
187.1824	3262.4226
187.88538	3264.6553
188.58836	3207.449
189.29134	3223.6633
189.99432	3243.1919
190.6973	3201.0637
191.40028	3153.2971
192.10326	3144.9797
192.80624	3160.2646
193.50922	3175.9204
194.2122	3213.7747
194.91518	3242.0518
195.61816	3187.5623
196.32114	3195.2007
197.02412	3111.1394
197.7271	3128.3337
198.43008	3154.7373
199.13306	3167.3694
199.83604	3137.9141
200.53903	3145.3335
201.242	3155.9956
201.94499	3128.5769
202.64796	3123.6282
203.35095	3124.7219
204.05392	3037.9463
204.75691	2972.1438
205.45988	3034.7495
206.16287	3009.0964
206.86584	3018.718
207.56883	3071.5188
208.2718	3065.2512
208.97479	3071.7522
209.67776	2988.7559
210.38075	3035.6565
211.08372	2990.6257
211.78671	2960.7529
212.48969	2962.3176
213.19267	2971.0537
213.89565	2974.5857
214.59863	2941.9885
215.30161	2919.1074
216.00459	2961.5029
216.70757	2955.759
217.41055	2921.5056
218.11353	2989.7854
218.81651	2944.5457
219.51949	2914.4788
220.22247	2934.9092
220.92545	2956.5166
221.62843	2867.5586
222.33141	2933.7922
223.03439	3037.1665
223.73737	3050.2356
224.44035	2973.8088
225.14333	2920.5281
225.84631	2918.1079
226.54929	2927.1904
227.25227	2947.8313
227.95525	2929.446
228.65823	2887.425
229.36121	2872.3113
230.06419	2869.4795
230.76717	2870.2087
231.47015	2856.5608
232.17313	2879.3081
232.87611	2938.8652
233.57909	2909.1438
234.28207	2840.8447
234.98505	2791.5945
235.68803	2805.7869
236.39101	2814.0791
237.09399	2804.1255
237.79697	2815.3591
238.49995	2834.9604
239.20293	2826.2681
239.90591	2803.4807
240.60889	2828.6069
241.31187	2847.9465
242.01485	2820.0144
242.71783	2820.3384
243.42081	2819.9475
244.12379	2799.9375
244.82678	2803.5618
245.52975	2802.3433
246.23274	2823.0127
246.93571	2793.1663
247.6387	2795.8293
248.34167	2784.5881
249.04466	2763.7871
249.74763	2810.2419
250.45062	2859.0588
251.15359	2844.3979
251.85658	2842.9785
252.55956	2834.3179
253.26254	2785.8972
253.96552	2772.0154
254.6685	2833.3291
255.37148	2782.9016
256.07446	2714.2305
256.77744	2780.1768
257.48041	2778.4463
258.18341	2751.3506
258.88638	2750.6006
259.58936	2776.3079
260.29233	2798.7788
260.99533	2822.4236
261.6983	2853.804
262.40128	2816.9817
263.10425	2790.0034
263.80725	2794.865
264.51022	2740.1792
265.2132	2759.5239
265.91617	2756.6003
266.61917	2796.9016
267.32214	2787.0007
268.02512	2761.9185
268.72809	2836.6917
269.43109	2796.406
270.13406	2833.2561
270.83704	2812.2351
271.54001	2791.1521
272.24301	2811.7307
272.94598	2810.481
273.64896	2763.2605
274.35193	2792.7642
275.05493	2826.0591
275.7579	2796.3679
276.46088	2786.7097
277.16385	2779.1079
277.86685	2761.6445
278.56982	2853.5864
279.2728	2874.1189
279.97577	2825.1143
280.67877	2822.1228
281.38174	2820.4526
282.08472	2839.7573
282.78769	2873.2944
283.49069	2820.345
284.19366	2746.4902
284.89664	2768.1462
285.59961	2763.4363
286.30261	2766.4951
287.00558	2737.0127
287.70856	2762.0771
288.41156	2787.5742
289.11453	2785.7229
289.8175	2823.4211
290.52048	2863.4932
291.22348	2822.2092
291.92645	2782.0459
292.62943	2845.0879
293.3324	2844.4036
294.0354	2853.3025
294.73837	2849.2244
295.44135	2829.323
296.14432	2790.3652
296.84732	2807.874
297.55029	2850.3918
298.25327	2890.0107
298.95624	2899.6501
299.65924	2907.1938
300.36221	2880.9375
301.06519	2852.2058
301.76816	2889.6414
302.47116	2919.7261
303.17413	2902.4893
303.87711	2883.9246
304.58008	2863.2937
305.28308	2866.6616
305.98605	2900.2146
306.68903	2854.2036
307.392	2879.2393
308.095	2882.6619
308.79797	2888.2712
309.50095	2810.4497
310.20392	2928.1846
310.90692	2884.8477
311.60989	2935.4673
312.31287	2870.5327
313.01584	2903.512
313.71884	2919.9199
314.42181	2858.1238
315.12479	2865.3044
315.82776	2911.3633
316.53076	2941.4951
317.23373	2943.6753
317.93671	2894.4961
318.63968	2860.8188
319.34268	2932.0051
320.04565	3005.6033
320.74863	2965.4905
321.4516	2919.1377
322.1546	2904.127
322.85757	2900.187
323.56055	2950.447
324.26352	3001.3
324.96652	2888.3513
325.66949	3012.5142
326.37247	2852.1433
327.07544	2901.4653
327.77844	2975.3787
328.48141	2950.2078
329.18439	3012.3442
329.88736	3002.4629
330.59036	2898.1709
331.29333	2917.1111
331.99631	2991.4834
332.69931	3030.4756
333.40228	3011.3438
334.10526	2973.5925
334.80823	2979.6841
335.51123	2994.1694
336.2142	2988.4153
336.91718	2988.6516
337.62015	2992.4231
338.32315	3001.3213
339.02612	3011.4468
339.7291	2960.5107
340.43207	3016.6887
341.13507	2960.2693
341.83804	3047.6821
342.54102	3013.0815
343.24399	3054.7581
343.94699	3004.0591
344.64996	3038.2048
345.35294	3062.3022
346.05591	3046.3872
346.75891	3039.7227
347.46188	3057.0659
348.16486	3064.8096
348.86783	3040.4653
349.57083	3023.9878
350.2738	3064.1077
350.97678	3074.2632
351.67975	3044.7678
352.38275	3087.9805
353.08572	3073.1086
353.7887	3089.4502
354.49167	3150.7314
355.19467	3121.5535
355.89764	3014.4976
356.60062	3129.2227
357.30359	3155.7654
358.00659	3117.3921
358.70956	3150.9148
359.41254	3119.2656
360.11551	3140.0051
360.81851	3135.8425
361.52148	3160.9404
362.22446	3191.2219
362.92743	3267.0874
363.63043	3258.0701
364.3334	3221.6824
365.03638	3207.4551
365.73935	3180.501
366.44235	3156.1279
367.14532	3183.8381
367.8483	3235.6589
368.55127	3235.738
369.25427	3211.917
369.95724	3204.7317
370.66022	3174.6616
371.36319	3278.2937
372.06619	3229.2046
372.76917	3231.4614
373.47214	3273.2607
374.17511	3262.1296
374.87811	3261.5723
375.58109	3245.6003
376.28406	3284.3303
376.98706	3245.3652
377.69003	3274.959
378.39301	3287.2676
379.09598	3305.7903
379.79898	3286.4187
380.50195	3302.5955
381.20493	3369.6169
381.9079	3381.679
382.6109	3333.0342
383.31387	3304.6855
384.01685	3309.2422
384.71982	3316.5642
385.42282	3358.9119
386.12579	3373.5371
386.82877	3337.1675
387.53174	3357.0178
388.23474	3320.7856
388.93771	3349.4338
389.64069	3327.2859
390.34366	3346.6582
391.04666	3314.501
391.74963	3282.6882
392.45261	3312.1523
393.15558	3361.2996
393.85858	3424.2637
394.56155	3361.1384
395.26453	3377.7791
395.9675	3381.8462
396.6705	3436.3381
397.37347	3353.908
398.07645	3377.043
398.77942	3422.8267
399.48242	3437.606
400.18539	3468.9778
400.88837	3465.4016
401.59134	3449.6069
402.29434	3395.3523
402.99731	3406.2444
403.70029	3449.8591
404.40326	3447.8674
405.10626	3453.8147
405.80923	3458.0811
406.51221	3442.5251
407.21518	3428.7319
407.91818	3494.9214
408.62115	3489.7324
409.32413	3505.7239
410.0271	3531.9377
410.7301	3493.9402
411.43307	3561.4766
412.13605	3426.2788
412.83902	3518.3645
413.54202	3549.6514
414.245	3573.1985
414.94797	3424.1335
415.65094	3558.3389
416.35394	3520.2148
417.05692	3575.2551
417.75989	3638.073
418.46286	3597.2122
419.16586	3586.6616
419.86884	3626.0833
420.57181	3601.3071
421.27481	3572.3848
421.97778	3606.8616
422.68076	3609.822
423.38373	3617.2822
424.08673	3659.5137
424.7897	3679.2559
425.49268	3648.1228
426.19565	3637.7607
426.89865	3678.9998
427.60162	3683.6919
428.3046	3707.1365
429.00757	3675.7239
429.71057	3624.1914
430.41354	3669.4458
431.11652	3654.0347
431.81949	3694.5894
432.52249	3678.1536
433.22546	3744.387
433.92844	3783.1348
434.63141	3674.3765
435.33441	3775.7065
436.03738	3731.4976
436.74036	3705.1296
437.44333	3813.5808
438.14633	3808.8223
438.8493	3778.6973
439.55228	3783.3167
440.25525	3783.9502
440.95825	3822.1399
441.66122	3804.8137
442.3642	3782.0449
443.06717	3778.0308
443.77017	3843.1831
444.47314	3884.0852
445.17612	3829.9888
445.87909	3786.6899
446.58209	3815.0747
447.28506	3908.073
447.98804	3935.7114
448.69101	3851.2964
449.39401	3854.7915
450.09698	3884.9939
450.79996	3846.2681
451.50293	3923.7634
452.20593	3910.0103
452.90891	3859.5479
453.61188	3858.9255
454.31485	3925.4519
455.01785	3926.8606
455.72083	3991.574
456.4238	4023.7119
457.12677	4021.6697
457.82977	4002.2976
458.53275	3973.7017
459.23572	4009.0142
459.93869	4056.9688
460.64169	4014.8367
461.34467	4001.4597
462.04764	3994.5576
462.75061	3980.3655
463.45361	3972.6265
464.15659	4023.2478
464.85956	4036.1448
465.56256	4097.2856
466.26553	4036.7356
466.96851	4041.0771
467.67148	4052.7588
468.37448	4048.4343
469.07745	4079.9902
469.78043	4105.8994
470.4834	4144.4141
471.1864	4173.9688
471.88937	4161.2104
472.59235	4150.3809
473.29532	4198.0806
473.99832	4228.063
474.70129	4216.1382
475.40427	4234.5864
476.10724	4216.2251
476.81024	4194.8501
477.51321	4197.5913
478.21619	4207.7427
478.91916	4271.7734
479.62216	4393.3335
480.32513	4369.2603
481.02811	4323.0781
481.73108	4360.001
482.43408	4325.3169
483.13705	4452.3569
483.84003	4501.1699
484.543	4481.5581
485.246	4428.6958
485.94897	4416.6143
486.65195	4419.8936
487.35492	4518.1006
488.05792	4576.269
488.76089	4602.2686
489.46387	4671.6558
490.16684	4601.7637
490.86984	4638.8584
491.57281	4668.1035
492.27579	4724.2266
492.97876	4772.2642
493.68176	4863.1392
494.38474	4849.6777
495.08771	4876.29
495.79068	4901.1055
496.49368	4894.1895
497.19666	4946.0405
497.89963	4964.9834
498.6026	5014.8281
499.3056	5065.3477
500.00858	5045.147
500.71155	5077.2563
501.41452	5124.1807
502.11752	5207.9482
502.8205	5290.708
503.52347	5295.9468
504.22644	5325.8296
504.92944	5369.9033
505.63242	5412.6333
506.33539	5463.644
507.03836	5526.5884
507.74136	5585.3208
508.44434	5684.4932
509.14731	5701.5703
509.85031	5726.2085
510.55328	5881.6895
511.25626	5977.8638
511.95923	6054.8784
512.66223	6142.3135
513.36517	6127.8291
514.06818	6303.8145
514.77118	6345.0078
515.47412	6474.0498
516.17712	6572.2134
516.88013	6676.6113
517.58307	6720.5273
518.28607	6734.2085
518.98901	6685.6548
519.69202	6809.1709
520.39502	6788.4531
521.09796	6930.4326
521.80096	7007.7544
522.50397	7012.7817
523.20691	6924.8579
523.90991	6931.0425
524.61285	6998.0845
525.31586	6915.5703
526.01886	6853.2275
526.7218	6889.1846
527.4248	6687.6479
528.12781	6609.0239
528.83075	6555.9648
529.53375	6545.0225
530.23669	6540.229
530.9397	6521.1357
531.6427	6422.6626
532.34564	6286.3315
533.04865	6182.2515
533.75165	6125.1123
534.45459	6090.5522
535.15759	6077.71
535.86053	6011.6216
536.56354	5849.4795
537.26654	5689.3213
537.96948	5650.457
538.67249	5588.8271
539.37549	5514.9048
540.07843	5531.0723
540.78143	5452.6636
541.48438	5328.1118
542.18738	5210.0093
542.89038	5096.6992
543.59332	5057.8745
544.29633	5020.1201
544.99933	4976.2085
545.70227	4899.2725
546.40527	4789.1099
547.10822	4711.1079
547.81122	4649.1143
548.51422	4641.293
549.21716	4570.2852
549.92017	4492.2271
550.62317	4449.4473
551.32611	4352.2861
552.02911	4328.8081
552.73212	4258.0952
553.43506	4262.8462
554.13806	4274.1309
554.841	4247.2607
555.54401	4168.4243
556.24701	4048.1335
556.94995	4039.9058
557.65295	4031.4209
558.35596	3999.9824
559.0589	3971.73
559.7619	3904.9417
560.46484	3881.3062
561.16785	3790.2712
561.87085	3826.5713
562.57379	3754.9597
563.27679	3798.9106
563.9798	3757.2969
564.68274	3652.0759
565.38574	3619.3364
566.08868	3664.168
566.79169	3670.3489
567.49469	3587.5259
568.19763	3582.3154
568.90063	3579.8474
569.60364	3522.8376
570.30658	3484.0159
571.00958	3462.1782
571.71252	3485.7012
572.41553	3482.9155
573.11853	3459.6272
573.82147	3480.874
574.52448	3471.0105
575.22748	3464.8174
575.93042	3424.3733
576.63342	3462.8188
577.33636	3470.3027
578.03937	3412.0151
578.74237	3405.9717
579.44531	3407.5852
580.14832	3363.1226
580.85132	3424.7888
581.55426	3452.6348
582.25726	3483.3948
582.96021	3500.927
583.66321	3438.7649
584.36621	3439.0457
585.06915	3436.3262
585.77216	3445.8684
586.47516	3474.1345
587.1781	3487.0591
587.8811	3529.9185
588.58405	3474.2012
589.28705	3472.3687
589.99005	3526.0364
590.69299	3561.6929
591.396	3617.145
592.099	3586.2476
592.80194	3541.543
593.50494	3570.3276
594.20789	3538.4578
594.91089	3586.6479
595.61389	3598.8921
596.31683	3595.9897
597.01984	3501.8938
597.72284	3473.8606
598.42578	3503.834
599.12878	3495.926
599.83179	3437.3398
600.53473	3438.99
601.23773	3453.6477
601.94067	3455.1504
602.64368	3401.7607
603.34668	3329.9011
604.04962	3291.2444
604.75262	3291.7773
605.45563	3261.1243
606.15857	3183.3523
606.86157	3173.021
607.56451	3114.6587
608.26752	3075.8662
608.97052	3044.231
609.67346	3031.2751
610.37646	2996.3174
611.07947	2979.2639
611.78241	2921.7761
612.48541	2892.8674
613.18835	2856.8743
613.89136	2847.644
614.59436	2778.241
615.2973	2762.8376
616.00031	2747.1458
616.70331	2664.7891
617.40625	2638.3372
618.10925	2609.3643
618.81219	2603.3464
619.5152	2588.0107
620.2182	2546.0457
620.92114	2540.5549
621.62415	2520.5447
622.32715	2475.5549
623.03009	2473.6506
623.73309	2465.9622
624.43604	2415.6052
625.13904	2413.366
625.84204	2358.7131
626.54498	2359.156
627.24799	2338.3862
627.95099	2301.0713
628.65393	2277.2705
629.35693	2271.8569
630.05988	2239.4246
630.76288	2168.3567
631.46588	2192.8032
632.16882	2159.5217
632.87183	2193.2532
633.57483	2178.6843
634.27777	2118.8022
634.98077	2120.9585
635.68372	2102.74
636.38672	2047.0509
637.08972	2043.1366
637.79266	2053.2671
638.49567	1999.0956
639.19867	1989.8008
639.90161	1973.4288
640.60461	1928.4464
641.30762	1912.9302
642.01056	1967.1622
642.71356	1948.3458
643.4165	1947.0911
644.11951	1907.4973
644.82251	1900.7614
645.52545	1889.0155
646.22845	1857.9883
646.93146	1814.4375
647.6344	1818.432
648.3374	1807.2534
649.04034	1802.7456
649.74335	1815.7582
650.44635	1816.4536
651.14929	1805.8796
651.85229	1756.1344
652.5553	1760.0718
653.25824	1780.856
653.96124	1777.6527
654.66418	1752.8649
655.36719	1728.77
656.07019	1720.8628
656.77313	1712.4204
657.47614	1709.8368
658.17914	1695.9673
658.88208	1660.4315
659.58508	1645.0327
660.28802	1634.463
660.99103	1635.1339
661.69403	1626.2909
662.39697	1602.4077
663.09998	1599.9517
663.80298	1565.5714
664.50592	1551.3171
665.20892	1578.5332
665.91187	1640.9663
666.61487	1610.8448
667.31787	1541.2645
668.02081	1515.5861
668.72382	1502.8372
669.42682	1483.9504
670.12976	1471.4094
670.83276	1465.3055
671.53571	1489.5327
672.23871	1455.3427
672.94171	1455.5172
673.64465	1460.8334
674.34766	1451.55
675.05066	1402.2109
675.7536	1440.6378
676.4566	1421.0079
677.15955	1409.2896
677.86255	1404.885
678.56555	1395.5352
679.26849	1410.6493
679.9715	1401.141
680.6745	1386.5889
681.37744	1399.5582
682.08044	1348.2224
682.78339	1330.0223
683.48639	1318.7904
684.18939	1301.5869
684.89233	1314.5421
685.59534	1313.399
686.29834	1286.3792
687.00128	1283.3965
687.70428	1274.7112
688.40729	1285.6686
689.11023	1261.6735
689.81323	1264.557
690.51617	1268.6077
691.21918	1261.8588
691.92218	1251.1934
692.62512	1241.0092
693.32813	1239.4115
694.03113	1254.9531
694.73407	1241.5273
695.43707	1210.333
696.14001	1208.3711
696.84302	1181.7762
697.54602	1180.2128
698.24896	1194.0912
698.95197	1170.9998
699.65497	1201.3862
700.35791	1176.4475
701.06091	1162.1946
701.76385	1151.8782
702.46686	1147.4166
703.16986	1160.193
703.8728	1141.6448
704.57581	1131.975
705.27881	1118.0048
705.98175	1109.0087
706.68475	1087.3147
707.3877	1109.7086
708.0907	1097.4359
708.7937	1102.8282
709.49664	1068.4984
710.19965	1110.4601
710.90265	1074.8049
711.60559	1076.6707
712.30859	1098.3096
713.01154	1085.8282
713.71454	1077.4611
714.41754	1060.5002
715.12048	1054.0099
715.82349	1024.4193
716.52649	1045.9166
717.22943	1056.5027
717.93243	1054.4215
718.63538	1050.8611
719.33838	1005.317
720.04138	992.59692
720.74432	1028.6804
721.44733	1028.8364
722.15033	1029.0697
722.85327	1033.9633
723.55627	1021.6553
724.25922	1037.5472
724.96222	989.11444
725.66522	995.02856
726.36816	1009.2632
727.07117	1006.6067
727.77417	1003.6791
728.47711	989.85803
729.18011	975.74786
729.88312	979.37848
730.58606	1021.3823
731.28906	1002.6047
731.992	1003.1885
732.69501	995.21002
733.39801	970.30835
734.10095	954.50903
734.80396	975.11237
735.50696	1009.7865
736.2099	983.02045
736.9129	997.12128
737.61584	962.09662
738.31885	954.23047
739.02185	981.75549
739.72479	981.87573
740.4278	997.45367
741.1308	958.24518
741.83374	988.37885
742.53674	974.45929
743.23969	1025.0422
743.94269	1027.1161
744.64569	1031.2003
745.34863	1014.3208
746.05164	1076.4835
746.75464	1029.3062
747.45758	1052.9008
748.16058	1045.3606
748.86353	1028.9351
749.56653	1037.4484
750.26953	1030.339
750.97247	998.6532
751.67548	1083.8945
752.37848	1060.5967
753.08142	1023.9223
753.78442	1079.6611
754.48737	1040.0139
755.19037	1073.5525
755.89337	1059.7314
756.59631	1072.2505
757.29932	1088.9668
758.00232	1067.8892
758.70526	1077.3593
759.40826	1096.5919
760.11121	1085.0973
760.81421	1093.7018
761.51721	1075.05
762.22015	1094.6654
762.92316	1072.0746
763.62616	1079.2643
764.3291	1106.4399
765.0321	1130.2037
765.73505	1130.139
766.43805	1106.6167
767.14105	1150.1987
767.84399	1139.7552
768.547	1134.2853
769.25	1161.4257
769.95294	1195.1207
770.65594	1199.5944
771.35889	1186.9189
772.06189	1169.9767
772.76489	1161.7621
773.46783	1190.6466
774.17084	1192.1763
774.87384	1182.5042
775.57678	1179.1132
776.27979	1151.5204
776.98279	1166.2551
777.68573	1200.6505
778.38873	1180.1594
779.09167	1151.0065
779.79468	1159.7227
780.49768	1182.9911
781.20062	1181.4122
781.90363	1168.1482
782.60663	1156.7291
783.30957	1145.7324
784.01257	1156.5615
784.71552	1164.0295
785.41852	1180.787
786.12152	1210.4376
786.82446	1217.2458
787.52747	1190.7513
788.23047	1183.3007
788.93341	1162.3604
789.63641	1122.4689
790.33936	1141.4701
791.04236	1134.8816
791.74536	1136.8595
792.4483	1161.4015
793.15131	1169.6729
793.85431	1146.2966
794.55725	1117.1913
795.26025	1103.7692
795.9632	1101.2302
796.6662	1108.155
797.3692	1094.6372
798.07214	1062.8638
798.77515	1075.8181
799.47815	1087.1708
800.18109	1080.8298
800.88409	1086.7942
801.58704	1076.0785
802.29004	1058.4326
802.99304	1056.7926
803.69598	1057.394
804.39899	1031.7695
805.10199	1020.1746
805.80493	1038.3179
806.50793	1009.0341
807.21088	988.94116
807.91388	1008.0775
808.61688	1004.2932
809.31982	976.64862
810.02283	970.68768
810.72583	979.40674
811.42877	977.23883
812.13177	970.93414
812.83472	947.60852
813.53772	962.41687
814.24072	932.03937
814.94366	933.49908
815.64667	914.63428
816.34967	893.57635
817.05261	883.52844
817.75562	894.0246
818.45862	874.23737
819.16156	879.86377
819.86456	850.41949
820.5675	881.28156
821.27051	831.20068
821.97351	805.43207
822.67645	834.67352
823.37946	807.45709
824.08246	806.37207
824.7854	806.24597
825.4884	796.32422
826.19135	796.15021
826.89435	746.15057
827.59735	766.1571
828.30029	730.49304
829.0033	768.43408
829.7063	773.12408
830.40924	724.11133
831.11224	761.06409
831.81519	716.79517
832.51819	770.03522
833.22119	707.78766
833.92413	692.98889
834.62714	710.23932
835.33014	686.77631
836.03308	671.05548
836.73608	683.91351
837.43903	678.84363
838.14203	675.25189
838.84503	670.70093
839.54797	644.97412
840.25098	633.86359
840.95398	632.17889
841.65692	679.4173
842.35992	656.47327
843.06287	647.11804
843.76587	646.59918
844.46887	629.10931
845.17181	607.888
845.87482	602.75543
846.57782	608.44916
847.28076	601.88635
847.98376	621.39026
848.68671	645.4212
849.38971	630.90906
850.09271	615.74823
850.79565	604.99115
851.49866	620.35016
852.20166	621.76648
852.9046	620.26678
853.6076	613.1123
854.31055	591.80908
855.01355	587.66931
855.71655	618.02032
856.41949	621.49493
857.1225	616.85895
857.8255	630.31512
858.52844	646.32263
859.23145	623.79156
859.93439	620.09174
860.63739	611.72168
861.34039	621.16095
862.04333	627.03491
862.74634	601.24078
863.44934	620.74225
864.15228	623.15686
864.85529	631.12567
865.55829	577.43781
866.26123	612.4494
866.96423	665.59924
867.66718	624.97406
868.37018	618.90594
869.07318	647.20428
869.77612	601.85248
870.47913	618.87952
871.18213	606.64948
871.88507	632.07379
872.58807	634.76654
873.29102	610.65338
873.99402	635.61267
874.69702	638.87988
875.39996	631.55493
876.10297	637.95276
876.80597	649.59338
877.50891	628.10187
878.21191	626.2514
878.91486	630.73779
879.61786	648.30011
880.32086	641.31934
881.0238	628.31134
881.72681	625.56635
882.42981	605.57855
883.13275	634.37708
883.83575	645.80432
884.5387	615.77704
885.2417	636.38538
885.9447	654.60229
886.64764	647.55389
887.35065	663.79523
888.05365	650.32373
888.75659	648.56927
889.45959	667.96796
890.16254	682.04565
890.86554	668.36359
891.56854	650.33081
892.27148	645.80298
892.97449	664.25037
893.67749	642.87555
894.38043	641.65302
895.08344	670.7619
895.78638	660.99628
896.48938	665.93091
897.19238	641.52032
897.89532	661.09839
898.59833	655.09265
899.30133	681.19464
900.00427	669.71564
900.70728	667.09064
901.41022	676.47937
902.11322	684.38678
902.81622	684.86926
903.51917	639.05511
904.22217	681.7937
904.92517	662.47028
905.62811	688.10828
906.33112	647.59283
907.03412	660.5318
907.73706	676.45227
908.44006	659.71582
909.14301	683.88745
909.84601	711.06299
910.54901	709.26196
911.25195	685.4248
911.95496	696.17969
912.65796	688.53455
913.3609	702.8067
914.0639	713.1778
914.76685	702.14569
915.46985	695.38531
916.17285	727.26312
916.87579	732.95343
917.5788	729.0755
918.2818	692.80713
918.98474	713.51923
919.68774	733.50763
920.39069	726.33582
921.09369	719.46698
921.79669	736.21649
922.49963	737.3761
923.20264	756.79498
923.90564	730.42419
924.60858	726.15875
925.31158	750.8136
926.01453	758.90594
926.71753	769.05231
927.42053	785.30078
928.12347	753.89209
928.82648	778.5166
929.52948	771.21521
930.23242	771.57397
930.93542	754.79572
931.63837	758.6839
932.34137	778.75732
933.04437	809.48029
933.74731	821.84247
934.45032	800.21552
935.15332	778.03217
935.85626	809.51776
936.55927	816.78857
937.26221	809.62476
937.96521	808.7605
938.66821	832.32184
939.37115	839.79218
940.07416	817.12256
940.77716	822.68597
941.4801	855.57764
942.18311	875.33441
942.88605	873.47815
943.58905	869.6181
944.29205	869.987
944.995	826.44275
945.698	894.6604
946.401	909.47534
947.10394	883.01294
947.80695	860.27313
948.50995	854.76349
949.21289	889.27216
949.91589	935.20758
950.61884	908.8266
951.32184	947.29529
952.02484	902.79639
952.72778	896.6377
953.43079	886.01245
954.13379	904.9118
954.83673	885.8302
955.53973	919.922
956.24268	923.65265
956.94568	897.42957
957.64868	906.91687
958.35162	932.5437
959.05463	949.55505
959.75763	947.96826
960.46057	950.24323
961.16357	913.08356
961.86652	942.17999
962.56952	946.18787
963.27252	959.2674
963.97546	941.15167
964.67847	957.90686
965.38147	944.16528
966.08441	962.38824
966.78741	941.37494
967.49036	954.44897
968.19336	952.18298
968.89636	967.61768
969.5993	914.03058
970.30231	957.28217
971.00531	974.85675
971.70825	959.27075
972.41125	946.22101
973.1142	1003.5429
973.8172	1003.1887
974.5202	973.08972
975.22314	946.30981
975.92615	991.44641
976.62915	984.60199
977.33209	964.78894
978.0351	997.05096
978.73804	980.92596
979.44104	995.72284
980.14404	1013.7509
980.84698	991.3161
981.54999	995.65265
982.25299	1017.5275
982.95593	1029.1648
983.65894	1028.4792
984.36188	999.34796
985.06488	1025.5544
985.76788	1016.3785
986.47083	1050.1022
987.17383	1049.6324
987.87683	1065.3436
988.57977	1059.6066
989.28278	1055.29
989.98572	1078.9954
990.68872	1078.6039
991.39172	1047.0164
992.09467	1040.1469
992.79767	1063.9087
993.50067	1047.827
994.20361	1092.0466
994.90662	1095.1163
995.60962	1101.538
996.31256	1090.496
997.01556	1100.5608
997.71851	1096.521
998.42151	1103.1219
999.12451	1094.0018
999.82745	1100.3315
1000.5305	1118.3856
1001.2335	1130.1422
1001.9364	1109.7444
1002.6394	1139.3849
1003.3423	1139.3655
1004.0453	1112.0905
1004.7484	1129.4717
1005.4513	1152.4783
1006.1543	1143.2238
1006.8573	1149.0747
1007.5602	1180.723
1008.2632	1190.9303
1008.9662	1152.506
1009.6692	1174.1196
1010.3722	1172.467
1011.0751	1179.967
1011.7781	1166.7048
1012.4811	1207.0642
1013.1841	1237.4083
1013.8871	1219.8523
1014.59	1228.2513
1015.293	1222.8594
1015.996	1221.6694
1016.699	1211.2043
1017.402	1261.8848
1018.105	1256.1631
1018.8079	1262.9889
1019.5109	1250.0685
1020.2139	1301.9858
1020.9169	1291.8224
1021.6199	1323.9656
1022.3228	1322.3616
1023.0258	1308.778
1023.7288	1379.5925
1024.4318	1364.9457
1025.1348	1363.344
1025.8378	1368.8768
1026.5408	1394.7521
1027.2437	1393.8494
1027.9467	1415.3975
1028.6497	1438.8306
1029.3527	1442.2242
1030.0557	1478.0594
1030.7585	1521.0598
1031.4615	1510.9746
1032.1646	1520.5531
1032.8676	1521.7457
1033.5706	1566.6923
1034.2734	1595.5776
1034.9764	1594.6144
1035.6794	1611.8506
1036.3824	1655.3263
1037.0854	1734.939
1037.7885	1729.4482
1038.4913	1712.4138
1039.1943	1767.0853
1039.8973	1823.4454
1040.6003	1826.9812
1041.3033	1849.9139
1042.0062	1896.5543
1042.7092	1922.6443
1043.4122	1926.3553
1044.1152	1974.2673
1044.8182	2103.5828
1045.5212	2138.7268
1046.2241	2154.6384
1046.9271	2181.571
1047.6301	2216.4685
1048.3331	2256.3357
1049.0361	2303.4504
1049.739	2385.4031
1050.442	2407.5413
1051.145	2456.0999
1051.848	2508.6284
1052.551	2571.2698
1053.2539	2654.6204
1053.9569	2693.5212
1054.6599	2808.843
1055.3629	2802.6926
1056.0659	2850.7009
1056.7689	2945.1523
1057.4718	3029.7415
1058.1748	3094.7979
1058.8778	3188.8081
1059.5808	3264.1665
1060.2838	3305.7813
1060.9867	3380.2935
1061.6897	3443.4453
1062.3927	3571.0105
1063.0957	3639.1521
1063.7987	3761.344
1064.5016	3819.1638
1065.2046	3855.4177
1065.9076	3961.3022
1066.6106	3973.281
1067.3136	4130.7393
1068.0166	4205.355
1068.7195	4286.0107
1069.4225	4351.7534
1070.1255	4444.2002
1070.8285	4534.209
1071.5315	4620.3228
1072.2344	4753.0029
1072.9374	4875.313
1073.6404	4965.7656
1074.3434	5007.4014
1075.0464	5082.6016
1075.7493	5214.8564
1076.4523	5295.0967
1077.1553	5481.3853
1077.8583	5563.6025
1078.5613	5707.5737
1079.2643	5681.2788
1079.9672	5829.2305
1080.6702	5924.0132
1081.3732	6079.8174
1082.0762	6225.3979
1082.7792	6322.7471
1083.4821	6374.0381
1084.1851	6390.3853
1084.8881	6504.5884
1085.5911	6630.1499
1086.2941	6781.7881
1086.9971	6866.9038
1087.7	6936.9619
1088.403	7020.6982
1089.106	7052.0283
1089.809	7048.5581
1090.512	7230.9541
1091.2148	7355.1465
1091.9178	7481.8115
1092.6208	7514.3394
1093.3239	7511.7471
1094.0269	7536.373
1094.7297	7584.7871
1095.4327	7756.7202
1096.1357	7811.3384
1096.8387	7812.9575
1097.5417	7787.4717
1098.2448	7798.9351
1098.9476	7778.5908
1099.6506	7831.7329
1100.3536	7898.0142
1101.0566	7930.0737
1101.7596	7940.0923
1102.4625	7842.8599
1103.1655	7771.4219
1103.8685	7802.314
1104.5715	7892.4419
1105.2745	7904.8652
1105.9774	7929.7329
1106.6804	7831.1875
1107.3834	7692.0127
1108.0864	7639.1831
1108.7894	7642.3364
1109.4924	7699.5825
1110.1953	7667.3823
1110.8983	7609.1802
1111.6013	7487.6616
1112.3043	7419.3584
1113.0073	7396.0288
1113.7102	7363.1572
1114.4132	7346.4824
1115.1162	7381.3369
1115.8192	7305.4644
1116.5222	7187.2456
1117.2251	7068.3301
1117.9281	7047.5933
1118.6311	7035.8965
1119.3341	7022.8794
1120.0371	6983.4839
1120.7401	6835.752
1121.443	6725.73
1122.146	6706.0483
1122.849	6654.3877
1123.552	6623.6167
1124.255	6644.1108
1124.9579	6601.687
1125.6609	6557.2261
1126.3639	6455.2627
1127.0669	6353.8223
1127.7699	6370.7905
1128.4729	6380.6479
1129.1758	6341.7017
1129.8788	6328.5
1130.5818	6216.8589
1131.2848	6162.7109
1131.9878	6124.3813
1132.6907	6133.4268
1133.3937	6106.311
1134.0967	6075.1519
1134.7997	6074.2422
1135.5027	6014.1123
1136.2056	5968.127
1136.9086	5923.5811
1137.6116	5927.3755
1138.3146	5886.7915
1139.0176	5904.5063
1139.7206	5842.1064
1140.4235	5798.1855
1141.1265	5739.0474
1141.8295	5664.9702
1142.5325	5689.3281
1143.2355	5708.6421
1143.9384	5670.0215
1144.6414	5603.4395
1145.3444	5521.3267
1146.0474	5531.9971
1146.7504	5549.1499
1147.4532	5475.5474
1148.1563	5463.2373
1148.8593	5456.3506
1149.5623	5423.6265
1150.2653	5347.8457
1150.9683	5311.0474
1151.6711	5398.5835
1152.3741	5333.1763
1153.0771	5341.1938
1153.7802	5212.2798
1154.4832	5173.3569
1155.186	5091.52
1155.889	5142.5747
1156.592	5053.7891
1157.295	5073.7397
1157.998	4976.9258
1158.7009	4878.6504
1159.4039	4841.7622
1160.1069	4828.2397
1160.8099	4802.77
1161.5129	4793.5859
1162.2159	4750.7271
1162.9188	4681.4771
1163.6218	4582.0181
1164.3248	4557.9829
1165.0278	4492.2549
1165.7308	4485.4678
1166.4337	4470.3857
1167.1367	4387.2734
1167.8397	4336.0083
1168.5427	4223.2485
1169.2457	4164.4346
1169.9487	4103.562
1170.6516	4129.2715
1171.3546	4109.2358
1172.0576	4025.4399
1172.7606	3907.6072
1173.4636	3801.1868
1174.1665	3777.7937
1174.8695	3720.7842
1175.5725	3698.9224
1176.2755	3681.3582
1176.9785	3565.0798
1177.6814	3480.0518
1178.3844	3383.3516
1179.0874	3387.2148
1179.7904	3348.0254
1180.4934	3260.344
1181.1964	3224.3591
1181.8993	3162.8203
1182.6023	3059.1648
1183.3053	2971.876
1184.0083	2944.866
1184.7113	2911.9529
1185.4142	2886.7439
1186.1172	2831.1489
1186.8202	2757.856
1187.5232	2681.8352
1188.2262	2629.3193
1188.9291	2531.7332
1189.6321	2477.8286
1190.3351	2441.1023
1191.0381	2368.8245
1191.7411	2367.3904
1192.4441	2229.0684
1193.147	2214.542
1193.85	2177.0334
1194.553	2133.1316
1195.256	2050.9568
1195.959	2009.1428
1196.6619	1941.088
1197.3649	1893.0555
1198.0679	1848.891
1198.7709	1824.181
1199.4739	1792.6034
1200.1768	1728.0593
1200.8798	1679.3805
1201.5828	1601.3347
1202.2858	1599.8215
1202.9888	1538.9353
1203.6918	1502.3934
1204.3947	1485.459
1205.0977	1448.4028
1205.8007	1412.1304
1206.5037	1372.4877
1207.2067	1338.4291
1207.9095	1292.4298
1208.6125	1250.8727
1209.3156	1192.7091
1210.0186	1142.1019
1210.7216	1093.2551
1211.4244	1063.6313
1212.1274	1027.8422
1212.8304	998.18475
1213.5334	959.42535
1214.2365	955.12091
1214.9395	936.25641
1215.6423	896.6167
1216.3453	856.22394
1217.0483	872.81537
1217.7513	838.9682
1218.4543	824.18964
1219.1572	789.55225
1219.8602	765.36859
1220.5632	753.68695
1221.2662	718.20624
1221.9692	716.32629
1222.6722	704.0827
1223.3751	681.86456
1224.0781	671.6825
1224.7811	656.68304
1225.4841	622.27423
1226.1871	634.36884
1226.89	638.35687
1227.593	585.29205
1228.296	569.4115
1228.999	580.09851
1229.702	578.78412
1230.4049	547.35724
1231.1079	527.81726
1231.8109	523.03625
1232.5139	508.035
1233.2169	498.21152
1233.9199	513.59412
1234.6228	485.47501
1235.3258	463.71109
1236.0288	463.30817
1236.7318	476.66028
1237.4348	440.82806
1238.1377	439.90073
1238.8407	440.50601
1239.5437	426.15683
1240.2467	415.4469
1240.9497	425.85968
1241.6526	425.65854
1242.3556	415.93967
1243.0586	417.32751
1243.7616	409.85812
1244.4646	406.61972
1245.1676	393.92349
1245.8705	396.63281
1246.5735	414.50342
1247.2765	380.40244
1247.9795	385.78784
1248.6825	396.28784
1249.3854	377.37161
1250.0884	372.32324
1250.7914	354.38007
1251.4944	375.24744
1252.1974	379.82349
1252.9003	372.33847
1253.6033	356.2886
1254.3063	363.32651
1255.0093	353.29962
1255.7123	366.35281
1256.4153	360.49435
1257.1182	325.31879
1257.8212	318.3302
1258.5242	327.08945
1259.2272	348.90054
1259.9302	346.14529
1260.6331	336.63907
1261.3361	347.03284
1262.0391	342.33411
1262.7421	326.05338
1263.4451	325.52036
1264.1481	341.55737
1264.851	337.65332
1265.554	340.77878
1266.257	337.3559
1266.96	335.21722
1267.663	316.08362
1268.3658	327.41107
1269.0688	331.9664
1269.7719	348.5769
1270.4749	333.52142
1271.1779	316.45007
1271.8807	321.27213
1272.5837	336.4205
1273.2867	321.08646
1273.9897	331.43451
1274.6927	347.0676
1275.3958	330.89841
1276.0986	330.66296
1276.8016	322.51364
1277.5046	344.77582
1278.2076	347.53656
1278.9106	317.85501
1279.6135	308.6304
1280.3165	322.55804
1281.0195	311.17316
1281.7225	301.24796
1282.4255	303.57889
1283.1284	308.42178
1283.8314	316.0022
1284.5344	324.28845
1285.2374	323.18121
1285.9404	318.44888
1286.6434	323.74637
1287.3463	317.49054
1288.0493	306.69647
1288.7523	313.49258
1289.4553	302.41983
1290.1583	325.16025
1290.8612	317.95264
1291.5642	322.77393
1292.2672	322.60568
1292.9702	318.0842
1293.6732	312.65472
1294.3761	304.96915
1295.0791	312.17731
1295.7821	298.39389
1296.4851	303.7442
1297.1881	304.39014
1297.8911	324.08051
1298.594	291.99634
1299.297	305.89923
1300	320.80072
