20.082397	880.09827
20.781445	955.953
21.48049	1065.2352
22.179537	1104.9178
22.878584	1133.948
23.577629	1179.6333
24.276676	1227.9865
24.975721	1273.1337
25.674768	1315.2145
26.373816	1337.8176
27.072861	1349.3942
27.771908	1383.4504
28.470955	1352.7695
29.17	1291.6591
29.869047	1299.0972
30.568094	1294.0959
31.267139	1288.9207
31.966187	1364.3953
32.665234	1417.1226
33.364281	1536.7354
34.063324	1536.7354
34.762371	1536.7354
35.461418	1536.7354
36.160465	1536.7354
36.859512	1536.7354
37.558559	1536.7354
38.257603	1536.7354
38.95665	1536.7354
39.655697	1536.7354
40.354744	1536.7354
41.053791	1566.4063
41.752834	1471.3717
42.451881	1447.964
43.150928	1511.5054
43.849976	1589.891
44.549023	1583.0852
45.24807	1466.5825
45.947113	1441.0924
46.64616	1441
47.345207	1476.6244
48.044254	1596.5934
48.743301	1567.1237
49.442345	1682.5742
50.141392	1682.5742
50.840439	1682.5742
51.539486	1682.5742
52.238533	1720.1163
52.93758	1675.5093
53.636623	1586.0654
54.33567	1597.855
55.034718	1592.4545
55.733765	1583.1836
56.432812	1616.3773
57.131855	1649.4247
57.830902	1649.3662
58.529949	1715.6335
59.228996	1845.2832
59.928043	1720.1163
60.62709	1720.1163
61.326134	1811.9065
62.025181	1727.098
62.724228	1697.7517
63.423275	1713.2654
64.122322	1721.42
64.821365	1739.7738
65.520416	1782.7389
66.21946	1799.0275
66.918503	1810.3807
67.617554	1858.5365
68.316597	1850.5134
69.015648	1791.7341
69.714691	1747.3771
70.413742	1827.1141
71.112785	1870.6003
71.811829	1925.0298
72.51088	1936.1599
73.209923	1888.5254
73.908974	1849.0295
74.608017	1886.9595
75.30706	1871.0222
76.006111	1871.0222
76.705154	1957.8885
77.404205	1910.4305
78.103249	1826.6587
78.802292	1864.8649
79.501343	1869.2391
80.200386	1876.7141
80.899437	1884.2141
81.59848	1917.952
82.297531	1970.3888
82.996574	1871.0222
83.695618	1914.1714
84.394669	1914.1714
85.093712	1947.8575
85.792763	1886.2762
86.491806	1851.8608
87.190849	1839.0726
87.8899	1877.1272
88.588943	1881.5326
89.287994	1855.8494
89.987038	1878.5094
90.686081	1963.6241
91.385132	1914.1714
92.084175	1914.1714
92.783226	1984.0732
93.482269	1945.1512
94.181313	1921.1534
94.880363	1980.5615
95.579407	1951.8352
96.278458	1927.2914
96.977501	1861.608
97.676552	1868.312
98.375595	1937.042
99.074638	1976.1311
99.773689	1969.1719
100.47273	1933.3391
101.17178	1874.3895
101.87083	1968.9396
102.56987	1894.7196
103.26892	1894.7196
103.96796	1894.7196
104.66702	1894.7196
105.36606	1894.7196
106.0651	1894.7196
106.76415	1894.7196
107.4632	1894.7196
108.16225	1957.7466
108.86129	1882.2103
109.56034	1877.7404
110.25938	1848.9008
110.95843	1848.7375
111.65748	1850.9421
112.35652	1834.7925
113.05557	1867.1305
113.75462	1832.582
114.45366	1879.0109
115.15271	1902.8397
115.85175	1889.715
116.5508	1876.5475
117.24985	1856.8927
117.94889	1838.1627
118.64794	1831.9169
119.34698	1800.0103
120.04604	1846.639
120.74508	1843.3571
121.44412	1820.8036
122.14317	1866.4304
122.84222	1911.5651
123.54127	1904.7267
124.24031	1882.6317
124.93936	1867.1774
125.6384	1837.3855
126.33745	1808.7024
127.0365	1811.4156
127.73554	1795.5571
128.43459	1787.0332
129.13364	1830.3566
129.83269	1836.7227
130.53172	1846.9492
131.23077	1843.368
131.92982	1839.3778
132.62888	1801.3516
133.32791	1767.5219
134.02696	1792.863
134.72601	1822.0952
135.42505	1810.6499
136.1241	1807.9299
136.82315	1798.5414
137.52219	1759.064
138.22124	1825.2402
138.92029	1869.9871
139.61934	1878.4236
140.31837	1831.0742
141.01743	1802.5016
141.71648	1767.8442
142.41551	1757.7023
143.11456	1755.7748
143.81361	1729.4391
144.51266	1744.328
145.2117	1788.298
145.91075	1730.1936
146.6098	1760.1791
147.30884	1727.1379
148.00789	1754.1583
148.70694	1731.9165
149.40598	1733.5496
150.10503	1745.9521
150.80408	1776.4637
151.50313	1759.885
152.20216	1751.0138
152.90121	1739.4303
153.60027	1744.287
154.2993	1775.3794
154.99835	1770.1926
155.6974	1762.4839
156.39645	1716.6555
157.09549	1717.5411
157.79454	1716.7953
158.49359	1752.2992
159.19263	1733.7372
159.89168	1736.8197
160.59073	1730.9779
161.28976	1723.2612
161.98882	1713.3982
162.68787	1737.4052
163.38692	1749.9139
164.08595	1709.7292
164.785	1714.2098
165.48405	1758.29
166.18309	1741.5106
166.88214	1660.6876
167.58119	1732.1296
168.28023	1730.0067
168.97928	1670.3488
169.67833	1685.3904
170.37738	1689.7913
171.07642	1672.0518
171.77547	1695.3934
172.47452	1730.3799
173.17355	1715.178
173.8726	1683.1321
174.57166	1697.9974
175.27071	1730.1371
175.96974	1728.5605
176.66879	1716.23
177.36784	1681.0795
178.06688	1691.4468
178.76593	1687.1294
179.46498	1646.4701
180.16402	1671.705
180.86307	1676.0344
181.56212	1675.0117
182.26117	1698.4402
182.96021	1706.9583
183.65926	1693.6958
184.35831	1694.9966
185.05734	1683.405
185.75639	1671.0596
186.45544	1656.4255
187.1545	1674.2388
187.85353	1681.9398
188.55258	1675.3333
189.25163	1661.0984
189.95067	1654.7084
190.64972	1634.7916
191.34877	1613.5447
192.04781	1637.7614
192.74686	1673.9713
193.44591	1677.7151
194.14496	1667.1411
194.84399	1647.7844
195.54305	1632.5918
196.2421	1664.3011
196.94113	1650.1318
197.64018	1615.2266
198.33923	1635.6349
199.03828	1650.4507
199.73732	1627.8223
200.43637	1631.296
201.13542	1609.0466
201.83446	1629.7163
202.53351	1627.0277
203.23256	1588.744
203.93159	1576.2332
204.63065	1587.7114
205.3297	1637.1917
206.02875	1650.859
206.72778	1625.2057
207.42683	1585.1379
208.12589	1575.8356
208.82492	1583.238
209.52397	1610.6484
210.22302	1595.9985
210.92207	1605.6838
211.62111	1600.113
212.32016	1598.2061
213.01921	1573.6121
213.71825	1578.8691
214.4173	1603.6929
215.11635	1591.3307
215.81538	1635.2462
216.51443	1613.4086
217.21349	1596.3752
217.91254	1602.275
218.61157	1608.5349
219.31062	1654.7679
220.00967	1589.1357
220.70871	1589.1357
221.40776	1589.1357
222.10681	1589.1357
222.80585	1589.1357
223.5049	1650.4318
224.20395	1582.4127
224.903	1533.6167
225.60204	1550.8328
226.30109	1617.0483
227.00014	1565.7921
227.69917	1557.4041
228.39822	1585.5603
229.09727	1534.8672
229.79633	1555.1257
230.49536	1580.6473
231.19441	1542.0966
231.89346	1561.7162
232.5925	1575.8372
233.29155	1565.9406
233.9906	1565.5133
234.68964	1564.7169
235.38869	1544.6829
236.08774	1529.3268
236.78679	1522.7773
237.48582	1517.3496
238.18488	1562.0248
238.88393	1524.6897
239.58296	1538.2102
240.28201	1550.2158
240.98106	1540.0886
241.68011	1564.8722
242.37915	1544.6725
243.0782	1520.2521
243.77725	1548.3508
244.47629	1549.6761
245.17534	1552.8147
245.87439	1564.3307
246.57343	1545.2019
247.27248	1526.2042
247.97153	1550.573
248.67058	1546.6062
249.36961	1476.2695
250.06866	1501.6929
250.76772	1522.65
251.46675	1501.8933
252.1658	1518.3517
252.86485	1565.465
253.5639	1530.5255
254.26294	1541.828
254.96199	1549.3756
255.66104	1510.2024
256.36008	1500.3569
257.05914	1522.5999
257.75818	1524.856
258.45721	1499.5493
259.15628	1486.9717
259.85532	1516.6437
260.55435	1553.3258
261.25342	1538.2404
261.95245	1537.8606
262.65149	1493.3674
263.35056	1458.5946
264.04959	1492.1049
264.74863	1459.4937
265.44769	1471.1393
266.14673	1458.8074
266.84576	1487.7051
267.54483	1505.4946
268.24387	1515.9912
268.94293	1507.686
269.64197	1473.7845
270.341	1474.0951
271.04007	1511.1558
271.73911	1505.4985
272.43814	1472.042
273.13721	1447.5167
273.83624	1465.493
274.53528	1452.35
275.23434	1499.0913
275.93338	1458.1525
276.63242	1487.5751
277.33148	1468.1759
278.03052	1492.2184
278.72955	1497.3235
279.42862	1464.3693
280.12766	1462.2488
280.82672	1490.8262
281.52576	1481.205
282.22479	1449.4795
282.92386	1446.1492
283.62289	1472.9043
284.32193	1500.3164
285.021	1451.104
285.72003	1455.3021
286.41907	1476.1473
287.11813	1486.9318
287.81717	1484.1368
288.5162	1467.9185
289.21527	1501.061
289.91431	1473.3027
290.61334	1451.6097
291.31241	1450.644
292.01144	1436.6305
292.71051	1433.5422
293.40955	1455.3176
294.10858	1468.218
294.80765	1457.2166
295.50668	1448.2806
296.20572	1450.245
296.90479	1448.5309
297.60382	1455.6776
298.30286	1464.6854
299.00192	1431.6742
299.70096	1457.6842
300.39999	1423.0547
301.09906	1427.4961
301.7981	1446.2329
302.49713	1462.5042
303.1962	1458.7776
303.89523	1415.2245
304.5943	1451.4799
305.29333	1398.7025
305.99237	1379.1201
306.69144	1415.892
307.39047	1409.8616
308.08951	1406.2966
308.78857	1438.1077
309.48761	1444.8197
310.18665	1450.2056
310.88571	1459.5544
311.58475	1394.9977
312.28378	1435.6254
312.98285	1462.4221
313.68188	1426.234
314.38092	1416.3469
315.07999	1426.4161
315.77902	1409.6909
316.47806	1418.2388
317.17712	1402.6119
317.87616	1413.7842
318.57523	1425.3306
319.27426	1401.0562
319.9733	1404.8341
320.67236	1412.1152
321.3714	1414.8365
322.07043	1439.793
322.7695	1429.5627
323.46854	1447.7712
324.16757	1436.324
324.86664	1396.8962
325.56567	1380.6099
326.26471	1414.7008
326.96378	1381.1599
327.66281	1419.608
328.36185	1410.8065
329.06091	1411.9159
329.75995	1420.3119
330.45901	1416.9662
331.15805	1428.0519
331.85709	1387.2908
332.55615	1398.4718
333.25519	1404.7738
333.95422	1378.9807
334.65329	1380.6628
335.35233	1402.8542
336.05136	1411.3313
336.75043	1399.5815
337.44946	1398.933
338.1485	1388.9302
338.84756	1376.8344
339.5466	1358.076
340.24564	1430.8977
340.9447	1428.9443
341.64374	1401.6783
342.3428	1409.4568
343.04184	1378.073
343.74088	1391.2872
344.43994	1409.7659
345.13898	1432.3539
345.83801	1423.9808
346.53708	1405.4789
347.23611	1395.658
347.93515	1379.6024
348.63422	1381.0419
349.33325	1410.9554
350.03229	1400.9702
350.73135	1400.9702
351.43039	1400.9702
352.12943	1400.9702
352.82849	1400.9702
353.52753	1386.2816
354.22659	1386.2847
354.92563	1416.7806
355.62466	1419.2994
356.32373	1389.8508
357.02277	1409.6587
357.7218	1386.1193
358.42087	1376.9905
359.1199	1429.7766
359.81894	1402.4083
360.51801	1392.838
361.21704	1386.3082
361.91608	1361.5348
362.61514	1367.7437
363.31418	1373.3475
364.01321	1381.0397
364.71228	1408.1042
365.41132	1389.8025
366.11038	1357.9521
366.80942	1352.4357
367.50845	1373.1305
368.20752	1362.8333
368.90656	1405.8821
369.60559	1413.1906
370.30466	1361.1495
371.00369	1400.9977
371.70273	1391.1688
372.40179	1360.7369
373.10083	1380.714
373.79987	1389.3929
374.49893	1405.3564
375.19797	1398.1375
375.897	1371.8752
376.59607	1362.551
377.2951	1376.4464
377.99417	1382.7994
378.69321	1410.8796
379.39224	1445.6511
380.09131	1457.0673
380.79034	1477.0988
381.48938	1472.2987
382.18845	1429.6821
382.88748	1399.7747
383.58652	1425.6589
384.28558	1395.2764
384.98462	1425.0438
385.68365	1409.8555
386.38272	1329.658
387.08176	1351.7153
387.78079	1386.5951
388.47986	1407.7361
389.17889	1356.7224
389.87796	1358.3198
390.577	1365.1848
391.27603	1368.7617
391.9751	1401.0415
392.67413	1409.902
393.37317	1389.5677
394.07224	1373.6313
394.77127	1375.7438
395.47031	1377.8994
396.16937	1374.8206
396.86841	1378.786
397.56744	1397.837
398.26651	1414.9651
398.96555	1379.2775
399.66458	1386.5449
400.36365	1372.9636
401.06268	1410.9631
401.76175	1397.9717
402.46078	1381.5878
403.15982	1407.507
403.85889	1397.0701
404.55792	1387.1115
405.25696	1384.0101
405.95602	1393.6503
406.65506	1354.9414
407.3541	1373.9243
408.05316	1392.1965
408.7522	1375.5984
409.45123	1348.6705
410.1503	1360.4139
410.84933	1387.6093
411.54837	1368.2397
412.24744	1362.0671
412.94647	1371.8848
413.64554	1355.8733
414.34457	1348.0139
415.04361	1353.4276
415.74268	1400.1646
416.44171	1390.9691
417.14075	1357.0135
417.83981	1366.6229
418.53885	1364.0679
419.23788	1389.6663
419.93695	1386.8193
420.63599	1392.1218
421.33502	1369.2146
422.03409	1378.7942
422.73312	1371.4358
423.43216	1337.5436
424.13123	1348.983
424.83026	1376.9563
425.5293	1380.7668
426.22836	1368.8586
426.9274	1348.5107
427.62646	1393.2874
428.3255	1402.8632
429.02454	1365.3901
429.7236	1357.9967
430.42264	1387.509
431.12167	1404.3959
431.82074	1417.657
432.51978	1409.7339
433.21881	1359.582
433.91788	1373.1851
434.61691	1386.4159
435.31595	1397.7516
436.01501	1413.3263
436.71405	1391.2755
437.41309	1368.3104
438.11215	1394.6473
438.81119	1369.5873
439.51025	1372.8784
440.20929	1390.2695
440.90833	1404.3121
441.60739	1393.8822
442.30643	1380.1274
443.00546	1381.1176
443.70453	1356.8307
444.40356	1377.5908
445.1026	1387.9769
445.80167	1396.5975
446.5007	1388.0907
447.19974	1398.8872
447.8988	1387.7487
448.59784	1392.4346
449.29688	1415.582
449.99594	1408.6051
450.69498	1396.3081
451.39404	1407.9709
452.09308	1415.7622
452.79211	1406.2637
453.49118	1409.9596
454.19022	1421.7494
454.88925	1398.267
455.58832	1385.1929
456.28735	1386.9086
456.98639	1383.5952
457.68546	1395.4048
458.38449	1394.4137
459.08353	1401.4939
459.78259	1388.3014
460.48163	1390.3708
461.18066	1391.7755
461.87973	1389.2063
462.57877	1415.2266
463.27783	1392.2224
463.97687	1358.1702
464.6759	1347.1299
465.37497	1374.8159
466.07401	1366.5087
466.77304	1373.2057
467.47211	1399.0377
468.17114	1389.4015
468.87018	1399.1672
469.56924	1401.4735
470.26828	1393.4697
470.96732	1387.2358
471.66638	1382.7665
472.36542	1407.6016
473.06445	1425.3718
473.76352	1398.2061
474.46255	1367.8885
475.16162	1366.1001
475.86066	1402.0421
476.55969	1406.4117
477.25876	1402.4833
477.95779	1412.5892
478.65683	1394.644
479.3559	1368.3359
480.05493	1373.8339
480.75397	1436.439
481.45303	1399.1246
482.15207	1364.1443
482.8511	1379.6995
483.55017	1387.7461
484.24921	1313.7277
484.94824	1385.8743
485.64731	1395.0176
486.34634	1379.9839
487.04541	1408.1395
487.74445	1373.0851
488.44348	1395.5581
489.14255	1424.9854
489.84158	1389.8278
490.54062	1389.9736
491.23969	1387.05
491.93872	1389.1965
492.63776	1401.5474
493.33682	1395.7483
494.03586	1361.2114
494.73489	1360.5076
495.43396	1390.2949
496.133	1399.2584
496.83203	1382.218
497.5311	1354.4049
498.23013	1363.6156
498.9292	1380.5765
499.62823	1376.1066
500.32727	1380.5001
501.02634	1395.7657
501.72537	1361.2874
502.42441	1338.3364
503.12347	1377.6531
503.82251	1398.9564
504.52155	1394.725
505.22061	1419.2621
505.91965	1380.3221
506.61868	1379.5555
507.31775	1300.8407
508.01678	1383.6553
508.71582	1398.9604
509.41489	1401.2751
510.11392	1379.7844
510.81299	1371.3444
511.51202	1350.9545
512.21106	1345.0834
512.9101	1377.8859
513.60913	1394.7985
514.30823	1399.5763
515.00726	1362.3442
515.7063	1383.4424
516.40533	1374.6499
517.10437	1395.0728
517.80347	1399.4415
518.5025	1403.3018
519.20154	1396.6941
519.90057	1389.0967
520.59961	1405.322
521.29865	1404.379
521.99774	1386.342
522.69678	1378.7067
523.39581	1370.3936
524.09485	1373.599
524.79388	1389.2987
525.49292	1389.6005
526.19202	1391.4923
526.89105	1373.9365
527.59009	1348.6217
528.28912	1446.209
528.98816	1388.7148
529.68726	1388.7148
530.38629	1388.7148
531.08533	1388.7148
531.78436	1400.22
532.4834	1355.2579
533.18243	1372.6682
533.88153	1370.2085
534.58057	1425.0453
535.2796	1410.2683
535.97864	1360.3369
536.67767	1335.3759
537.37671	1411.3793
538.07581	1396.0487
538.77484	1397.5938
539.47388	1391.8967
540.17291	1375.4513
540.87195	1373.1921
541.57104	1404.3066
542.27008	1404.2821
542.96912	1429.2024
543.66815	1405.3884
544.36719	1388.856
545.06622	1396.7412
545.76532	1394.8143
546.46436	1385.7705
547.16339	1405.0892
547.86243	1412.7185
548.56146	1407.7189
549.2605	1386.0902
549.95959	1372.0563
550.65863	1374.984
551.35767	1392.0398
552.0567	1364.0854
552.75574	1336.4075
553.45483	1359.3583
554.15387	1363.7548
554.85291	1354.7177
555.55194	1365.2689
556.25098	1387.0906
556.95001	1405.745
557.64911	1408.6772
558.34814	1419.0615
559.04718	1420.1724
559.74622	1436.5999
560.44525	1480.0356
561.14429	1485.5018
561.84338	1451.858
562.54242	1410.4252
563.24146	1393.3666
563.94049	1380.7349
564.63953	1349.5582
565.33862	1381.9651
566.03766	1399.1514
566.73669	1409.5461
567.43573	1372.8754
568.13477	1370.0023
568.8338	1353.0951
569.5329	1323.8262
570.23193	1415.9581
570.93097	1388.9204
571.63	1398.9325
572.32904	1369.8242
573.02808	1382.5135
573.72717	1367.7191
574.42621	1395.866
575.12524	1388.4828
575.82428	1406.5338
576.52332	1369.1993
577.22241	1386.4319
577.92145	1388.9314
578.62048	1424.9176
579.31952	1384.4132
580.01855	1372.5905
580.71759	1368.5216
581.41669	1381.6439
582.11572	1384.4917
582.81476	1390.6443
583.51379	1379.6461
584.21283	1384.2264
584.91187	1417.526
585.61096	1365.2983
586.31	1361.6383
587.00903	1383.7982
587.70807	1392.715
588.4071	1380.3414
589.1062	1386.8217
589.80524	1388.3303
590.50427	1377.611
591.20331	1386.3029
591.90234	1390.2982
592.60138	1397.4666
593.30048	1402.2074
593.99951	1388.9984
594.69855	1359.7268
595.39758	1365.5504
596.09662	1375.7316
596.79565	1384.9215
597.49475	1387.4666
598.19379	1374.0713
598.89282	1386.8798
599.59186	1365.1765
600.29089	1360.0302
600.98993	1354.3806
601.68903	1365.1844
602.38806	1362.2162
603.0871	1370.0806
603.78613	1356.1038
604.48517	1330.6163
605.18427	1372.9785
605.8833	1359.1118
606.58234	1346.5854
607.28137	1335.4393
607.98041	1363.4882
608.67944	1369.8104
609.37854	1346.2166
610.07758	1338.6942
610.77661	1348.9893
611.47565	1361.2201
612.17468	1362.8877
612.87372	1355.4634
613.57281	1326.444
614.27185	1335.5298
614.97089	1343.8783
615.66992	1337.4075
616.36896	1360.3916
617.06805	1342.2494
617.76709	1358.1193
618.46613	1326.9031
619.16516	1336.3429
619.8642	1353.0142
620.56323	1317.0725
621.26233	1331.0313
621.96136	1320.3468
622.6604	1306.4744
623.35944	1267.3781
624.05847	1323.5402
624.75751	1299.4728
625.4566	1294.9343
626.15564	1326.6677
626.85468	1321.5499
627.55371	1297.0714
628.25275	1304.2981
628.95184	1281.0892
629.65088	1306.0599
630.34991	1299.3698
631.04895	1307.5413
631.74799	1300.3314
632.44702	1281.5236
633.14612	1310.8496
633.84515	1300.1997
634.54419	1302.6888
635.24323	1291.6931
635.94226	1309.9957
636.6413	1301.6981
637.34039	1302.1432
638.03943	1306.9673
638.73846	1286.6637
639.4375	1284.7999
640.13654	1302.9927
640.83563	1302.3345
641.53467	1303.7498
642.2337	1294.1022
642.93274	1297.6547
643.63177	1300.4724
644.33081	1297.382
645.02991	1290.4398
645.72894	1283.9794
646.42798	1280.5054
647.12701	1266.924
647.82605	1265.9347
648.52509	1267.0095
649.22418	1284.0983
649.92322	1287.7875
650.62225	1288.9673
651.32129	1287.3973
652.02032	1282.6195
652.71942	1293.9025
653.41846	1319.6758
654.11749	1280.408
654.81653	1280.408
655.51556	1280.6257
656.2146	1278.0275
656.9137	1288.7448
657.61273	1273.6692
658.31177	1301.7531
659.0108	1270.7764
659.70984	1272.2001
660.40887	1269.8676
661.10797	1245.7396
661.80701	1251.7637
662.50604	1273.2717
663.20508	1262.9773
663.90411	1280.8796
664.60321	1268.2285
665.30225	1288.7311
666.00128	1265.3939
666.70032	1261.7841
667.39935	1245.3865
668.09839	1252.2024
668.79749	1233.2637
669.49652	1255.8037
670.19556	1257.6852
670.89459	1226.985
671.59363	1222.4365
672.29266	1248.8566
672.99176	1244.0587
673.6908	1236.3192
674.38983	1221.668
675.08887	1226.2791
675.7879	1224.5128
676.487	1219.2312
677.18604	1219.5344
677.88507	1217.6626
678.58411	1213.8595
679.28314	1208.9462
679.98218	1201.1198
680.68127	1203.1176
681.38031	1234.3612
682.07935	1250.4166
682.77838	1228.1478
683.47742	1211.9309
684.17645	1189.3615
684.87555	1194.988
685.57458	1222.9243
686.27362	1188.7827
686.97266	1158.8701
687.67169	1166.5437
688.37079	1169.6323
689.06982	1169.3318
689.76886	1164.5775
690.4679	1154.1116
691.16693	1157.863
691.86597	1168.5469
692.56506	1148.2059
693.2641	1132.3749
693.96313	1148.3658
694.66217	1148.7605
695.36121	1146.6469
696.06024	1130.9323
696.75934	1142.8419
697.45837	1141.0815
698.15741	1117.6987
698.85645	1108.9795
699.55548	1130.6119
700.25458	1121.7959
700.95361	1099.6672
701.65265	1133.7798
702.35168	1126.9402
703.05072	1115.0856
703.74976	1100.5997
704.44885	1105.3342
705.14789	1093.0013
705.84692	1073.4092
706.54596	1074.0341
707.245	1061.6072
707.94403	1062.5455
708.64313	1047.5696
709.34216	1052.8196
710.0412	1056.5225
710.74023	1072.2396
711.43927	1038.6484
712.13837	1040.1985
712.8374	1018.9298
713.53644	999.86115
714.23547	1000.921
714.93451	1019.2819
715.63354	1011.7758
716.33264	1014.1549
717.03168	1039.9253
717.73071	993.73425
718.42975	997.42511
719.12878	981.30994
719.82782	1034.6469
720.52692	992.98193
721.22595	980.84985
721.92499	981.12097
722.62402	958.56488
723.32306	967.43091
724.02216	984.48621
724.72119	1005.4999
725.42023	996.01959
726.11926	991.76825
726.8183	954.88434
727.51733	979.46112
728.21643	961.6275
728.91547	951.8161
729.6145	951.52454
730.31354	951.71124
731.01257	935.74841
731.71161	943.86267
732.41071	947.90088
733.10974	915.55267
733.80878	929.36169
734.50781	922.33661
735.20685	914.71924
735.90594	927.56989
736.60498	982.23328
737.30402	913.1825
738.00305	913.1825
738.70209	913.1825
739.40112	941.85242
740.10022	892.25488
740.79926	884.6488
741.49829	888.16467
742.19733	893.06262
742.89636	860.11407
743.5954	889.05762
744.29449	885.13904
744.99353	872.08557
745.69257	860.78503
746.3916	861.69501
747.09064	859.2793
747.78973	862.30225
748.48877	841.55853
749.18781	852.23297
749.88684	860.11877
750.58588	854.50842
751.28491	856.07111
751.98401	845.36078
752.68304	849.53906
753.38208	846.18976
754.08112	842.56732
754.78015	834.43951
755.47919	832.67578
756.17828	822.34564
756.87732	818.04913
757.57635	827.38159
758.27539	817.77789
758.97443	783.08899
759.67352	785.49323
760.37256	798.8927
761.07159	796.16235
761.77063	797.74799
762.46967	827.96033
763.1687	817.69727
763.8678	796.12585
764.56683	792.82556
765.26587	783.70648
765.9649	787.76563
766.66394	775.72266
767.36298	756.14172
768.06207	769.05457
768.76111	794.26489
769.46014	789.88464
770.15918	779.1767
770.85822	776.28717
771.55731	783.71094
772.25635	786.73975
772.95538	783.32092
773.65442	768.91296
774.35345	754.15057
775.05249	767.32513
775.75159	758.70789
776.45062	756.8252
777.14966	749.95569
777.84869	745.62952
778.54773	734.46625
779.24677	739.59106
779.94586	734.96631
780.6449	746.65118
781.34393	723.45715
782.04297	733.91431
782.742	720.16211
783.4411	729.75555
784.14014	715.38879
784.83917	722.40906
785.53821	731.30267
786.23724	734.49915
786.93628	728.11041
787.63538	733.75281
788.33441	735.02393
789.03345	716.29785
789.73248	700.52295
790.43152	716.21088
791.13055	700.23914
791.82965	686.14514
792.52869	693.12665
793.22772	693.23505
793.92676	679.00739
794.62579	679.65961
795.32489	680.92206
796.02393	675.64917
796.72296	670.89392
797.422	679.25348
798.12103	658.56989
798.82007	661.42212
799.51917	656.9259
800.2182	654.03717
800.91724	670.24097
801.61627	683.56152
802.31531	648.68103
803.01434	625.85577
803.71344	647.74255
804.41248	646.98413
805.11151	633.24268
805.81055	643.06171
806.50958	632.27893
807.20868	619.94989
807.90771	622.09296
808.60675	617.72748
809.30579	613.52319
810.00482	623.85608
810.70386	579.1593
811.40295	599.08643
812.10199	597.03046
812.80103	597.38312
813.50006	580.81146
814.1991	587.06952
814.89813	586.01227
815.59723	597.97546
816.29626	580.43396
816.9953	604.24481
817.69434	575.70532
818.39337	575.22424
819.09247	556.28448
819.7915	566.96234
820.49054	561.81848
821.18958	575.7973
821.88861	569.41736
822.58765	574.85443
823.28674	538.39301
823.98578	559.53607
824.68481	579.11548
825.38385	564.47028
826.08289	533.20819
826.78192	532.41302
827.48102	555.25873
828.18005	542.01099
828.87909	548.22394
829.57813	555.47961
830.27716	554.01935
830.9762	542.35901
831.67529	548.25983
832.37433	559.64325
833.07336	557.01862
833.7724	558.099
834.47144	564.52649
835.17053	557.35193
835.86957	533.40833
836.5686	544.92078
837.26764	570.7196
837.96667	529.40082
838.66571	553.40057
839.36481	549.58948
840.06384	581.80188
840.76288	563.3277
841.46191	583.65417
842.16095	570.5014
842.85999	573.79443
843.55908	600.35779
844.25812	579.63861
844.95715	575.96283
845.65619	595.6676
846.35522	623.48596
847.05432	611.71606
847.75336	612.95966
848.45239	623.82178
849.15143	646.71918
849.85046	648.37939
850.5495	655.67072
851.2486	672.52563
851.94763	662.30835
852.64667	663.4162
853.3457	689.58484
854.04474	700.42767
854.74377	701.84955
855.44287	703.80524
856.14191	708.21637
856.84094	722.29706
857.53998	739.71838
858.23901	741.40448
858.93811	726.11188
859.63715	743.09021
860.33618	771.40344
861.03522	791.72278
861.73425	797.8053
862.43329	795.06281
863.13239	791.55084
863.83142	813.11194
864.53046	832.60693
865.22949	834.02979
865.92853	837.72943
866.62756	848.2569
867.32666	861.41699
868.0257	856.94073
868.72473	859.36261
869.42377	885.06543
870.1228	902.83447
870.8219	899.6485
871.52094	907.87543
872.21997	915.64539
872.91901	949.2887
873.61804	941.16693
874.31708	945.14825
875.01617	955.82056
875.71521	970.53564
876.41425	959.91888
877.11328	986.4953
877.81232	1023.3922
878.51135	1006.0083
879.21045	980.62494
879.90948	979.85828
880.60852	1014.2244
881.30756	1025.8014
882.00659	1061.0762
882.70569	1044.0999
883.40472	1073.7537
884.10376	1103.3364
884.8028	1086.1877
885.50183	1100.1382
886.20087	1113.9243
886.89996	1114.9213
887.599	1141.3312
888.29803	1143.4702
888.99707	1169.2195
889.69611	1155.2572
890.39514	1121.9386
891.09424	1156.3794
891.79327	1171.71
892.49231	1152.0701
893.19135	1176.9792
893.89038	1195.4038
894.58948	1205.1687
895.28851	1209.2773
895.98755	1222.7935
896.68658	1234.6433
897.38562	1229.772
898.08466	1219.6202
898.78375	1213.0142
899.48279	1228.5248
900.18182	1231.7507
900.88086	1256.6094
901.5799	1274.6781
902.27893	1318.3519
902.97803	1306.7402
903.67706	1296.3446
904.3761	1354.694
905.07513	1334.261
905.77417	1309.8641
906.47327	1319.2546
907.1723	1335.9749
907.87134	1333.7302
908.57037	1330.0447
909.26941	1360.3588
909.96844	1352.0024
910.66754	1343.6
911.36658	1366.4303
912.06561	1384.0087
912.76465	1374.2242
913.46368	1374.172
914.16272	1348.0961
914.86182	1388.8336
915.56085	1394.0784
916.25989	1406.5298
916.95892	1401.8191
917.65796	1413.306
918.35706	1421.6508
919.05609	1418.9994
919.75513	1419.8385
920.45416	1456.3988
921.1532	1460.0367
921.85223	1508.1637
922.55133	1454.4915
923.25037	1442.2158
923.9494	1428.3436
924.64844	1463.2949
925.34747	1422.3671
926.04651	1486.9753
926.74561	1484.1099
927.44464	1449.7601
928.14368	1452.9781
928.84271	1512.7103
929.54175	1526.8719
930.24084	1467.7018
930.93988	1543.2566
931.63892	1549.2742
932.33795	1541.5347
933.03699	1545.1093
933.73602	1539.8976
934.43512	1582.2083
935.13416	1585.833
935.83319	1570.2473
936.53223	1556.6111
937.23126	1555.3896
937.9303	1545.9309
938.62939	1569.6489
939.32843	1601.5105
940.02747	1617.6465
940.7265	1631.088
941.42554	1637.0043
942.12463	1612.5687
942.82367	1618.5215
943.52271	1636.6703
944.22174	1640.6483
944.92078	1653.3964
945.61981	1649.2441
946.31891	1673.5972
947.01794	1694.3579
947.71698	1689.9463
948.41602	1644.5979
949.11505	1701.7864
949.81409	1686.0929
950.51318	1667.2344
951.21222	1650.8251
951.91125	1719.4935
952.61029	1695.7649
953.30933	1711.6385
954.00842	1697.2755
954.70746	1734.3342
955.40649	1727.3782
956.10553	1708.5592
956.80457	1689.6165
957.5036	1706.7412
958.2027	1724.0388
958.90173	1771.2201
959.60077	1762.4779
960.2998	1777.2117
960.99884	1748.5833
961.69788	1700.4603
962.39697	1704.4812
963.09601	1698.5782
963.79504	1697.1973
964.49408	1767.6997
965.19312	1766.9143
965.89221	1760.7283
966.59125	1777.7433
967.29028	1771.8477
967.98932	1774.7054
968.68835	1772.4227
969.38739	1778.4713
970.08649	1741.5718
970.78552	1682.1206
971.48456	1750.5297
972.18359	1806.6154
972.88263	1831.9656
973.58167	1826.4308
974.28076	1828.9352
974.9798	1801.9327
975.67883	1793.5273
976.37787	1734.1715
977.0769	1816.3973
977.776	1838.3115
978.47504	1767.7258
979.17407	1758.9929
979.87311	1793.4019
980.57214	1815.6714
981.27118	1774.4819
981.97028	1847.287
982.66931	1806.9554
983.36835	1773.6921
984.06738	1787.6241
984.76642	1801.1389
985.46545	1778.2709
986.16455	1815.5076
986.86359	1821.2288
987.56262	1805.4348
988.26166	1784.3562
988.96069	1757.4899
989.65979	1797.29
990.35883	1839.1583
991.05786	1817.4524
991.7569	1790.4171
992.45593	1776.3961
993.15497	1776.2191
993.85406	1753.9039
994.5531	1816.4691
995.25214	1797.5193
995.95117	1782.5332
996.65021	1755.1405
997.34924	1836.3126
998.04834	1808.562
998.74738	1799.1368
999.44641	1889.6564
1000.1454	1765.6323
1000.8445	1823.2397
1001.5436	1819.301
1002.2426	1826.3032
1002.9417	1829.7799
1003.6407	1758.5215
1004.3397	1784.566
1005.0388	1804.5916
1005.7379	1810.1462
1006.4369	1793.7435
1007.1359	1805.4904
1007.835	1782.6742
1008.534	1784.8311
1009.233	1796.4312
1009.9321	1800.4176
1010.6312	1793.1968
1011.3302	1798.299
1012.0292	1776.272
1012.7283	1764.7687
1013.4274	1779.075
1014.1264	1781.3462
1014.8254	1770.9849
1015.5245	1794.5195
1016.2235	1766.6134
1016.9225	1772.4415
1017.6216	1752.0696
1018.3207	1708.6265
1019.0197	1777.9004
1019.7188	1766.113
1020.4178	1730.5861
1021.1168	1756.5847
1021.8159	1762.1555
1022.515	1727.7297
1023.214	1738.3513
1023.913	1727.8539
1024.6121	1739.7913
1025.3112	1732.7443
1026.0101	1715.1326
1026.7092	1728.1813
1027.4083	1681.6946
1028.1073	1657.3988
1028.8064	1694.423
1029.5054	1732.9052
1030.2045	1729.6306
1030.9034	1692.6604
1031.6025	1675.1655
1032.3016	1694.4972
1033.0006	1680.0618
1033.6997	1679.1731
1034.3987	1683.8444
1035.0978	1670.7612
1035.7969	1705.7468
1036.4958	1652.4254
1037.1949	1677.8419
1037.8939	1648.0836
1038.593	1657.6027
1039.2921	1638.8224
1039.9911	1617.6898
1040.6902	1594.4819
1041.3892	1615.0331
1042.0883	1615.9694
1042.7872	1622.9034
1043.4863	1617.3008
1044.1854	1629.1473
1044.8844	1601.0394
1045.5835	1559.3026
1046.2825	1560.1899
1046.9816	1581.1371
1047.6807	1551.7174
1048.3796	1558.9464
1049.0787	1545.5746
1049.7777	1532.4817
1050.4768	1544.4187
1051.1759	1577.5935
1051.8749	1526.7329
1052.574	1541.2751
1053.2729	1498.1233
1053.972	1480.5575
1054.671	1506.823
1055.3701	1460.0712
1056.0692	1490.2467
1056.7682	1502.9375
1057.4673	1529.0138
1058.1663	1536.5399
1058.8654	1470.7892
1059.5645	1454.0503
1060.2634	1454.3079
1060.9625	1411.7034
1061.6615	1410.9794
1062.3606	1427.5157
1063.0597	1397.0597
1063.7587	1386.7798
1064.4578	1376.365
1065.1567	1364.8336
1065.8558	1365.3145
1066.5548	1356.8861
1067.2539	1360.7888
1067.953	1358.9362
1068.652	1339.9957
1069.3511	1310.0436
1070.05	1292.3091
1070.7491	1301.5178
1071.4482	1276.9308
1072.1472	1286.319
1072.8463	1273.7311
1073.5453	1275.6383
1074.2444	1227.7631
1074.9435	1261.0021
1075.6425	1279.6172
1076.3416	1263.7008
1077.0405	1207.4662
1077.7396	1211.5452
1078.4386	1207.088
1079.1377	1203.6703
1079.8368	1180.234
1080.5358	1163.5491
1081.2349	1165.4247
1081.9338	1160.7827
1082.6329	1155.6895
1083.332	1140.0339
1084.031	1133.0715
1084.7301	1138.6587
1085.4291	1114.4238
1086.1282	1100.8717
1086.8273	1087.3035
1087.5262	1079.8735
1088.2253	1084.7216
1088.9243	1090.6401
1089.6234	1048.8326
1090.3224	1051.578
1091.0215	1045.0503
1091.7206	1018.248
1092.4196	1025.457
1093.1187	1029.363
1093.8176	1018.5718
1094.5167	989.59869
1095.2158	958.2782
1095.9148	964.19226
1096.6139	963.83966
1097.3129	959.77203
1098.012	950.27191
1098.7111	920.02649
1099.41	942.00385
1100.1091	958.7215
1100.8081	928.60992
1101.5072	903.3454
1102.2062	872.82922
1102.9053	883.61877
1103.6044	886.59082
1104.3033	880.39539
1105.0024	871.13477
1105.7014	846.62384
1106.4005	861.85596
1107.0996	845.54169
1107.7986	821.74304
1108.4977	815.84277
1109.1967	827.20551
1109.8958	840.91284
1110.5948	821.2149
1111.2938	804.64209
1111.9929	790.59949
1112.6919	795.15405
1113.391	781.64734
1114.09	772.10144
1114.7891	778.44983
1115.4882	761.19202
1116.1871	745.46338
1116.8862	731.11627
1117.5852	743.41345
1118.2843	743.2121
1118.9834	731.66711
1119.6824	711.57092
1120.3815	717.4278
1121.0804	716.76733
1121.7795	705.40277
1122.4786	703.0343
1123.1776	703.63
1123.8767	708.65009
1124.5757	694.0025
1125.2748	684.05249
1125.9738	676.32135
1126.6729	672.0697
1127.3719	672.30566
1128.0709	689.71362
1128.77	664.82483
1129.469	654.02509
1130.1681	637.85187
1130.8672	637.72095
1131.5662	625.50824
1132.2653	645.22034
1132.9642	641.23749
1133.6633	637.76477
1134.3624	626.59314
1135.0614	634.93866
1135.7605	617.21826
1136.4595	597.40063
1137.1586	583.83868
1137.8575	594.07025
1138.5566	593.50787
1139.2557	589.26617
1139.9547	583.47961
1140.6538	591.22571
1141.3528	585.88806
1142.0519	564.85797
1142.751	559.17395
1143.45	552.81598
1144.149	532.14819
1144.848	544.3205
1145.5471	555.29138
1146.2462	565.65253
1146.9452	559.49023
1147.6443	548.25555
1148.3433	551.48248
1149.0424	537.12134
1149.7413	543.56366
1150.4404	531.89288
1151.1395	519.42987
1151.8385	518.16949
1152.5376	512.37604
1153.2366	518.24084
1153.9357	508.89661
1154.6348	502.53369
1155.3337	503.57263
1156.0328	501.59839
1156.7318	507.02328
1157.4309	499.73804
1158.13	494.24219
1158.829	488.57318
1159.5281	489.68863
1160.2271	495.57343
1160.9261	491.18405
1161.6251	467.62012
1162.3242	476.4407
1163.0233	481.0563
1163.7223	460.733
1164.4214	461.81522
1165.1204	461.45236
1165.8195	451.49774
1166.5186	465.45993
1167.2175	459.32306
1167.9166	454.66116
1168.6156	449.89194
1169.3147	455.92322
1170.0137	458.2475
1170.7128	452.56079
1171.4119	439.27173
1172.1108	432.90533
1172.8099	433.76651
1173.5089	434.30997
1174.208	428.87112
1174.9071	419.03952
1175.6061	439.18588
1176.3052	423.92029
1177.0042	427.64429
1177.7032	412.34344
1178.4023	426.94427
1179.1013	415.81842
1179.8004	415.56012
1180.4994	413.67386
1181.1985	401.09119
1181.8975	407.81287
1182.5966	407.29858
1183.2957	412.93448
1183.9946	401.04938
1184.6937	394.05365
1185.3927	400.7403
1186.0918	393.52417
1186.7909	391.02582
1187.4899	386.87823
1188.189	393.76999
1188.8879	402.72189
1189.587	388.19382
1190.2861	388.10281
1190.9851	371.62036
1191.6842	364.8436
1192.3832	367.33774
1193.0823	381.6669
1193.7813	375.44803
1194.4803	366.39444
1195.1794	367.08023
1195.8784	367.67047
1196.5775	394.89944
1197.2765	399.82327
1197.9756	388.39261
1198.6747	371.10999
1199.3737	371.42621
1200.0728	363.83969
1200.7717	363.82822
1201.4708	356.18863
1202.1699	345.8912
1202.8689	357.21408
1203.568	352.75424
1204.267	331.84698
1204.9661	346.146
1205.665	338.03964
1206.3641	331.45337
1207.0632	349.5155
1207.7622	353.11017
1208.4613	349.46829
1209.1603	336.55676
1209.8594	324.31137
1210.5585	325.62296
1211.2574	337.80051
1211.9565	333.51718
1212.6555	323.7323
1213.3546	316.06189
1214.0537	320.20724
1214.7527	316.37805
1215.4518	320.69168
1216.1508	318.30396
1216.8499	308.5867
1217.5488	317.05173
1218.2479	312.89145
1218.947	311.2583
1219.646	316.94162
1220.3451	305.50537
1221.0441	307.66531
1221.7432	308.21133
1222.4423	312.26581
1223.1412	296.26688
1223.8403	300.30283
1224.5393	300.0123
1225.2384	296.34946
1225.9375	295.6655
1226.6365	299.45844
1227.3356	319.68448
1228.0345	295.83405
1228.7336	308.89526
1229.4326	302.83795
1230.1317	298.3476
1230.8308	296.17896
1231.5298	293.49496
1232.2289	278.02252
1232.9279	288.7663
1233.627	276.14755
1234.326	275.91492
1235.025	286.06415
1235.7241	283.43887
1236.4231	275.51996
1237.1222	273.99237
1237.8213	291.05759
1238.5203	292.20108
1239.2194	279.40805
1239.9183	285.80688
1240.6174	284.48309
1241.3164	265.35574
1242.0155	276.28217
1242.7146	290.71106
1243.4136	255.59743
1244.1127	279.86218
1244.8116	278.23663
1245.5107	274.1348
1246.2098	268.28256
1246.9088	270.91354
1247.6079	274.16412
1248.3069	280.21591
1249.006	274.97958
1249.7051	280.90314
1250.4041	272.21896
1251.1031	276.13559
1251.8021	271.39426
1252.5012	268.44223
1253.2002	281.69394
1253.8993	280.33978
1254.5984	269.2616
1255.2974	274.90533
1255.9965	290.8746
1256.6954	279.3364
1257.3945	272.2551
1258.0936	262.45209
1258.7926	270.08054
1259.4917	273.76718
1260.1907	269.31671
1260.8898	265.56378
1261.5889	279.7771
1262.2878	266.24628
1262.9869	256.7681
1263.6859	263.04111
1264.385	249.1207
1265.084	261.8504
1265.7831	269.97699
1266.4822	261.19507
1267.1812	264.61346
1267.8802	303.39056
1268.5792	312.41336
1269.2783	300.47452
1269.9774	273.68121
1270.6764	264.60464
1271.3755	276.29578
1272.0745	289.45291
1272.7736	274.0856
1273.4727	273.86304
1274.1716	279.3685
1274.8707	268.88055
1275.5697	258.26291
1276.2688	271.58871
1276.9678	263.19025
1277.6669	287.28943
1278.366	268.17538
1279.0649	261.16724
1279.764	273.09985
1280.463	268.61993
1281.1621	259.79599
1281.8612	261.00467
1282.5602	263.56927
1283.2593	263.52832
1283.9583	270.81546
1284.6573	272.73862
1285.3564	269.11319
1286.0554	267.60776
1286.7545	263.63608
1287.4535	277.48926
1288.1526	265.05908
1288.8516	275.94357
1289.5507	255.86
1290.2498	279.67767
1290.9487	270.84457
1291.6478	272.6871
1292.3468	273.23441
1293.0459	265.68033
1293.745	270.07587
1294.444	268.65802
1295.1431	265.75439
1295.842	292.61929
1296.5411	277.16455
1297.2402	268.65033
1297.9392	253.72205
1298.6383	266.14188
1299.3373	264.00458
1300.0364	263.14505
1300.7354	254.37021
1301.4344	260.31964
1302.1335	271.03244
1302.8325	273.53256
1303.5316	263.08218
1304.2306	263.22324
1304.9297	268.35638
1305.6288	271.04111
1306.3278	277.93051
1307.0269	265.59335
1307.7258	275.0961
1308.4249	259.41306
1309.124	252.89323
1309.823	257.65674
1310.5221	266.76205
1311.2211	264.52914
1311.9202	272.87585
1312.6191	267.71997
1313.3182	258.67416
1314.0173	262.43372
1314.7163	262.69418
1315.4154	263.78818
1316.1144	286.36411
1316.8135	297.47766
1317.5126	320.10532
1318.2115	288.18756
1318.9106	310.8754
1319.6096	299.55713
1320.3087	283.97159
1321.0078	258.4278
1321.7068	259.13528
1322.4059	270.27936
1323.1049	260.31287
1323.804	267.64981
1324.5029	277.89575
1325.202	277.65714
1325.9011	273.34058
1326.6001	266.57901
1327.2992	273.85724
1327.9982	261.15732
1328.6973	265.16925
1329.3964	266.2789
1330.0953	262.20502
1330.7944	263.91287
1331.4934	276.37424
1332.1925	257.99347
1332.8916	261.44583
1333.5906	271.30157
1334.2897	271.51886
1334.9886	271.66083
1335.6877	274.16989
1336.3867	279.31418
1337.0858	246.34781
1337.7849	264.50684
1338.4839	276.05893
1339.183	281.74045
1339.882	259.25031
1340.5811	263.953
1341.2802	268.26138
1341.9791	290.88611
1342.6782	313.49557
1343.3772	290.87912
1344.0763	302.52322
1344.7754	303.13959
1345.4744	266.16666
1346.1735	277.9718
1346.8724	264.1192
1347.5715	267.57123
1348.2705	269.20569
1348.9696	272.59338
1349.6687	266.5563
1350.3677	266.15018
1351.0668	272.99521
1351.7657	275.42307
1352.4648	296.69012
1353.1639	306.12561
1353.8629	296.33481
1354.562	273.2915
1355.261	266.99829
1355.9601	264.16693
1356.6592	281.64008
1357.3582	267.11139
1358.0573	267.09613
1358.7562	266.54111
1359.4553	279.9588
1360.1543	275.42072
1360.8534	278.86572
1361.5525	267.74628
1362.2515	271.45758
1362.9506	273.88129
1363.6495	262.09592
1364.3486	269.21143
1365.0477	264.59473
1365.7467	267.50671
1366.4458	273.24353
1367.1448	269.48401
1367.8439	277.37384
1368.543	266.61612
1369.2419	270.98492
1369.941	270.92493
1370.64	273.01428
1371.3391	267.35141
1372.0381	288.13019
1372.7372	266.49341
1373.4363	275.21796
1374.1353	271.20947
1374.8344	273.15643
1375.5333	275.55408
1376.2324	276.74866
1376.9315	274.51642
1377.6305	284.20517
1378.3296	278.21014
1379.0286	269.68875
1379.7277	268.21765
1380.4268	289.8735
1381.1257	266.39539
1381.8248	276.31348
1382.5238	270.57101
1383.2229	262.99805
1383.9219	273.85617
1384.621	273.02185
1385.3201	264.63535
1386.019	271.37866
1386.7181	274.33807
1387.4171	266.18533
1388.1162	282.91492
1388.8153	284.90106
1389.5143	276.28915
1390.2134	277.40833
1390.9124	258.36139
1391.6115	276.93945
1392.3105	287.5593
1393.0095	273.74054
1393.7086	267.67334
1394.4076	263.24393
1395.1067	263.19055
1395.8057	282.43408
1396.5048	273.62903
1397.2039	270.58313
1397.9028	282.3931
1398.6019	265.27014
1399.3009	271.21466
1400	278.27615
