20.082397	-13.79764
20.781445	85.793716
21.48049	263.07324
22.179537	399.58347
22.878584	515.47339
23.577629	648.21619
24.276676	761.21271
24.975721	832.90955
25.674768	862.51025
26.373816	849.79541
27.072861	903.31403
27.771908	853.39209
28.470955	877.77753
29.17	848.89319
29.869047	863.38989
30.568094	897.33899
31.267139	907.4787
31.966187	895.38336
32.665234	902.39417
33.364281	973.38538
34.063324	1136.4757
34.762371	860.22876
35.461418	918.26978
36.160465	918.26978
36.859512	1067.4821
37.558559	1067.4821
38.257603	1067.4821
38.95665	1067.4821
39.655697	1067.4821
40.354744	1324.1556
41.053791	1156.2166
41.752834	1166.662
42.451881	1180.6584
43.150928	1209.4095
43.849976	1354.3579
44.549023	1312.5752
45.24807	1273.7272
45.947113	1281.9897
46.64616	1315.874
47.345207	1354.9069
48.044254	1394.7075
48.743301	1445.0179
49.442345	1497.5764
50.141392	1520.522
50.840439	1523.9862
51.539486	1570.005
52.238533	1537.9801
52.93758	1546.9388
53.636623	1563.2286
54.33567	1606.9755
55.034718	1616.9105
55.733765	1603.7394
56.432812	1612.547
57.131855	1651.9608
57.830902	1695.803
58.529949	1738.9773
59.228996	1813.1978
59.928043	1891.6622
60.62709	1861.4811
61.326134	1854.1654
62.025181	1760.9331
62.724228	1756.4907
63.423275	1814.2477
64.122322	1822.7274
64.821365	1825.725
65.520416	1852.8378
66.21946	1851.088
66.918503	1892.4449
67.617554	1923.288
68.316597	1992.4507
69.015648	1926.0955
69.714691	1928.3768
70.413742	1959.0271
71.112785	1991.8986
71.811829	2007.6299
72.51088	2025.8201
73.209923	2022.1147
73.908974	2020.5996
74.608017	2066.8569
75.30706	2072.7534
76.006111	2138.5916
76.705154	2080.9209
77.404205	2028.3625
78.103249	1995.176
78.802292	2014.6061
79.501343	2034.9047
80.200386	2100.8298
80.899437	2128.3728
81.59848	2117.8215
82.297531	2159.3672
82.996574	2230.2898
83.695618	2229.7136
84.394669	2219.24
85.093712	2165.8674
85.792763	2173.3315
86.491806	2114.6707
87.190849	2148.5801
87.8899	2163.6978
88.588943	2162.0176
89.287994	2169.2529
89.987038	2216.3669
90.686081	2268.5273
91.385132	2275.1179
92.084175	2282.5835
92.783226	2294.9204
93.482269	2247.8577
94.181313	2246.5959
94.880363	2231.7473
95.579407	2212.2581
96.278458	2162.6484
96.977501	2212.0051
97.676552	2280.2236
98.375595	2254.1855
99.074638	2225.0498
99.773689	2266.697
100.47273	2265.7883
101.17178	2249.2029
101.87083	2244.0955
102.56987	2247.665
103.26892	2306.5945
103.96796	2340.5623
104.66702	2270.7751
105.36606	2288.002
106.0651	2252.6372
106.76415	2274.8835
107.4632	2334.3398
108.16225	2350.8682
108.86129	2355.5293
109.56034	2302.509
110.25938	2250.5283
110.95843	2226.4478
111.65748	2234.1758
112.35652	2239.6707
113.05557	2266.9319
113.75462	2296.3064
114.45366	2279.8188
115.15271	2280.886
115.85175	2285.3389
116.5508	2265.6379
117.24985	2264.7622
117.94889	2294.6729
118.64794	2267.9492
119.34698	2213.1943
120.04604	2293.9236
120.74508	2264.5024
121.44412	2286.4744
122.14317	2303.3125
122.84222	2310.4312
123.54127	2311.947
124.24031	2269.1011
124.93936	2268.438
125.6384	2291.3735
126.33745	2262.002
127.0365	2240.0742
127.73554	2260.7686
128.43459	2283.6462
129.13364	2299.7744
129.83269	2288.5767
130.53172	2244.4895
131.23077	2309.563
131.92982	2279.0383
132.62888	2281.8918
133.32791	2254.408
134.02696	2247.2708
134.72601	2274.0217
135.42505	2275.6282
136.1241	2271.9934
136.82315	2279.8142
137.52219	2254.7844
138.22124	2204.4939
138.92029	2244.373
139.61934	2280.9119
140.31837	2209.9512
141.01743	2235.7659
141.71648	2232.1003
142.41551	2263.0332
143.11456	2254.5439
143.81361	2230.886
144.51266	2246.4651
145.2117	2237.5313
145.91075	2206.6191
146.6098	2217.2983
147.30884	2181.647
148.00789	2226.1892
148.70694	2198.4265
149.40598	2208.6143
150.10503	2227.9785
150.80408	2217.5327
151.50313	2217.7419
152.20216	2228.552
152.90121	2238.6724
153.60027	2203.7705
154.2993	2178.5354
154.99835	2248.0098
155.6974	2259.0181
156.39645	2232.9897
157.09549	2205.2141
157.79454	2171.751
158.49359	2224.2571
159.19263	2184.8208
159.89168	2175.4697
160.59073	2210.0557
161.28976	2213.636
161.98882	2171.843
162.68787	2159.7988
163.38692	2185.0989
164.08595	2193.0942
164.785	2180.9263
165.48405	2144.4973
166.18309	2135.4626
166.88214	2197.6992
167.58119	2225.6355
168.28023	2146.4451
168.97928	2159.0598
169.67833	2170.8977
170.37738	2149.6455
171.07642	2182.2043
171.77547	2177.4182
172.47452	2122.8042
173.17355	2114.676
173.8726	2163.2698
174.57166	2175.0435
175.27071	2118.8386
175.96974	2156.7778
176.66879	2154.9563
177.36784	2097.1921
178.06688	2097.1177
178.76593	2134.4856
179.46498	2140.0356
180.16402	2049.4951
180.86307	2089.8884
181.56212	2127.281
182.26117	2125.6245
182.96021	2125.385
183.65926	2102.0156
184.35831	2085.6724
185.05734	2102.2783
185.75639	2148.5171
186.45544	2092.9739
187.1545	2067.0327
187.85353	2045.7087
188.55258	2105.8359
189.25163	2114.0903
189.95067	2117.8706
190.64972	2109.9431
191.34877	2086.8103
192.04781	2079.0291
192.74686	2085.3621
193.44591	2108.551
194.14496	2125.0928
194.84399	2062.6199
195.54305	2013.92
196.2421	2070.5098
196.94113	2030.9661
197.64018	2105.2725
198.33923	2021.1844
199.03828	2018.4508
199.73732	2062.7646
200.43637	2039.8513
201.13542	2055.1858
201.83446	2081.6785
202.53351	2060.0562
203.23256	2024.6755
203.93159	2031.1223
204.63065	2041.7285
205.3297	2011.6765
206.02875	2043.9869
206.72778	2031.2754
207.42683	1997.8407
208.12589	2027.1479
208.82492	2034.7401
209.52397	2012.1846
210.22302	2052.8315
210.92207	2016.0183
211.62111	2044.9323
212.32016	2041.6096
213.01921	2016.7981
213.71825	1994.4517
214.4173	1964.7755
215.11635	1986.0292
215.81538	2028.7856
216.51443	2021.5032
217.21349	2050.7837
217.91254	1991.6583
218.61157	2001.1265
219.31062	1999.2
220.00967	1980.6741
220.70871	2056.2686
221.40776	2042.6886
222.10681	1995.3149
222.80585	1997.9292
223.5049	1992.1648
224.20395	1991.4338
224.903	2004.5267
225.60204	2009.5892
226.30109	2027.9264
227.00014	1982.9047
227.69917	1972.5748
228.39822	1922.7476
229.09727	1923.8575
229.79633	2008.4653
230.49536	1961.0084
231.19441	1976.9637
231.89346	1979.0226
232.5925	2001.9603
233.29155	1943.9922
233.9906	1917.4044
234.68964	1927.296
235.38869	1936.9767
236.08774	1945.6207
236.78679	1935.5111
237.48582	1920.1133
238.18488	1906.4581
238.88393	1952.7538
239.58296	1962.8573
240.28201	1862.6294
240.98106	1895.7797
241.68011	1938.2278
242.37915	1931.1714
243.0782	1932.047
243.77725	1946.8223
244.47629	1925.8854
245.17534	1909.7383
245.87439	1879.5106
246.57343	1869.2593
247.27248	1899.4963
247.97153	1927.1202
248.67058	1946.974
249.36961	1911.4232
250.06866	1912.1794
250.76772	1888.0193
251.46675	1885.3945
252.1658	1854.3605
252.86485	1857.1383
253.5639	1840.5314
254.26294	1901.4185
254.96199	1895.9438
255.66104	1887.0547
256.36008	1876.538
257.05914	1880.2902
257.75818	1870.7662
258.45721	1860.0798
259.15628	1862.6138
259.85532	1863.2952
260.55435	1901.2072
261.25342	1856.985
261.95245	1868.8438
262.65149	1838.3279
263.35056	1885.2556
264.04959	1909.9028
264.74863	1883.6158
265.44769	1819.3389
266.14673	1855.88
266.84576	1864.734
267.54483	1878.1882
268.24387	1836.2738
268.94293	1795.2545
269.64197	1816.217
270.341	1849.9767
271.04007	1847.6765
271.73911	1831.9652
272.43814	1831.9377
273.13721	1818.3134
273.83624	1797.2173
274.53528	1836.5173
275.23434	1781.8563
275.93338	1820.3638
276.63242	1811.887
277.33148	1812.5637
278.03052	1827.2271
278.72955	1807.5173
279.42862	1791.6472
280.12766	1826.3983
280.82672	1821.4122
281.52576	1826.2899
282.22479	1837.3899
282.92386	1813.687
283.62289	1800.1685
284.32193	1777.6069
285.021	1815.8942
285.72003	1819.8557
286.41907	1830.0282
287.11813	1801.9069
287.81717	1735.8944
288.5162	1778.3373
289.21527	1803.0483
289.91431	1770.0607
290.61334	1772.8868
291.31241	1770.5453
292.01144	1745.6489
292.71051	1750.7002
293.40955	1775.0927
294.10858	1785.2338
294.80765	1797.1646
295.50668	1817.3492
296.20572	1827.0884
296.90479	1821.4891
297.60382	1767.9764
298.30286	1726.5737
299.00192	1737.8492
299.70096	1743.4723
300.39999	1756.401
301.09906	1748.4897
301.7981	1792.9509
302.49713	1784.8794
303.1962	1781.9774
303.89523	1759.3446
304.5943	1757.6404
305.29333	1773.5748
305.99237	1783.9694
306.69144	1762.2944
307.39047	1740.295
308.08951	1750.6877
308.78857	1763.3279
309.48761	1765.2178
310.18665	1764.1566
310.88571	1733.1604
311.58475	1720.4608
312.28378	1763.8452
312.98285	1754.217
313.68188	1699.6769
314.38092	1739.7783
315.07999	1698.1815
315.77902	1725.7678
316.47806	1716.0103
317.17712	1746.9532
317.87616	1739.4519
318.57523	1745.2357
319.27426	1741.731
319.9733	1730.5609
320.67236	1731.1976
321.3714	1736.2363
322.07043	1739.8134
322.7695	1729.8772
323.46854	1731.5367
324.16757	1750.2345
324.86664	1745.1099
325.56567	1721.0831
326.26471	1722.8145
326.96378	1734.3739
327.66281	1711.8706
328.36185	1676.9257
329.06091	1699.5812
329.75995	1739.1793
330.45901	1734.7883
331.15805	1711.6099
331.85709	1717.6083
332.55615	1729.4204
333.25519	1718.9114
333.95422	1705.4679
334.65329	1688.6003
335.35233	1675.3361
336.05136	1685.61
336.75043	1694.7501
337.44946	1720.8052
338.1485	1740.7113
338.84756	1694.6793
339.5466	1647.6646
340.24564	1711.4519
340.9447	1681.1792
341.64374	1698.363
342.3428	1715.8158
343.04184	1704.6088
343.74088	1704.4849
344.43994	1696.0415
345.13898	1692.4874
345.83801	1695.4749
346.53708	1682.5382
347.23611	1686.5447
347.93515	1669.1379
348.63422	1673.0753
349.33325	1705.5266
350.03229	1685.1733
350.73135	1675.9631
351.43039	1711.2833
352.12943	1717.7378
352.82849	1660.6166
353.52753	1673.0514
354.22659	1686.8966
354.92563	1649.1793
355.62466	1692.4818
356.32373	1678.4186
357.02277	1664.6584
357.7218	1691.9315
358.42087	1681.8118
359.1199	1690.3604
359.81894	1661.0785
360.51801	1655.1798
361.21704	1673.8136
361.91608	1658.1975
362.61514	1672.1963
363.31418	1696.4045
364.01321	1684.5154
364.71228	1671.5269
365.41132	1656.7517
366.11038	1656.6254
366.80942	1669.3751
367.50845	1674.6218
368.20752	1656.4008
368.90656	1615.7148
369.60559	1632.4889
370.30466	1665.4427
371.00369	1646.9655
371.70273	1638.1344
372.40179	1656.0737
373.10083	1648.26
373.79987	1657.7501
374.49893	1669.8833
375.19797	1666.7401
375.897	1634.2692
376.59607	1615.5775
377.2951	1635.9534
377.99417	1652.9109
378.69321	1652.2878
379.39224	1650.0107
380.09131	1651.4225
380.79034	1659.8716
381.48938	1670.592
382.18845	1669.8781
382.88748	1633.9811
383.58652	1638.6254
384.28558	1651.1771
384.98462	1630.3309
385.68365	1594.9951
386.38272	1572.5383
387.08176	1646.1255
387.78079	1608.8654
388.47986	1633.6735
389.17889	1636.0442
389.87796	1655.8456
390.577	1644.6025
391.27603	1625.6455
391.9751	1668.8766
392.67413	1651.4153
393.37317	1621.9027
394.07224	1625.5022
394.77127	1628.8799
395.47031	1629.0939
396.16937	1655.6237
396.86841	1678.6459
397.56744	1656.5092
398.26651	1640.0767
398.96555	1619.3694
399.66458	1638.2076
400.36365	1646.7067
401.06268	1628.683
401.76175	1629.0624
402.46078	1629.5691
403.15982	1627.9596
403.85889	1596.4929
404.55792	1580.5601
405.25696	1607.4448
405.95602	1629.0511
406.65506	1632.7903
407.3541	1629.5511
408.05316	1652.5763
408.7522	1644.4207
409.45123	1622.3342
410.1503	1628.6682
410.84933	1625.2822
411.54837	1618.4838
412.24744	1622.1118
412.94647	1618.0111
413.64554	1621.3127
414.34457	1632.0367
415.04361	1632.0438
415.74268	1641.9023
416.44171	1637.9478
417.14075	1637.1774
417.83981	1636.7842
418.53885	1620.533
419.23788	1607.0179
419.93695	1591.7692
420.63599	1615.2917
421.33502	1644.713
422.03409	1648.9374
422.73312	1683.6563
423.43216	1618.7271
424.13123	1612.036
424.83026	1622.9255
425.5293	1640.6862
426.22836	1633.416
426.9274	1621.4084
427.62646	1614.9238
428.3255	1615.6078
429.02454	1610.0425
429.7236	1607.593
430.42264	1599.249
431.12167	1607.2362
431.82074	1630.7279
432.51978	1631.3483
433.21881	1632.8998
433.91788	1633.4231
434.61691	1628.9594
435.31595	1598.365
436.01501	1600.6334
436.71405	1606.4604
437.41309	1661.8289
438.11215	1658.3181
438.81119	1644.8693
439.51025	1587.1683
440.20929	1629.2189
440.90833	1624.9042
441.60739	1653.2963
442.30643	1611.7783
443.00546	1562.1196
443.70453	1606.7102
444.40356	1602.2203
445.1026	1609.4159
445.80167	1647.2162
446.5007	1643.0337
447.19974	1635.6366
447.8988	1630.8741
448.59784	1614.8154
449.29688	1637.0286
449.99594	1638.0295
450.69498	1600.0585
451.39404	1619.5472
452.09308	1657.0153
452.79211	1633.7272
453.49118	1610.0824
454.19022	1630.8005
454.88925	1641.0709
455.58832	1631.661
456.28735	1639.2145
456.98639	1617.5635
457.68546	1592.1464
458.38449	1598.7394
459.08353	1603.8809
459.78259	1600.6761
460.48163	1610.4258
461.18066	1609.7595
461.87973	1625.6794
462.57877	1616.2719
463.27783	1641.7859
463.97687	1625.5771
464.6759	1585.6394
465.37497	1615.1615
466.07401	1610.2208
466.77304	1625.2285
467.47211	1637.575
468.17114	1637.5605
468.87018	1642.7557
469.56924	1629.9624
470.26828	1642.4718
470.96732	1622.9038
471.66638	1609.3613
472.36542	1614.0508
473.06445	1588.4855
473.76352	1596.4229
474.46255	1597.5216
475.16162	1603.9709
475.86066	1613.007
476.55969	1621.7692
477.25876	1613.5828
477.95779	1618.9004
478.65683	1623.5256
479.3559	1608.8011
480.05493	1619.1956
480.75397	1609.9155
481.45303	1635.4396
482.15207	1607.8376
482.8511	1655.9137
483.55017	1616.002
484.24921	1661.6321
484.94824	1647.2076
485.64731	1631.3721
486.34634	1614.2655
487.04541	1601.777
487.74445	1605.0824
488.44348	1622.7208
489.14255	1617.4727
489.84158	1614.3533
490.54062	1643.319
491.23969	1628.2515
491.93872	1630.7393
492.63776	1646.6713
493.33682	1643.7823
494.03586	1633.5505
494.73489	1612.4445
495.43396	1609.0331
496.133	1635.4991
496.83203	1636.7734
497.5311	1616.5643
498.23013	1636.2046
498.9292	1677.3408
499.62823	1670.8339
500.32727	1637.4856
501.02634	1641.5375
501.72537	1600.8416
502.42441	1610.5433
503.12347	1599.4867
503.82251	1620.3988
504.52155	1668.229
505.22061	1654.3029
505.91965	1666.2766
506.61868	1649.2698
507.31775	1678.6221
508.01678	1674.8873
508.71582	1674.9269
509.41489	1655.5084
510.11392	1642.386
510.81299	1642.548
511.51202	1639.2329
512.21106	1667.7938
512.9101	1670.0883
513.60913	1652.7603
514.30823	1643.9774
515.00726	1693.9379
515.7063	1665.3308
516.40533	1635.5768
517.10437	1677.7948
517.80347	1660.6313
518.5025	1659.2761
519.20154	1662.1357
519.90057	1654.0388
520.59961	1660.8645
521.29865	1681.2549
521.99774	1708.2925
522.69678	1705.624
523.39581	1701.13
524.09485	1728.3456
524.79388	1706.387
525.49292	1661.6859
526.19202	1676.4824
526.89105	1680.7173
527.59009	1709.7535
528.28912	1687.944
528.98816	1668.9663
529.68726	1688.656
530.38629	1698.3605
531.08533	1697.3541
531.78436	1666.1537
532.4834	1678.286
533.18243	1687.4838
533.88153	1708.8722
534.58057	1698.6584
535.2796	1713.9404
535.97864	1689.1304
536.67767	1724.6537
537.37671	1676.3418
538.07581	1704.5801
538.77484	1731.5896
539.47388	1727.6986
540.17291	1696.8031
540.87195	1701.7764
541.57104	1711.9591
542.27008	1721.4973
542.96912	1728.7214
543.66815	1710.1595
544.36719	1719.9338
545.06622	1712.4349
545.76532	1713.1525
546.46436	1724.057
547.16339	1739.0885
547.86243	1726.3934
548.56146	1735.3601
549.2605	1702.0325
549.95959	1701.5278
550.65863	1693.6926
551.35767	1711.9025
552.0567	1734.916
552.75574	1730.5154
553.45483	1720.6971
554.15387	1709.4991
554.85291	1719.7827
555.55194	1734.5659
556.25098	1734.3171
556.95001	1726.3137
557.64911	1732.4106
558.34814	1720.6506
559.04718	1714.4712
559.74622	1715.7809
560.44525	1716.6357
561.14429	1761.2723
561.84338	1760.5063
562.54242	1745.1814
563.24146	1755.2411
563.94049	1708.4042
564.63953	1740.141
565.33862	1758.0674
566.03766	1756.7648
566.73669	1732.3042
567.43573	1718.1023
568.13477	1762.3226
568.8338	1707.2003
569.5329	1772.5836
570.23193	1714.244
570.93097	1773.7238
571.63	1767.2484
572.32904	1770.639
573.02808	1758.3304
573.72717	1792.2115
574.42621	1752.4465
575.12524	1761.0044
575.82428	1786.7429
576.52332	1723.0845
577.22241	1790.8634
577.92145	1737.9344
578.62048	1747.6771
579.31952	1737.9985
580.01855	1762.8114
580.71759	1757.2368
581.41669	1756.0266
582.11572	1769.2854
582.81476	1753.2955
583.51379	1731.4445
584.21283	1742.082
584.91187	1743.1764
585.61096	1735.6031
586.31	1754.7034
587.00903	1762.0646
587.70807	1766.1726
588.4071	1750.1852
589.1062	1758.5146
589.80524	1752.0911
590.50427	1756.1661
591.20331	1734.8829
591.90234	1752.2849
592.60138	1745.9648
593.30048	1724.9424
593.99951	1739.23
594.69855	1759.7708
595.39758	1787.0873
596.09662	1751.7125
596.79565	1728.8274
597.49475	1734.51
598.19379	1742.9889
598.89282	1748.8237
599.59186	1737.4203
600.29089	1706.5487
600.98993	1699.4681
601.68903	1713.7968
602.38806	1729.3342
603.0871	1730.0264
603.78613	1722.7217
604.48517	1703.1328
605.18427	1677.6744
605.8833	1695.4283
606.58234	1711.2784
607.28137	1697.6685
607.98041	1697.6093
608.67944	1697.0743
609.37854	1701.89
610.07758	1683.8459
610.77661	1672.6703
611.47565	1667.5916
612.17468	1665.1379
612.87372	1676.46
613.57281	1683.7717
614.27185	1644.6605
614.97089	1660.2977
615.66992	1676.5402
616.36896	1645.849
617.06805	1664.8156
617.76709	1669.4822
618.46613	1626.8708
619.16516	1648.7592
619.8642	1636.74
620.56323	1640.3099
621.26233	1626.0338
621.96136	1663.6393
622.6604	1615.5125
623.35944	1623.0332
624.05847	1636.5526
624.75751	1621.5704
625.4566	1651.3357
626.15564	1602.5413
626.85468	1600.9546
627.55371	1604.4495
628.25275	1578.4537
628.95184	1591.9844
629.65088	1585.5157
630.34991	1610.66
631.04895	1625.4862
631.74799	1608.7288
632.44702	1592.1742
633.14612	1589.5096
633.84515	1570.6333
634.54419	1575.4607
635.24323	1583.9723
635.94226	1600.2336
636.6413	1577.1276
637.34039	1539.559
638.03943	1547.1857
638.73846	1548.1755
639.4375	1564.4492
640.13654	1554.9911
640.83563	1555.4259
641.53467	1561.8582
642.2337	1544.9192
642.93274	1540.8407
643.63177	1532.6774
644.33081	1529.8538
645.02991	1539.1089
645.72894	1551.1808
646.42798	1546.7041
647.12701	1539.5782
647.82605	1543.2296
648.52509	1568.6686
649.22418	1551.7587
649.92322	1563.9259
650.62225	1559.1858
651.32129	1569.9098
652.02032	1545.1493
652.71942	1551.0614
653.41846	1553.8627
654.11749	1564.5392
654.81653	1517.1823
655.51556	1497.9784
656.2146	1510.0067
656.9137	1507.1936
657.61273	1533.7969
658.31177	1546.9027
659.0108	1507.5757
659.70984	1521.4034
660.40887	1538.6334
661.10797	1522.6266
661.80701	1495.7657
662.50604	1542.0911
663.20508	1532.554
663.90411	1516.8064
664.60321	1543.5343
665.30225	1525.7798
666.00128	1516.8845
666.70032	1525.9451
667.39935	1518.6969
668.09839	1526.4753
668.79749	1515.7439
669.49652	1530.0393
670.19556	1516.4053
670.89459	1498.5272
671.59363	1503.9622
672.29266	1524.6495
672.99176	1534.4148
673.6908	1508.5424
674.38983	1509.3823
675.08887	1512.0366
675.7879	1503.127
676.487	1491.2644
677.18604	1503.9978
677.88507	1506.5841
678.58411	1501.8342
679.28314	1499.0348
679.98218	1504.9734
680.68127	1509.2786
681.38031	1529.9968
682.07935	1539.1179
682.77838	1544.6942
683.47742	1511.4958
684.17645	1480.5023
684.87555	1507.0122
685.57458	1500.1013
686.27362	1477.3003
686.97266	1487.2341
687.67169	1490.213
688.37079	1488.6229
689.06982	1484.7344
689.76886	1465.6356
690.4679	1480.3226
691.16693	1503.8811
691.86597	1489.5798
692.56506	1478.5476
693.2641	1483.4501
693.96313	1480.21
694.66217	1461.7823
695.36121	1473.2043
696.06024	1470.3596
696.75934	1493.9358
697.45837	1462.9983
698.15741	1471.6486
698.85645	1487.1859
699.55548	1483.826
700.25458	1448.2706
700.95361	1475.4104
701.65265	1451.7849
702.35168	1461.7538
703.05072	1488.7404
703.74976	1470.1886
704.44885	1462.7367
705.14789	1471.2048
705.84692	1435.0159
706.54596	1469.0176
707.245	1445.4229
707.94403	1469.4194
708.64313	1455.0997
709.34216	1453.8954
710.0412	1452.4628
710.74023	1447.7332
711.43927	1443.1335
712.13837	1454.0033
712.8374	1419.2413
713.53644	1415.962
714.23547	1396.2869
714.93451	1392.296
715.63354	1392.6661
716.33264	1436.6919
717.03168	1412.0771
717.73071	1430.5592
718.42975	1420.1049
719.12878	1449.3026
719.82782	1433.0134
720.52692	1424.0775
721.22595	1421.0676
721.92499	1418.2878
722.62402	1414.2489
723.32306	1399.4695
724.02216	1419.1831
724.72119	1432.1431
725.42023	1382.7015
726.11926	1402.8755
726.8183	1406.9628
727.51733	1385.2944
728.21643	1389.9987
728.91547	1405.0502
729.6145	1390.278
730.31354	1367.9404
731.01257	1378.312
731.71161	1389.8566
732.41071	1401.6129
733.10974	1379.8857
733.80878	1394.399
734.50781	1370.0988
735.20685	1344.0739
735.90594	1362.5975
736.60498	1386.7375
737.30402	1356.8822
738.00305	1345.3988
738.70209	1343.5087
739.40112	1346.537
740.10022	1361.4674
740.79926	1329.7422
741.49829	1343.9197
742.19733	1329.7738
742.89636	1346.0907
743.5954	1340.0233
744.29449	1356.2238
744.99353	1320.7417
745.69257	1319.0476
746.3916	1312.4479
747.09064	1263.8943
747.78973	1291.3817
748.48877	1316.3889
749.18781	1271.2864
749.88684	1293.0383
750.58588	1329.9609
751.28491	1324.5963
751.98401	1325.2485
752.68304	1278.8188
753.38208	1262.6947
754.08112	1274.0819
754.78015	1260.7341
755.47919	1260.6908
756.17828	1247.0739
756.87732	1260.9678
757.57635	1280.8253
758.27539	1271.6195
758.97443	1257.9344
759.67352	1254.3888
760.37256	1259.2053
761.07159	1273.6034
761.77063	1259.1359
762.46967	1274.4406
763.1687	1278.6311
763.8678	1237.6665
764.56683	1214.2117
765.26587	1224.6617
765.9649	1214.7557
766.66394	1216.7124
767.36298	1231.4958
768.06207	1212.1311
768.76111	1204.9908
769.46014	1226.2749
770.15918	1211.337
770.85822	1240.0763
771.55731	1250.9186
772.25635	1225.3231
772.95538	1202.2919
773.65442	1181.0494
774.35345	1152.9291
775.05249	1154.7058
775.75159	1149.5609
776.45062	1160.3306
777.14966	1154.5239
777.84869	1117.9231
778.54773	1151.9442
779.24677	1169.1426
779.94586	1129.7291
780.6449	1136.4255
781.34393	1139.3629
782.04297	1121.9749
782.742	1097.8411
783.4411	1116.6287
784.14014	1123.0677
784.83917	1110.9379
785.53821	1119.6088
786.23724	1122.0248
786.93628	1092.556
787.63538	1089.6643
788.33441	1086.425
789.03345	1078.7695
789.73248	1085.0592
790.43152	1081.9656
791.13055	1074.1312
791.82965	1111.9041
792.52869	1076.1443
793.22772	1062.7109
793.92676	1072.2434
794.62579	1081.5131
795.32489	1087.9948
796.02393	1065.2369
796.72296	1062.8958
797.422	1051.4558
798.12103	1036.1627
798.82007	1016.6979
799.51917	1015.0372
800.2182	1025.9211
800.91724	1011.493
801.61627	1007.485
802.31531	977.46204
803.01434	993.0481
803.71344	970.07697
804.41248	989.99823
805.11151	979.69824
805.81055	990.09833
806.50958	1007.6257
807.20868	1007.4099
807.90771	1006.5851
808.60675	999.42798
809.30579	993.34979
810.00482	985.47723
810.70386	944.50031
811.40295	960.45984
812.10199	963.85095
812.80103	939.91302
813.50006	946.78284
814.1991	973.53253
814.89813	960.52814
815.59723	963.93378
816.29626	966.08771
816.9953	962.22253
817.69434	972.20087
818.39337	962.26801
819.09247	992.88696
819.7915	986.13416
820.49054	972.35602
821.18958	969.64484
821.88861	961.4632
822.58765	996.44147
823.28674	967.09625
823.98578	996.23291
824.68481	950.74121
825.38385	957.24152
826.08289	981.48456
826.78192	1005.0455
827.48102	994.42291
828.18005	1012.0082
828.87909	1001.5428
829.57813	995.16321
830.27716	978.91089
830.9762	1067.8589
831.67529	1052.1589
832.37433	1014.6429
833.07336	1062.5323
833.7724	1017.4238
834.47144	1054.2267
835.17053	1092.1935
835.86957	1064.8392
836.5686	1077.364
837.26764	1079.6263
837.96667	1109.7761
838.66571	1102.4741
839.36481	1138.1632
840.06384	1137.9446
840.76288	1129.2272
841.46191	1156.2479
842.16095	1171.0469
842.85999	1129.4402
843.55908	1135.4839
844.25812	1139.4733
844.95715	1185.3162
845.65619	1198.578
846.35522	1161.911
847.05432	1223.1511
847.75336	1214.77
848.45239	1235.1365
849.15143	1286.4016
849.85046	1276.2162
850.5495	1259.45
851.2486	1302.4489
851.94763	1293.2325
852.64667	1307.3634
853.3457	1326.1416
854.04474	1316.2609
854.74377	1320.1356
855.44287	1332.3588
856.14191	1369.9259
856.84094	1390.1858
857.53998	1344.0328
858.23901	1387.7339
858.93811	1405.6964
859.63715	1428.3635
860.33618	1464.5334
861.03522	1469.6174
861.73425	1458.4392
862.43329	1466.0603
863.13239	1473.9398
863.83142	1498.0311
864.53046	1521.0989
865.22949	1572.5737
865.92853	1591.6604
866.62756	1589.9889
867.32666	1590.1233
868.0257	1553.385
868.72473	1558.2834
869.42377	1576.2828
870.1228	1599.787
870.8219	1640.76
871.52094	1639.261
872.21997	1681.8323
872.91901	1735.188
873.61804	1751.5989
874.31708	1758.855
875.01617	1779.4163
875.71521	1759.5579
876.41425	1775.4254
877.11328	1805.7709
877.81232	1808.2771
878.51135	1791.7201
879.21045	1844.1353
879.90948	1820.0885
880.60852	1869.9418
881.30756	1878.2356
882.00659	1860.949
882.70569	1922.6505
883.40472	1941.524
884.10376	1961.265
884.8028	1978.766
885.50183	2001.166
886.20087	2032.5828
886.89996	1975.8022
887.599	1968.9363
888.29803	1982.2057
888.99707	2084.8967
889.69611	2068.1655
890.39514	2091.0364
891.09424	2051.8943
891.79327	2069.0269
892.49231	2140.7834
893.19135	2154.7791
893.89038	2171.5242
894.58948	2155.5918
895.28851	2094.0623
895.98755	2176.0754
896.68658	2171.2461
897.38562	2206.5881
898.08466	2195.8225
898.78375	2197.644
899.48279	2223.9622
900.18182	2204.0195
900.88086	2261.7131
901.5799	2268.5872
902.27893	2217.5317
902.97803	2246.0342
903.67706	2311.1934
904.3761	2328.7021
905.07513	2312.126
905.77417	2319.5776
906.47327	2366.8948
907.1723	2367.3489
907.87134	2358.0281
908.57037	2339.0439
909.26941	2366.3765
909.96844	2391.4626
910.66754	2382.5886
911.36658	2412.0042
912.06561	2403.915
912.76465	2390.8425
913.46368	2416.6379
914.16272	2428.5496
914.86182	2433.5217
915.56085	2449.54
916.25989	2413.3779
916.95892	2414.1331
917.65796	2453.6843
918.35706	2449.0581
919.05609	2476.8892
919.75513	2498.5798
920.45416	2477.7817
921.1532	2545.6838
921.85223	2545.7515
922.55133	2523.6831
923.25037	2570.4131
923.9494	2527.5308
924.64844	2588.4304
925.34747	2556.2214
926.04651	2576.3132
926.74561	2561.3743
927.44464	2549.5376
928.14368	2530.9497
928.84271	2545.511
929.54175	2579.1958
930.24084	2613.1018
930.93988	2558.95
931.63892	2572.2612
932.33795	2570.4656
933.03699	2550.7078
933.73602	2559.949
934.43512	2591.2769
935.13416	2584.1348
935.83319	2585.9065
936.53223	2596.5549
937.23126	2599.8025
937.9303	2551.1807
938.62939	2543.1479
939.32843	2592.8381
940.02747	2624.6116
940.7265	2584.2651
941.42554	2560.6108
942.12463	2608.6824
942.82367	2634.3635
943.52271	2622.6418
944.22174	2619.01
944.92078	2608.8701
945.61981	2621.3191
946.31891	2609.7969
947.01794	2615.2639
947.71698	2604.4746
948.41602	2598.0808
949.11505	2658.8242
949.81409	2591.6702
950.51318	2593.0481
951.21222	2654.0774
951.91125	2619.689
952.61029	2651.6726
953.30933	2602.3962
954.00842	2620.0923
954.70746	2614.0693
955.40649	2633.3992
956.10553	2643.0786
956.80457	2609.7642
957.5036	2630.7222
958.2027	2558.8362
958.90173	2671.4634
959.60077	2657.7275
960.2998	2627.0215
960.99884	2595.4248
961.69788	2565.0925
962.39697	2609.4968
963.09601	2646.2703
963.79504	2655.4331
964.49408	2622.7354
965.19312	2585.3806
965.89221	2596.8513
966.59125	2654.0706
967.29028	2644.4385
967.98932	2602.8176
968.68835	2610.9744
969.38739	2618.0566
970.08649	2585.679
970.78552	2569.6465
971.48456	2595.6086
972.18359	2603.3884
972.88263	2570.8333
973.58167	2538.9751
974.28076	2546.2258
974.9798	2566.613
975.67883	2558.8044
976.37787	2552.9897
977.0769	2579.1182
977.776	2576.085
978.47504	2571.7065
979.17407	2517.6399
979.87311	2599.3103
980.57214	2555.6646
981.27118	2557.7566
981.97028	2531.9648
982.66931	2480.6785
983.36835	2512.8586
984.06738	2532.3552
984.76642	2573.0525
985.46545	2506.5615
986.16455	2468.6614
986.86359	2525.8289
987.56262	2550.0696
988.26166	2530.0564
988.96069	2495.2444
989.65979	2489.7844
990.35883	2461.54
991.05786	2492.9233
991.7569	2495.4651
992.45593	2455.7178
993.15497	2458.9507
993.85406	2429.832
994.5531	2441.3271
995.25214	2452.2593
995.95117	2461.354
996.65021	2423.4309
997.34924	2436.2764
998.04834	2349.0752
998.74738	2381.8196
999.44641	2420.8594
1000.1454	2457.2295
1000.8445	2378.0552
1001.5436	2421.439
1002.2426	2397.969
1002.9417	2346.6394
1003.6407	2343.468
1004.3397	2311.6807
1005.0388	2334.3958
1005.7379	2377.8108
1006.4369	2356.0166
1007.1359	2335.5808
1007.835	2325.3135
1008.534	2338.1414
1009.233	2313.5498
1009.9321	2321.0608
1010.6312	2313.0486
1011.3302	2304.4419
1012.0292	2305.4768
1012.7283	2300.1072
1013.4274	2292.4375
1014.1264	2318.8447
1014.8254	2317.0718
1015.5245	2270.6079
1016.2235	2319.4407
1016.9225	2266.603
1017.6216	2251.5493
1018.3207	2257.835
1019.0197	2226.3516
1019.7188	2267.7461
1020.4178	2178.9407
1021.1168	2210.6387
1021.8159	2157.2307
1022.515	2179.5945
1023.214	2157.4387
1023.913	2170.2034
1024.6121	2151.4631
1025.3112	2136.8337
1026.0101	2126.6528
1026.7092	2160.665
1027.4083	2142.4321
1028.1073	2117.522
1028.8064	2108.1396
1029.5054	2125.0002
1030.2045	2064.5129
1030.9034	2057.1641
1031.6025	2074.822
1032.3016	2049.752
1033.0006	2019.5619
1033.6997	2060.1338
1034.3987	2042.6326
1035.0978	2058.6699
1035.7969	2021.3369
1036.4958	2069.1062
1037.1949	2015.0732
1037.8939	2042.8483
1038.593	2001.6577
1039.2921	1998.9662
1039.9911	1981.561
1040.6902	1955.8146
1041.3892	1954.1233
1042.0883	1890.7239
1042.7872	1910.6497
1043.4863	1931.6941
1044.1854	1900.7847
1044.8844	1887.5648
1045.5835	1900.9127
1046.2825	1891.7859
1046.9816	1869.2617
1047.6807	1857.823
1048.3796	1825.4871
1049.0787	1830.0637
1049.7777	1850.3884
1050.4768	1859.9987
1051.1759	1840.83
1051.8749	1816.949
1052.574	1844.8993
1053.2729	1849.3599
1053.972	1828.9866
1054.671	1798.3197
1055.3701	1736.0714
1056.0692	1786.6667
1056.7682	1808.6377
1057.4673	1772.8591
1058.1663	1775.8525
1058.8654	1735.6858
1059.5645	1757.3126
1060.2634	1728.4868
1060.9625	1706.2557
1061.6615	1723.307
1062.3606	1716.5988
1063.0597	1705.4851
1063.7587	1709.6376
1064.4578	1705.4303
1065.1567	1700.1624
1065.8558	1668.0441
1066.5548	1663.7731
1067.2539	1688.8438
1067.953	1682.0214
1068.652	1659.6317
1069.3511	1663.8287
1070.05	1623.6947
1070.7491	1675.1799
1071.4482	1633.6339
1072.1472	1660.3168
1072.8463	1623.7159
1073.5453	1594.9255
1074.2444	1618.4996
1074.9435	1621.0671
1075.6425	1615.0985
1076.3416	1640.631
1077.0405	1602.1493
1077.7396	1594.657
1078.4386	1607.8348
1079.1377	1601.2628
1079.8368	1592.3845
1080.5358	1558.8733
1081.2349	1555.0652
1081.9338	1543.9771
1082.6329	1551.4191
1083.332	1534.9349
1084.031	1535.4454
1084.7301	1508.7938
1085.4291	1510.156
1086.1282	1493.495
1086.8273	1532.4633
1087.5262	1474.3905
1088.2253	1477.1338
1088.9243	1501.3107
1089.6234	1480.1135
1090.3224	1488.1664
1091.0215	1489.9767
1091.7206	1562.4121
1092.4196	1514.8445
1093.1187	1467.8176
1093.8176	1463.4736
1094.5167	1451.2981
1095.2158	1436.1931
1095.9148	1438.8406
1096.6139	1419.9004
1097.3129	1413.2664
1098.012	1399.6664
1098.7111	1416.8446
1099.41	1405.8665
1100.1091	1402.6707
1100.8081	1367.5441
1101.5072	1375.4924
1102.2062	1404.6694
1102.9053	1395.0061
1103.6044	1412.2737
1104.3033	1368.6642
1105.0024	1389.2202
1105.7014	1382.88
1106.4005	1360.4437
1107.0996	1351.1827
1107.7986	1340.2456
1108.4977	1316.6265
1109.1967	1317.0533
1109.8958	1331.9659
1110.5948	1328.8744
1111.2938	1344.2762
1111.9929	1307.8507
1112.6919	1306.3588
1113.391	1303.452
1114.09	1322.6655
1114.7891	1295.9442
1115.4882	1277.5476
1116.1871	1277.5055
1116.8862	1290.1526
1117.5852	1282.0378
1118.2843	1257.9447
1118.9834	1258.8538
1119.6824	1246.1417
1120.3815	1251.5148
1121.0804	1268.3712
1121.7795	1257.3678
1122.4786	1275.049
1123.1776	1276.7906
1123.8767	1251.1075
1124.5757	1242.0022
1125.2748	1256.2174
1125.9738	1257.337
1126.6729	1227.5791
1127.3719	1221.3329
1128.0709	1243.9519
1128.77	1230.689
1129.469	1223.5603
1130.1681	1225.9613
1130.8672	1226.7122
1131.5662	1220.1899
1132.2653	1218.5603
1132.9642	1231.6777
1133.6633	1204.608
1134.3624	1223.0927
1135.0614	1177.0414
1135.7605	1207.6375
1136.4595	1213.7896
1137.1586	1200.9141
1137.8575	1169.4279
1138.5566	1144.5001
1139.2557	1184.4698
1139.9547	1205.2001
1140.6538	1232.9327
1141.3528	1176.1965
1142.0519	1181.3976
1142.751	1192.5858
1143.45	1168.2728
1144.149	1175.8176
1144.848	1189.542
1145.5471	1177.5957
1146.2462	1137.194
1146.9452	1146.2799
1147.6443	1158.2516
1148.3433	1131.1149
1149.0424	1120.0417
1149.7413	1143.1595
1150.4404	1165.3196
1151.1395	1155.2832
1151.8385	1130.5531
1152.5376	1129.2723
1153.2366	1159.707
1153.9357	1152.1168
1154.6348	1152.3568
1155.3337	1145.2083
1156.0328	1145.2975
1156.7318	1148.1226
1157.4309	1141.4395
1158.13	1141.5786
1158.829	1147.519
1159.5281	1134.7347
1160.2271	1130.2679
1160.9261	1121.7668
1161.6251	1114.2089
1162.3242	1109.019
1163.0233	1102.4413
1163.7223	1115.5751
1164.4214	1114.0061
1165.1204	1117.8019
1165.8195	1104.1829
1166.5186	1086.6329
1167.2175	1101.0385
1167.9166	1093.0829
1168.6156	1118.8344
1169.3147	1094.6677
1170.0137	1086.7749
1170.7128	1096.0179
1171.4119	1092.604
1172.1108	1093.9603
1172.8099	1098.1266
1173.5089	1084.985
1174.208	1097.6913
1174.9071	1103.7559
1175.6061	1073.2133
1176.3052	1094.9121
1177.0042	1104.2577
1177.7032	1113.3362
1178.4023	1097.1801
1179.1013	1152.6974
1179.8004	1083.5238
1180.4994	1093.7693
1181.1985	1083.9967
1181.8975	1088.4806
1182.5966	1086.5594
1183.2957	1068.9686
1183.9946	1060.5883
1184.6937	1065.8937
1185.3927	1078.5564
1186.0918	1071.0376
1186.7909	1074.6255
1187.4899	1070.4684
1188.189	1071.2457
1188.8879	1077.5609
1189.587	1076.1724
1190.2861	1040.8545
1190.9851	1058.6294
1191.6842	1087.2264
1192.3832	1097.4633
1193.0823	1078.2788
1193.7813	1074.3767
1194.4803	1079.481
1195.1794	1065.448
1195.8784	1061.1053
1196.5775	1088.109
1197.2765	1081.7605
1197.9756	1049.0826
1198.6747	1033.8358
1199.3737	1045.3989
1200.0728	1075.6737
1200.7717	1068.5322
1201.4708	1042.9539
1202.1699	1065.6746
1202.8689	1067.1591
1203.568	1060.3271
1204.267	1050.7231
1204.9661	1078.8021
1205.665	1051.9316
1206.3641	1057.7664
1207.0632	1040.3832
1207.7622	1042.6875
1208.4613	1068.9645
1209.1603	1054.818
1209.8594	1029.4634
1210.5585	1067.9186
1211.2574	1075.0779
1211.9565	1060.1978
1212.6555	1063.0133
1213.3546	1050.7526
1214.0537	1030.1808
1214.7527	1040.453
1215.4518	1032.4832
1216.1508	1064.3503
1216.8499	1067.8839
1217.5488	1045.2607
1218.2479	1019.0079
1218.947	1063.2352
1219.646	1035.5437
1220.3451	1031.8527
1221.0441	1065.3821
1221.7432	1057.3295
1222.4423	1046.6111
1223.1412	1036.7018
1223.8403	1037.3478
1224.5393	1050.762
1225.2384	1042.0892
1225.9375	1041.0975
1226.6365	1025.3185
1227.3356	1050.4514
1228.0345	1052.6493
1228.7336	1052.9973
1229.4326	1044.246
1230.1317	1031.7974
1230.8308	1046.9397
1231.5298	1057.5562
1232.2289	1050.6014
1232.9279	1048.8225
1233.627	1083.1387
1234.326	1068.4696
1235.025	1065.9614
1235.7241	1071.5051
1236.4231	1058.0256
1237.1222	1048.014
1237.8213	1048.6274
1238.5203	1058.6179
1239.2194	1038.9955
1239.9183	1093.282
1240.6174	1088.3854
1241.3164	1046.4709
1242.0155	1077.1158
1242.7146	1062.2823
1243.4136	1042.5464
1244.1127	1084.6135
1244.8116	1071.1144
1245.5107	1067.6644
1246.2098	1046.2322
1246.9088	1079.1757
1247.6079	1079.0198
1248.3069	1087.7079
1249.006	1084.5577
1249.7051	1096.1877
1250.4041	1072.2025
1251.1031	1065.4751
1251.8021	1078.6451
1252.5012	1060.1554
1253.2002	1051.2467
1253.8993	1059.4836
1254.5984	1059.329
1255.2974	1085.2036
1255.9965	1091.4874
1256.6954	1069.9255
1257.3945	1060.6227
1258.0936	1065.9194
1258.7926	1062.7277
1259.4917	1059.2118
1260.1907	1076.474
1260.8898	1062.5121
1261.5889	1058.6183
1262.2878	1074.2606
1262.9869	1120.6104
1263.6859	1129.7716
1264.385	1105.0129
1265.084	1088.0143
1265.7831	1125.4033
1266.4822	1107.6681
1267.1812	1101.4102
1267.8802	1068.8074
1268.5792	1090.2754
1269.2783	1107.4714
1269.9774	1095.8761
1270.6764	1097.3947
1271.3755	1119.4287
1272.0745	1118.1444
1272.7736	1114.8248
1273.4727	1116.8779
1274.1716	1121.7489
1274.8707	1087.177
1275.5697	1096.8796
1276.2688	1110.1155
1276.9678	1136.9257
1277.6669	1127.8629
1278.366	1117.0746
1279.0649	1134.3314
1279.764	1128.1395
1280.463	1127.1704
1281.1621	1112.1385
1281.8612	1120.825
1282.5602	1132.8088
1283.2593	1097.3206
1283.9583	1097.9797
1284.6573	1111.6194
1285.3564	1104.3347
1286.0554	1102.6229
1286.7545	1140.3582
1287.4535	1149.4423
1288.1526	1110.8879
1288.8516	1090.5153
1289.5507	1149.1213
1290.2498	1138.756
1290.9487	1151.2058
1291.6478	1148.2742
1292.3468	1123.1832
1293.0459	1114.0585
1293.745	1105.7845
1294.444	1120.7932
1295.1431	1152.4827
1295.842	1115.3042
1296.5411	1134.8992
1297.2402	1123.5811
1297.9392	1126.349
1298.6383	1159.4083
1299.3373	1172.4277
1300.0364	1148.6095
1300.7354	1123.9656
1301.4344	1113.2751
1302.1335	1138.8929
1302.8325	1168.2646
1303.5316	1159.4254
1304.2306	1147.9526
1304.9297	1143.2861
1305.6288	1130.444
1306.3278	1173.4799
1307.0269	1172.652
1307.7258	1128.1871
1308.4249	1141.7505
1309.124	1156.1249
1309.823	1139.7449
1310.5221	1174.371
1311.2211	1129.5641
1311.9202	1130.9915
1312.6191	1134.123
1313.3182	1141.9729
1314.0173	1173.8094
1314.7163	1186.2094
1315.4154	1164.7323
1316.1144	1148.1754
1316.8135	1194.7687
1317.5126	1173.8065
1318.2115	1183.511
1318.9106	1167.6161
1319.6096	1157.9738
1320.3087	1166.0682
1321.0078	1135.0677
1321.7068	1194.3987
1322.4059	1198.0149
1323.1049	1196.1577
1323.804	1199.9561
1324.5029	1191.2848
1325.202	1136.2322
1325.9011	1184.1292
1326.6001	1179.6449
1327.2992	1155.2831
1327.9982	1178.964
1328.6973	1206.8826
1329.3964	1176.5483
1330.0953	1198.0297
1330.7944	1208.4001
1331.4934	1179.0349
1332.1925	1175.3676
1332.8916	1199.1217
1333.5906	1212.6364
1334.2897	1193.0841
1334.9886	1180.3196
1335.6877	1204.0067
1336.3867	1152.3115
1337.0858	1196.1602
1337.7849	1248.1663
1338.4839	1212.0206
1339.183	1203.1351
1339.882	1198.0392
1340.5811	1178.5607
1341.2802	1212.8152
1341.9791	1230.3457
1342.6782	1249.7207
1343.3772	1224.4775
1344.0763	1235.9043
1344.7754	1224.5464
1345.4744	1241.7034
1346.1735	1274.0868
1346.8724	1280.1708
1347.5715	1245.6058
1348.2705	1211.8059
1348.9696	1207.6133
1349.6687	1223.9119
1350.3677	1214.0873
1351.0668	1201.2096
1351.7657	1244.7821
1352.4648	1222.4724
1353.1639	1264.2037
1353.8629	1252.9927
1354.562	1220.6288
1355.261	1270.4274
1355.9601	1231.7854
1356.6592	1247.4397
1357.3582	1261.8674
1358.0573	1244.193
1358.7562	1217.079
1359.4553	1216.7858
1360.1543	1261.8711
1360.8534	1281.7935
1361.5525	1220.3093
1362.2515	1189.9877
1362.9506	1265.3461
1363.6495	1234.4668
1364.3486	1204.4745
1365.0477	1277.906
1365.7467	1273.599
1366.4458	1286.0541
1367.1448	1270.5929
1367.8439	1282.3511
1368.543	1251.7457
1369.2419	1218.1135
1369.941	1237.3727
1370.64	1286.9438
1371.3391	1231.9879
1372.0381	1243.5908
1372.7372	1231.9501
1373.4363	1240.0884
1374.1353	1249.8223
1374.8344	1255.4426
1375.5333	1260.6338
1376.2324	1223.4224
1376.9315	1231.3375
1377.6305	1278.4806
1378.3296	1309.7258
1379.0286	1322.8776
1379.7277	1307.7162
1380.4268	1306.0626
1381.1257	1293.5251
1381.8248	1216.8307
1382.5238	1265.1554
1383.2229	1298.0485
1383.9219	1260.6002
1384.621	1308.4304
1385.3201	1298.2551
1386.019	1270.6195
1386.7181	1270.7225
1387.4171	1302.8771
1388.1162	1288.5201
1388.8153	1338.8198
1389.5143	1287.3007
1390.2134	1274.2797
1390.9124	1305.4877
1391.6115	1263.1802
1392.3105	1261.2516
1393.0095	1297.1467
1393.7086	1272.6665
1394.4076	1283.9731
1395.1067	1302.9143
1395.8057	1304.9924
1396.5048	1292.1003
1397.2039	1299.4906
1397.9028	1296.9153
1398.6019	1280.1866
1399.3009	1304.1781
1400	1312.491
