20.082397	55.059429
20.781445	127.82024
21.48049	233.51289
22.179537	361.69437
22.878584	470.30206
23.577629	576.89252
24.276676	645.45959
24.975721	684.17584
25.674768	734.67297
26.373816	761.53162
27.072861	755.66565
27.771908	795.67993
28.470955	830.32483
29.17	831.33276
29.869047	825.0448
30.568094	801.87964
31.267139	800.79822
31.966187	808.54364
32.665234	851.06274
33.364281	936.63757
34.063324	1021.1591
34.762371	1147.2172
35.461418	1134.6919
36.160465	1209.0516
36.859512	1115.432
37.558559	1174.6295
38.257603	1174.6295
38.95665	1174.6295
39.655697	1174.6295
40.354744	1167.5353
41.053791	1093.1803
41.752834	1125.3684
42.451881	1194.6548
43.150928	1216.0061
43.849976	1225.6477
44.549023	1258.7084
45.24807	1260.4872
45.947113	1257.1449
46.64616	1249.962
47.345207	1261.4636
48.044254	1279.9795
48.743301	1316.9371
49.442345	1167.5353
50.141392	1167.5353
50.840439	1440.663
51.539486	1445.7329
52.238533	1415.499
52.93758	1392.809
53.636623	1368.0391
54.33567	1370.1947
55.034718	1356.7931
55.733765	1375.2257
56.432812	1408.0023
57.131855	1409.677
57.830902	1411.5977
58.529949	1454.8218
59.228996	1483.79
59.928043	1560.1444
60.62709	1560.1444
61.326134	1526.2665
62.025181	1486.1942
62.724228	1461.7435
63.423275	1449.5116
64.122322	1466.021
64.821365	1483.7418
65.520416	1480.4106
66.21946	1497.6375
66.918503	1549.0485
67.617554	1540.4496
68.316597	1575.7769
69.015648	1521.1969
69.714691	1524.37
70.413742	1522.8922
71.112785	1541.2621
71.811829	1559.9171
72.51088	1564.8176
73.209923	1560.3704
73.908974	1554.425
74.608017	1563.8468
75.30706	1598.9298
76.006111	1576.5459
76.705154	1537.6395
77.404205	1531.6581
78.103249	1516.8804
78.802292	1549.9232
79.501343	1545.1067
80.200386	1551.776
80.899437	1574.4382
81.59848	1560.7899
82.297531	1541.0179
82.996574	1592.1685
83.695618	1558.0077
84.394669	1588.0693
85.093712	1538.3248
85.792763	1570.9
86.491806	1548.194
87.190849	1526.0702
87.8899	1536.2007
88.588943	1555.6304
89.287994	1561.577
89.987038	1545.4545
90.686081	1546.6497
91.385132	1583.0493
92.084175	1589.7684
92.783226	1583.9794
93.482269	1566.0295
94.181313	1590.3593
94.880363	1576.5598
95.579407	1576.0265
96.278458	1561.39
96.977501	1571.5608
97.676552	1574.2068
98.375595	1576.8893
99.074638	1576.7225
99.773689	1554.9158
100.47273	1540.5544
101.17178	1547.9517
101.87083	1540.4768
102.56987	1569.0137
103.26892	1566.673
103.96796	1566.673
104.66702	1580.538
105.36606	1566.673
106.0651	1605.4381
106.76415	1576.0182
107.4632	1583.303
108.16225	1617.6334
108.86129	1616.9662
109.56034	1574.5144
110.25938	1550.395
110.95843	1539.3633
111.65748	1529.1918
112.35652	1546.0802
113.05557	1547.0493
113.75462	1553.3066
114.45366	1547.8834
115.15271	1555.4435
115.85175	1544.3298
116.5508	1527.684
117.24985	1539.5815
117.94889	1554.1389
118.64794	1548.7823
119.34698	1508.7247
120.04604	1481.3311
120.74508	1491.9196
121.44412	1491.5662
122.14317	1526.8811
122.84222	1530.4843
123.54127	1519.6854
124.24031	1512.8541
124.93936	1517.6594
125.6384	1519.3318
126.33745	1504.5411
127.0365	1493.0918
127.73554	1504.1982
128.43459	1504.6975
129.13364	1509.1589
129.83269	1509.594
130.53172	1502.5756
131.23077	1521.1858
131.92982	1507.943
132.62888	1500.401
133.32791	1492.2914
134.02696	1508.2767
134.72601	1516.141
135.42505	1490.7159
136.1241	1475.1666
136.82315	1478.2242
137.52219	1540.3035
138.22124	1511.1305
138.92029	1529.1353
139.61934	1508.3254
140.31837	1493.0758
141.01743	1505.0776
141.71648	1500.4645
142.41551	1488.8058
143.11456	1472.9521
143.81361	1471.4594
144.51266	1470.1852
145.2117	1457.8754
145.91075	1482.5432
146.6098	1490.5653
147.30884	1463.8961
148.00789	1450.4491
148.70694	1453.1669
149.40598	1479.7415
150.10503	1506.4706
150.80408	1504.7203
151.50313	1480.1824
152.20216	1463.3107
152.90121	1462.8674
153.60027	1453.3035
154.2993	1446.7802
154.99835	1469.2007
155.6974	1460.6646
156.39645	1441.538
157.09549	1441.6226
157.79454	1453.2311
158.49359	1454.42
159.19263	1457.3766
159.89168	1454.9493
160.59073	1480.847
161.28976	1477.8887
161.98882	1459.8364
162.68787	1445.8949
163.38692	1432.1499
164.08595	1425.701
164.785	1425.4351
165.48405	1411.3552
166.18309	1422.63
166.88214	1434.6597
167.58119	1433.7054
168.28023	1482.5565
168.97928	1441.9624
169.67833	1416.6356
170.37738	1436.2136
171.07642	1435.949
171.77547	1427.738
172.47452	1488.5826
173.17355	1435.2244
173.8726	1467.661
174.57166	1431.7887
175.27071	1417.2389
175.96974	1441.2462
176.66879	1434.2289
177.36784	1383.5293
178.06688	1445.9628
178.76593	1447.8551
179.46498	1440.2681
180.16402	1424.4263
180.86307	1431.1307
181.56212	1425.7015
182.26117	1416.0363
182.96021	1428.1964
183.65926	1438.6339
184.35831	1463.5063
185.05734	1430.5464
185.75639	1430.5464
186.45544	1479.7186
187.1545	1446.6534
187.85353	1424.6735
188.55258	1414.7393
189.25163	1417.2607
189.95067	1416.5116
190.64972	1430.7106
191.34877	1423.3751
192.04781	1405.833
192.74686	1418.9812
193.44591	1425.1713
194.14496	1404.8492
194.84399	1428.884
195.54305	1434.0356
196.2421	1425.0913
196.94113	1433.6589
197.64018	1423.3669
198.33923	1368.5746
199.03828	1426.8516
199.73732	1410.0778
200.43637	1429.1088
201.13542	1436.0254
201.83446	1415.1433
202.53351	1401.8169
203.23256	1410.4403
203.93159	1420.7253
204.63065	1423.7186
205.3297	1427.0547
206.02875	1405.866
206.72778	1405.4386
207.42683	1418.1512
208.12589	1435.8735
208.82492	1404.3379
209.52397	1412.1523
210.22302	1423.296
210.92207	1421.469
211.62111	1421.6827
212.32016	1414.187
213.01921	1403.1777
213.71825	1407.3474
214.4173	1408.2354
215.11635	1399.7661
215.81538	1412.5121
216.51443	1391.4802
217.21349	1408.5701
217.91254	1381.9785
218.61157	1387.5621
219.31062	1410.4673
220.00967	1391.0547
220.70871	1394.1628
221.40776	1413.6473
222.10681	1414.0558
222.80585	1426.3873
223.5049	1412.7006
224.20395	1401.8982
224.903	1419.906
225.60204	1428.0876
226.30109	1435.6123
227.00014	1439.9165
227.69917	1417.7708
228.39822	1390.8632
229.09727	1409.9104
229.79633	1419.2451
230.49536	1413.1213
231.19441	1409.7609
231.89346	1383.0663
232.5925	1419.4362
233.29155	1433.4639
233.9906	1423.0231
234.68964	1412.5396
235.38869	1427.0105
236.08774	1446.0387
236.78679	1428.0095
237.48582	1408.4779
238.18488	1405.489
238.88393	1397.5353
239.58296	1426.5151
240.28201	1392.4615
240.98106	1413.99
241.68011	1401.2385
242.37915	1418.0897
243.0782	1431.7134
243.77725	1419.1229
244.47629	1427.7052
245.17534	1408.1481
245.87439	1389.2012
246.57343	1399.0155
247.27248	1419.1063
247.97153	1432.1871
248.67058	1423.1794
249.36961	1418.7612
250.06866	1400.0645
250.76772	1401.4731
251.46675	1413.0311
252.1658	1417.2262
252.86485	1455.5604
253.5639	1422.5623
254.26294	1459.2234
254.96199	1462.1327
255.66104	1418.552
256.36008	1452.0634
257.05914	1459.2354
257.75818	1447.0187
258.45721	1440.241
259.15628	1404.7958
259.85532	1414.7255
260.55435	1455.9811
261.25342	1439.564
261.95245	1439.0022
262.65149	1433.3575
263.35056	1406.5719
264.04959	1447.3447
264.74863	1431.4315
265.44769	1427.6698
266.14673	1459.8029
266.84576	1457.1741
267.54483	1454.7263
268.24387	1450.7214
268.94293	1459.9692
269.64197	1449.3737
270.341	1453.0925
271.04007	1491.7095
271.73911	1486.8121
272.43814	1476.3599
273.13721	1435.5876
273.83624	1421.7815
274.53528	1485.3357
275.23434	1437.6151
275.93338	1450.3057
276.63242	1457.2073
277.33148	1442.5381
278.03052	1448.3469
278.72955	1424.6484
279.42862	1425.9384
280.12766	1437.8755
280.82672	1437.9349
281.52576	1457.7908
282.22479	1488.4181
282.92386	1468.6486
283.62289	1431.3069
284.32193	1455.7589
285.021	1467.7722
285.72003	1464.2491
286.41907	1430.9536
287.11813	1430.2751
287.81717	1447.7255
288.5162	1411.4354
289.21527	1460.7374
289.91431	1443.1483
290.61334	1471.9484
291.31241	1481.151
292.01144	1468.4033
292.71051	1451.1868
293.40955	1475.2397
294.10858	1493.8052
294.80765	1472.9164
295.50668	1455.521
296.20572	1444.9487
296.90479	1442.2743
297.60382	1478.5985
298.30286	1462.0939
299.00192	1451.9303
299.70096	1490.4602
300.39999	1454.5461
301.09906	1482.8755
301.7981	1446.2366
302.49713	1446.7559
303.1962	1473.4026
303.89523	1474.1508
304.5943	1460.7971
305.29333	1449.2693
305.99237	1469.8297
306.69144	1497.113
307.39047	1488.8313
308.08951	1489.2684
308.78857	1492.9664
309.48761	1462.2068
310.18665	1501.1011
310.88571	1468.694
311.58475	1489.36
312.28378	1478.2563
312.98285	1487.9108
313.68188	1520.5598
314.38092	1488.8577
315.07999	1475.584
315.77902	1469.8932
316.47806	1497.5247
317.17712	1502.907
317.87616	1498.722
318.57523	1496.1145
319.27426	1510.4924
319.9733	1501.1816
320.67236	1495.9628
321.3714	1501.6929
322.07043	1481.7666
322.7695	1480.8649
323.46854	1472.1277
324.16757	1468.9707
324.86664	1487.9052
325.56567	1525.2646
326.26471	1488.4423
326.96378	1521.5847
327.66281	1529.564
328.36185	1511.2682
329.06091	1526.0946
329.75995	1487.276
330.45901	1502.7791
331.15805	1525.0796
331.85709	1530.5313
332.55615	1542.3134
333.25519	1532.5731
333.95422	1485.9622
334.65329	1469.7144
335.35233	1493.767
336.05136	1504.123
336.75043	1515.4458
337.44946	1517.6212
338.1485	1529.5691
338.84756	1527.2804
339.5466	1536.363
340.24564	1525.171
340.9447	1551.0668
341.64374	1548.2272
342.3428	1516.2784
343.04184	1537.308
343.74088	1492.5852
344.43994	1507.0173
345.13898	1539.2513
345.83801	1522.6305
346.53708	1533.1714
347.23611	1525.1757
347.93515	1519.8569
348.63422	1545.6134
349.33325	1549.373
350.03229	1539.1387
350.73135	1543.5231
351.43039	1538.397
352.12943	1533.1703
352.82849	1509.3967
353.52753	1519.6544
354.22659	1507.4547
354.92563	1467.5735
355.62466	1560.6732
356.32373	1580.9672
357.02277	1546.2915
357.7218	1556.0469
358.42087	1550.7616
359.1199	1538.6707
359.81894	1533.8713
360.51801	1546.66
361.21704	1539.6948
361.91608	1543.8909
362.61514	1548.7784
363.31418	1539.2094
364.01321	1530.3607
364.71228	1518.6969
365.41132	1513.5299
366.11038	1529.0626
366.80942	1542.5614
367.50845	1555.8218
368.20752	1574.9475
368.90656	1539.3002
369.60559	1576.3037
370.30466	1566.4938
371.00369	1536.3041
371.70273	1547.7885
372.40179	1539.479
373.10083	1536.1635
373.79987	1532.9714
374.49893	1544.8691
375.19797	1532.3718
375.897	1531.0654
376.59607	1539.9418
377.2951	1538.1613
377.99417	1559.7429
378.69321	1562.691
379.39224	1547.2694
380.09131	1550.1141
380.79034	1536.8038
381.48938	1533.0983
382.18845	1547.2343
382.88748	1555.6676
383.58652	1542.775
384.28558	1569.4448
384.98462	1564.9222
385.68365	1605.2046
386.38272	1561.7498
387.08176	1559.7268
387.78079	1554.1184
388.47986	1529.1357
389.17889	1570.5393
389.87796	1571.6807
390.577	1564.0194
391.27603	1548.3613
391.9751	1571.9663
392.67413	1576.7941
393.37317	1578.5129
394.07224	1572.4116
394.77127	1547.4451
395.47031	1550.5101
396.16937	1569.7047
396.86841	1577.3151
397.56744	1590.7765
398.26651	1583.3373
398.96555	1575.1355
399.66458	1522.136
400.36365	1576.3938
401.06268	1610.528
401.76175	1588.5767
402.46078	1596.8849
403.15982	1543.6355
403.85889	1584.7893
404.55792	1573.174
405.25696	1535.9504
405.95602	1565.308
406.65506	1610.7039
407.3541	1580.7096
408.05316	1589.4121
408.7522	1567.0912
409.45123	1586.4406
410.1503	1589.1106
410.84933	1583.3403
411.54837	1583.0802
412.24744	1585.9373
412.94647	1580.9586
413.64554	1565.8186
414.34457	1565.0997
415.04361	1573.6899
415.74268	1602.4141
416.44171	1605.1333
417.14075	1607.1819
417.83981	1619.7284
418.53885	1611.1949
419.23788	1610.1157
419.93695	1592.3839
420.63599	1616.647
421.33502	1548.1643
422.03409	1633.7911
422.73312	1601.5704
423.43216	1612.8147
424.13123	1627.1025
424.83026	1599.5457
425.5293	1637.4468
426.22836	1626.2146
426.9274	1603.7072
427.62646	1585.1166
428.3255	1586.8558
429.02454	1607.295
429.7236	1618.7787
430.42264	1607.6174
431.12167	1609.5078
431.82074	1595.3115
432.51978	1536.9661
433.21881	1516.2444
433.91788	1538.4209
434.61691	1590.9644
435.31595	1622.4147
436.01501	1624.3383
436.71405	1652.4574
437.41309	1616.1375
438.11215	1633.5132
438.81119	1636.6935
439.51025	1618.9258
440.20929	1639.1427
440.90833	1594.3364
441.60739	1630.5898
442.30643	1602.364
443.00546	1638.5099
443.70453	1666.189
444.40356	1612.2745
445.1026	1632.5546
445.80167	1635.9674
446.5007	1612.1467
447.19974	1605.4636
447.8988	1614.7616
448.59784	1640.1888
449.29688	1634.577
449.99594	1612.5908
450.69498	1603.3611
451.39404	1596.2567
452.09308	1612.6367
452.79211	1634.7542
453.49118	1635.6267
454.19022	1635.1028
454.88925	1620.8511
455.58832	1629.0349
456.28735	1602.3635
456.98639	1622.4675
457.68546	1603.4005
458.38449	1605.6934
459.08353	1593.3911
459.78259	1602.377
460.48163	1579.1283
461.18066	1612.2061
461.87973	1615.6056
462.57877	1606.3552
463.27783	1582.5087
463.97687	1609.1815
464.6759	1564.158
465.37497	1609.6659
466.07401	1568.8723
466.77304	1604.9521
467.47211	1600.0419
468.17114	1560.5244
468.87018	1568.6923
469.56924	1586.8787
470.26828	1578.1666
470.96732	1572.4584
471.66638	1577.7819
472.36542	1586.8571
473.06445	1592.6285
473.76352	1595.6796
474.46255	1606.3391
475.16162	1589.1655
475.86066	1572.3506
476.55969	1590.7122
477.25876	1567.0531
477.95779	1506.871
478.65683	1534.9287
479.3559	1569.1749
480.05493	1509.056
480.75397	1533.1219
481.45303	1520.8147
482.15207	1496.3315
482.8511	1515.6995
483.55017	1480.5265
484.24921	1563.9269
484.94824	1560.0536
485.64731	1546.692
486.34634	1559.1022
487.04541	1528.5706
487.74445	1540.2375
488.44348	1532.9414
489.14255	1478.8344
489.84158	1497.8873
490.54062	1493.3647
491.23969	1489.6442
491.93872	1518.5543
492.63776	1516.0173
493.33682	1473.823
494.03586	1452.0997
494.73489	1453.5006
495.43396	1472.1807
496.133	1494.5828
496.83203	1475.9784
497.5311	1433.5321
498.23013	1416.7258
498.9292	1449.3809
499.62823	1483.9229
500.32727	1464.6293
501.02634	1480.1294
501.72537	1441.2323
502.42441	1417.2789
503.12347	1465.3475
503.82251	1394.2324
504.52155	1408.0225
505.22061	1375.7146
505.91965	1452.4805
506.61868	1375.962
507.31775	1344.5878
508.01678	1429.2838
508.71582	1348.8933
509.41489	1412.7012
510.11392	1389.0352
510.81299	1356.0839
511.51202	1333.9926
512.21106	1341.5521
512.9101	1325.4202
513.60913	1306.8501
514.30823	1287.7612
515.00726	1291.4121
515.7063	1290.5011
516.40533	1267.7883
517.10437	1311.861
517.80347	1298.4912
518.5025	1292.3507
519.20154	1280.8542
519.90057	1250.9927
520.59961	1239.9321
521.29865	1239.4803
521.99774	1264.2854
522.69678	1247.9434
523.39581	1207.0981
524.09485	1216.5194
524.79388	1226.4437
525.49292	1249.2805
526.19202	1255.9296
526.89105	1274.9065
527.59009	1252.9542
528.28912	1250.6995
528.98816	1201.0734
529.68726	1187.708
530.38629	1178.0238
531.08533	1189.4255
531.78436	1187.6918
532.4834	1193.9656
533.18243	1172.7311
533.88153	1173.0559
534.58057	1106.4188
535.2796	1147.6708
535.97864	1140.3368
536.67767	1174.4927
537.37671	1156.4861
538.07581	1149.2155
538.77484	1117.3918
539.47388	1120.1868
540.17291	1108.4395
540.87195	1107.5846
541.57104	1105.1886
542.27008	1102.225
542.96912	1094.5049
543.66815	1077.1776
544.36719	1065.0808
545.06622	1069.1375
545.76532	1101.3359
546.46436	1094.2278
547.16339	1042.0607
547.86243	1065.7802
548.56146	1096.0731
549.2605	1051.6921
549.95959	1030.1818
550.65863	1071.5359
551.35767	1058.3976
552.0567	1020.8056
552.75574	1013.3595
553.45483	1003.8829
554.15387	1014.3347
554.85291	1001.3838
555.55194	984.98254
556.25098	1006.7845
556.95001	1000.9459
557.64911	1023.5499
558.34814	1019.5858
559.04718	980.70862
559.74622	999.23358
560.44525	1032.4398
561.14429	1016.5923
561.84338	960.01025
562.54242	974.75793
563.24146	970.88727
563.94049	949.37762
564.63953	933.71912
565.33862	937.15027
566.03766	949.69043
566.73669	963.92889
567.43573	987.02917
568.13477	936.9483
568.8338	959.59912
569.5329	925.34509
570.23193	913.26385
570.93097	926.29254
571.63	891.56616
572.32904	892.51825
573.02808	926.5462
573.72717	897.65942
574.42621	917.09564
575.12524	975.43396
575.82428	899.79028
576.52332	865.24988
577.22241	910.349
577.92145	913.02856
578.62048	905.49341
579.31952	900.57733
580.01855	927.50409
580.71759	882.22278
581.41669	900.86707
582.11572	863.29736
582.81476	890.34448
583.51379	883.27411
584.21283	862.71521
584.91187	861.33588
585.61096	868.87177
586.31	872.97302
587.00903	881.68256
587.70807	868.58942
588.4071	860.25507
589.1062	876.26611
589.80524	862.86298
590.50427	857.75555
591.20331	857.02155
591.90234	844.34985
592.60138	866.43689
593.30048	853.76721
593.99951	867.71484
594.69855	858.80103
595.39758	842.53717
596.09662	827.87207
596.79565	813.57025
597.49475	836.70728
598.19379	831.44995
598.89282	808.73218
599.59186	820.45337
600.29089	839.00861
600.98993	818.08893
601.68903	794.42291
602.38806	816.45032
603.0871	819.68768
603.78613	819.70789
604.48517	819.3645
605.18427	831.05078
605.8833	802.25311
606.58234	777.51941
607.28137	802.31189
607.98041	783.19861
608.67944	773.24579
609.37854	787.65387
610.07758	811.06628
610.77661	802.56787
611.47565	763.02338
612.17468	795.52612
612.87372	802.17468
613.57281	766.48334
614.27185	776.95752
614.97089	776.55566
615.66992	778.10846
616.36896	741.96637
617.06805	725.33429
617.76709	745.27386
618.46613	731.62549
619.16516	716.12018
619.8642	723.07245
620.56323	739.51941
621.26233	693.17529
621.96136	711.77246
622.6604	708.20795
623.35944	688.1095
624.05847	687.18024
624.75751	727.20087
625.4566	689.25317
626.15564	734.97223
626.85468	704.21423
627.55371	673.9024
628.25275	717.03467
628.95184	681.45264
629.65088	679.22394
630.34991	687.90625
631.04895	678.58551
631.74799	714.80701
632.44702	689.45471
633.14612	675.22986
633.84515	666.82178
634.54419	651.43829
635.24323	650.90656
635.94226	627.91345
636.6413	633.51941
637.34039	650.02545
638.03943	644.58722
638.73846	638.59845
639.4375	626.37335
640.13654	627.77661
640.83563	637.09235
641.53467	621.96545
642.2337	617.16669
642.93274	615.30652
643.63177	618.41382
644.33081	611.3053
645.02991	627.43933
645.72894	602.64874
646.42798	613.08026
647.12701	615.66339
647.82605	621.36346
648.52509	620.69421
649.22418	605.91144
649.92322	615.21844
650.62225	609.15057
651.32129	601.65051
652.02032	598.84009
652.71942	599.4823
653.41846	589.45166
654.11749	565.77179
654.81653	601.68433
655.51556	593.43579
656.2146	575.44635
656.9137	577.1203
657.61273	556.76288
658.31177	576.4408
659.0108	591.37189
659.70984	586.61169
660.40887	576.89856
661.10797	578.00513
661.80701	570.93738
662.50604	578.99036
663.20508	586.07892
663.90411	555.47064
664.60321	563.95752
665.30225	549.06445
666.00128	556.08643
666.70032	562.21112
667.39935	572.36938
668.09839	562.96857
668.79749	548.21808
669.49652	572.20599
670.19556	554.29254
670.89459	559.48999
671.59363	565.81537
672.29266	559.57208
672.99176	551.29651
673.6908	527.15698
674.38983	543.44403
675.08887	557.97247
675.7879	562.73047
676.487	550.85498
677.18604	548.67139
677.88507	537.12579
678.58411	538.97479
679.28314	552.58429
679.98218	558.98169
680.68127	568.24438
681.38031	557.88617
682.07935	564.22272
682.77838	565.72583
683.47742	543.00732
684.17645	546.73041
684.87555	542.73285
685.57458	534.54779
686.27362	532.61316
686.97266	517.23944
687.67169	527.43097
688.37079	538.94049
689.06982	528.43292
689.76886	529.21106
690.4679	522.92657
691.16693	519.7478
691.86597	541.34265
692.56506	553.70636
693.2641	571.15643
693.96313	538.93158
694.66217	559.66553
695.36121	542.94635
696.06024	535.89032
696.75934	533.07043
697.45837	539.17535
698.15741	564.83923
698.85645	551.98767
699.55548	532.7019
700.25458	528.41406
700.95361	534.83203
701.65265	509.08368
702.35168	519.88055
703.05072	529.33557
703.74976	500.8136
704.44885	508.08633
705.14789	521.92261
705.84692	517.25085
706.54596	525.70953
707.245	521.21027
707.94403	509.09631
708.64313	519.13373
709.34216	515.25372
710.0412	522.26019
710.74023	511.86438
711.43927	525.74854
712.13837	520.20154
712.8374	531.21588
713.53644	525.22473
714.23547	525.15802
714.93451	526.53119
715.63354	501.6153
716.33264	519.00708
717.03168	527.34729
717.73071	539.49976
718.42975	512.38531
719.12878	521.04846
719.82782	517.0238
720.52692	491.79822
721.22595	490.50217
721.92499	517.38763
722.62402	514.23999
723.32306	535.54236
724.02216	530.242
724.72119	510.5022
725.42023	504.5943
726.11926	517.32367
726.8183	543.36298
727.51733	556.52094
728.21643	561.90442
728.91547	520.9483
729.6145	525.63037
730.31354	504.50162
731.01257	513.04248
731.71161	510.02338
732.41071	545.53168
733.10974	514.45471
733.80878	508.63232
734.50781	529.82043
735.20685	515.08472
735.90594	540.03473
736.60498	556.96661
737.30402	525.604
738.00305	525.604
738.70209	528.90424
739.40112	541.32758
740.10022	521.57794
740.79926	517.1424
741.49829	540.80371
742.19733	550.74365
742.89636	514.25885
743.5954	520.79242
744.29449	532.76807
744.99353	541.24805
745.69257	524.41724
746.3916	519.89905
747.09064	511.81137
747.78973	510.7085
748.48877	529.41852
749.18781	543.47369
749.88684	519.75305
750.58588	545.73553
751.28491	556.92542
751.98401	524.45197
752.68304	556.51892
753.38208	573.63379
754.08112	547.99652
754.78015	556.14655
755.47919	568.98846
756.17828	556.44391
756.87732	562.02759
757.57635	533.96515
758.27539	543.70905
758.97443	558.68506
759.67352	559.47632
760.37256	573.39081
761.07159	583.49017
761.77063	591.25891
762.46967	590.47113
763.1687	562.71539
763.8678	578.42249
764.56683	545.54199
765.26587	565.56537
765.9649	547.64789
766.66394	531.95648
767.36298	541.96881
768.06207	552.73297
768.76111	565.99377
769.46014	571.20526
770.15918	573.60565
770.85822	572.4339
771.55731	577.85028
772.25635	548.23621
772.95538	563.70868
773.65442	578.09717
774.35345	582.35138
775.05249	560.12817
775.75159	570.72455
776.45062	583.17047
777.14966	589.28357
777.84869	576.53381
778.54773	572.98401
779.24677	576.73456
779.94586	584.28522
780.6449	579.66058
781.34393	552.2464
782.04297	559.93518
782.742	567.65729
783.4411	579.53851
784.14014	588.7171
784.83917	584.27686
785.53821	596.22662
786.23724	592.74329
786.93628	578.57813
787.63538	585.37048
788.33441	570.46356
789.03345	589.97797
789.73248	585.95386
790.43152	576.55048
791.13055	576.55029
791.82965	578.1759
792.52869	585.96686
793.22772	597.22321
793.92676	583.68103
794.62579	561.62152
795.32489	567.9151
796.02393	587.61816
796.72296	560.58838
797.422	576.53552
798.12103	578.58649
798.82007	571.56781
799.51917	584.84314
800.2182	564.35547
800.91724	565.53418
801.61627	584.091
802.31531	565.58728
803.01434	564.38672
803.71344	582.64526
804.41248	598.07269
805.11151	579.22144
805.81055	597.04089
806.50958	603.7478
807.20868	556.75287
807.90771	557.05011
808.60675	573.87152
809.30579	562.49823
810.00482	553.01196
810.70386	550.02246
811.40295	576.49799
812.10199	560.43683
812.80103	579.22791
813.50006	579.55225
814.1991	561.414
814.89813	535.82251
815.59723	570.34528
816.29626	561.87457
816.9953	541.87683
817.69434	537.495
818.39337	561.33936
819.09247	546.24811
819.7915	537.81714
820.49054	515.14923
821.18958	527.43024
821.88861	535.1109
822.58765	555.21411
823.28674	546.75378
823.98578	511.58282
824.68481	525.75848
825.38385	533.43835
826.08289	532.43604
826.78192	521.09753
827.48102	516.98462
828.18005	528.05988
828.87909	516.80212
829.57813	511.20285
830.27716	489.97495
830.9762	505.16946
831.67529	488.44907
832.37433	474.18082
833.07336	497.42294
833.7724	485.8681
834.47144	443.77945
835.17053	493.22433
835.86957	466.71017
836.5686	467.97787
837.26764	506.48001
837.96667	481.85889
838.66571	462.31998
839.36481	472.70541
840.06384	445.29385
840.76288	453.12933
841.46191	469.21429
842.16095	450.06674
842.85999	415.49982
843.55908	429.49591
844.25812	416.08759
844.95715	419.6904
845.65619	415.68307
846.35522	416.70367
847.05432	418.31396
847.75336	429.80899
848.45239	386.50977
849.15143	429.31589
849.85046	416.5307
850.5495	424.10611
851.2486	431.10843
851.94763	412.88409
852.64667	385.92422
853.3457	390.026
854.04474	390.82919
854.74377	385.6929
855.44287	399.66159
856.14191	409.69415
856.84094	430.67847
857.53998	423.4866
858.23901	393.32339
858.93811	388.29056
859.63715	392.53729
860.33618	383.29007
861.03522	381.51459
861.73425	366.33704
862.43329	361.52515
863.13239	360.23187
863.83142	372.93674
864.53046	390.39969
865.22949	386.95914
865.92853	385.15121
866.62756	395.7637
867.32666	378.70581
868.0257	366.12604
868.72473	392.35364
869.42377	389.39786
870.1228	377.44437
870.8219	387.81296
871.52094	406.82343
872.21997	375.24545
872.91901	366.31061
873.61804	395.19431
874.31708	404.2453
875.01617	373.57077
875.71521	370.44504
876.41425	397.9559
877.11328	393.59879
877.81232	391.24377
878.51135	387.75662
879.21045	390.08688
879.90948	413.52789
880.60852	399.33279
881.30756	378.70132
882.00659	378.47372
882.70569	375.74741
883.40472	391.47015
884.10376	407.25
884.8028	433.14014
885.50183	386.91101
886.20087	370.89401
886.89996	412.38229
887.599	399.62277
888.29803	401.11682
888.99707	381.08749
889.69611	391.92349
890.39514	394.50278
891.09424	382.15817
891.79327	412.12451
892.49231	414.79099
893.19135	389.35297
893.89038	380.59604
894.58948	414.22113
895.28851	386.05658
895.98755	402.56213
896.68658	417.99713
897.38562	416.79907
898.08466	399.68237
898.78375	406.79245
899.48279	402.74893
900.18182	427.91428
900.88086	418.35431
901.5799	397.38797
902.27893	418.83496
902.97803	421.81244
903.67706	420.90073
904.3761	402.82605
905.07513	411.68488
905.77417	413.52084
906.47327	419.76855
907.1723	402.52527
907.87134	394.93732
908.57037	404.32809
909.26941	431.16299
909.96844	434.40564
910.66754	426.06644
911.36658	418.1731
912.06561	436.04568
912.76465	423.07306
913.46368	413.82333
914.16272	433.35245
914.86182	425.31268
915.56085	446.40723
916.25989	446.44901
916.95892	414.32272
917.65796	428.35663
918.35706	429.50183
919.05609	418.18271
919.75513	425.04138
920.45416	431.98123
921.1532	450.95251
921.85223	419.73157
922.55133	436.9151
923.25037	447.92438
923.9494	421.79852
924.64844	422.69019
925.34747	424.52191
926.04651	437.24484
926.74561	441.12985
927.44464	446.00574
928.14368	440.26315
928.84271	430.10406
929.54175	449.03827
930.24084	450.36746
930.93988	448.00195
931.63892	439.17038
932.33795	428.3562
933.03699	423.24176
933.73602	434.88284
934.43512	454.13617
935.13416	459.71085
935.83319	453.40796
936.53223	440.55582
937.23126	432.29501
937.9303	441.26285
938.62939	459.83044
939.32843	467.29465
940.02747	451.91141
940.7265	422.3111
941.42554	432.18134
942.12463	438.57236
942.82367	423.18015
943.52271	438.82242
944.22174	451.41626
944.92078	451.01544
945.61981	425.24561
946.31891	433.49658
947.01794	453.68314
947.71698	463.35605
948.41602	456.93964
949.11505	455.72302
949.81409	449.07065
950.51318	460.11417
951.21222	460.92468
951.91125	435.72968
952.61029	434.73654
953.30933	455.37338
954.00842	461.84552
954.70746	476.09543
955.40649	460.14233
956.10553	471.21786
956.80457	430.59369
957.5036	449.04346
958.2027	465.15857
958.90173	450.66623
959.60077	475.94843
960.2998	463.52206
960.99884	458.6626
961.69788	456.22675
962.39697	471.5321
963.09601	461.51593
963.79504	475.57135
964.49408	486.78516
965.19312	485.20242
965.89221	469.58963
966.59125	453.289
967.29028	475.43549
967.98932	494.76852
968.68835	480.28656
969.38739	459.44754
970.08649	445.07257
970.78552	473.12491
971.48456	487.83569
972.18359	479.15552
972.88263	473.03915
973.58167	477.63696
974.28076	471.63434
974.9798	477.71381
975.67883	470.16696
976.37787	475.37698
977.0769	508.00732
977.776	485.81613
978.47504	474.07867
979.17407	496.78128
979.87311	487.5376
980.57214	482.58328
981.27118	505.37738
981.97028	484.3461
982.66931	466.49429
983.36835	486.52609
984.06738	477.49222
984.76642	496.2869
985.46545	487.30783
986.16455	482.23917
986.86359	502.83627
987.56262	513.05096
988.26166	520.19434
988.96069	518.78979
989.65979	499.13379
990.35883	507.94879
991.05786	515.58069
991.7569	488.65982
992.45593	497.48346
993.15497	484.41068
993.85406	470.39365
994.5531	502.76089
995.25214	490.65546
995.95117	504.64371
996.65021	485.27866
997.34924	507.09729
998.04834	451.12842
998.74738	494.3511
999.44641	486.612
1000.1454	492.16898
1000.8445	499.98999
1001.5436	495.6824
1002.2426	504.0343
1002.9417	510.11917
1003.6407	512.78168
1004.3397	520.14349
1005.0388	494.59793
1005.7379	486.29718
1006.4369	523.72607
1007.1359	515.04205
1007.835	491.35388
1008.534	518.12952
1009.233	529.50006
1009.9321	506.81235
1010.6312	498.564
1011.3302	518.27661
1012.0292	507.47995
1012.7283	494.52673
1013.4274	514.51746
1014.1264	524.625
1014.8254	521.49219
1015.5245	532.17047
1016.2235	546.09235
1016.9225	525.97192
1017.6216	523.3465
1018.3207	503.46585
1019.0197	511.03308
1019.7188	502.64557
1020.4178	528.35352
1021.1168	526.84686
1021.8159	591.36731
1022.515	548.47876
1023.214	554.28778
1023.913	543.49573
1024.6121	545.71368
1025.3112	523.86566
1026.0101	545.28577
1026.7092	545.82196
1027.4083	548.6424
1028.1073	570.27148
1028.8064	556.58984
1029.5054	530.80182
1030.2045	545.78668
1030.9034	548.6424
1031.6025	537.27246
1032.3016	568.96027
1033.0006	546.6134
1033.6997	542.64484
1034.3987	532.74023
1035.0978	522.43542
1035.7969	514.09314
1036.4958	514.7616
1037.1949	522.46411
1037.8939	538.60663
1038.593	561.96167
1039.2921	500.64993
1039.9911	530.03778
1040.6902	529.60919
1041.3892	519.90051
1042.0883	540.34607
1042.7872	539.40729
1043.4863	530.62146
1044.1854	547.91193
1044.8844	532.86523
1045.5835	531.71881
1046.2825	546.1803
1046.9816	528.36578
1047.6807	531.24274
1048.3796	559.82208
1049.0787	530.84271
1049.7777	539.74976
1050.4768	526.31506
1051.1759	530.39709
1051.8749	524.65582
1052.574	507.20444
1053.2729	546.03809
1053.972	537.6756
1054.671	525.1991
1055.3701	531.07117
1056.0692	543.44208
1056.7682	539.42047
1057.4673	548.64325
1058.1663	533.15247
1058.8654	532.1792
1059.5645	529.28778
1060.2634	539.14093
1060.9625	528.73676
1061.6615	533.18787
1062.3606	530.21417
1063.0597	523.60797
1063.7587	532.71484
1064.4578	545.25214
1065.1567	544.46289
1065.8558	539.32019
1066.5548	563.53009
1067.2539	557.96747
1067.953	558.11298
1068.652	562.62512
1069.3511	528.53937
1070.05	554.56982
1070.7491	546.66797
1071.4482	546.43414
1072.1472	563.87787
1072.8463	532.67682
1073.5453	534.26068
1074.2444	567.26874
1074.9435	544.18671
1075.6425	537.42731
1076.3416	518.14575
1077.0405	536.99628
1077.7396	543.2298
1078.4386	539.41815
1079.1377	550.58698
1079.8368	539.59387
1080.5358	533.00574
1081.2349	543.11359
1081.9338	537.01404
1082.6329	531.74384
1083.332	543.49255
1084.031	521.72882
1084.7301	510.31421
1085.4291	510.72177
1086.1282	558.49548
1086.8273	516.65283
1087.5262	557.07324
1088.2253	558.61517
1088.9243	544.09686
1089.6234	537.07001
1090.3224	541.62085
1091.0215	520.21313
1091.7206	527.33734
1092.4196	543.02643
1093.1187	533.10034
1093.8176	543.05188
1094.5167	540.27991
1095.2158	515.00525
1095.9148	506.13776
1096.6139	503.25272
1097.3129	520.31531
1098.012	533.57959
1098.7111	544.26184
1099.41	533.29999
1100.1091	520.98633
1100.8081	538.05804
1101.5072	526.85492
1102.2062	523.89648
1102.9053	536.8913
1103.6044	527.92981
1104.3033	516.20636
1105.0024	527.96472
1105.7014	548.57404
1106.4005	539.46716
1107.0996	513.62067
1107.7986	531.23743
1108.4977	534.60242
1109.1967	543.30725
1109.8958	528.01196
1110.5948	532.81976
1111.2938	530.15381
1111.9929	517.78351
1112.6919	522.09387
1113.391	537.65747
1114.09	522.85339
1114.7891	507.01624
1115.4882	523.11859
1116.1871	516.68103
1116.8862	513.68164
1117.5852	537.96338
1118.2843	551.85449
1118.9834	540.04041
1119.6824	517.07123
1120.3815	507.94788
1121.0804	513.77063
1121.7795	517.95117
1122.4786	519.79523
1123.1776	520.45569
1123.8767	510.147
1124.5757	503.34222
1125.2748	503.83029
1125.9738	523.56537
1126.6729	513.03979
1127.3719	527.37347
1128.0709	495.3808
1128.77	486.49063
1129.469	490.54266
1130.1681	488.58652
1130.8672	490.70911
1131.5662	460.38196
1132.2653	486.1647
1132.9642	495.2569
1133.6633	487.83304
1134.3624	495.15924
1135.0614	501.00208
1135.7605	494.82681
1136.4595	489.33731
1137.1586	498.65472
1137.8575	498.39822
1138.5566	504.74966
1139.2557	491.61972
1139.9547	480.32111
1140.6538	480.57477
1141.3528	484.48364
1142.0519	466.14291
1142.751	476.58591
1143.45	477.51498
1144.149	475.44568
1144.848	479.46423
1145.5471	478.32648
1146.2462	471.25659
1146.9452	478.26929
1147.6443	465.02814
1148.3433	473.73306
1149.0424	478.89172
1149.7413	468.21793
1150.4404	476.94357
1151.1395	466.29523
1151.8385	455.28076
1152.5376	466.20636
1153.2366	460.68625
1153.9357	460.04535
1154.6348	464.61734
1155.3337	465.91431
1156.0328	468.23898
1156.7318	464.07901
1157.4309	470.09174
1158.13	465.27359
1158.829	477.09418
1159.5281	467.26083
1160.2271	456.57492
1160.9261	467.77164
1161.6251	445.79294
1162.3242	448.30649
1163.0233	443.81345
1163.7223	443.35934
1164.4214	438.43329
1165.1204	430.30029
1165.8195	443.92194
1166.5186	436.85483
1167.2175	443.15463
1167.9166	426.73325
1168.6156	424.07565
1169.3147	432.45599
1170.0137	431.52692
1170.7128	427.18884
1171.4119	425.61423
1172.1108	408.40735
1172.8099	419.0936
1173.5089	419.37296
1174.208	421.84991
1174.9071	439.42908
1175.6061	415.48654
1176.3052	450.90036
1177.0042	451.91284
1177.7032	422.02487
1178.4023	428.27118
1179.1013	399.54233
1179.8004	408.49359
1180.4994	415.9176
1181.1985	421.91525
1181.8975	427.48669
1182.5966	426.9389
1183.2957	425.74268
1183.9946	429.32297
1184.6937	413.1489
1185.3927	410.84616
1186.0918	416.29034
1186.7909	399.80429
1187.4899	411.93399
1188.189	405.14023
1188.8879	412.99152
1189.587	418.60907
1190.2861	401.18021
1190.9851	412.92935
1191.6842	396.57898
1192.3832	404.92233
1193.0823	386.4798
1193.7813	390.16287
1194.4803	397.02475
1195.1794	384.12177
1195.8784	381.73285
1196.5775	399.42953
1197.2765	404.09976
1197.9756	387.4249
1198.6747	399.52933
1199.3737	385.67853
1200.0728	380.04184
1200.7717	383.03894
1201.4708	376.47656
1202.1699	368.92737
1202.8689	372.50467
1203.568	374.35596
1204.267	383.24753
1204.9661	394.923
1205.665	395.59274
1206.3641	373.20795
1207.0632	372.27039
1207.7622	382.55585
1208.4613	390.70093
1209.1603	375.65363
1209.8594	374.80255
1210.5585	362.164
1211.2574	351.2468
1211.9565	361.62625
1212.6555	368.27979
1213.3546	366.70917
1214.0537	351.1571
1214.7527	351.36548
1215.4518	363.78812
1216.1508	353.86526
1216.8499	354.87762
1217.5488	339.93369
1218.2479	338.89297
1218.947	350.89783
1219.646	336.91272
1220.3451	347.01553
1221.0441	346.03143
1221.7432	337.68018
1222.4423	327.29004
1223.1412	326.66486
1223.8403	341.28787
1224.5393	341.85672
1225.2384	345.21048
1225.9375	344.13083
1226.6365	336.1918
1227.3356	327.50229
1228.0345	325.948
1228.7336	321.8342
1229.4326	317.62173
1230.1317	331.26654
1230.8308	344.15247
1231.5298	301.96103
1232.2289	311.62103
1232.9279	312.59387
1233.627	314.89505
1234.326	328.84109
1235.025	315.04132
1235.7241	314.39481
1236.4231	298.99582
1237.1222	294.63397
1237.8213	291.31406
1238.5203	284.64996
1239.2194	305.38004
1239.9183	306.88797
1240.6174	298.76831
1241.3164	294.55322
1242.0155	289.46863
1242.7146	309.09409
1243.4136	284.02533
1244.1127	307.14423
1244.8116	293.72015
1245.5107	291.4761
1246.2098	289.32178
1246.9088	299.11972
1247.6079	283.58554
1248.3069	286.19858
1249.006	281.92874
1249.7051	282.23175
1250.4041	282.6459
1251.1031	290.89145
1251.8021	296.39316
1252.5012	286.28741
1253.2002	274.42154
1253.8993	265.71616
1254.5984	279.59659
1255.2974	264.28873
1255.9965	277.43027
1256.6954	278.8732
1257.3945	272.12979
1258.0936	275.99835
1258.7926	269.55148
1259.4917	269.92615
1260.1907	263.43689
1260.8898	258.19629
1261.5889	254.02901
1262.2878	263.60614
1262.9869	279.8266
1263.6859	271.89868
1264.385	262.40228
1265.084	279.12955
1265.7831	259.67493
1266.4822	261.59775
1267.1812	272.33011
1267.8802	278.44852
1268.5792	259.50723
1269.2783	257.2504
1269.9774	269.80014
1270.6764	273.14026
1271.3755	277.40213
1272.0745	260.73257
1272.7736	263.86893
1273.4727	269.21304
1274.1716	277.63953
1274.8707	267.66611
1275.5697	285.80014
1276.2688	266.90347
1276.9678	272.63312
1277.6669	282.10083
1278.366	264.27768
1279.0649	273.20889
1279.764	271.51617
1280.463	253.82828
1281.1621	256.03482
1281.8612	268.95273
1282.5602	272.98618
1283.2593	269.25598
1283.9583	260.76797
1284.6573	256.19223
1285.3564	260.75726
1286.0554	259.03653
1286.7545	250.03378
1287.4535	259.57153
1288.1526	256.98532
1288.8516	274.92758
1289.5507	269.55148
1290.2498	274.95847
1290.9487	259.26608
1291.6478	266.80737
1292.3468	273.40289
1293.0459	277.45273
1293.745	264.14017
1294.444	261.19775
1295.1431	272.93558
1295.842	259.85278
1296.5411	267.43958
1297.2402	250.29657
1297.9392	266.25931
1298.6383	232.99728
1299.3373	254.19081
1300.0364	270.59198
1300.7354	272.31882
1301.4344	269.66986
1302.1335	273.52475
1302.8325	266.15134
1303.5316	253.40987
1304.2306	255.13895
1304.9297	264.31744
1305.6288	253.45984
1306.3278	243.78639
1307.0269	257.776
1307.7258	255.66199
1308.4249	272.61331
1309.124	271.77811
1309.823	265.55328
1310.5221	283.59933
1311.2211	280.00027
1311.9202	276.0228
1312.6191	279.5701
1313.3182	264.53635
1314.0173	273.56952
1314.7163	275.94055
1315.4154	272.47964
1316.1144	271.71777
1316.8135	253.54338
1317.5126	257.82959
1318.2115	248.03339
1318.9106	277.97433
1319.6096	259.73117
1320.3087	267.34
1321.0078	263.81308
1321.7068	268.21375
1322.4059	254.9969
1323.1049	259.32428
1323.804	264.82224
1324.5029	269.13864
1325.202	242.19917
1325.9011	266.0112
1326.6001	285.4946
1327.2992	279.65814
1327.9982	278.77328
1328.6973	263.37021
1329.3964	246.01219
1330.0953	247.65903
1330.7944	266.22656
1331.4934	262.59332
1332.1925	274.50275
1332.8916	279.46289
1333.5906	281.26355
1334.2897	281.0278
1334.9886	271.35886
1335.6877	273.63712
1336.3867	260.67203
1337.0858	261.34198
1337.7849	272.98181
1338.4839	264.1633
1339.183	268.48761
1339.882	271.54919
1340.5811	257.59653
1341.2802	254.31412
1341.9791	269.29587
1342.6782	276.30414
1343.3772	258.82391
1344.0763	265.46957
1344.7754	285.18698
1345.4744	277.82803
1346.1735	270.01828
1346.8724	267.95132
1347.5715	266.10193
1348.2705	261.95599
1348.9696	261.04019
1349.6687	250.12198
1350.3677	253.48668
1351.0668	259.4411
1351.7657	258.66547
1352.4648	241.7881
1353.1639	242.48979
1353.8629	270.37811
1354.562	268.61044
1355.261	257.07709
1355.9601	268.14822
1356.6592	273.2962
1357.3582	260.63516
1358.0573	263.22281
1358.7562	262.47968
1359.4553	278.82602
1360.1543	268.57275
1360.8534	273.64975
1361.5525	257.00034
1362.2515	261.90875
1362.9506	269.54108
1363.6495	235.5222
1364.3486	271.99503
1365.0477	278.31775
1365.7467	265.54449
1366.4458	270.8002
1367.1448	255.11147
1367.8439	263.58545
1368.543	263.21988
1369.2419	254.58336
1369.941	242.69838
1370.64	253.46242
1371.3391	260.76593
1372.0381	270.05157
1372.7372	262.41724
1373.4363	252.56572
1374.1353	263.84647
1374.8344	284.55313
1375.5333	272.27142
1376.2324	271.28568
1376.9315	262.33905
1377.6305	268.71393
1378.3296	282.89749
1379.0286	277.72742
1379.7277	272.57736
1380.4268	248.09256
1381.1257	262.09033
1381.8248	253.50145
1382.5238	264.73056
1383.2229	257.69119
1383.9219	277.76294
1384.621	273.15985
1385.3201	282.44742
1386.019	280.69785
1386.7181	275.82666
1387.4171	265.40955
1388.1162	275.79385
1388.8153	258.20413
1389.5143	274.50699
1390.2134	267.25076
1390.9124	268.04694
1391.6115	264.63156
1392.3105	264.6694
1393.0095	278.81622
1393.7086	267.1149
1394.4076	277.85791
1395.1067	288.7511
1395.8057	292.69064
1396.5048	292.10367
1397.2039	287.04825
1397.9028	275.04132
1398.6019	278.43311
1399.3009	284.8345
1400	269.62534
