20.082397	262.11639
20.781445	356.25067
21.48049	457.9165
22.179537	563.2052
22.878584	657.12714
23.577629	709.48828
24.276676	738.54388
24.975721	759.65033
25.674768	785.15033
26.373816	841.80054
27.072861	873.87494
27.771908	865.2027
28.470955	880.87897
29.17	845.22632
29.869047	847.49109
30.568094	848.83289
31.267139	871.23456
31.966187	892.00562
32.665234	913.24988
33.364281	1007.8511
34.063324	986.89569
34.762371	1051.7905
35.461418	1051.7905
36.160465	1051.7905
36.859512	1051.7905
37.558559	1051.7905
38.257603	1051.7905
38.95665	1051.7905
39.655697	1051.7905
40.354744	1051.7905
41.053791	1234.1769
41.752834	1137.7799
42.451881	1166.6683
43.150928	1194.8535
43.849976	1259.0479
44.549023	1312.7062
45.24807	1308.1685
45.947113	1337.5747
46.64616	1335.7992
47.345207	1333.5564
48.044254	1371.6759
48.743301	1431.4169
49.442345	1500.9724
50.141392	1582.4637
50.840439	1590.9698
51.539486	1642.5665
52.238533	1538.568
52.93758	1554.5057
53.636623	1557.6165
54.33567	1603.1179
55.034718	1638.8901
55.733765	1637.3309
56.432812	1651.72
57.131855	1670.075
57.830902	1681.1135
58.529949	1781.5356
59.228996	1827.1998
59.928043	1907.6647
60.62709	1920.1895
61.326134	1907.5653
62.025181	1867.3517
62.724228	1864.4316
63.423275	1864.1697
64.122322	1892.5542
64.821365	1913.7502
65.520416	1928.0382
66.21946	1975.0115
66.918503	1980.4093
67.617554	2073.1677
68.316597	2035.5559
69.015648	2101.9382
69.714691	2079.2664
70.413742	2103.1873
71.112785	2132.592
71.811829	2175.426
72.51088	2219.2668
73.209923	2210.803
73.908974	2179.3271
74.608017	2212.0684
75.30706	2243.3442
76.006111	2174.8137
76.705154	2255.8975
77.404205	2249.2881
78.103249	2240.2507
78.802292	2247.8726
79.501343	2262.3601
80.200386	2281.3862
80.899437	2286.8108
81.59848	2291.5764
82.297531	2318.6565
82.996574	2337.2678
83.695618	2329.5796
84.394669	2428.656
85.093712	2334.7195
85.792763	2308.3435
86.491806	2325.021
87.190849	2366.0461
87.8899	2359.7009
88.588943	2359.6003
89.287994	2368.3169
89.987038	2364.4834
90.686081	2372.74
91.385132	2411.8652
92.084175	2433.9841
92.783226	2429.7798
93.482269	2426.3342
94.181313	2419.6978
94.880363	2478.1997
95.579407	2458.1509
96.278458	2455.4563
96.977501	2451.3574
97.676552	2430.3352
98.375595	2422.3621
99.074638	2432.8323
99.773689	2452.4094
100.47273	2480.8682
101.17178	2467.5159
101.87083	2438.3872
102.56987	2487.1262
103.26892	2578.8
103.96796	2452.6726
104.66702	2452.6726
105.36606	2556.4475
106.0651	2524.4658
106.76415	2522.2268
107.4632	2537.9814
108.16225	2555.0623
108.86129	2491.3257
109.56034	2493.1265
110.25938	2522.5359
110.95843	2459.9043
111.65748	2485.5232
112.35652	2493.374
113.05557	2467.8831
113.75462	2463.6279
114.45366	2473.6746
115.15271	2511.9045
115.85175	2533.4983
116.5508	2512.9204
117.24985	2485.2417
117.94889	2475.825
118.64794	2471.5913
119.34698	2489.8633
120.04604	2518.9695
120.74508	2462.1047
121.44412	2471.657
122.14317	2442.7498
122.84222	2509.7642
123.54127	2516.2737
124.24031	2472.9688
124.93936	2464.6614
125.6384	2475.5488
126.33745	2486.4248
127.0365	2510.7031
127.73554	2487.6047
128.43459	2533.8513
129.13364	2500.8203
129.83269	2509.5059
130.53172	2461.3601
131.23077	2412.3145
131.92982	2469.4175
132.62888	2497.2195
133.32791	2458.345
134.02696	2437.2161
134.72601	2453.7012
135.42505	2475.2441
136.1241	2493.4045
136.82315	2478.4407
137.52219	2453.7917
138.22124	2473.6316
138.92029	2428.0142
139.61934	2461.2942
140.31837	2462.6479
141.01743	2434.9353
141.71648	2435.4133
142.41551	2435.28
143.11456	2423.7673
143.81361	2406.5313
144.51266	2416.4636
145.2117	2457.5767
145.91075	2454.9856
146.6098	2420.293
147.30884	2437.1021
148.00789	2476.5203
148.70694	2401.0122
149.40598	2433.5178
150.10503	2460.3086
150.80408	2450.5203
151.50313	2445.9153
152.20216	2430.5391
152.90121	2415.6008
153.60027	2412.4194
154.2993	2401.1338
154.99835	2390.4343
155.6974	2416.636
156.39645	2433.7722
157.09549	2421.9734
157.79454	2385.926
158.49359	2425.7388
159.19263	2393.1475
159.89168	2417.106
160.59073	2383.7917
161.28976	2391.261
161.98882	2420.7427
162.68787	2409.4539
163.38692	2383.2532
164.08595	2387.5352
164.785	2401.8594
165.48405	2402.2454
166.18309	2407.1494
166.88214	2407.0435
167.58119	2431.7004
168.28023	2383.1958
168.97928	2375.4707
169.67833	2368.8372
170.37738	2393.4558
171.07642	2392.9487
171.77547	2398.4844
172.47452	2399.5974
173.17355	2383.7439
173.8726	2380.3928
174.57166	2395.8318
175.27071	2426.1545
175.96974	2374.5806
176.66879	2382.0771
177.36784	2334.9177
178.06688	2412.2249
178.76593	2323.749
179.46498	2321.2097
180.16402	2355.8269
180.86307	2381.0715
181.56212	2343.3933
182.26117	2316.2327
182.96021	2334.1702
183.65926	2340.9939
184.35831	2327.6611
185.05734	2312.2949
185.75639	2324.2012
186.45544	2304.7129
187.1545	2339.52
187.85353	2339.676
188.55258	2300.5918
189.25163	2299.3687
189.95067	2308.9456
190.64972	2310.2412
191.34877	2300.8584
192.04781	2286.6736
192.74686	2284.6152
193.44591	2317.0566
194.14496	2356.1912
194.84399	2338.4763
195.54305	2302.1389
196.2421	2291.8018
196.94113	2230.5691
197.64018	2310.5496
198.33923	2288.229
199.03828	2280.8179
199.73732	2293.9604
200.43637	2269.8003
201.13542	2261.8442
201.83446	2283.9128
202.53351	2326.0813
203.23256	2335.468
203.93159	2301.5691
204.63065	2287.8757
205.3297	2281.0645
206.02875	2237.4502
206.72778	2272.3406
207.42683	2274.6055
208.12589	2271.8865
208.82492	2290.2141
209.52397	2274.7805
210.22302	2262.677
210.92207	2274.605
211.62111	2259.9609
212.32016	2244.0974
213.01921	2250.8335
213.71825	2251.9812
214.4173	2242.125
215.11635	2243.9167
215.81538	2243.0071
216.51443	2247.4878
217.21349	2275.7668
217.91254	2258.5063
218.61157	2226.2195
219.31062	2259.7786
220.00967	2229.5701
220.70871	2180.3154
221.40776	2246.573
222.10681	2283.9395
222.80585	2256.479
223.5049	2238.3496
224.20395	2245.3506
224.903	2227.0901
225.60204	2209.7405
226.30109	2238.3936
227.00014	2217.4355
227.69917	2203.6824
228.39822	2190.0811
229.09727	2153.5933
229.79633	2181.2932
230.49536	2173.218
231.19441	2177.7563
231.89346	2180.6165
232.5925	2193.6792
233.29155	2188.2334
233.9906	2171.533
234.68964	2171.814
235.38869	2164.6577
236.08774	2156.3982
236.78679	2173.9902
237.48582	2167.1055
238.18488	2139.9207
238.88393	2112.1345
239.58296	2148.7988
240.28201	2117.1711
240.98106	2133.8325
241.68011	2185.2808
242.37915	2197.1389
243.0782	2186.5991
243.77725	2189.8403
244.47629	2159.7783
245.17534	2157.4692
245.87439	2159.0654
246.57343	2144.3213
247.27248	2134.2212
247.97153	2124.6792
248.67058	2115.2996
249.36961	2105.0261
250.06866	2138.7039
250.76772	2141.7961
251.46675	2123.7029
252.1658	2104.2659
252.86485	2093.2588
253.5639	2092.1833
254.26294	2114.7944
254.96199	2092.1912
255.66104	2100.2373
256.36008	2123.6465
257.05914	2099.3567
257.75818	2088.7607
258.45721	2129.6997
259.15628	2162.2554
259.85532	2142.6804
260.55435	2078.144
261.25342	2066.7007
261.95245	2074.1189
262.65149	1995.2937
263.35056	2106.1118
264.04959	2091.5649
264.74863	2057.0657
265.44769	2054.9048
266.14673	2077.7629
266.84576	2072.4429
267.54483	2068.3169
268.24387	2091.4055
268.94293	2064.916
269.64197	2009.8171
270.341	2018.6981
271.04007	2052.0039
271.73911	2036.1515
272.43814	2044.7611
273.13721	2075.8801
273.83624	2003.5352
274.53528	2040.4098
275.23434	2033.5387
275.93338	2017.8951
276.63242	2054.5288
277.33148	2080.0247
278.03052	2076.2253
278.72955	2036.2954
279.42862	2016.2285
280.12766	1994.4049
280.82672	2001.901
281.52576	2024.3994
282.22479	2053.5024
282.92386	2072.427
283.62289	2029.8367
284.32193	1980.4066
285.021	1997.076
285.72003	2034.798
286.41907	2029.5082
287.11813	2002.0117
287.81717	2047.4409
288.5162	2007.1366
289.21527	2003.495
289.91431	1991.14
290.61334	1994.1541
291.31241	2004.228
292.01144	2008.285
292.71051	1996.0258
293.40955	2000.317
294.10858	2005.4946
294.80765	1998.2428
295.50668	1999.967
296.20572	2009.1514
296.90479	2011.5653
297.60382	1990.186
298.30286	1987.9561
299.00192	1999.4613
299.70096	1980.4504
300.39999	1997.5596
301.09906	1980.264
301.7981	2038.8398
302.49713	1981.1357
303.1962	1977.1653
303.89523	1969.9948
304.5943	1990.0922
305.29333	1978.176
305.99237	1967.1564
306.69144	1973.5653
307.39047	1979.2284
308.08951	1989.4882
308.78857	1992.8583
309.48761	1969.0662
310.18665	1945.1549
310.88571	1954.9019
311.58475	1977.4969
312.28378	1961.4346
312.98285	2000.2037
313.68188	1990.6366
314.38092	2001.0092
315.07999	1992.2999
315.77902	1997.0112
316.47806	1994.4395
317.17712	1941.9406
317.87616	1984.1279
318.57523	1990.8807
319.27426	1963.9194
319.9733	1998.3892
320.67236	2005.2008
321.3714	1987.6941
322.07043	2013.0367
322.7695	1979.0332
323.46854	1963.7437
324.16757	1977.8398
324.86664	1945.6472
325.56567	1929.722
326.26471	2008.0615
326.96378	1859.7603
327.66281	1975.2615
328.36185	1898.741
329.06091	1950.7654
329.75995	1948.5122
330.45901	1938.906
331.15805	1939.5895
331.85709	1945.7302
332.55615	1944.6091
333.25519	1911.0247
333.95422	1905.8176
334.65329	1942.1151
335.35233	1952.9943
336.05136	1947.6735
336.75043	1943.0984
337.44946	1917.6538
338.1485	1945.0835
338.84756	1922.3147
339.5466	1928.0087
340.24564	1915.5886
340.9447	1917.5713
341.64374	1924.2614
342.3428	1922.4244
343.04184	1939.9436
343.74088	1915.1697
344.43994	1935.2245
345.13898	1900.5508
345.83801	1897.1753
346.53708	1882.5225
347.23611	1873.8837
347.93515	1887.7471
348.63422	1895.9553
349.33325	1889.2034
350.03229	1883.3375
350.73135	1903.8074
351.43039	1926.6722
352.12943	1906.7469
352.82849	1905.5811
353.52753	1910.4344
354.22659	1898.2308
354.92563	1841.3142
355.62466	1929.6713
356.32373	1902.4487
357.02277	1895.6262
357.7218	1929.9684
358.42087	1872.2576
359.1199	1867.0647
359.81894	1855.8223
360.51801	1854.5311
361.21704	1875.8427
361.91608	1890.4241
362.61514	1886.8051
363.31418	1881.6539
364.01321	1865.0313
364.71228	1865.359
365.41132	1884.3756
366.11038	1842.808
366.80942	1848.1427
367.50845	1892.4373
368.20752	1898.8662
368.90656	1854.3304
369.60559	1824.2888
370.30466	1810.6635
371.00369	1850.41
371.70273	1840.4906
372.40179	1855.9867
373.10083	1852.8193
373.79987	1880.4017
374.49893	1862.0248
375.19797	1854.924
375.897	1885.9633
376.59607	1862.3708
377.2951	1850.6509
377.99417	1866.9397
378.69321	1848.8434
379.39224	1833.6217
380.09131	1866.8557
380.79034	1883.0426
381.48938	1853.2203
382.18845	1848.1699
382.88748	1840.5599
383.58652	1806.3843
384.28558	1880.2883
384.98462	1883.0154
385.68365	1885.9417
386.38272	1865.4714
387.08176	1838.0853
387.78079	1843.1083
388.47986	1837.6423
389.17889	1880.4518
389.87796	1832.666
390.577	1871.5831
391.27603	1833.4482
391.9751	1823.813
392.67413	1848.2369
393.37317	1844.4119
394.07224	1850.9785
394.77127	1865.1486
395.47031	1847.2123
396.16937	1817.7301
396.86841	1798.0601
397.56744	1793.7509
398.26651	1807.5494
398.96555	1822.5562
399.66458	1888.5978
400.36365	1862.547
401.06268	1825.7513
401.76175	1833.8059
402.46078	1866.6123
403.15982	1834.521
403.85889	1855.1917
404.55792	1834.3278
405.25696	1861.4109
405.95602	1850.7179
406.65506	1851.8153
407.3541	1834.4248
408.05316	1843.632
408.7522	1862.8702
409.45123	1843.7762
410.1503	1827.5442
410.84933	1818.2689
411.54837	1819.201
412.24744	1828.9581
412.94647	1847.049
413.64554	1859.9067
414.34457	1853.2344
415.04361	1833.0273
415.74268	1796.8629
416.44171	1842.7639
417.14075	1853.661
417.83981	1832.196
418.53885	1806.0885
419.23788	1798.2688
419.93695	1850.1084
420.63599	1800.5289
421.33502	1811.7527
422.03409	1796.5034
422.73312	1835.6191
423.43216	1855.4601
424.13123	1831.2831
424.83026	1851.4684
425.5293	1863.7515
426.22836	1835.3181
426.9274	1861.8899
427.62646	1828.8442
428.3255	1807.3722
429.02454	1831.8723
429.7236	1843.3624
430.42264	1836.2101
431.12167	1837.1821
431.82074	1832.488
432.51978	1817.7017
433.21881	1828.5425
433.91788	1828.5408
434.61691	1803.861
435.31595	1841.1484
436.01501	1834.4341
436.71405	1844.2838
437.41309	1828.2379
438.11215	1850.6643
438.81119	1846.9927
439.51025	1875.207
440.20929	1799.6169
440.90833	1847.9463
441.60739	1834.4565
442.30643	1837.218
443.00546	1827.7412
443.70453	1821.0195
444.40356	1841.7786
445.1026	1836.0641
445.80167	1833.5939
446.5007	1810.1195
447.19974	1842.8966
447.8988	1867.4622
448.59784	1840.7947
449.29688	1847.4012
449.99594	1840.7614
450.69498	1808.3138
451.39404	1815.1261
452.09308	1834.241
452.79211	1841.1686
453.49118	1820.6543
454.19022	1805.9083
454.88925	1819.8124
455.58832	1840.8478
456.28735	1807.8331
456.98639	1866.6066
457.68546	1805.8557
458.38449	1850.9303
459.08353	1829.0326
459.78259	1844.6713
460.48163	1831.5093
461.18066	1795.5023
461.87973	1851.8243
462.57877	1838.7426
463.27783	1835.2642
463.97687	1852.0298
464.6759	1826.4929
465.37497	1810.3149
466.07401	1852.6387
466.77304	1819.5448
467.47211	1832.4825
468.17114	1840.0706
468.87018	1828.5856
469.56924	1813.2629
470.26828	1838.6924
470.96732	1858.3174
471.66638	1819.1178
472.36542	1809.3848
473.06445	1853.2303
473.76352	1867.6812
474.46255	1854.816
475.16162	1848.8983
475.86066	1843.0541
476.55969	1840.1224
477.25876	1844.248
477.95779	1888.9106
478.65683	1870.0947
479.3559	1843.2162
480.05493	1845.3921
480.75397	1857.007
481.45303	1872.6066
482.15207	1877.7805
482.8511	1842.468
483.55017	1788.0165
484.24921	1880.5304
484.94824	1845.5402
485.64731	1879.3069
486.34634	1858.243
487.04541	1870.298
487.74445	1910.2009
488.44348	1903.6626
489.14255	1889.9326
489.84158	1900.3728
490.54062	1865.8153
491.23969	1875.1255
491.93872	1886.2993
492.63776	1876.8616
493.33682	1872.1935
494.03586	1859.2507
494.73489	1864.2753
495.43396	1875.5631
496.133	1876.5449
496.83203	1894.9369
497.5311	1888.8016
498.23013	1855.5739
498.9292	1855.1597
499.62823	1866.5161
500.32727	1875.4934
501.02634	1871.6602
501.72537	1867.5966
502.42441	1885.7206
503.12347	1887.1017
503.82251	1862.9979
504.52155	1869.3253
505.22061	1878.8887
505.91965	1879.6173
506.61868	1937.1929
507.31775	1957.2201
508.01678	1957.7902
508.71582	1878.5654
509.41489	1908.0933
510.11392	1893.1494
510.81299	1912.3618
511.51202	1936.0856
512.21106	1947.7968
512.9101	1929.9972
513.60913	1924.6238
514.30823	1917.2019
515.00726	1892.1504
515.7063	1893.4651
516.40533	1884.2505
517.10437	1905.1936
517.80347	1931.6139
518.5025	1931.8097
519.20154	1927.2601
519.90057	1919.3894
520.59961	1917.8142
521.29865	1924.3268
521.99774	1944.3778
522.69678	1949.6652
523.39581	1930.465
524.09485	1943.6591
524.79388	1950.8195
525.49292	1929.1592
526.19202	1940.2411
526.89105	1951.951
527.59009	1940.5199
528.28912	1910.6315
528.98816	1974.8757
529.68726	2015.2549
530.38629	1971.9336
531.08533	1996.019
531.78436	1961.5765
532.4834	1973.0366
533.18243	1915.9543
533.88153	1927.6887
534.58057	1963.9475
535.2796	1964.4362
535.97864	1983.6563
536.67767	1929.5353
537.37671	1959.9391
538.07581	1976.0193
538.77484	2007.9171
539.47388	1960.9883
540.17291	1987.026
540.87195	1953.48
541.57104	1976.7554
542.27008	1965.0331
542.96912	1961.1582
543.66815	2009.1096
544.36719	1969.9956
545.06622	1991.1116
545.76532	1988.819
546.46436	2007.9011
547.16339	2006.1669
547.86243	1943.9153
548.56146	1949.3207
549.2605	1986.1184
549.95959	1970.4673
550.65863	1960.0204
551.35767	1972.9882
552.0567	1984.9775
552.75574	1995.0536
553.45483	1991.9651
554.15387	1963.3823
554.85291	1938.3177
555.55194	1934.6586
556.25098	1960.5554
556.95001	1988.1703
557.64911	1982.0448
558.34814	1990.3119
559.04718	1982.2357
559.74622	2007.0599
560.44525	1968.8452
561.14429	1965.7625
561.84338	1970.444
562.54242	1953.0002
563.24146	1993.9396
563.94049	1981.2177
564.63953	1964.849
565.33862	1949.9177
566.03766	1988.1058
566.73669	2017.1826
567.43573	1983.4857
568.13477	1990.9736
568.8338	1980.8748
569.5329	1960.5101
570.23193	1954.7957
570.93097	1937.2402
571.63	1921.423
572.32904	1955.8995
573.02808	1968.479
573.72717	1977.9542
574.42621	1973.5212
575.12524	1948.6847
575.82428	1919.2766
576.52332	1944.5846
577.22241	1973.3015
577.92145	1961.558
578.62048	1974.0751
579.31952	1958.7322
580.01855	1935.8997
580.71759	1957.2937
581.41669	1945.6611
582.11572	1938.3751
582.81476	1942.7672
583.51379	1934.5848
584.21283	1929.824
584.91187	1916.2081
585.61096	1919.1846
586.31	1927.8772
587.00903	1918.7354
587.70807	1908.5951
588.4071	1910.6171
589.1062	1901.6458
589.80524	1935.1517
590.50427	1925.6355
591.20331	1910.8395
591.90234	1916.5831
592.60138	1863.4095
593.30048	1856.6823
593.99951	1880.056
594.69855	1882.9576
595.39758	1872.4929
596.09662	1873.8246
596.79565	1870.931
597.49475	1874.0327
598.19379	1872.8207
598.89282	1856.9196
599.59186	1852.0834
600.29089	1871.67
600.98993	1871.8347
601.68903	1858.7037
602.38806	1852.0481
603.0871	1826.8604
603.78613	1824.9991
604.48517	1834.1832
605.18427	1818.5985
605.8833	1827.9532
606.58234	1824.0291
607.28137	1815.5253
607.98041	1782.8652
608.67944	1796.9388
609.37854	1781.6213
610.07758	1789.5265
610.77661	1777.87
611.47565	1782.3075
612.17468	1757.431
612.87372	1747.981
613.57281	1755.3966
614.27185	1745.7843
614.97089	1766.3463
615.66992	1744.2915
616.36896	1729.4352
617.06805	1724.7245
617.76709	1719.2909
618.46613	1707.6169
619.16516	1701.4948
619.8642	1712.0265
620.56323	1713.6563
621.26233	1688.5245
621.96136	1665.1135
622.6604	1669.7701
623.35944	1681.821
624.05847	1639.5591
624.75751	1659.2081
625.4566	1649.1052
626.15564	1643.8068
626.85468	1627.2302
627.55371	1629.0671
628.25275	1630.4825
628.95184	1600.6844
629.65088	1599.4745
630.34991	1626.3521
631.04895	1603.626
631.74799	1595.6641
632.44702	1574.8038
633.14612	1567.8745
633.84515	1586.4647
634.54419	1603.9031
635.24323	1542.5448
635.94226	1560.6925
636.6413	1554.8229
637.34039	1572.266
638.03943	1554.8103
638.73846	1550.6722
639.4375	1543.1431
640.13654	1534.3871
640.83563	1522.6056
641.53467	1529.5511
642.2337	1541.7468
642.93274	1514.5546
643.63177	1498.4971
644.33081	1497.2781
645.02991	1488.6033
645.72894	1485.7836
646.42798	1478.6995
647.12701	1501.4767
647.82605	1477.9249
648.52509	1489.181
649.22418	1475.3997
649.92322	1450.7051
650.62225	1465.9114
651.32129	1471.7869
652.02032	1473.8822
652.71942	1448.0779
653.41846	1446.9373
654.11749	1439.3617
654.81653	1423.8907
655.51556	1414.3204
656.2146	1416.6241
656.9137	1443.7698
657.61273	1420.4691
658.31177	1412.0139
659.0108	1407.0941
659.70984	1415.7512
660.40887	1436.5015
661.10797	1391.4028
661.80701	1374.6024
662.50604	1378.5548
663.20508	1373.7252
663.90411	1355.3859
664.60321	1375.3204
665.30225	1392.1046
666.00128	1412.0367
666.70032	1394.7611
667.39935	1387.4265
668.09839	1394.5669
668.79749	1397.1023
669.49652	1384.4136
670.19556	1389.0585
670.89459	1398.4705
671.59363	1384.0635
672.29266	1359.9532
672.99176	1348.6233
673.6908	1364.4766
674.38983	1352.011
675.08887	1366.9456
675.7879	1364.6984
676.487	1356.441
677.18604	1343.4589
677.88507	1330.6036
678.58411	1347.3925
679.28314	1352.9836
679.98218	1333.9637
680.68127	1324.8865
681.38031	1315.1124
682.07935	1309.5973
682.77838	1323.1241
683.47742	1294.8492
684.17645	1297.3011
684.87555	1327.6432
685.57458	1326.7156
686.27362	1322.2806
686.97266	1313.1719
687.67169	1293.0939
688.37079	1281.4648
689.06982	1301.2485
689.76886	1290.2122
690.4679	1303.6802
691.16693	1319.8885
691.86597	1311.8364
692.56506	1293.8462
693.2641	1276.4434
693.96313	1287.0078
694.66217	1286.3452
695.36121	1286.7666
696.06024	1274.905
696.75934	1289.3655
697.45837	1294.8326
698.15741	1285.4191
698.85645	1264.7446
699.55548	1258.9207
700.25458	1254.4581
700.95361	1246.2224
701.65265	1263.557
702.35168	1267.0731
703.05072	1251.5557
703.74976	1270.6331
704.44885	1249.4648
705.14789	1224.9572
705.84692	1236.2114
706.54596	1228.1937
707.245	1208.3053
707.94403	1219.3453
708.64313	1206.8837
709.34216	1240.9911
710.0412	1252.2423
710.74023	1242.9858
711.43927	1234.0029
712.13837	1205.5685
712.8374	1238.3535
713.53644	1198.2766
714.23547	1223.2526
714.93451	1216.3857
715.63354	1168.3141
716.33264	1212.5546
717.03168	1199.3007
717.73071	1217.9595
718.42975	1206.9309
719.12878	1199.3159
719.82782	1206.0582
720.52692	1192.598
721.22595	1209.4193
721.92499	1215.2966
722.62402	1209.069
723.32306	1191.6331
724.02216	1188.1815
724.72119	1197.4666
725.42023	1174.4686
726.11926	1187.9063
726.8183	1183.1361
727.51733	1167.4594
728.21643	1172.3341
728.91547	1149.351
729.6145	1164.8081
730.31354	1151.7729
731.01257	1128.4865
731.71161	1153.0055
732.41071	1145.7264
733.10974	1154.062
733.80878	1156.3893
734.50781	1144.1704
735.20685	1158.7988
735.90594	1142.4739
736.60498	1129.0986
737.30402	1101.2318
738.00305	1139.4321
738.70209	1125.547
739.40112	1104.1433
740.10022	1108.8302
740.79926	1150.4363
741.49829	1113.8917
742.19733	1104.4214
742.89636	1105.9856
743.5954	1101.903
744.29449	1094.7307
744.99353	1131.4581
745.69257	1110.6808
746.3916	1097.2473
747.09064	1103.5619
747.78973	1132.2234
748.48877	1114.6123
749.18781	1115.1207
749.88684	1112.2971
750.58588	1113.7456
751.28491	1134.045
751.98401	1093.5159
752.68304	1077.8944
753.38208	1059.1675
754.08112	1072.868
754.78015	1069.4559
755.47919	1069.0435
756.17828	1071.934
756.87732	1071.8883
757.57635	1074.4781
758.27539	1083.7245
758.97443	1094.1392
759.67352	1075.1875
760.37256	1065.7909
761.07159	1081.5315
761.77063	1059.3788
762.46967	1019.4506
763.1687	1019.0662
763.8678	1030.8435
764.56683	1009.3223
765.26587	1009.1041
765.9649	1003.5629
766.66394	1010.7684
767.36298	1018.074
768.06207	1021.3618
768.76111	987.39429
769.46014	984.53656
770.15918	986.68335
770.85822	956.15515
771.55731	970.32422
772.25635	991.19867
772.95538	992.82458
773.65442	994.99353
774.35345	1002.9114
775.05249	983.40607
775.75159	964.40472
776.45062	952.18781
777.14966	956.13348
777.84869	964.41132
778.54773	961.96991
779.24677	958.49268
779.94586	949.31262
780.6449	928.26514
781.34393	932.79578
782.04297	940.98303
782.742	939.39044
783.4411	938.19482
784.14014	917.19415
784.83917	908.61737
785.53821	899.06775
786.23724	896.92914
786.93628	886.7536
787.63538	888.05481
788.33441	880.57751
789.03345	875.03967
789.73248	854.96179
790.43152	855.15857
791.13055	849.93439
791.82965	846.50031
792.52869	833.6098
793.22772	833.42377
793.92676	844.64185
794.62579	837.31744
795.32489	846.5296
796.02393	852.59613
796.72296	832.78705
797.422	799.11206
798.12103	795.29266
798.82007	828.88257
799.51917	805.16626
800.2182	797.26892
800.91724	805.99487
801.61627	799.22876
802.31531	782.63849
803.01434	774.62701
803.71344	767.31329
804.41248	758.16113
805.11151	759.79199
805.81055	769.01398
806.50958	766.44861
807.20868	722.27063
807.90771	727.88739
808.60675	737.19238
809.30579	739.81812
810.00482	728.71631
810.70386	729.71783
811.40295	744.34576
812.10199	703.26514
812.80103	696.85107
813.50006	673.39899
814.1991	724.50793
814.89813	713.43585
815.59723	723.82013
816.29626	683.47327
816.9953	719.29956
817.69434	715.57135
818.39337	703.76709
819.09247	694.06317
819.7915	695.75757
820.49054	683.9657
821.18958	670.37701
821.88861	691.79059
822.58765	691.75513
823.28674	687.34314
823.98578	696.08514
824.68481	723.901
825.38385	700.26154
826.08289	694.25397
826.78192	697.08411
827.48102	699.49695
828.18005	732.59204
828.87909	703.96149
829.57813	680.33276
830.27716	696.74377
830.9762	721.09332
831.67529	725.51392
832.37433	685.79254
833.07336	709.56146
833.7724	734.88605
834.47144	735.69733
835.17053	739.31952
835.86957	739.42786
836.5686	713.96191
837.26764	747.29065
837.96667	766.90021
838.66571	774.52521
839.36481	749.41821
840.06384	756.48322
840.76288	771.36444
841.46191	762.31384
842.16095	775.81299
842.85999	814.31708
843.55908	813.35449
844.25812	819.30756
844.95715	823.21436
845.65619	812.15149
846.35522	816.09723
847.05432	843.34094
847.75336	824.80957
848.45239	857.05157
849.15143	835.85339
849.85046	846.62103
850.5495	875.9635
851.2486	891.09106
851.94763	865.37671
852.64667	896.59235
853.3457	898.36462
854.04474	924.31036
854.74377	928.35187
855.44287	935.17706
856.14191	950.30927
856.84094	962.74695
857.53998	942.65137
858.23901	956.84967
858.93811	998.91418
859.63715	998.60107
860.33618	1001.577
861.03522	1004.7877
861.73425	1023.3214
862.43329	1058.0292
863.13239	1050.3595
863.83142	1071.7518
864.53046	1112.4161
865.22949	1101.8739
865.92853	1085.7156
866.62756	1114.4685
867.32666	1144.3175
868.0257	1155.9418
868.72473	1143.8676
869.42377	1171.5719
870.1228	1191.973
870.8219	1194.9746
871.52094	1254.0906
872.21997	1225.6329
872.91901	1213.5883
873.61804	1249.6497
874.31708	1254.7224
875.01617	1251.2971
875.71521	1302.1476
876.41425	1311.0327
877.11328	1328.5787
877.81232	1327.0577
878.51135	1357.6544
879.21045	1348.1699
879.90948	1366.1929
880.60852	1372.4165
881.30756	1388.9445
882.00659	1416.4052
882.70569	1439.9755
883.40472	1454.0442
884.10376	1431.0592
884.8028	1477.8094
885.50183	1537.3069
886.20087	1507.8138
886.89996	1461.7526
887.599	1521.1421
888.29803	1537.0656
888.99707	1553.5701
889.69611	1629.9174
890.39514	1604.6602
891.09424	1604.8156
891.79327	1622.1975
892.49231	1624.8951
893.19135	1625.7278
893.89038	1683.2009
894.58948	1713.4799
895.28851	1694.9696
895.98755	1738.9827
896.68658	1720.6074
897.38562	1750.0454
898.08466	1715.3258
898.78375	1712.5669
899.48279	1806.4708
900.18182	1847.9287
900.88086	1824.0229
901.5799	1790.438
902.27893	1811.8612
902.97803	1837.444
903.67706	1843.6809
904.3761	1849.9364
905.07513	1881.502
905.77417	1896.9148
906.47327	1877.7551
907.1723	1860.4795
907.87134	1891.7502
908.57037	1916.8889
909.26941	1930.6924
909.96844	1964.7224
910.66754	2015.5035
911.36658	2003.3545
912.06561	1962.0167
912.76465	1977.9596
913.46368	2026.4543
914.16272	2048.8335
914.86182	2061.9214
915.56085	2055.1353
916.25989	2033.4319
916.95892	2057.1926
917.65796	2080.4934
918.35706	2098.9089
919.05609	2125.3306
919.75513	2092.979
920.45416	2102.0642
921.1532	2102.1233
921.85223	2146.9248
922.55133	2151.2729
923.25037	2143.5535
923.9494	2184.0718
924.64844	2228.1455
925.34747	2177.4282
926.04651	2178.2744
926.74561	2195.8718
927.44464	2206.644
928.14368	2174.2698
928.84271	2145.8345
929.54175	2152.5923
930.24084	2250.9121
930.93988	2219.4634
931.63892	2209.177
932.33795	2221.7571
933.03699	2248.5156
933.73602	2277.9094
934.43512	2262.5361
935.13416	2258.1333
935.83319	2225.7981
936.53223	2230.2122
937.23126	2269.748
937.9303	2273.4541
938.62939	2282.6704
939.32843	2259.2681
940.02747	2261.1455
940.7265	2322.115
941.42554	2351.8442
942.12463	2334.3025
942.82367	2311.6101
943.52271	2304.5049
944.22174	2328.0527
944.92078	2312.6973
945.61981	2321.019
946.31891	2300.8254
947.01794	2326.5266
947.71698	2301.5227
948.41602	2283.239
949.11505	2287.4641
949.81409	2289.7771
950.51318	2295.3152
951.21222	2332.002
951.91125	2317.6196
952.61029	2340.7913
953.30933	2302.4497
954.00842	2295.7854
954.70746	2324.864
955.40649	2327.7932
956.10553	2294.6228
956.80457	2278.7795
957.5036	2335.3943
958.2027	2302.9619
958.90173	2257.1799
959.60077	2338.4702
960.2998	2291.8425
960.99884	2316.2039
961.69788	2317.9443
962.39697	2309.0825
963.09601	2303.0308
963.79504	2293.7903
964.49408	2307.6191
965.19312	2315.1313
965.89221	2317.343
966.59125	2276.0896
967.29028	2247.019
967.98932	2226.9492
968.68835	2259.1809
969.38739	2270.5698
970.08649	2275.3257
970.78552	2286.7473
971.48456	2312.3965
972.18359	2291.7295
972.88263	2283.0947
973.58167	2272.002
974.28076	2308.3315
974.9798	2345.2913
975.67883	2247.759
976.37787	2282.6064
977.0769	2260.8604
977.776	2190.5015
978.47504	2217.4438
979.17407	2208.3455
979.87311	2245.2537
980.57214	2263.7019
981.27118	2265.4021
981.97028	2213.8508
982.66931	2218.605
983.36835	2239.4021
984.06738	2221.3733
984.76642	2195.5979
985.46545	2211.5881
986.16455	2172.8108
986.86359	2173.7935
987.56262	2171.9658
988.26166	2206.7339
988.96069	2219.9392
989.65979	2179.4348
990.35883	2149.199
991.05786	2149.6707
991.7569	2115.7485
992.45593	2130.7976
993.15497	2159.8906
993.85406	2132.0977
994.5531	2134.9497
995.25214	2091.8027
995.95117	2066.3796
996.65021	2102.9973
997.34924	2075.5149
998.04834	2099.5093
998.74738	2090.1516
999.44641	2088.9502
1000.1454	2108.1001
1000.8445	2064.5605
1001.5436	2072.3687
1002.2426	2091.386
1002.9417	2053.5466
1003.6407	2066.1458
1004.3397	2086.1665
1005.0388	2033.2211
1005.7379	1984.5852
1006.4369	1985.4941
1007.1359	1991.6538
1007.835	1990.8717
1008.534	1952.1884
1009.233	1950.0177
1009.9321	1962.8479
1010.6312	1942.6089
1011.3302	1934.1016
1012.0292	1910.2871
1012.7283	1940.7056
1013.4274	1892.3322
1014.1264	1925.9374
1014.8254	1956.7256
1015.5245	1908.7485
1016.2235	1862.1511
1016.9225	1929.001
1017.6216	1856.4441
1018.3207	1874.0348
1019.0197	1814.6643
1019.7188	1809.839
1020.4178	1846.1538
1021.1168	1815.3987
1021.8159	1821.672
1022.515	1828.524
1023.214	1822.0931
1023.913	1796.0729
1024.6121	1796.1841
1025.3112	1745.3793
1026.0101	1754.0983
1026.7092	1753.0049
1027.4083	1751.327
1028.1073	1744.4366
1028.8064	1725.6676
1029.5054	1762.0458
1030.2045	1752.809
1030.9034	1738.0281
1031.6025	1714.2065
1032.3016	1688.7283
1033.0006	1697.6499
1033.6997	1673.0662
1034.3987	1676.1672
1035.0978	1661.6432
1035.7969	1689.4602
1036.4958	1662.8628
1037.1949	1561.9268
1037.8939	1636.3604
1038.593	1573.9415
1039.2921	1624.1232
1039.9911	1620.6244
1040.6902	1601.3441
1041.3892	1566.2174
1042.0883	1575.077
1042.7872	1531.2393
1043.4863	1488.6863
1044.1854	1503.4033
1044.8844	1536.8329
1045.5835	1529.4436
1046.2825	1509.22
1046.9816	1488.698
1047.6807	1476.7245
1048.3796	1483.9216
1049.0787	1473.1578
1049.7777	1445.5627
1050.4768	1433.7808
1051.1759	1393.4395
1051.8749	1396.2078
1052.574	1393.411
1053.2729	1367.9213
1053.972	1409.9462
1054.671	1394.2507
1055.3701	1359.7784
1056.0692	1368.9958
1056.7682	1363.2971
1057.4673	1331.8795
1058.1663	1356.9976
1058.8654	1334.4347
1059.5645	1331.3127
1060.2634	1328.2928
1060.9625	1312.3387
1061.6615	1279.9973
1062.3606	1289.7085
1063.0597	1295.2821
1063.7587	1300.8365
1064.4578	1266.9652
1065.1567	1261.5355
1065.8558	1257.1268
1066.5548	1215.7151
1067.2539	1170.0205
1067.953	1205.8304
1068.652	1228.0433
1069.3511	1250.4313
1070.05	1226.5369
1070.7491	1207.5509
1071.4482	1208.4773
1072.1472	1136.8578
1072.8463	1186.9884
1073.5453	1172.1035
1074.2444	1166.0831
1074.9435	1150.1394
1075.6425	1128.0875
1076.3416	1110.4717
1077.0405	1121.7368
1077.7396	1127.3333
1078.4386	1120.8687
1079.1377	1115.2974
1079.8368	1090.3915
1080.5358	1091.0138
1081.2349	1079.988
1081.9338	1084.4911
1082.6329	1081.9159
1083.332	1074.3763
1084.031	1072.7615
1084.7301	1053.5703
1085.4291	1041.7887
1086.1282	1001.2695
1086.8273	1055.6256
1087.5262	1109.5293
1088.2253	1078.0535
1088.9243	1037.0117
1089.6234	1008.2294
1090.3224	1012.7604
1091.0215	1009.7073
1091.7206	975.54968
1092.4196	965.60236
1093.1187	970.30359
1093.8176	950.95148
1094.5167	950.67426
1095.2158	962.44379
1095.9148	966.26001
1096.6139	934.48718
1097.3129	937.9458
1098.012	921.89282
1098.7111	908.2196
1099.41	908.84045
1100.1091	913.2738
1100.8081	899.14368
1101.5072	909.1145
1102.2062	905.65894
1102.9053	871.42688
1103.6044	883.84943
1104.3033	884.95593
1105.0024	886.86755
1105.7014	851.95416
1106.4005	836.18585
1107.0996	848.2608
1107.7986	850.3606
1108.4977	836.62543
1109.1967	827.81317
1109.8958	831.23041
1110.5948	825.53125
1111.2938	803.78259
1111.9929	814.6319
1112.6919	801.55951
1113.391	794.27869
1114.09	790.55908
1114.7891	816.31799
1115.4882	788.63507
1116.1871	777.44464
1116.8862	775.48218
1117.5852	769.53467
1118.2843	762.42267
1118.9834	752.01312
1119.6824	757.57935
1120.3815	773.47534
1121.0804	759.1778
1121.7795	734.03357
1122.4786	734.27209
1123.1776	730.87177
1123.8767	732.84503
1124.5757	753.90619
1125.2748	715.41119
1125.9738	708.77838
1126.6729	711.06952
1127.3719	714.87036
1128.0709	683.99091
1128.77	758.31848
1129.469	693.85529
1130.1681	692.11731
1130.8672	697.62317
1131.5662	692.85242
1132.2653	682.67029
1132.9642	695.88336
1133.6633	676.87482
1134.3624	688.15387
1135.0614	684.09784
1135.7605	661.52069
1136.4595	655.61774
1137.1586	648.70135
1137.8575	657.35797
1138.5566	653.87952
1139.2557	632.34094
1139.9547	627.64569
1140.6538	623.73059
1141.3528	639.65106
1142.0519	615.17676
1142.751	622.5177
1143.45	625.21045
1144.149	630.06757
1144.848	607.26624
1145.5471	591.55963
1146.2462	590.80963
1146.9452	605.67603
1147.6443	598.33472
1148.3433	591.96088
1149.0424	610.34613
1149.7413	593.34216
1150.4404	579.66858
1151.1395	579.79456
1151.8385	585.95978
1152.5376	576.67792
1153.2366	572.12286
1153.9357	572.5249
1154.6348	550.53943
1155.3337	560.48926
1156.0328	567.7558
1156.7318	564.32666
1157.4309	569.79077
1158.13	565.59094
1158.829	554.47913
1159.5281	546.19562
1160.2271	542.95831
1160.9261	545.72687
1161.6251	540.35687
1162.3242	551.43152
1163.0233	538.21039
1163.7223	512.81763
1164.4214	509.80865
1165.1204	516.98883
1165.8195	512.72839
1166.5186	505.57214
1167.2175	525.4566
1167.9166	523.45721
1168.6156	517.13654
1169.3147	517.81042
1170.0137	516.64435
1170.7128	499.43335
1171.4119	487.6897
1172.1108	491.38306
1172.8099	490.56409
1173.5089	485.52454
1174.208	485.58789
1174.9071	484.3768
1175.6061	465.33926
1176.3052	483.48074
1177.0042	477.32346
1177.7032	469.89984
1178.4023	464.24689
1179.1013	448.74149
1179.8004	476.53369
1180.4994	468.74942
1181.1985	453.37491
1181.8975	454.59454
1182.5966	463.54382
1183.2957	453.47644
1183.9946	430.86447
1184.6937	437.8735
1185.3927	440.11517
1186.0918	441.97794
1186.7909	453.4924
1187.4899	443.83578
1188.189	439.03925
1188.8879	428.55655
1189.587	444.5275
1190.2861	425.86377
1190.9851	431.49423
1191.6842	418.95975
1192.3832	407.08545
1193.0823	419.96964
1193.7813	412.36154
1194.4803	416.16959
1195.1794	413.14691
1195.8784	416.30392
1196.5775	411.08429
1197.2765	402.51053
1197.9756	403.85886
1198.6747	406.39264
1199.3737	400.46054
1200.0728	391.40894
1200.7717	391.60922
1201.4708	387.20673
1202.1699	380.63467
1202.8689	390.86087
1203.568	376.82428
1204.267	388.80594
1204.9661	393.47198
1205.665	378.4664
1206.3641	371.45767
1207.0632	379.63409
1207.7622	376.68503
1208.4613	378.61633
1209.1603	371.66907
1209.8594	371.55106
1210.5585	390.73318
1211.2574	377.0014
1211.9565	366.29669
1212.6555	368.14783
1213.3546	371.314
1214.0537	360.37079
1214.7527	346.39786
1215.4518	349.53046
1216.1508	346.62799
1216.8499	343.86154
1217.5488	361.33041
1218.2479	365.75507
1218.947	344.39319
1219.646	344.60269
1220.3451	334.7186
1221.0441	344.08597
1221.7432	347.39737
1222.4423	354.05972
1223.1412	358.18674
1223.8403	347.86792
1224.5393	346.38422
1225.2384	353.25125
1225.9375	353.60916
1226.6365	348.50842
1227.3356	342.35837
1228.0345	335.98502
1228.7336	329.97882
1229.4326	345.85898
1230.1317	339.23892
1230.8308	343.70892
1231.5298	335.68088
1232.2289	330.53094
1232.9279	328.40134
1233.627	322.4375
1234.326	327.11331
1235.025	332.56943
1235.7241	339.45819
1236.4231	333.83038
1237.1222	324.18488
1237.8213	326.80005
1238.5203	345.87607
1239.2194	339.08325
1239.9183	330.49103
1240.6174	322.53632
1241.3164	339.44995
1242.0155	333.62039
1242.7146	315.1084
1243.4136	323.29306
1244.1127	346.20834
1244.8116	356.30646
1245.5107	359.14404
1246.2098	348.40918
1246.9088	342.22861
1247.6079	325.47855
1248.3069	313.86563
1249.006	317.37051
1249.7051	323.56946
1250.4041	322.69519
1251.1031	324.45752
1251.8021	323.36261
1252.5012	323.58661
1253.2002	356.79901
1253.8993	341.68719
1254.5984	347.57281
1255.2974	330.40527
1255.9965	319.21579
1256.6954	326.33072
1257.3945	329.85809
1258.0936	320.42554
1258.7926	322.15237
1259.4917	330.08371
1260.1907	340.36044
1260.8898	345.58221
1261.5889	335.11118
1262.2878	334.43314
1262.9869	315.99774
1263.6859	323.85629
1264.385	328.11615
1265.084	320.87512
1265.7831	341.68109
1266.4822	335.65628
1267.1812	333.51663
1267.8802	340.00125
1268.5792	333.11401
1269.2783	326.54376
1269.9774	326.0101
1270.6764	343.99371
1271.3755	348.4025
1272.0745	331.90121
1272.7736	342.09033
1273.4727	331.79559
1274.1716	319.36844
1274.8707	317.2395
1275.5697	336.77216
1276.2688	311.51843
1276.9678	329.50153
1277.6669	329.90143
1278.366	322.68347
1279.0649	311.11172
1279.764	333.2608
1280.463	331.68921
1281.1621	328.79874
1281.8612	317.94458
1282.5602	328.08914
1283.2593	329.91687
1283.9583	326.36749
1284.6573	336.78796
1285.3564	321.66931
1286.0554	318.70297
1286.7545	343.6373
1287.4535	316.86496
1288.1526	327.52283
1288.8516	330.7446
1289.5507	317.55173
1290.2498	317.36981
1290.9487	326.28653
1291.6478	331.93277
1292.3468	318.17215
1293.0459	327.0119
1293.745	328.77078
1294.444	315.95938
1295.1431	326.02521
1295.842	329.03802
1296.5411	333.77701
1297.2402	344.06775
1297.9392	338.64456
1298.6383	334.06888
1299.3373	337.5733
1300.0364	333.90454
1300.7354	342.15115
1301.4344	326.86493
1302.1335	335.36118
1302.8325	341.97949
1303.5316	336.10855
1304.2306	324.52371
1304.9297	313.4313
1305.6288	317.23682
1306.3278	331.92944
1307.0269	323.12332
1307.7258	338.20459
1308.4249	338.83099
1309.124	322.49484
1309.823	322.94403
1310.5221	326.8653
1311.2211	330.8316
1311.9202	331.95761
1312.6191	326.88654
1313.3182	339.60303
1314.0173	345.70175
1314.7163	358.97171
1315.4154	353.84402
1316.1144	324.78308
1316.8135	329.95093
1317.5126	339.98364
1318.2115	349.01715
1318.9106	339.73135
1319.6096	319.69495
1320.3087	320.70062
1321.0078	331.75729
1321.7068	330.04446
1322.4059	338.01694
1323.1049	334.7518
1323.804	332.79898
1324.5029	341.60797
1325.202	347.53064
1325.9011	338.2142
1326.6001	336.53549
1327.2992	338.39841
1327.9982	325.90799
1328.6973	325.62134
1329.3964	328.77103
1330.0953	340.88272
1330.7944	343.29016
1331.4934	328.77179
1332.1925	330.73505
1332.8916	344.80194
1333.5906	337.28534
1334.2897	328.30963
1334.9886	329.9584
1335.6877	339.30634
1336.3867	334.20401
1337.0858	341.1814
1337.7849	332.56918
1338.4839	328.44278
1339.183	334.0574
1339.882	351.52911
1340.5811	334.27341
1341.2802	330.04544
1341.9791	324.92059
1342.6782	321.21249
1343.3772	328.28326
1344.0763	341.42361
1344.7754	366.84073
1345.4744	364.36655
1346.1735	358.96973
1346.8724	332.43405
1347.5715	322.91086
1348.2705	348.4798
1348.9696	345.44934
1349.6687	327.90738
1350.3677	330.18188
1351.0668	331.85376
1351.7657	348.49042
1352.4648	348.92004
1353.1639	350.70425
1353.8629	345.46323
1354.562	348.64493
1355.261	323.37677
1355.9601	340.96262
1356.6592	352.39343
1357.3582	340.02505
1358.0573	328.55313
1358.7562	334.44101
1359.4553	336.7814
1360.1543	338.10889
1360.8534	335.38025
1361.5525	336.39328
1362.2515	343.82507
1362.9506	325.69705
1363.6495	350.82599
1364.3486	345.85342
1365.0477	346.26794
1365.7467	340.78992
1366.4458	341.9512
1367.1448	339.71341
1367.8439	341.45303
1368.543	351.4985
1369.2419	350.34229
1369.941	345.10529
1370.64	349.81143
1371.3391	354.07257
1372.0381	338.55322
1372.7372	353.44803
1373.4363	358.52087
1374.1353	345.2327
1374.8344	353.53726
1375.5333	352.32837
1376.2324	345.05905
1376.9315	336.92172
1377.6305	347.2821
1378.3296	346.33911
1379.0286	351.84827
1379.7277	356.75891
1380.4268	340.19098
1381.1257	342.87726
1381.8248	338.7323
1382.5238	360.362
1383.2229	376.1178
1383.9219	377.59354
1384.621	353.11563
1385.3201	353.71457
1386.019	348.00601
1386.7181	345.79926
1387.4171	357.87936
1388.1162	339.43839
1388.8153	331.07736
1389.5143	333.45917
1390.2134	356.6452
1390.9124	339.71219
1391.6115	330.61313
1392.3105	347.28366
1393.0095	361.92151
1393.7086	350.08804
1394.4076	350.27997
1395.1067	350.65475
1395.8057	352.42914
1396.5048	358.11459
1397.2039	354.01413
1397.9028	357.59802
1398.6019	339.09973
1399.3009	360.9151
1400	346.47873
