20.082397	1980.0236
20.785263	2091.5901
21.488129	2572.8604
22.190992	3075.1858
22.893858	3499.5881
23.596724	3775.0247
24.299589	3940.7034
25.002455	4043.8877
25.705318	4123.2095
26.408184	4236.5337
27.11105	4387.6582
27.813915	4546.5884
28.516781	4575.1201
29.219646	4642.7988
29.92251	4759.0454
30.625376	4813.9604
31.328241	4913.9707
32.031105	5004.1021
32.733971	5084.5479
33.436836	5192.7686
34.139702	5351.2866
34.842567	5661.8896
35.545433	6224.3281
36.248299	6599.5815
36.951164	6881.8115
37.65403	7147.5303
38.356895	5745.3506
39.059757	5745.3511
39.762623	5745.3506
40.465488	5745.3506
41.168354	5984.4175
41.87122	6648.3892
42.574085	6585.1187
43.276951	6716.1333
43.979816	6837.4976
44.682682	7120.3799
45.385548	7259.8105
46.088413	7199.6641
46.791275	7189.3281
47.494141	7251.0679
48.197006	7317.626
48.899872	7476.8027
49.602737	7585.2524
50.305603	7602.4517
51.008469	7683.1558
51.711334	7803.4536
52.4142	7766.9385
53.117065	7862.5566
53.819927	7790.0542
54.522793	7917.3398
55.225658	7914.6348
55.928524	7934.9404
56.63139	7969.6914
57.334255	8039.8335
58.037121	8111.0723
58.739986	8179.833
59.442852	8293.0029
60.145718	8430.7754
60.848583	8504.9893
61.551445	8536.5664
62.254311	8461.0615
62.957176	8323.5752
63.660042	8273.1758
64.362907	8344.6416
65.065773	8322.2949
65.768639	8350.0498
66.471504	8421.0059
67.17437	8452.5117
67.877235	8452.6279
68.580101	8519.8301
69.282967	8655.4336
69.985832	8672.0557
70.688698	8505.0273
71.391563	8476.792
72.094429	8663.5059
72.797287	8672.7227
73.500153	8713.9902
74.203018	8594.2529
74.905884	8552.8516
75.608749	8670.0264
76.311615	8768.6816
77.014481	8783.5508
77.717346	8722.5439
78.420212	8651.5879
79.123077	8796.5283
79.825943	8658.376
80.528809	8692.4268
81.231674	8633.6836
81.93454	8675.5869
82.637405	8763.8867
83.340271	8777.8027
84.043137	8784.0049
84.746002	8775.0322
85.448868	8760.4346
86.151733	8712.3545
86.854599	8673.4033
87.557457	8720.8555
88.260323	8726.0068
88.963188	8856.0127
89.666054	8766.0742
90.368919	8778.9863
91.071785	8786.3984
91.774651	8783.0156
92.477516	8826.5654
93.180382	8736.2061
93.883247	8631.1289
94.586113	8608.0439
95.288979	8682.209
95.991844	8768.4473
96.69471	8743.5947
97.397575	8665.1191
98.100441	8593.3906
98.803307	8731.6484
99.506172	8669.9814
100.20904	8717.7002
100.9119	8722.8584
101.61477	8698.2471
102.31763	8632.2178
103.02049	8635.6523
103.72336	8673.3701
104.42622	8735.2314
105.12909	8808.2197
105.83195	8810.6377
106.53482	8750.1309
107.23769	8702.3818
107.94055	8757.4385
108.64342	8596.5254
109.34628	8605.9209
110.04915	8654.1748
110.75201	8644.2471
111.45488	8454.6836
112.15775	8476.1641
112.86061	8525.9688
113.56348	8514.082
114.26634	8536.3184
114.96921	8580.0254
115.67207	8595.0449
116.37494	8592.084
117.0778	8538.9668
117.78066	8510.3955
118.48353	8471.7051
119.18639	8644.7695
119.88926	8539.6533
120.59212	8483.584
121.29499	8423.1289
121.99786	8356.5615
122.70072	8372.3779
123.40359	8326.7168
124.10645	8372.79
124.80932	8703.8828
125.51218	8881.043
126.21505	8665.9756
126.91792	8354.5859
127.62078	8421.5205
128.32364	8341.2939
129.0265	8518.1641
129.72937	8477.875
130.43224	8351.4688
131.1351	8370.7734
131.83797	8344.2607
132.54083	8328.0557
133.2437	8370.4697
133.94656	8364.666
134.64943	8313.8135
135.35229	8302.3584
136.05516	8231.7256
136.75803	8208.1289
137.46089	8327.5352
138.16376	8330.6279
138.86662	8275.2402
139.56949	8284.1045
140.27235	8298.6543
140.97522	8258.585
141.67809	8178.4063
142.38095	8194.2227
143.08382	8211.0322
143.78668	8198.5273
144.48955	8218.5752
145.19241	8194.4014
145.89528	8134.207
146.59814	8084.1826
147.30101	8244.3496
148.00388	8161.0386
148.70674	8168.8096
149.40961	8198.8652
150.11247	8099.7339
150.81534	8028.6973
151.5182	8071.2729
152.22107	8108.7427
152.92393	8098.0874
153.6268	8061.4966
154.32965	8046.3823
155.03252	8041.5737
155.73538	7989.333
156.43825	8036.2236
157.14111	8144.646
157.84398	8122.042
158.54684	8070.6943
159.24971	8032.5107
159.95258	7938.8052
160.65544	7957.8652
161.35831	7876.3843
162.06117	7919.0557
162.76404	7927.647
163.4669	7854.8447
164.16977	7841.5195
164.87263	7915.9185
165.5755	7971.6572
166.27837	7952.7695
166.98123	7932.3467
167.6841	7894.4204
168.38696	7802.5386
169.08983	7810.0073
169.79269	7821.5024
170.49556	7800.6772
171.19843	7867.7422
171.90129	7838.8232
172.60416	7825.3867
173.30702	7772.5962
174.00989	7744.6157
174.71275	7778.9131
175.41562	7820.3438
176.11848	7829.2358
176.82135	7779.2866
177.52422	7761.8022
178.22708	7745.9902
178.92995	7668.248
179.63281	7786.8354
180.33568	7725.0845
181.03854	7671.2139
181.74141	7759.168
182.44427	7748.0879
183.14714	7689.3813
183.84999	7741.1973
184.55286	7782.6421
185.25572	7803.4995
185.95859	7764.3511
186.66145	7604.9961
187.36432	7522.6333
188.06718	7594.1465
188.77005	7723.0342
189.47292	7722.8672
190.17578	7754.8687
190.87865	7722.8535
191.58151	7653.7515
192.28438	7519.3457
192.98724	7702.8672
193.69011	7703.2241
194.39297	7704.1069
195.09584	7684.0645
195.79871	7627.4736
196.50157	7606.2412
197.20444	7605.8418
197.9073	7604.9346
198.61017	7644.8643
199.31303	7665.1606
200.0159	7613.7563
200.71877	7581.8672
201.42163	7605.2896
202.1245	7504.52
202.82736	7577.5244
203.53023	7580
204.23309	7643.6055
204.93596	7626.6172
205.63882	7619.5176
206.34169	7646.6313
207.04456	7656.3496
207.74742	7640.4795
208.45029	7636.8301
209.15315	7639.0273
209.85602	7619.0918
210.55888	7592.0049
211.26175	7473.4028
211.96461	7404.6113
212.66748	7482.584
213.37035	7570.1133
214.0732	7602.5234
214.77606	7506.6914
215.47893	7475.9893
216.18179	7568.6675
216.88466	7640.5581
217.58752	7619.2446
218.29039	7556.3892
218.99326	7521.4165
219.69612	7507.6021
220.39899	7520.0474
221.10185	7568.8135
221.80472	7585.0254
222.50758	7596.2061
223.21045	7578.6274
223.91331	7555.8525
224.61618	7480.3369
225.31905	7506.2451
226.02191	7533.8809
226.72478	7607.4951
227.42764	7638.7817
228.13051	7461.5596
228.83337	7513.3696
229.53624	7506.3179
230.23911	7463.3896
230.94197	7511.2285
231.64484	7545.8315
232.3477	7529.6382
233.05057	7505.6855
233.75343	7471.271
234.4563	7541.4287
235.15916	7550.2349
235.86203	7477.2397
236.5649	7636.6953
237.26776	7669.6553
237.97063	7644.3574
238.67349	7505.7046
239.37636	7579.0859
240.07922	7565.9019
240.78209	7600.1655
241.48495	7595.8936
242.18782	7564.4448
242.89069	7566.062
243.59354	7560.5425
244.2964	7536.4604
244.99927	7577.3511
245.70213	7641.9214
246.405	7604.3975
247.10786	7655.522
247.81073	7553.9243
248.5136	7566.7437
249.21646	7524.9849
249.91933	7690.7817
250.62219	7524.4736
251.32506	7636.2598
252.02792	7603.1743
252.73079	7582.3672
253.43365	7624.9243
254.13652	7640.8501
254.83939	7653.0244
255.54225	7623.2383
256.24512	7592.29
256.948	7588.5601
257.65085	7559.6792
258.3537	7577.0649
259.05658	7613.1704
259.75943	7636.0469
260.46231	7699.6523
261.16516	7613.6465
261.86804	7571.9053
262.57089	7650.229
263.27377	7636.3242
263.97662	7685.2544
264.6795	7629.0488
265.38235	7710.0112
266.08524	7655.1841
266.78809	7613.1865
267.49097	7611.6206
268.19382	7654.7368
268.8967	7635.9565
269.59955	7577.6167
270.30243	7675.0879
271.00528	7782.0552
271.70816	7703.9307
272.41101	7744.2666
273.11389	7761.6685
273.81674	7742.9961
274.51962	7763.8257
275.22247	7751.9336
275.92535	7657.5601
276.6282	7653.4868
277.33109	7715.311
278.03394	7764.6646
278.73682	7780.2119
279.43967	7805.4478
280.14255	7757.0298
280.8454	7685.3032
281.54828	7750.4575
282.25113	7829.1416
282.95401	7817.6582
283.65686	7807.626
284.35974	7765.1089
285.06259	7735.2036
285.76547	7875.1831
286.46832	7861.7275
287.1712	7809.9316
287.87405	7860.3306
288.5769	7932.6592
289.27979	7929.7979
289.98264	7875.2256
290.68552	7975.6626
291.38837	7898.9077
292.09125	7973.8345
292.7941	8064.4199
293.49698	7988.7422
294.19983	7928.2749
294.90271	7949.4385
295.60556	8017.0947
296.30844	8039.6172
297.01129	8040.582
297.71417	8036.9341
298.41702	7975.8569
299.1199	8002.9907
299.82275	7960.0884
300.52563	8044.4341
301.22849	8093.2358
301.93137	8129.5098
302.63422	8105.835
303.3371	8091.0767
304.03995	8022.4077
304.74283	8015.4854
305.44568	7942.3208
306.14856	8049.8711
306.85141	8194.1582
307.55429	8165.9346
308.25714	8122.3867
308.96002	8183.394
309.66287	8266.5693
310.36575	8267.8359
311.0686	8251.0986
311.77148	8277.5996
312.47433	8256.8906
313.17722	8220.3535
313.88007	8290.9258
314.58295	8311.8574
315.2858	8319.5225
315.98868	8364.5596
316.69153	8461.0635
317.39441	8355.127
318.09726	8358.5898
318.80011	8367.667
319.50299	8398.3408
320.20584	8331.2012
320.90872	8453.1768
321.61157	8451.5488
322.31445	8390.2793
323.0173	8406.2363
323.72018	8435.5654
324.42303	8479.2021
325.12592	8503.2246
325.82877	8481.5703
326.53165	8443.8955
327.2345	8431.4375
327.93738	8503.3477
328.64023	8565.7178
329.34311	8531.5908
330.04596	8564.8594
330.74884	8537.1064
331.45169	8587.1084
332.15457	8649.251
332.85742	8572.3965
333.5603	8542.0625
334.26315	8670.0615
334.96603	8786.1025
335.66888	8759.4668
336.37177	8700.7949
337.07462	8633.5508
337.7775	8656.3398
338.48035	8726.458
339.18323	8768.9434
339.88608	8757.0703
340.58896	8708.1133
341.29181	8681.1455
341.99469	8715.6211
342.69754	8766.4541
343.40042	8764.0049
344.10327	8746.832
344.80615	8817.0586
345.509	8869.4033
346.21188	8768.6094
346.91473	8811.8076
347.61758	8719.6836
348.32047	8720.2344
349.02332	8738.8633
349.7262	8820.2266
350.42905	8818.7236
351.13193	8818.4219
351.83478	8893.4297
352.53766	8853.1387
353.24051	8844.3154
353.94339	8816.3027
354.64624	8837.1611
355.34912	8879.8535
356.05197	8845.8691
356.75485	8888.5957
357.4577	8836.7305
358.16058	8833.2246
358.86343	8907.4307
359.56631	8768.4434
360.26917	8799.2832
360.97205	8819.2891
361.6749	8800.2578
362.37778	8925.0615
363.08063	8829.3516
363.78351	8832.5859
364.48636	8748.6143
365.18924	8793.4629
365.89209	8800.6152
366.59497	8868.4512
367.29782	8941.0479
368.0007	8933.3398
368.70355	8852.7617
369.40643	8657.3174
370.10928	8813.1904
370.81216	8859.6182
371.51501	8879.5977
372.2179	8921.8223
372.92075	8909.3203
373.62363	8852.7041
374.32648	8806.1885
375.02936	8847.665
375.73221	8910.9785
376.43509	8894.0508
377.13794	8856.6299
377.84079	8828.5371
378.54367	8803.6992
379.24652	8771.4785
379.9494	8841.916
380.65225	8816.3262
381.35513	8745.0381
382.05798	8811.7793
382.76086	8772.2031
383.46371	8728.7793
384.1666	8840.5205
384.86945	8721.7373
385.57233	8759.4717
386.27518	8781.6943
386.97806	8647.7617
387.68091	8655.541
388.38379	8678.2891
389.08664	8607.0254
389.78952	8637.0674
390.49237	8647.3438
391.19525	8641.1035
391.8981	8648.4824
392.60098	8624.125
393.30383	8634.4238
394.00671	8655.6016
394.70956	8607.4131
395.41245	8573.8047
396.1153	8576.0723
396.81818	8552.7266
397.52103	8516.4502
398.22391	8494.3428
398.92676	8557.3359
399.62964	8503.0342
400.33249	8521.915
401.03537	8568.5605
401.73822	8545.9063
402.4411	8560.6865
403.14395	8565.957
403.84683	8497.2646
404.54968	8432.291
405.25256	8534.0293
405.95541	8408.1387
406.65829	8357.0898
407.36115	8431.0527
408.064	8487.4609
408.76688	8520.0391
409.46973	8497.3408
410.17261	8424.9404
410.87546	8344.4375
411.57834	8300.6123
412.28119	8402.2188
412.98407	8494.7881
413.68692	8422.9971
414.3898	8356.8311
415.09265	8350.2891
415.79553	8305.9434
416.49838	8283.3027
417.20126	8292.373
417.90411	8311.3193
418.60699	8307.1025
419.30984	8287.6221
420.01273	8264.6738
420.71558	8223.3525
421.41846	8238.751
422.12131	8286.2852
422.82419	8259.4648
423.52704	8181.3813
424.22992	8186.0762
424.93277	8195.042
425.63565	8155.9741
426.3385	8048.2676
427.04138	8219.0273
427.74423	8126.8447
428.44711	8163.4561
429.14996	8165.5269
429.85284	8165.7344
430.55569	8174.2222
431.25858	8203.6924
431.96143	8146.3022
432.66431	8138.1304
433.36716	8119.1157
434.07004	8104.0562
434.77289	8110.0767
435.47577	8053.0674
436.17862	8036.0703
436.88147	8105.9883
437.58435	8115.1992
438.2872	8032.042
438.99008	8030.9863
439.69293	8101.2515
440.39581	8064.9336
441.09866	8050.5425
441.80154	8049.3511
442.50439	8042.7134
443.20728	8018.7993
443.91013	8046.2705
444.61301	7918.9341
445.31586	7969.479
446.01874	8043.7505
446.72159	8055.356
447.42447	8036.1602
448.12732	7934.395
448.8302	7946.6934
449.53305	7983.314
450.23593	8014.6221
450.93878	7972.5854
451.64166	8057.6841
452.34451	8061.4258
453.04739	7960.1694
453.75024	7932.8057
454.45313	7989.6001
455.15598	7969.228
455.85886	7985.2056
456.56171	7952.7578
457.26459	7937.7832
457.96744	7937.1421
458.67032	7905.7261
459.37317	7885.1997
460.07605	7858.4326
460.7789	7879.5908
461.48178	7910.0898
462.18463	7882.5566
462.88751	7861.2734
463.59036	7830.3701
464.29324	7825.9551
464.99609	7916.8364
465.69897	7902.6616
466.40182	7888.5005
467.10468	7859.7012
467.80756	7864.3169
468.51041	7871.6245
469.21329	7859.1309
469.91614	7849.6582
470.61902	7749.7173
471.32187	7849.4756
472.02475	7777.439
472.7276	7859.7998
473.43048	7835.5879
474.13333	7774.627
474.83621	7830.9014
475.53906	7794.8726
476.24194	7726.7549
476.94479	7711.0791
477.64767	7774.8115
478.35052	7749.8735
479.05341	7828.7251
479.75626	7832.3105
480.45914	7767.5059
481.16199	7700.6118
481.86487	7778.127
482.56772	7828.3501
483.2706	7767.1084
483.97345	7723.4258
484.67633	7711.5757
485.37918	7668.4043
486.08206	7682.7021
486.78491	7659.981
487.48779	7581.791
488.19064	7640.7998
488.89352	7676.5376
489.59637	7671.4937
490.29926	7680.9829
491.00211	7630.376
491.70499	7629.4731
492.40784	7593.3149
493.11072	7655.6353
493.81357	7675.0601
494.51645	7626.0713
495.2193	7492.3745
495.92218	7569.4399
496.62503	7600.6733
497.32788	7611.7568
498.03076	7696.7427
498.73361	7927.5732
499.43649	7597.6074
500.13934	7520.4224
500.84222	7557.9805
501.54507	7571.3823
502.24796	7528.6406
502.95081	7590.5762
503.65369	7519.6201
504.35654	7423.2095
505.05942	7453.3223
505.76227	7500.1797
506.46515	7429.3188
507.168	7530.791
507.87088	7555.4194
508.57373	7536.7988
509.27661	7531.9858
509.97946	7514.6792
510.68234	7513.7915
511.38519	7533.0737
512.08807	7609.3398
512.79095	7539.4614
513.49377	7421.2842
514.19666	7453.9653
514.89954	7428.2329
515.60242	7404.1338
516.30524	7450.2632
517.00812	7467.3184
517.711	7498.752
518.41388	7528.5918
519.1167	7409.7363
519.81958	7362.3643
520.52246	7503.7021
521.22534	7541.9204
521.92816	7514.5322
522.63104	7457.7007
523.33392	7409.5273
524.0368	7367.2666
524.73962	7428.6729
525.4425	7520.9014
526.14539	7496.9048
526.84821	7454.939
527.55109	7433.8345
528.25397	7441.1846
528.95685	7444.2227
529.65967	7591.1636
530.36255	7603.3262
531.06543	7627.8813
531.76831	7610.7827
532.47113	7604.8931
533.17401	7549.2661
533.87689	7548.9609
534.57977	7588.7969
535.28259	7631.9619
535.98547	7635.2002
536.68835	7717.8545
537.39124	7725.6494
538.09406	7720.8682
538.79694	7819.0059
539.49982	7830.6289
540.2027	7859.4688
540.90552	7880.5601
541.6084	7971.3823
542.31128	7946.0313
543.01416	7949.6899
543.71698	8046.2593
544.41986	8103.4263
545.12274	8193.8379
545.82562	8279.3311
546.52844	8273.6113
547.23132	8303.3115
547.9342	8451.7607
548.63708	8500.8701
549.3399	8632.957
550.04279	8637.4229
550.74567	8708.2979
551.44855	8712.2461
552.15137	8851.1084
552.85425	9024.7236
553.55713	9110.3779
554.26001	9167.6943
554.96283	9233.9834
555.66571	9332.833
556.36859	9399.3486
557.07141	9513.7324
557.77429	9724.5
558.47717	9826.8516
559.18005	9945.7773
559.88287	10075.064
560.58575	10156.043
561.28864	10255.082
561.99152	10380.894
562.69434	10592.764
563.39722	10798.423
564.1001	10896.523
564.80298	10946.768
565.5058	11057.258
566.20868	11212.858
566.91156	11399.886
567.61444	11440.709
568.31726	11564.979
569.02014	11786.885
569.72302	11860.113
570.4259	11979.619
571.12872	12100.155
571.8316	12211.597
572.53448	12335.767
573.23737	12398.347
573.94019	12615.408
574.64307	12648.094
575.34595	12655.611
576.04883	12752.31
576.75165	12792.42
577.45453	13010.726
578.15741	13061.272
578.86029	13171.307
579.56311	13155.33
580.26599	13111.555
580.96887	13326.691
581.67175	13347.62
582.37457	13347.396
583.07745	13295.883
583.78033	13367.469
584.48322	13410.148
585.18604	13422.107
585.88892	13440.455
586.5918	13699.829
587.29462	13695.561
587.9975	13694.643
588.70038	13619.244
589.40326	13572.496
590.10608	13651.888
590.80896	13706.17
591.51184	13707.14
592.21472	13700.696
592.91754	13651.637
593.62042	13784.667
594.3233	13828.889
595.02618	13747.066
595.729	13784.043
596.43188	13812.379
597.13477	13612.998
597.83765	13784.674
598.54047	13635.523
599.24335	13633.309
599.94623	13738.723
600.64911	13756.77
601.35193	13575.169
602.05481	13539.826
602.75769	13516.485
603.46057	13453.018
604.16339	13430.849
604.86627	13504.252
605.56915	13524.985
606.27203	13410.702
606.97485	13360.065
607.67773	13383.344
608.38062	13299.985
609.0835	13316.061
609.78632	13239.538
610.4892	13284.167
611.19208	13125.296
611.89496	13147.005
612.59778	13066.556
613.30066	13039.001
614.00354	13051.301
614.70642	13045.13
615.40924	12925.116
616.11212	12762.03
616.815	12637.659
617.51782	12708.532
618.2207	12645.203
618.92358	12636.538
619.62646	12578.444
620.32928	12487.382
621.03217	12473.336
621.73505	12473.675
622.43793	12306.967
623.14075	12255.519
623.84363	12230.581
624.54651	12179.45
625.24939	12094.611
625.95221	12003.641
626.65509	11991.602
627.35797	11999.381
628.06085	11982.273
628.76367	11877.984
629.46655	11816.485
630.16943	11829.318
630.87231	11700.618
631.57513	11588.422
632.27802	11536.594
632.9809	11465.388
633.68378	11422.06
634.3866	11356.521
635.08948	11326.27
635.79236	11235.223
636.49524	11210.411
637.19806	11210.003
637.90094	11116.874
638.60382	11028.299
639.3067	10973.816
640.00952	10881.288
640.7124	10813.317
641.41528	10820.287
642.11816	10760.49
642.82098	10680.217
643.52386	10565.675
644.22675	10512.055
644.92963	10466.02
645.63245	10380.288
646.33533	10330.106
647.03821	10279.888
647.74103	10226.221
648.44391	10096.096
649.14679	9998.6084
649.84967	9921.5576
650.55249	9862.4033
651.25537	9938.9365
651.95825	9763
652.66113	9601.4092
653.36395	9480.2949
654.06683	9456.8896
654.76971	9424.1787
655.4726	9397.6963
656.17542	9370.9814
656.8783	9303.2256
657.58118	9216.8848
658.28406	9137.8193
658.98688	9032.6396
659.68976	8935.6367
660.39264	8920.9463
661.09552	8872.1602
661.79834	8771.9473
662.50122	8665.0488
663.2041	8562.4688
663.90698	8452.457
664.6098	8445.8291
665.31268	8424.7402
666.01556	8360.1465
666.71844	8342.9414
667.42126	8236.6621
668.12415	8078.0303
668.82703	8048.9819
669.52991	8021.1997
670.23273	7968.5654
670.93561	7939.3901
671.63849	7801.3794
672.34137	7717.8955
673.04419	7632.145
673.74707	7552.3521
674.44995	7546.2808
675.15277	7513.5557
675.85565	7417.1455
676.55853	7398.5879
677.26141	7272.2017
677.96423	7204.793
678.66711	7130.1831
679.37	7145.8193
680.07288	7093.0713
680.7757	7005.1509
681.47858	6911.4961
682.18146	6825.3374
682.88434	6791.2144
683.58716	6769.9268
684.29004	6746.0708
684.99292	6688.022
685.6958	6610.8853
686.39862	6510.4385
687.1015	6455.001
687.80438	6437.4487
688.50726	6371.0278
689.21008	6330.1196
689.91296	6252.4863
690.61584	6187.8389
691.31873	6106.7725
692.02155	6101.7051
692.72443	6084.96
693.42731	6024.7012
694.13019	5978.7632
694.83301	5940.7749
695.53589	5917.7417
696.23877	5831.2817
696.94165	5764.0103
697.64447	5673.1812
698.34735	5708.335
699.05023	5682.2764
699.75311	5587.2563
700.45593	5521.9023
701.15881	5452.6016
701.86169	5427.2153
702.56458	5384.4756
703.2674	5335.0869
703.97028	5258.6821
704.67316	5242.374
705.37598	5211.7568
706.07886	5135.6685
706.78174	5124.0195
707.48462	5131.8926
708.18744	5107.457
708.89032	4955.6089
709.5932	4916.458
710.29608	4943.5059
710.9989	4847.1729
711.70178	4829.9678
712.40466	4811.0166
713.10754	4780.5171
713.81036	4733.5254
714.51324	4652.5869
715.21613	4596.6157
715.91901	4606.3164
716.62183	4586.084
717.32471	4535.2246
718.02759	4486.3022
718.73047	4441.8477
719.43329	4399.2891
720.13617	4383.2578
720.83905	4361.2388
721.54193	4304.9204
722.24475	4321.6099
722.94763	4275.3784
723.65051	4205.1475
724.35339	4174.1006
725.05621	4114.3623
725.75909	4105.6948
726.46198	4150.3696
727.16486	4151.7412
727.86768	4040.7285
728.57056	3954.6335
729.27344	3970.093
729.97632	3975.2991
730.67914	3909.988
731.38202	3894.0259
732.0849	3858.4639
732.78778	3871.5549
733.4906	3864.4758
734.19348	3776.7278
734.89636	3708
735.59918	3755.1506
736.30206	3750.2722
737.00494	3744.6653
737.70782	3710.4741
738.41064	3693.6653
739.11353	3688.3
739.81641	3670.2175
740.51929	3655.05
741.22211	3595.6067
741.92499	3566.2288
742.62787	3530.1445
743.33075	3493.8853
744.03357	3511.4741
744.73645	3490.2229
745.43933	3497.2866
746.14221	3476.0366
746.84503	3423.8647
747.54791	3389.5715
748.25079	3431.4785
748.95367	3446.6211
749.65649	3433.5181
750.35938	3432.5662
751.06226	3358.218
751.76514	3340.7244
752.46796	3314.4434
753.17084	3309.0842
753.87372	3326.375
754.5766	3295.5115
755.27942	3258.8921
755.9823	3256.1406
756.68518	3249.8586
757.38806	3213.3123
758.09088	3269.2083
758.79376	3270.8784
759.49664	3243.2139
760.19952	3217.022
760.90234	3162.2463
761.60522	3135.894
762.30811	3184.385
763.01099	3151.4507
763.71381	3169.1926
764.41669	3207.0332
765.11957	3151.1907
765.82239	3111.7339
766.52527	3094.0381
767.22815	3117.7947
767.93103	3187.6304
768.63385	3177.334
769.33673	3114.7598
770.03961	3066.0178
770.74249	3077.3618
771.44531	3136.7683
772.14819	3169.1479
772.85107	3134.9128
773.55396	3078.4192
774.25677	3048.96
774.95966	3012.3657
775.66254	3015.7947
776.36542	2995.1306
777.06824	2995.572
777.77112	3048.4666
778.474	3038.9851
779.17688	3025.6038
779.8797	3010.5703
780.58258	2990.9973
781.28546	3003.4099
781.98834	2996.5461
782.69116	3017.7488
783.39404	3002.8303
784.09692	2940.8943
784.7998	2894.7275
785.50262	2829.4438
786.20551	2848.9565
786.90839	2888.5613
787.61127	2871.5593
788.31409	2860.4238
789.01697	2827.3391
789.71985	2767.0032
790.42273	2761.1487
791.12555	2780.0605
791.82843	2766.6467
792.53131	2697.8245
793.23419	2700.272
793.93701	2717.5723
794.63989	2669.7566
795.34277	2631.8186
796.04559	2611.7881
796.74847	2581.7205
797.45135	2604.5134
798.15424	2613.0623
798.85706	2611.4763
799.55994	2594.1924
800.26282	2577.1516
800.9657	2522.6882
801.66852	2471.4456
802.3714	2442
803.07428	2386.1646
803.77716	2430.6658
804.47998	2383.9731
805.18286	2431.7412
805.88574	2386.0999
806.58862	2314.2583
807.29144	2304.075
807.99432	2318.6094
808.6972	2283.9102
809.40009	2294.1086
810.10291	2280.2935
810.80579	2297.3679
811.50867	2220.4053
812.21155	2182.0381
812.91437	2076.1768
813.61725	2122.1753
814.32013	2173.5454
815.02301	2142.217
815.72583	2083.106
816.42871	2106.6514
817.13159	2114.979
817.83447	2101.3384
818.53729	2083.9155
819.24017	2058.0789
819.94305	2039.7499
820.64594	2027.4569
821.34875	1940.714
822.05164	2017.9836
822.75452	1982.2942
823.4574	2021.9473
824.16022	1970.0409
824.8631	2009.6863
825.56598	1961.8126
826.2688	1950.3627
826.97168	1925.6304
827.67456	1951.4478
828.37744	2008.8406
829.08026	1998.2747
829.78314	1996.5922
830.48602	2020.3911
831.1889	2041.4177
831.89172	2007.731
832.5946	2014.8855
833.29749	2063.6548
834.00037	2122.4526
834.70319	2160.6465
835.40607	2121.4087
836.10895	2122.4519
836.81183	2167.9878
837.51465	2207.7273
838.21753	2267.3806
838.92041	2285.9507
839.62329	2246.0828
840.32611	2285.3672
841.02899	2372.9934
841.73187	2369.9343
842.43475	2370.9092
843.13757	2397.5286
843.84045	2486.3979
844.54333	2555.3872
845.24622	2579.2605
845.94904	2589.1963
846.65192	2647.9578
847.3548	2735.1538
848.05768	2806.4451
848.7605	2861.4985
849.46338	2821.3474
850.16626	2856.1453
850.86914	2953.5864
851.57196	3016.189
852.27484	3046.1887
852.97772	3086.1865
853.68054	3154.5405
854.38342	3174.6729
855.0863	3187.5122
855.78918	3293.1414
856.492	3366.678
857.19489	3371.6702
857.89777	3501.677
858.60065	3438.4529
859.30347	3500.978
860.00635	3598.8022
860.70923	3647.7029
861.41211	3693.5176
862.11493	3709.9146
862.81781	3725.771
863.52069	3768.6897
864.22357	3766.1038
864.92639	3704.3213
865.62927	3801.1028
866.33215	3885.9878
867.03503	3853.252
867.73785	3853.2112
868.44073	3849.2776
869.14362	3892.801
869.8465	3887.9575
870.54932	3900.425
871.2522	3957.0535
871.95508	3994.6455
872.65796	3941.1692
873.36078	3943.2808
874.06366	4016.1987
874.76654	4085.9063
875.46942	4084.2676
876.17224	4037.8911
876.87512	4038.7725
877.578	3978.8025
878.28088	3971.7124
878.9837	3977.5679
879.68658	4005.7449
880.38947	4076.9919
881.09235	4071.8127
881.79517	4013.8091
882.49805	4007.4395
883.20093	4064.5972
883.90375	4071.3977
884.60663	4111.5581
885.30951	4111.9702
886.01239	4087.2156
886.71521	4086.6338
887.41809	4132.4932
888.12097	4146.1396
888.82385	4150.7729
889.52667	4188.8301
890.22955	4300.5078
890.93243	4297.8149
891.63531	4322.625
892.33813	4343.3535
893.04102	4479.4951
893.7439	4442.2695
894.44678	4483.5259
895.1496	4559.9399
895.85248	4518.3057
896.55536	4565.9736
897.25824	4575.731
897.96106	4654.4414
898.66394	4624.1094
899.36682	4742.853
900.0697	4825.2905
900.77252	4823.4692
901.4754	4962.1016
902.17828	5054.311
902.88116	5101.8057
903.58398	5218.9419
904.28687	5241.6357
904.98975	5254.0044
905.69263	5290.9834
906.39545	5386.5508
907.09833	5478.793
907.80121	5595.4727
908.50409	5790.2104
909.20691	5824.6416
909.90979	5853.3936
910.61267	5920.5845
911.31555	6003.0552
912.01837	6125.7109
912.72125	6258.0908
913.42413	6349.0356
914.12695	6467.8276
914.82983	6497.5889
915.53271	6518.3135
916.2356	6585.6157
916.93842	6742.9722
917.6413	6924.3633
918.34418	7042.7764
919.04706	7008.0635
919.74988	7184.1006
920.45276	7298.8208
921.15564	7370.4229
921.85852	7551.8354
922.56134	7550.856
923.26422	7646.3926
923.9671	7791.0459
924.66998	7876.2563
925.3728	7843.5034
926.07568	7977.436
926.77856	8169.9868
927.48145	8168.8994
928.18427	8269.9326
928.88715	8378.0459
929.59003	8577.0947
930.29291	8643.9521
930.99573	8847.3662
931.69861	8806.6465
932.40149	8924.1563
933.10437	9129.4199
933.80719	9167.1494
934.51007	9237.9014
935.21295	9367.9316
935.91583	9497.1777
936.61865	9480.3311
937.32153	9588.4707
938.02441	9734.1113
938.72729	9781.2725
939.43011	9827.8545
940.133	9969.0273
940.83588	10084.203
941.53876	10183.84
942.24158	10369.958
942.94446	10394.086
943.64734	10362.618
944.35016	10449.78
945.05304	10564.787
945.75592	10644.42
946.4588	10664.453
947.16162	10686.128
947.8645	10762.795
948.56738	10708.833
949.27026	10743.295
949.97308	10910.056
950.67596	10901.27
951.37885	11152.066
952.08173	11090.12
952.78455	10979.701
953.48743	11110.318
954.19031	11140.036
954.89319	11014.262
955.59601	11116.166
956.29889	11139.249
957.00177	11102.096
957.70465	11167.953
958.40747	11156.239
959.11035	11173.048
959.81323	11276.227
960.51611	11320.651
961.21893	11187.708
961.92181	11053.597
962.62469	11161.047
963.32758	11150.708
964.0304	11158.559
964.73328	11339.564
965.43616	11262.215
966.13904	11042.355
966.84186	11047.754
967.54474	10933.846
968.24762	10884.637
968.9505	11070.807
969.65332	10937.068
970.3562	11083.164
971.05908	10941.797
971.76196	10939.235
972.46478	10985.833
973.16766	10853.279
973.87054	10818.64
974.57336	10806.063
975.27625	10764.987
975.97913	10681.983
976.68201	10656.173
977.38483	10623.146
978.08771	10574.271
978.79059	10628.061
979.49347	10653.055
980.19629	10605.25
980.89917	10524.516
981.60205	10550.188
982.30493	10668.022
983.00775	10653.625
983.71063	10518.362
984.41351	10469.38
985.11639	10355.564
985.81921	10454.202
986.52209	10404.144
987.22498	10367.509
987.92786	10472.216
988.63068	10381.971
989.33356	10473.396
990.03644	10328.335
990.73932	10457.728
991.44214	10505.672
992.14502	10432.924
992.8479	10620.085
993.55078	10486.792
994.2536	10434.23
994.95648	10411.545
995.65936	10418.411
996.36224	10508.456
997.06506	10566.914
997.76794	10525.008
998.47083	10559.935
999.17371	10593.669
999.87653	10555.305
1000.5794	10635.609
1001.2823	10619.448
1001.9852	10648.276
1002.688	10791.408
1003.3909	10770.214
1004.0938	10592.664
1004.7966	10690.669
1005.4995	10813.371
1006.2023	10794.647
1006.9052	10985.828
1007.608	10863.074
1008.3109	10906.624
1009.0138	11043.343
1009.7167	11148.474
1010.4195	11056.546
1011.1224	11132.617
1011.8253	11220.34
1012.5281	11221.089
1013.231	11261.05
1013.9338	11317.684
1014.6367	11394.45
1015.3396	11360.157
1016.0424	11431.042
1016.7453	11550.767
1017.4482	11592.994
1018.1511	11543.101
1018.8539	11634.4
1019.5568	11649.327
1020.2596	11725.757
1020.9625	11980.315
1021.6653	12040.611
1022.3682	11975.589
1023.0711	11947.261
1023.774	11986.603
1024.4768	12113.182
1025.1797	12217.866
1025.8826	12185.001
1026.5854	12221.821
1027.2883	12166.162
1027.9912	12278.626
1028.694	12295.61
1029.3969	12418.711
1030.0997	12566.201
1030.8026	12662.501
1031.5055	12694.718
1032.2084	12669.751
1032.9113	12729.648
1033.614	12876.936
1034.3169	12945.967
1035.0198	13034.861
1035.7227	12978.612
1036.4255	12971.899
1037.1284	13097.649
1037.8313	13128.184
1038.5342	13126.294
1039.2369	13389.671
1039.9398	13396.547
1040.6427	13473.617
1041.3456	13490.631
1042.0485	13581.894
1042.7513	13522.216
1043.4542	13738.813
1044.1571	13665.907
1044.8599	13659.479
1045.5627	13735.652
1046.2656	13760.677
1046.9685	13773.203
1047.6714	13747.018
1048.3743	13932.639
1049.0771	14074.373
1049.78	13928.599
1050.4828	14100.403
1051.1857	14061.236
1051.8885	14104.795
1052.5914	14338.168
1053.2943	14395.361
1053.9972	14320.506
1054.7001	14218.698
1055.403	14344.324
1056.1057	14362.985
1056.8086	14431.941
1057.5115	14513.658
1058.2144	14658.189
1058.9172	14665.432
1059.6201	14695.706
1060.323	14595.687
1061.0259	14678.195
1061.7286	14633.517
1062.4315	14663.28
1063.1344	14657.049
1063.8373	14691.021
1064.5402	14642.163
1065.243	14531.451
1065.9459	14590.384
1066.6487	14682.322
1067.3516	14858.183
1068.0544	14699.184
1068.7573	14668.872
1069.4602	14671.945
1070.1631	14570.372
1070.866	14668.94
1071.5688	14605.054
1072.2716	14495.532
1072.9745	14643.528
1073.6774	14558.614
1074.3802	14443.266
1075.0831	14334.005
1075.786	14321.898
1076.4889	14305.736
1077.1918	14317.803
1077.8945	14300.247
1078.5974	14194.124
1079.3003	14040.336
1080.0032	13926.38
1080.7061	13953.248
1081.4089	13939.217
1082.1118	13695.628
1082.8147	13684.452
1083.5175	13507.766
1084.2203	13214.508
1084.9232	13261.352
1085.6261	13163.766
1086.329	13133.76
1087.0319	13056.831
1087.7347	12771.221
1088.4376	12633.414
1089.1404	12560.537
1089.8433	12514.97
1090.5461	12458.927
1091.249	12251.613
1091.9519	12042.763
1092.6548	11860.176
1093.3577	11754.367
1094.0604	11655.023
1094.7633	11489.577
1095.4662	11340.657
1096.1691	11232.288
1096.8719	11092.833
1097.5748	10965.182
1098.2777	10717.812
1098.9806	10615.582
1099.6833	10507.389
1100.3862	10352.18
1101.0891	10248.421
1101.792	10097.429
1102.4949	9891.9648
1103.1978	9693.8828
1103.9006	9604.8018
1104.6035	9408.9326
1105.3063	9294.7441
1106.0092	9049.9912
1106.712	9040.498
1107.4149	8790.0244
1108.1178	8666.0615
1108.8207	8662.457
1109.5236	8435.9756
1110.2264	8333.5166
1110.9292	8179.0713
1111.6321	7983.4058
1112.335	7762.7822
1113.0378	7673.7666
1113.7407	7540.0342
1114.4436	7451.3027
1115.1465	7529.9932
1115.8494	7482.5107
1116.5521	7102.2593
1117.255	6882.2896
1117.9579	6779.2148
1118.6608	6669.7935
1119.3636	6508.7534
1120.0665	6343.8228
1120.7694	6300.0552
1121.4722	6153.7725
1122.175	6076.915
1122.8779	5927.7983
1123.5808	5844.6626
1124.2837	5742.4746
1124.9866	5633.1704
1125.6895	5541.6743
1126.3923	5406.7637
1127.0951	5315.8052
1127.798	5241.6523
1128.5009	5127.2529
1129.2037	5021.2813
1129.9066	4936.1748
1130.6095	4828.0327
1131.3124	4734.9277
1132.0153	4651.9717
1132.718	4605.4438
1133.4209	4504.9487
1134.1238	4401.2949
1134.8267	4342.6055
1135.5295	4239.167
1136.2324	4154.0669
1136.9353	4127.8696
1137.6382	4066.6184
1138.3409	3974.7407
1139.0438	3906.7966
1139.7467	3783.7607
1140.4496	3745.1558
1141.1525	3691.0627
1141.8553	3636.3101
1142.5582	3611.5964
1143.2611	3549.6475
1143.9639	3433.155
1144.6667	3400.3416
1145.3696	3351.2881
1146.0725	3292.4438
1146.7754	3246.7036
1147.4783	3194.1294
1148.1812	3100.8005
1148.884	3051.5178
1149.5868	3065.8906
1150.2897	2971.8577
1150.9926	2963.7517
1151.6954	2949.6597
1152.3983	2856.7881
1153.1012	2838.3831
1153.8041	2745.9546
1154.5068	2733.7305
1155.2097	2707.7295
1155.9126	2642.4897
1156.6155	2620.2031
1157.3184	2568.0957
1158.0212	2532.1592
1158.7241	2505.7166
1159.427	2473.5803
1160.1298	2444.6106
1160.8326	2397.5378
1161.5355	2384.5254
1162.2384	2298.8271
1162.9413	2269.137
1163.6442	2248.6443
1164.347	2222.7258
1165.0499	2172.5818
1165.7527	2237.3914
1166.4556	2152.6482
1167.1584	2089.4197
1167.8613	2057.6387
1168.5642	2050.1309
1169.2671	2031.0895
1169.97	2034.8922
1170.6729	2014.0083
1171.3756	2004.5294
1172.0785	1974.8938
1172.7814	1917.5538
1173.4843	1892.7096
1174.1871	1875.2773
1174.89	1882.6283
1175.5929	1844.6703
1176.2958	1802.7687
1176.9985	1769.3177
1177.7014	1695.2415
1178.4043	1748.9984
1179.1072	1741.0573
1179.8101	1701.184
1180.5129	1687.7297
1181.2158	1662.4351
1181.9186	1622.8304
1182.6215	1613.6262
1183.3243	1624.2145
1184.0272	1598.3578
1184.7301	1589.5757
1185.433	1552.8295
1186.1359	1531.4918
1186.8387	1524.0542
1187.5415	1524.8488
1188.2444	1499.093
1188.9473	1458.0684
1189.6501	1429.7689
1190.353	1441.063
1191.0559	1404.3147
1191.7588	1360.9471
1192.4617	1384.8507
1193.1644	1388.0616
1193.8673	1409.8483
1194.5702	1381.3411
1195.2731	1357.0319
1195.976	1315.8302
1196.6788	1301.6838
1197.3817	1321.8545
1198.0846	1292.9376
1198.7874	1296.0992
1199.4902	1277.1564
1200.1931	1251.2515
1200.896	1242.782
1201.5989	1229.7361
1202.3018	1211.5814
1203.0046	1213.1476
1203.7075	1248.9573
1204.4103	1223.8147
1205.1132	1174.8566
1205.816	1154.9481
1206.5189	1168.6407
1207.2218	1170.5547
1207.9247	1146.9379
1208.6276	1121.9294
1209.3304	1103.4343
1210.0332	1103.9211
1210.7361	1109.5255
1211.439	1081.3944
1212.1418	1044.4594
1212.8447	1055.2625
1213.5476	1064.5771
1214.2505	1041.3157
1214.9532	1008.6519
1215.6561	1002.3557
1216.359	989.40369
1217.0619	985.11475
1217.7648	1004.9476
1218.4677	1021.8168
1219.1705	1017.7481
1219.8734	1004.8998
1220.5762	981.93726
1221.2791	981.33502
1221.9819	973.46283
1222.6848	949.75391
1223.3877	965.18243
1224.0906	952.74469
1224.7935	948.74286
1225.4963	934.91504
1226.1991	929.77039
1226.902	940.71515
1227.6049	927.79059
1228.3077	886.18872
1229.0106	877.63995
1229.7135	887.89832
1230.4164	910.92487
1231.1193	910.90143
1231.822	902.57294
1232.5249	892.00275
1233.2278	859.75244
1233.9307	883.47278
1234.6335	893.5788
1235.3364	850.01996
1236.0393	848.95288
1236.7422	831.70172
1237.4449	838.25433
1238.1478	868.30518
1238.8507	831.46399
1239.5536	818.71863
1240.2565	851.93103
1240.9594	838.48071
1241.6622	828.15857
1242.365	829.82587
1243.0679	825.5639
1243.7708	812.3584
1244.4736	823.72699
1245.1765	798.04657
1245.8794	780.68274
1246.5823	796.94019
1247.2852	798.68915
1247.9879	803.32239
1248.6908	791.78552
1249.3937	824.92896
1250.0966	813.79883
1250.7994	786.13605
1251.5023	788.56769
1252.2052	809.66406
1252.9081	770.80597
1253.6108	778.1687
1254.3137	785.33435
1255.0166	805.052
1255.7195	790.60895
1256.4224	798.91034
1257.1252	796.69159
1257.8281	791.2442
1258.531	768.63068
1259.2338	796.47375
1259.9366	747.54694
1260.6395	784.51636
1261.3424	794.30377
1262.0453	790.42645
1262.7482	763.34375
1263.451	736.50519
1264.1539	762.9325
1264.8567	756.17993
1265.5596	754.90271
1266.2625	767.57611
1266.9653	750.3512
1267.6682	782.68518
1268.3711	791.65186
1269.074	744.78357
1269.7769	784.96417
1270.4796	745.9256
1271.1825	724.06665
1271.8854	753.74866
1272.5883	771.44629
1273.2911	761.03809
1273.994	755.35217
1274.6969	768.80267
1275.3997	746.02191
1276.1025	732.97974
1276.8054	757.59253
1277.5083	745.38727
1278.2112	759.26953
1278.9141	742.36798
1279.6169	737.70721
1280.3198	710.81201
1281.0226	760.58057
1281.7255	724.19653
1282.4283	750.98553
1283.1312	738.50146
1283.8341	733.85846
1284.537	726.13422
1285.2399	737.61694
1285.9427	741.58722
1286.6455	742.83105
1287.3484	757.18994
1288.0513	754.63696
1288.7542	719.18872
1289.457	704.67188
1290.1599	764.27466
1290.8628	755.34583
1291.5657	739.9917
1292.2684	747.8891
1292.9713	753.97583
1293.6742	742.82043
1294.3771	746.67731
1295.08	759.74536
1295.7828	755.53381
1296.4857	741.51538
1297.1886	735.95087
1297.8914	764.09949
1298.5942	723.05652
1299.2971	705.927
1300	730.01025
