20.082397	634.5
20.781445	973.29254
21.48049	1354.0485
22.179537	1784.2323
22.878584	2180.7507
23.577629	2566.0884
24.276676	2765.7778
24.975721	2838.7527
25.674768	2966.0161
26.373816	3024.5352
27.072861	3086.9219
27.771908	3230.084
28.470955	3262.678
29.17	3288.5161
29.869047	3295.4377
30.568094	3340.7607
31.267139	3465.9009
31.966187	3537.4087
32.665234	3639.0415
33.364281	3946.3787
34.063324	4575.0518
34.762371	3588.7258
35.461418	3226.8354
36.160465	3363.3611
36.859512	4534.7026
37.558559	5213.2349
38.257603	5213.2349
38.95665	5213.2349
39.655697	5213.2349
40.354744	4534.7026
41.053791	5047.4272
41.752834	4555.6792
42.451881	4615.9595
43.150928	4640.7788
43.849976	4713.8247
44.549023	4881.29
45.24807	4846.5254
45.947113	4839.105
46.64616	4837.748
47.345207	4918.1587
48.044254	5052.9463
48.743301	5162.8706
49.442345	5283.4658
50.141392	5473.2896
50.840439	5598.0908
51.539486	5778.7808
52.238533	5329.6353
52.93758	5296.0649
53.636623	5272.2524
54.33567	5325.5771
55.034718	5330.8887
55.733765	5350.4731
56.432812	5413.3188
57.131855	5495.9111
57.830902	5582.7256
58.529949	5629.6597
59.228996	5682.5518
59.928043	5929.9077
60.62709	5796.1504
61.326134	5885.3433
62.025181	5733.8809
62.724228	5739.0571
63.423275	5736.1133
64.122322	5745.2612
64.821365	5757.2686
65.520416	5748.3691
66.21946	5782.6572
66.918503	5816.7598
67.617554	5895.5815
68.316597	5916.4844
69.015648	5908.1934
69.714691	5889.4673
70.413742	5924.6563
71.112785	5931.5117
71.811829	5995.1221
72.51088	6050.6812
73.209923	6018.8853
73.908974	5911.1836
74.608017	5887.1758
75.30706	6115.5796
76.006111	6097.5854
76.705154	6185.3003
77.404205	6114.4941
78.103249	5881.8535
78.802292	5962.5679
79.501343	5990.7246
80.200386	6084.3706
80.899437	6114.8091
81.59848	6066.9731
82.297531	6047.6484
82.996574	6080.4009
83.695618	6202.2651
84.394669	6172.8628
85.093712	6153.2896
85.792763	6117.2036
86.491806	6113.0098
87.190849	6003.3164
87.8899	6077.8506
88.588943	6092.6816
89.287994	6090.5332
89.987038	6097.792
90.686081	6115.8789
91.385132	6163.1714
92.084175	6135.022
92.783226	6103.0381
93.482269	6076.5117
94.181313	6212.502
94.880363	6144.2607
95.579407	6091.9492
96.278458	6096.7422
96.977501	6050.0747
97.676552	6032.21
98.375595	6082.3911
99.074638	6129.4404
99.773689	6102.8413
100.47273	6029.043
101.17178	6017.0908
101.87083	6075.9023
102.56987	6076.3218
103.26892	6244.1929
103.96796	6264.5439
104.66702	6192.3945
105.36606	6180.8359
106.0651	6104.8149
106.76415	6087.0894
107.4632	6116.9966
108.16225	6112.8359
108.86129	6116.2554
109.56034	6098.9844
110.25938	6043.2876
110.95843	6075.0103
111.65748	5967.7588
112.35652	6119.3672
113.05557	6108.8765
113.75462	6070.0918
114.45366	6057.7241
115.15271	6019.0381
115.85175	6034.5303
116.5508	6062.4146
117.24985	6029.2563
117.94889	6016.6455
118.64794	6010.894
119.34698	5912.9609
120.04604	5948.2319
120.74508	5836.0371
121.44412	5957.603
122.14317	6008.9946
122.84222	5994.3267
123.54127	5996.0967
124.24031	5996.1069
124.93936	5980.9922
125.6384	5967.5874
126.33745	5945.3076
127.0365	5891.5703
127.73554	5871.8022
128.43459	5989.4355
129.13364	5945.5537
129.83269	5931.4214
130.53172	5954.7754
131.23077	5928.4854
131.92982	5948.5796
132.62888	5884.2559
133.32791	5816.7676
134.02696	5811.7007
134.72601	5843.6113
135.42505	5888.499
136.1241	5911.2354
136.82315	5854.8501
137.52219	5834.2114
138.22124	5836.8911
138.92029	5738.5986
139.61934	5819.4321
140.31837	5809.5098
141.01743	5798.3262
141.71648	5760.7031
142.41551	5766.9331
143.11456	5766.2793
143.81361	5742.4961
144.51266	5737.6587
145.2117	5740.0508
145.91075	5727.6782
146.6098	5735.313
147.30884	5698.6665
148.00789	5628.7466
148.70694	5691.2168
149.40598	5647.9644
150.10503	5677.8975
150.80408	5647.0518
151.50313	5667.4785
152.20216	5673.5679
152.90121	5629.7651
153.60027	5623.562
154.2993	5676.063
154.99835	5692.5313
155.6974	5647.9731
156.39645	5589.8579
157.09549	5605.605
157.79454	5570.5894
158.49359	5576.3931
159.19263	5590.7515
159.89168	5586.249
160.59073	5507.8306
161.28976	5484.1211
161.98882	5532.2002
162.68787	5565.6563
163.38692	5585.9917
164.08595	5613.1226
164.785	5577.1094
165.48405	5513.7827
166.18309	5511.9556
166.88214	5522.2212
167.58119	5447.5288
168.28023	5476.5479
168.97928	5522.6606
169.67833	5549.7202
170.37738	5486.7725
171.07642	5464.502
171.77547	5429.7119
172.47452	5453.7676
173.17355	5474.7397
173.8726	5414.8804
174.57166	5449.9658
175.27071	5437.3882
175.96974	5389.1489
176.66879	5388.9346
177.36784	5417.2476
178.06688	5371.9346
178.76593	5362.0776
179.46498	5405.4141
180.16402	5424.6978
180.86307	5405.8311
181.56212	5375.2979
182.26117	5418.0537
182.96021	5447.7759
183.65926	5390.6484
184.35831	5351.7422
185.05734	5309.4067
185.75639	5354.3916
186.45544	5368.939
187.1545	5366.1016
187.85353	5303.6675
188.55258	5327.979
189.25163	5247.7041
189.95067	5262.0781
190.64972	5319.5356
191.34877	5345.6006
192.04781	5299.6885
192.74686	5261.6904
193.44591	5318.5044
194.14496	5367.3022
194.84399	5285.71
195.54305	5244.4019
196.2421	5294.353
196.94113	5333.7896
197.64018	5309.4795
198.33923	5317.8076
199.03828	5290.0728
199.73732	5228.0513
200.43637	5229.1553
201.13542	5336.9199
201.83446	5337.0088
202.53351	5271.1382
203.23256	5254.0483
203.93159	5268.8462
204.63065	5287.772
205.3297	5272.5752
206.02875	5228.6445
206.72778	5306.7222
207.42683	5238.814
208.12589	5224.5195
208.82492	5198.1348
209.52397	5211.2422
210.22302	5221.5928
210.92207	5193.5967
211.62111	5169.3931
212.32016	5170.8071
213.01921	5240.4634
213.71825	5293.8936
214.4173	5256.2178
215.11635	5187.793
215.81538	5141.9971
216.51443	5190.8364
217.21349	5160.1841
217.91254	5131.79
218.61157	5228.5254
219.31062	5216.7881
220.00967	5203.0903
220.70871	5236.8022
221.40776	5199.4932
222.10681	5254.3276
222.80585	5206.2368
223.5049	5182.1128
224.20395	5211.521
224.903	5207.6553
225.60204	5237.9717
226.30109	5261.8574
227.00014	5163.8223
227.69917	5125.519
228.39822	5164.52
229.09727	5173.1167
229.79633	5141.2388
230.49536	5170.9746
231.19441	5142.103
231.89346	5213.9321
232.5925	5086.7158
233.29155	5118.1348
233.9906	5214.7471
234.68964	5234.8882
235.38869	5206.0981
236.08774	5140.6831
236.78679	5073.7026
237.48582	5106.5313
238.18488	5191.6597
238.88393	5152.519
239.58296	5227.7974
240.28201	5188.77
240.98106	5144.9072
241.68011	5124.0688
242.37915	5156.2964
243.0782	5110.8955
243.77725	5193.2852
244.47629	5124.2588
245.17534	5064.0308
245.87439	5070.7324
246.57343	5108.5156
247.27248	5163.4463
247.97153	5195.8779
248.67058	5220.2236
249.36961	5190.7197
250.06866	5141.96
250.76772	5208.2549
251.46675	5218.0049
252.1658	5117.7998
252.86485	5096.4683
253.5639	5122.5869
254.26294	5120.5796
254.96199	5170.5356
255.66104	5090.8057
256.36008	5113.3584
257.05914	5119.1021
257.75818	5056.1826
258.45721	5091.6582
259.15628	5170.0469
259.85532	5141.334
260.55435	5117.8462
261.25342	5148.5249
261.95245	5177.5386
262.65149	5201.4395
263.35056	5182.5713
264.04959	5127.0469
264.74863	5184.4478
265.44769	5202.5098
266.14673	5239.6938
266.84576	5216.041
267.54483	5220.3716
268.24387	5197.2515
268.94293	5161.4966
269.64197	5108.9258
270.341	5090.1943
271.04007	5145.7026
271.73911	5179.001
272.43814	5183.4087
273.13721	5152.3193
273.83624	5158.7793
274.53528	5172.9619
275.23434	5169.6689
275.93338	5275.5957
276.63242	5073.3525
277.33148	5179.5708
278.03052	5148.3262
278.72955	5160.0703
279.42862	5114.5737
280.12766	5121.4888
280.82672	5185.7749
281.52576	5214.3125
282.22479	5201.3188
282.92386	5166.6387
283.62289	5141.6504
284.32193	5181.9028
285.021	5192.5161
285.72003	5168.0977
286.41907	5208.3442
287.11813	5268.499
287.81717	5168.3076
288.5162	5128.7007
289.21527	5207.0562
289.91431	5213.1797
290.61334	5168.1392
291.31241	5204.8315
292.01144	5230.5449
292.71051	5208.4258
293.40955	5190.7642
294.10858	5225.8857
294.80765	5291.5679
295.50668	5240.7583
296.20572	5147.6465
296.90479	5276.1089
297.60382	5290.4629
298.30286	5239.9404
299.00192	5312.7251
299.70096	5281.7944
300.39999	5302.7876
301.09906	5256.7183
301.7981	5288.439
302.49713	5260.3184
303.1962	5319.2681
303.89523	5271.688
304.5943	5288.3613
305.29333	5333.1943
305.99237	5320.4521
306.69144	5318.2988
307.39047	5361.4648
308.08951	5345.4854
308.78857	5310.063
309.48761	5371.998
310.18665	5364.0186
310.88571	5349.4712
311.58475	5338.3188
312.28378	5315.5122
312.98285	5392.2329
313.68188	5408.2798
314.38092	5363.6274
315.07999	5330.5962
315.77902	5376.0117
316.47806	5357.9531
317.17712	5332.0669
317.87616	5320.9189
318.57523	5420.7183
319.27426	5434.8496
319.9733	5429.166
320.67236	5448.7808
321.3714	5404.0161
322.07043	5406.9561
322.7695	5459.397
323.46854	5425.0137
324.16757	5478.0405
324.86664	5447.7651
325.56567	5497.668
326.26471	5451.0049
326.96378	5630.7349
327.66281	5530.4395
328.36185	5594.6514
329.06091	5578.8804
329.75995	5480.5898
330.45901	5504.4976
331.15805	5516.3193
331.85709	5543.5972
332.55615	5561.0786
333.25519	5523.6748
333.95422	5511.9985
334.65329	5574.1851
335.35233	5573.6084
336.05136	5525.2744
336.75043	5574.2539
337.44946	5529.6523
338.1485	5553.8516
338.84756	5571.5391
339.5466	5602.4009
340.24564	5694.6895
340.9447	5706.98
341.64374	5551.5947
342.3428	5629.1914
343.04184	5626.1987
343.74088	5608.9297
344.43994	5627.8286
345.13898	5716.5474
345.83801	5694.6401
346.53708	5679.4316
347.23611	5648.1558
347.93515	5641.1616
348.63422	5612.6177
349.33325	5596.9253
350.03229	5661.0405
350.73135	5641.603
351.43039	5634.6919
352.12943	5638.4165
352.82849	5590.4683
353.52753	5546.9321
354.22659	5583.8574
354.92563	5594.4624
355.62466	5722.9971
356.32373	5680.04
357.02277	5618.4614
357.7218	5693.1597
358.42087	5653.563
359.1199	5700.6401
359.81894	5716.7798
360.51801	5706.1104
361.21704	5683.0938
361.91608	5734.3647
362.61514	5720.1582
363.31418	5704.1914
364.01321	5861.0522
364.71228	5671.7905
365.41132	5671.7905
366.11038	5695.7065
366.80942	5606.6221
367.50845	5629.0815
368.20752	5621.165
368.90656	5584.5845
369.60559	5817.6904
370.30466	5632
371.00369	5685.7031
371.70273	5516.9087
372.40179	5627.2642
373.10083	5686.7822
373.79987	5555.3711
374.49893	5664.2729
375.19797	5656.5298
375.897	5585.6255
376.59607	5575.8296
377.2951	5638.6709
377.99417	5617.8774
378.69321	5621.8574
379.39224	5678.5845
380.09131	5647.4692
380.79034	5627.3433
381.48938	5635.7109
382.18845	5610.2383
382.88748	5644.0498
383.58652	5694.0229
384.28558	5532.9873
384.98462	5678.8994
385.68365	5704.6802
386.38272	5672.9678
387.08176	5544.1514
387.78079	5611.3164
388.47986	5563.1538
389.17889	5591.9009
389.87796	5661.999
390.577	5645.7651
391.27603	5553.7236
391.9751	5538.501
392.67413	5601.0317
393.37317	5628.7734
394.07224	5592.0547
394.77127	5580.2969
395.47031	5549.2788
396.16937	5478.5835
396.86841	5471.5186
397.56744	5478.8438
398.26651	5477.1206
398.96555	5517.8145
399.66458	5503.522
400.36365	5487.0723
401.06268	5498.7202
401.76175	5471.0688
402.46078	5521.2783
403.15982	5558.6743
403.85889	5551.4473
404.55792	5509.1074
405.25696	5495.6084
405.95602	5448.3721
406.65506	5477.2803
407.3541	5545.5132
408.05316	5471.4941
408.7522	5394.4351
409.45123	5439.1631
410.1503	5479.9224
410.84933	5449.1821
411.54837	5400.9668
412.24744	5411.4229
412.94647	5473.6904
413.64554	5517.7852
414.34457	5489.4839
415.04361	5429.4395
415.74268	5413.2422
416.44171	5354.4136
417.14075	5436.4849
417.83981	5408.9233
418.53885	5420.0566
419.23788	5451.3579
419.93695	5510.8911
420.63599	5471.1851
421.33502	5391.019
422.03409	5380.6099
422.73312	5297.7651
423.43216	5388.7427
424.13123	5449.6743
424.83026	5333.4209
425.5293	5302.8535
426.22836	5321.9219
426.9274	5331.6416
427.62646	5366.9424
428.3255	5274.9893
429.02454	5274.8057
429.7236	5333.1118
430.42264	5307.8599
431.12167	5340.1094
431.82074	5341.2446
432.51978	5285.8232
433.21881	5337.4751
433.91788	5312.9468
434.61691	5343.2422
435.31595	5321.7178
436.01501	5366.7134
436.71405	5344.2358
437.41309	5325.354
438.11215	5324.7583
438.81119	5421.0386
439.51025	5419.4595
440.20929	5349.5093
440.90833	5351.4097
441.60739	5326.3633
442.30643	5372.167
443.00546	5359.9429
443.70453	5313.999
444.40356	5363.7754
445.1026	5336.0938
445.80167	5347.0742
446.5007	5348.8545
447.19974	5328.9805
447.8988	5300.3872
448.59784	5314.4556
449.29688	5328.1152
449.99594	5319.3311
450.69498	5308.1982
451.39404	5292.4238
452.09308	5295.9668
452.79211	5314.8975
453.49118	5326.9087
454.19022	5331.3091
454.88925	5290.7964
455.58832	5230.564
456.28735	5327.043
456.98639	5219.9951
457.68546	5277.2461
458.38449	5287.5356
459.08353	5328.2275
459.78259	5346.8999
460.48163	5371.0244
461.18066	5361.9746
461.87973	5273.2983
462.57877	5336.5142
463.27783	5239.583
463.97687	5299.6719
464.6759	5249.6602
465.37497	5285.3721
466.07401	5298.812
466.77304	5293.6978
467.47211	5390.2739
468.17114	5450.876
468.87018	5366.6382
469.56924	5330.9854
470.26828	5324.999
470.96732	5342.0488
471.66638	5372.6909
472.36542	5384.9331
473.06445	5400.0547
473.76352	5415.5557
474.46255	5436.1963
475.16162	5379.7959
475.86066	5354.5674
476.55969	5327.2671
477.25876	5353.4683
477.95779	5358.4272
478.65683	5352.7236
479.3559	5318.5166
480.05493	5315.0884
480.75397	5385.1938
481.45303	5392.9482
482.15207	5371.812
482.8511	5300.4712
483.55017	5262.6172
484.24921	5401.5352
484.94824	5435.9082
485.64731	5423.3105
486.34634	5423.6719
487.04541	5412.1733
487.74445	5411.2622
488.44348	5436.5659
489.14255	5394.0747
489.84158	5383.1201
490.54062	5417.5771
491.23969	5440.4678
491.93872	5417.5889
492.63776	5408.3647
493.33682	5429.061
494.03586	5398.7749
494.73489	5414.6929
495.43396	5431.249
496.133	5448.46
496.83203	5496.3579
497.5311	5474.1733
498.23013	5476.1396
498.9292	5408.6431
499.62823	5417.9927
500.32727	5476.4194
501.02634	5437.8501
501.72537	5442.3022
502.42441	5417.7314
503.12347	5502.0542
503.82251	5526.7334
504.52155	5589.5664
505.22061	5534.4448
505.91965	5441.2515
506.61868	5484.9248
507.31775	5519.4409
508.01678	5556.1357
508.71582	5407.2227
509.41489	5515.7949
510.11392	5577.459
510.81299	5520.2227
511.51202	5501.5059
512.21106	5491.0596
512.9101	5562.8794
513.60913	5470.519
514.30823	5469.8643
515.00726	5569.8945
515.7063	5444.8906
516.40533	5487.1069
517.10437	5600.0586
517.80347	5562.5552
518.5025	5527.3965
519.20154	5547.6968
519.90057	5510.7261
520.59961	5545.1367
521.29865	5588.1812
521.99774	5552.5776
522.69678	5586.2729
523.39581	5601.187
524.09485	5565.2686
524.79388	5575.2305
525.49292	5562.207
526.19202	5555.5894
526.89105	5530.4458
527.59009	5626.2842
528.28912	5592.917
528.98816	5565.3203
529.68726	5517.4971
530.38629	5638.9238
531.08533	5650.5688
531.78436	5537.9863
532.4834	5599.6855
533.18243	5653.3384
533.88153	5599.1963
534.58057	5614.2007
535.2796	5463.4478
535.97864	5676.5449
536.67767	5628.3765
537.37671	5686.7427
538.07581	5592.2407
538.77484	5642.5122
539.47388	5667.0913
540.17291	5560.8169
540.87195	5729.9897
541.57104	5713.041
542.27008	5669.0869
542.96912	5673.2935
543.66815	5632.9448
544.36719	5655.7319
545.06622	5724.2603
545.76532	5745.3403
546.46436	5737.4233
547.16339	5771.1841
547.86243	5793.1016
548.56146	5758.0508
549.2605	5766.7163
549.95959	5847.459
550.65863	5883.2129
551.35767	5866.8477
552.0567	5788.6787
552.75574	5793.1021
553.45483	5867.4907
554.15387	5883.5752
554.85291	5906.874
555.55194	5929.3672
556.25098	5929.5356
556.95001	5919.3887
557.64911	5913.3921
558.34814	5932.2676
559.04718	5986.3975
559.74622	5990.6748
560.44525	5978.6841
561.14429	6054.5771
561.84338	6009.2231
562.54242	5982.1021
563.24146	6090.832
563.94049	6158.2769
564.63953	6156.3848
565.33862	6148.9434
566.03766	6183.1865
566.73669	6180.8955
567.43573	6169.814
568.13477	6183.499
568.8338	6199.0439
569.5329	6200.0703
570.23193	6308.6309
570.93097	6255.4731
571.63	6359.6221
572.32904	6332.6816
573.02808	6223.2437
573.72717	6247.3613
574.42621	6352.0356
575.12524	6312.9551
575.82428	6272.4624
576.52332	6286.8237
577.22241	6295.0054
577.92145	6349.1797
578.62048	6356.9268
579.31952	6341.8936
580.01855	6305.688
580.71759	6248.7944
581.41669	6277.8525
582.11572	6286.7339
582.81476	6288.7861
583.51379	6269.8267
584.21283	6197.895
584.91187	6247.9907
585.61096	6262.1289
586.31	6201.8872
587.00903	6169.1328
587.70807	6198.8081
588.4071	6271.5962
589.1062	6204.7817
589.80524	6073.7246
590.50427	6069.2988
591.20331	6079.583
591.90234	6065.4487
592.60138	6122.23
593.30048	6104.2935
593.99951	6103.7944
594.69855	6094.1357
595.39758	6043.6187
596.09662	6052.873
596.79565	6048.4775
597.49475	6074.0659
598.19379	6068.9351
598.89282	6042.8105
599.59186	5992.1699
600.29089	6034.6416
600.98993	5996.8965
601.68903	5981.9502
602.38806	6031.9365
603.0871	6033.6729
603.78613	6011.9595
604.48517	5974.3975
605.18427	5983.4038
605.8833	5979.1147
606.58234	6027.6304
607.28137	6059.8335
607.98041	6060.79
608.67944	6011.6045
609.37854	6031.1108
610.07758	6010.0527
610.77661	6015.5859
611.47565	6068.6187
612.17468	6110.3862
612.87372	6021.3149
613.57281	6012.2817
614.27185	6019.3823
614.97089	6052.5098
615.66992	6065.9956
616.36896	6069.7627
617.06805	6105.0801
617.76709	6103.7593
618.46613	6099.7148
619.16516	6110.4409
619.8642	6059.3569
620.56323	6107.1782
621.26233	6177.8633
621.96136	6279.7119
622.6604	6215.0923
623.35944	6143.3018
624.05847	6151.6348
624.75751	6207.752
625.4566	6243.1143
626.15564	6206.4141
626.85468	6240.6519
627.55371	6206.6787
628.25275	6187.686
628.95184	6248.8457
629.65088	6249.2905
630.34991	6188.5024
631.04895	6241.8438
631.74799	6280.2949
632.44702	6199.8066
633.14612	6182.6045
633.84515	6173.8369
634.54419	6188.2817
635.24323	6262.6577
635.94226	6268.9102
636.6413	6262.8872
637.34039	6223.3989
638.03943	6238.498
638.73846	6221.5981
639.4375	6208.5596
640.13654	6231.5244
640.83563	6214.9844
641.53467	6223.8296
642.2337	6145.5396
642.93274	6163.3823
643.63177	6191.2832
644.33081	6182.811
645.02991	6196.3647
645.72894	6233.5161
646.42798	6240.1875
647.12701	6228.626
647.82605	6183.6772
648.52509	6121.3145
649.22418	6098.6143
649.92322	6122.3867
650.62225	6060.3833
651.32129	6068.3438
652.02032	6009.4038
652.71942	6030.3867
653.41846	6047.8516
654.11749	6058.5552
654.81653	6025.9326
655.51556	5974.6885
656.2146	5930.999
656.9137	5897.5342
657.61273	5876.8984
658.31177	5913.854
659.0108	5823.6836
659.70984	5789.0698
660.40887	5790.2178
661.10797	5770.7603
661.80701	5732.9775
662.50604	5735.3779
663.20508	5776.9771
663.90411	5761.0239
664.60321	5717.4199
665.30225	5655.1958
666.00128	5589.9561
666.70032	5602.0522
667.39935	5565.1128
668.09839	5532.0059
668.79749	5519.6982
669.49652	5493.7104
670.19556	5411.2651
670.89459	5385.1343
671.59363	5371.2432
672.29266	5363.4287
672.99176	5314.3228
673.6908	5271.1313
674.38983	5234.4771
675.08887	5217.9385
675.7879	5225.6582
676.487	5202.959
677.18604	5178.6035
677.88507	5163.0356
678.58411	5108.7036
679.28314	5060.981
679.98218	4980.5493
680.68127	4970.355
681.38031	4970.8149
682.07935	4936.1309
682.77838	4916.3521
683.47742	4863.4004
684.17645	4818.6318
684.87555	4806.5659
685.57458	4803.4639
686.27362	4790.5923
686.97266	4751.5078
687.67169	4720.5479
688.37079	4673.2144
689.06982	4634.1553
689.76886	4702.9331
690.4679	4725.4092
691.16693	4545.1787
691.86597	4538.5854
692.56506	4499.9634
693.2641	4427.3164
693.96313	4387.1953
694.66217	4399.8696
695.36121	4398.7114
696.06024	4338.8013
696.75934	4318.3926
697.45837	4261.2148
698.15741	4234.0781
698.85645	4216.1953
699.55548	4186.9326
700.25458	4147.5083
700.95361	4093.9175
701.65265	4095.866
702.35168	4110.314
703.05072	4068.4109
703.74976	4026.8743
704.44885	3969.2112
705.14789	3959.3848
705.84692	3983.4966
706.54596	3906.1294
707.245	3863.6785
707.94403	3863.585
708.64313	3826.8701
709.34216	3853.5557
710.0412	3722.646
710.74023	3771.8669
711.43927	3736.7441
712.13837	3705.4512
712.8374	3632.6487
713.53644	3607.6975
714.23547	3548.8689
714.93451	3576.0818
715.63354	3593.7922
716.33264	3508.0535
717.03168	3495.5461
717.73071	3465.3755
718.42975	3477.521
719.12878	3416.6814
719.82782	3432.3801
720.52692	3417.8398
721.22595	3333.1023
721.92499	3293.6125
722.62402	3316.2681
723.32306	3300.6611
724.02216	3265.8247
724.72119	3247.054
725.42023	3206.4028
726.11926	3128.1714
726.8183	3105.6926
727.51733	3135.5305
728.21643	3132.3354
728.91547	3130.3828
729.6145	3121.0693
730.31354	3057.585
731.01257	3036.9373
731.71161	3033.6587
732.41071	2993.7048
733.10974	2979.5935
733.80878	3012.9512
734.50781	2965.4971
735.20685	2905.9412
735.90594	2899.8191
736.60498	2901.3372
737.30402	2841.7097
738.00305	2855.4224
738.70209	2812.2681
739.40112	2808.2971
740.10022	2787.7278
740.79926	2735.8811
741.49829	2721.6865
742.19733	2718.1335
742.89636	2720.4202
743.5954	2726.7981
744.29449	2688.0896
744.99353	2666.2273
745.69257	2643.991
746.3916	2644.6509
747.09064	2589.2009
747.78973	2564.7942
748.48877	2565.2727
749.18781	2559.6294
749.88684	2538.241
750.58588	2519.5845
751.28491	2475.2944
751.98401	2458.697
752.68304	2440.8303
753.38208	2439.5486
754.08112	2425.8052
754.78015	2391.3462
755.47919	2392.9514
756.17828	2378.3472
756.87732	2384.5662
757.57635	2346.1631
758.27539	2317.1746
758.97443	2272.5005
759.67352	2242.5974
760.37256	2223.3569
761.07159	2248.5762
761.77063	2248.9871
762.46967	2250.6511
763.1687	2228.2727
763.8678	2184.5476
764.56683	2153.4993
765.26587	2137.0234
765.9649	2101.6045
766.66394	2101.7239
767.36298	2109.0327
768.06207	2095.6563
768.76111	2066.584
769.46014	2016.2627
770.15918	2010.4458
770.85822	2019.9197
771.55731	2030.1173
772.25635	2025.4896
772.95538	1991.4207
773.65442	1956.6908
774.35345	1931.2139
775.05249	1903.4641
775.75159	1894.0673
776.45062	1921.3895
777.14966	1917.7023
777.84869	1856.7769
778.54773	1805.0134
779.24677	1777.6459
779.94586	1799.8357
780.6449	1792.8555
781.34393	1741.1331
782.04297	1729.6161
782.742	1733.8208
783.4411	1664.5381
784.14014	1687.4612
784.83917	1679.4818
785.53821	1670.9015
786.23724	1650.2017
786.93628	1640.0262
787.63538	1636.9613
788.33441	1615.5449
789.03345	1574.9512
789.73248	1543.603
790.43152	1544.4962
791.13055	1537.615
791.82965	1476.2338
792.52869	1470.3983
793.22772	1483.4827
793.92676	1483.7131
794.62579	1462.0002
795.32489	1438.5443
796.02393	1391.6858
796.72296	1353.613
797.422	1361.6396
798.12103	1372.9196
798.82007	1370.8625
799.51917	1340.9658
800.2182	1308.739
800.91724	1268.4111
801.61627	1276.6703
802.31531	1306.7432
803.01434	1265.8243
803.71344	1253.019
804.41248	1277.4338
805.11151	1256.4783
805.81055	1190.884
806.50958	1216.9526
807.20868	1219.2002
807.90771	1197.8085
808.60675	1226.1014
809.30579	1211.6368
810.00482	1212.1713
810.70386	1202.49
811.40295	1208.7777
812.10199	1234.4542
812.80103	1222.0411
813.50006	1243.2339
814.1991	1231.941
814.89813	1229.2565
815.59723	1214.9889
816.29626	1195.8295
816.9953	1248.0908
817.69434	1265.8264
818.39337	1226.1035
819.09247	1233.283
819.7915	1234.908
820.49054	1285.0557
821.18958	1272.6704
821.88861	1295.4332
822.58765	1323.7314
823.28674	1334.1143
823.98578	1346.2692
824.68481	1334.1476
825.38385	1430.2931
826.08289	1411.9268
826.78192	1478.6547
827.48102	1514.4597
828.18005	1527.5039
828.87909	1555.0115
829.57813	1579.7124
830.27716	1617.1024
830.9762	1645.3322
831.67529	1673.408
832.37433	1678.2422
833.07336	1741.0875
833.7724	1778.1278
834.47144	1825.0881
835.17053	1818.157
835.86957	1862.6021
836.5686	1974.4036
837.26764	1986.3962
837.96667	2068.3962
838.66571	2028.3281
839.36481	2084.0676
840.06384	2116.3125
840.76288	2205.5984
841.46191	2250.5479
842.16095	2267.2842
842.85999	2321.5442
843.55908	2365.2676
844.25812	2423.0989
844.95715	2509.4519
845.65619	2526.3081
846.35522	2570.0884
847.05432	2617.3613
847.75336	2653.2639
848.45239	2735.5579
849.15143	2808.1333
849.85046	2831.0881
850.5495	2890.5403
851.2486	2953.1455
851.94763	3042.0813
852.64667	3111.7534
853.3457	3111.7598
854.04474	3208.9651
854.74377	3286.6904
855.44287	3325.4438
856.14191	3326.6338
856.84094	3366.2019
857.53998	3459.4653
858.23901	3502.2976
858.93811	3594.2151
859.63715	3623.3635
860.33618	3641.2212
861.03522	3708.614
861.73425	3698.6997
862.43329	3766.3357
863.13239	3823.385
863.83142	3917.5234
864.53046	3977.5222
865.22949	3972.6934
865.92853	4021.8245
866.62756	4121.0898
867.32666	4145.7251
868.0257	4149.5322
868.72473	4160.7554
869.42377	4231.6812
870.1228	4247.0146
870.8219	4279.7197
871.52094	4317.2407
872.21997	4335.0303
872.91901	4420.8872
873.61804	4420.4585
874.31708	4485.9717
875.01617	4539.1982
875.71521	4537.5464
876.41425	4523.9043
877.11328	4561.9858
877.81232	4561.3833
878.51135	4684.4204
879.21045	4666.8379
879.90948	4670.3545
880.60852	4645.7515
881.30756	4715.1587
882.00659	4788.8716
882.70569	4834.8164
883.40472	4909.9751
884.10376	4833.6318
884.8028	4872.9585
885.50183	4861.3911
886.20087	4979.9712
886.89996	5029.1792
887.599	4965.6802
888.29803	5056.106
888.99707	5149.7813
889.69611	5222.3994
890.39514	5166.7637
891.09424	5180.4946
891.79327	5302.7065
892.49231	5353.3311
893.19135	5256.9707
893.89038	5394.6494
894.58948	5391.9316
895.28851	5469.3569
895.98755	5480.6104
896.68658	5523.4399
897.38562	5492.0439
898.08466	5564.4863
898.78375	5665.248
899.48279	5630.1411
900.18182	5754.228
900.88086	5752.4429
901.5799	5824.3428
902.27893	5835.6172
902.97803	5886.9414
903.67706	5944.5547
904.3761	5874.4951
905.07513	5987.5454
905.77417	6063.04
906.47327	6086.4106
907.1723	6086.0552
907.87134	6111.6494
908.57037	6195.7017
909.26941	6245.5454
909.96844	6330.813
910.66754	6453.0596
911.36658	6473.5332
912.06561	6454.7085
912.76465	6481.1963
913.46368	6554.4673
914.16272	6611.9458
914.86182	6675.5845
915.56085	6715.2778
916.25989	6804.1489
916.95892	6815.2412
917.65796	6813.9839
918.35706	6934.2554
919.05609	6916.2275
919.75513	6975.5796
920.45416	7007.7847
921.1532	7187.8311
921.85223	7271.0049
922.55133	7183.8662
923.25037	7198.8071
923.9494	7243.6719
924.64844	7417.2559
925.34747	7370.5737
926.04651	7406.7861
926.74561	7400.4453
927.44464	7418.0938
928.14368	7554.8657
928.84271	7532.1772
929.54175	7652.6616
930.24084	7642.5542
930.93988	7662.3789
931.63892	7697.7632
932.33795	7710.4604
933.03699	7715.0156
933.73602	7787.7441
934.43512	7883.416
935.13416	7969.7036
935.83319	7984.021
936.53223	7972.9912
937.23126	8021.1108
937.9303	8078.5967
938.62939	8149.6216
939.32843	8181.5986
940.02747	8163.9663
940.7265	8198.2686
941.42554	8261.3623
942.12463	8327.3506
942.82367	8382.5361
943.52271	8393.1377
944.22174	8433.9238
944.92078	8443.2461
945.61981	8384.3311
946.31891	8427.2695
947.01794	8484.3438
947.71698	8446.8174
948.41602	8544.459
949.11505	8570.8564
949.81409	8568.9629
950.51318	8489.9668
951.21222	8607.1865
951.91125	8709.7295
952.61029	8721.1318
953.30933	8789.8057
954.00842	8652.835
954.70746	8755.5479
955.40649	8776.1914
956.10553	8610.4229
956.80457	8767.8027
957.5036	8826.0713
958.2027	8845.915
958.90173	8767.54
959.60077	8702.083
960.2998	8835.7607
960.99884	8841.1406
961.69788	8836.2266
962.39697	8861.5557
963.09601	8873.9414
963.79504	8856.3135
964.49408	8839.0146
965.19312	8757.0576
965.89221	8774.9961
966.59125	8872.7783
967.29028	8862.293
967.98932	8853.6719
968.68835	8867.1934
969.38739	8877.5557
970.08649	8853.0078
970.78552	8821.0459
971.48456	8832.5986
972.18359	8914.3916
972.88263	8875.8174
973.58167	8789.0088
974.28076	8872.4629
974.9798	8798.0264
975.67883	8715.0996
976.37787	8901.0664
977.0769	8964.8076
977.776	8910.8467
978.47504	8777.2227
979.17407	8798.1475
979.87311	8719.8584
980.57214	8883.5293
981.27118	8857.1934
981.97028	8904.0889
982.66931	8832.0059
983.36835	8993.0967
984.06738	8750.1445
984.76642	8928.5225
985.46545	8788.8662
986.16455	8733.9082
986.86359	8719.9072
987.56262	8798.0557
988.26166	8783.8555
988.96069	8682.166
989.65979	8683.8281
990.35883	8740.2363
991.05786	8745.7969
991.7569	8731.2861
992.45593	8643.8936
993.15497	8661.6172
993.85406	8706.5957
994.5531	8685.2783
995.25214	8670.6826
995.95117	8612.8574
996.65021	8630.1602
997.34924	8683.9316
998.04834	8682.5518
998.74738	8739.9561
999.44641	8637.7129
1000.1454	8648.9717
1000.8445	8599.833
1001.5436	8743.7969
1002.2426	8635.6885
1002.9417	8604.5566
1003.6407	8617.6396
1004.3397	8576.4434
1005.0388	8574.9688
1005.7379	8646.6846
1006.4369	8478.8564
1007.1359	8495.1025
1007.835	8514.8184
1008.534	8535.3428
1009.233	8604.7891
1009.9321	8587.4795
1010.6312	8577.5762
1011.3302	8554.0908
1012.0292	8476.5527
1012.7283	8470.3174
1013.4274	8537.3174
1014.1264	8463.5771
1014.8254	8452.75
1015.5245	8461.7188
1016.2235	8471.124
1016.9225	8387.8174
1017.6216	8429.5703
1018.3207	8417.5703
1019.0197	8405.335
1019.7188	8505.0684
1020.4178	8466.416
1021.1168	8338.6611
1021.8159	8360.5205
1022.515	8280.2031
1023.214	8367.126
1023.913	8419.2295
1024.6121	8333.9678
1025.3112	8209.0283
1026.0101	8190.5317
1026.7092	8218.2842
1027.4083	8240.0615
1028.1073	8235.5986
1028.8064	8264.1602
1029.5054	8296.2119
1030.2045	8179.6816
1030.9034	8055.8887
1031.6025	8100.561
1032.3016	8110.5952
1033.0006	8063.9956
1033.6997	8060.6465
1034.3987	8008.2334
1035.0978	7910.2876
1035.7969	7955.7749
1036.4958	7911.6836
1037.1949	7936.3994
1037.8939	7859.584
1038.593	7940.4673
1039.2921	7653.3096
1039.9911	7792.147
1040.6902	7867.6611
1041.3892	7819.0762
1042.0883	7822.73
1042.7872	7738.6436
1043.4863	7647.6157
1044.1854	7641.6055
1044.8844	7534.0317
1045.5835	7535.7881
1046.2825	7561.0854
1046.9816	7534.2827
1047.6807	7489.8726
1048.3796	7441.5825
1049.0787	7424.5273
1049.7777	7292.4956
1050.4768	7240.2573
1051.1759	7308.311
1051.8749	7268.2407
1052.574	7289.4434
1053.2729	7219.3286
1053.972	7136.3423
1054.671	7151.644
1055.3701	7096.2451
1056.0692	7150.6099
1056.7682	7031.6284
1057.4673	7024.3579
1058.1663	6915.4141
1058.8654	6853.2583
1059.5645	6800.5786
1060.2634	6811.002
1060.9625	6753.6138
1061.6615	6753.7397
1062.3606	6668.5386
1063.0597	6540.918
1063.7587	6494.7134
1064.4578	6498.2578
1065.1567	6484.2954
1065.8558	6449.2603
1066.5548	6445.0674
1067.2539	6316.2197
1067.953	6162.875
1068.652	6157.4629
1069.3511	6175.0103
1070.05	6105.3579
1070.7491	6044.9521
1071.4482	5976.5137
1072.1472	5934.8838
1072.8463	5869.3193
1073.5453	5799.9814
1074.2444	5782.981
1074.9435	5645.8867
1075.6425	5679.3633
1076.3416	5674.6011
1077.0405	5566.9966
1077.7396	5522.6958
1078.4386	5471.1924
1079.1377	5416.0776
1079.8368	5343.4258
1080.5358	5240.8257
1081.2349	5190.2354
1081.9338	5163.7275
1082.6329	5037.9619
1083.332	5019.4233
1084.031	4998.3281
1084.7301	4942.4644
1085.4291	4834.5693
1086.1282	4820.3579
1086.8273	4749.6963
1087.5262	4674.9023
1088.2253	4644.959
1088.9243	4642.7861
1089.6234	4538.5576
1090.3224	4520.7246
1091.0215	4467.3511
1091.7206	4405.9604
1092.4196	4327.3047
1093.1187	4266.1133
1093.8176	4211.3018
1094.5167	4169.9219
1095.2158	4110.3604
1095.9148	4063.8291
1096.6139	3991.8098
1097.3129	3950.6433
1098.012	3878.9426
1098.7111	3812.2505
1099.41	3763.4531
1100.1091	3681.2795
1100.8081	3640.1042
1101.5072	3609.3611
1102.2062	3607.1846
1102.9053	3522.063
1103.6044	3452.937
1104.3033	3413.043
1105.0024	3380.7908
1105.7014	3334.6287
1106.4005	3244.3364
1107.0996	3211.616
1107.7986	3193.5676
1108.4977	3164.6934
1109.1967	3099.7271
1109.8958	3006.8328
1110.5948	2984.8088
1111.2938	2983.4148
1111.9929	2892.0139
1112.6919	2811.6541
1113.391	2858.7356
1114.09	2705.531
1114.7891	2737.6384
1115.4882	2662.0166
1116.1871	2646.6709
1116.8862	2622.2649
1117.5852	2589.647
1118.2843	2506.5405
1118.9834	2485.5706
1119.6824	2435.2375
1120.3815	2387.4648
1121.0804	2373.1714
1121.7795	2328.6992
1122.4786	2306.9287
1123.1776	2263.605
1123.8767	2189.6045
1124.5757	2216.6726
1125.2748	2179.4893
1125.9738	2136.5242
1126.6729	2080.2917
1127.3719	2073.3406
1128.0709	2009.9054
1128.77	2003.1637
1129.469	1958.3409
1130.1681	1962.6874
1130.8672	1922.838
1131.5662	1875.6339
1132.2653	1852.3087
1132.9642	1810.2456
1133.6633	1762.6769
1134.3624	1762.4255
1135.0614	1755.8381
1135.7605	1740.2266
1136.4595	1720.8409
1137.1586	1687.6753
1137.8575	1647.1742
1138.5566	1589.0907
1139.2557	1569.5179
1139.9547	1574.2863
1140.6538	1559.2883
1141.3528	1531.2866
1142.0519	1507.22
1142.751	1484.6533
1143.45	1489.2413
1144.149	1485.1559
1144.848	1463.3524
1145.5471	1444.9973
1146.2462	1423.5464
1146.9452	1393.6407
1147.6443	1385.0848
1148.3433	1365.5352
1149.0424	1359.8639
1149.7413	1352.1006
1150.4404	1389.3088
1151.1395	1317.4391
1151.8385	1315.65
1152.5376	1291.976
1153.2366	1277.4308
1153.9357	1247.3984
1154.6348	1246.7502
1155.3337	1229.7145
1156.0328	1233.7249
1156.7318	1217.7557
1157.4309	1186.5245
1158.13	1173.7644
1158.829	1167.2896
1159.5281	1170.5313
1160.2271	1159.4447
1160.9261	1128.5298
1161.6251	1132.9382
1162.3242	1121.5413
1163.0233	1161.4606
1163.7223	1130.2535
1164.4214	1127.3848
1165.1204	1107.3887
1165.8195	1091.9191
1166.5186	1103.3291
1167.2175	1071.6996
1167.9166	1073.0488
1168.6156	1060.9764
1169.3147	1073.5216
1170.0137	1062.2656
1170.7128	1047.7943
1171.4119	1042.0206
1172.1108	1054.099
1172.8099	1035.7184
1173.5089	1031.252
1174.208	1010.4088
1174.9071	1020.1652
1175.6061	988.91168
1176.3052	1005.2501
1177.0042	987.91162
1177.7032	997.66022
1178.4023	977.31665
1179.1013	976.33765
1179.8004	972.03241
1180.4994	969.65588
1181.1985	941.04626
1181.8975	953.90015
1182.5966	959.67865
1183.2957	934.65509
1183.9946	920.67133
1184.6937	934.12347
1185.3927	928.34259
1186.0918	916.22321
1186.7909	914.48383
1187.4899	917.44818
1188.189	909.74048
1188.8879	916.70105
1189.587	901.23767
1190.2861	897.8045
1190.9851	882.44806
1191.6842	906.26514
1192.3832	914.07379
1193.0823	900.09741
1193.7813	899.31458
1194.4803	883.30267
1195.1794	874.29193
1195.8784	859.28082
1196.5775	867.24603
1197.2765	885.19208
1197.9756	870.77563
1198.6747	856.25336
1199.3737	853.65649
1200.0728	844.08398
1200.7717	863.21313
1201.4708	865.36047
1202.1699	846.91516
1202.8689	868.97815
1203.568	853.86053
1204.267	862.36133
1204.9661	886.20129
1205.665	836.8996
1206.3641	821.4173
1207.0632	836.31793
1207.7622	851.55859
1208.4613	856.43256
1209.1603	806.1958
1209.8594	825.24268
1210.5585	824.40002
1211.2574	846.70087
1211.9565	835.27808
1212.6555	838.71454
1213.3546	830.42273
1214.0537	829.16498
1214.7527	817.88147
1215.4518	818.03235
1216.1508	820.55334
1216.8499	805.64404
1217.5488	836.23669
1218.2479	781.27448
1218.947	805.35504
1219.646	817.32953
1220.3451	812.78217
1221.0441	820.31519
1221.7432	808.61261
1222.4423	798.34412
1223.1412	789.11566
1223.8403	802.43628
1224.5393	804.40417
1225.2384	789.77332
1225.9375	783.11218
1226.6365	788.50262
1227.3356	813.27197
1228.0345	813.53888
1228.7336	792.49591
1229.4326	819.27173
1230.1317	826.46832
1230.8308	811.82855
1231.5298	814.49274
1232.2289	786.2442
1232.9279	813.66968
1233.627	793.39014
1234.326	796.96796
1235.025	818.24683
1235.7241	810.87732
1236.4231	801.45813
1237.1222	809.61926
1237.8213	799.59113
1238.5203	773.25739
1239.2194	805.55475
1239.9183	787.5705
1240.6174	786.37903
1241.3164	759.47589
1242.0155	806.36115
1242.7146	805.71863
1243.4136	773.03406
1244.1127	792.02551
1244.8116	773.89203
1245.5107	802.12097
1246.2098	798.92181
1246.9088	792.0271
1247.6079	798.33533
1248.3069	766.73352
1249.006	768.94403
1249.7051	796.03302
1250.4041	802.16748
1251.1031	790.27142
1251.8021	784.83154
1252.5012	762.82312
1253.2002	809.40192
1253.8993	746.5769
1254.5984	790.31219
1255.2974	784.05206
1255.9965	807.29028
1256.6954	801.50665
1257.3945	777.99487
1258.0936	781.37378
1258.7926	813.73639
1259.4917	822.88074
1260.1907	818.84662
1260.8898	776.81604
1261.5889	778.82886
1262.2878	784.00391
1262.9869	784.89069
1263.6859	813.23767
1264.385	793.17944
1265.084	804.79364
1265.7831	814.51654
1266.4822	798.66577
1267.1812	817.16028
1267.8802	823.3111
1268.5792	831.80017
1269.2783	810.21057
1269.9774	785.78223
1270.6764	782.24396
1271.3755	781.21851
1272.0745	831.43549
1272.7736	818.36853
1273.4727	805.75073
1274.1716	784.24023
1274.8707	802.94611
1275.5697	776.52185
1276.2688	807.91101
1276.9678	811.18585
1277.6669	831.25201
1278.366	802.42395
1279.0649	810.62103
1279.764	819.02515
1280.463	786.13275
1281.1621	797.94635
1281.8612	775.09198
1282.5602	774.44476
1283.2593	812.20477
1283.9583	795.88043
1284.6573	777.93604
1285.3564	797.87909
1286.0554	817.76196
1286.7545	811.65222
1287.4535	815.16064
1288.1526	777.79492
1288.8516	812.20697
1289.5507	811.08203
1290.2498	807.96033
1290.9487	807.85364
1291.6478	811.58466
1292.3468	814.07709
1293.0459	786.30548
1293.745	794.73236
1294.444	821.82782
1295.1431	854.18219
1295.842	821.30579
1296.5411	828.95734
1297.2402	804.5741
1297.9392	800.65375
1298.6383	820.21503
1299.3373	807.01404
1300.0364	782.10529
1300.7354	805.77917
1301.4344	825.83026
1302.1335	801.34143
1302.8325	788.71124
1303.5316	820.85675
1304.2306	825.91333
1304.9297	812.74127
1305.6288	828.74854
1306.3278	784.86908
1307.0269	801.62915
1307.7258	817.58539
1308.4249	806.31067
1309.124	849.56915
1309.823	805.3277
1310.5221	825.86963
1311.2211	795.30914
1311.9202	815.07587
1312.6191	806.56104
1313.3182	788.15662
1314.0173	783.78412
1314.7163	786.71252
1315.4154	809.59167
1316.1144	802.68835
1316.8135	791.98975
1317.5126	817.56158
1318.2115	801.82672
1318.9106	812.01343
1319.6096	802.09277
1320.3087	793.56445
1321.0078	788.98663
1321.7068	798.60059
1322.4059	787.77057
1323.1049	811.19373
1323.804	798.49896
1324.5029	816.85083
1325.202	835.9162
1325.9011	810.73999
1326.6001	830.42444
1327.2992	828.34814
1327.9982	828.85272
1328.6973	844.50812
1329.3964	828.91156
1330.0953	823.15991
1330.7944	842.38397
1331.4934	827.22186
1332.1925	851.69702
1332.8916	858.45514
1333.5906	853.66949
1334.2897	840.12567
1334.9886	819.49817
1335.6877	822.07928
1336.3867	835.29181
1337.0858	820.56793
1337.7849	833.75311
1338.4839	820.60345
1339.183	795.82849
1339.882	819.27441
1340.5811	815.35089
1341.2802	829.31219
1341.9791	831.86908
1342.6782	819.34821
1343.3772	822.05255
1344.0763	855.94971
1344.7754	844.17987
1345.4744	843.28638
1346.1735	823.83264
1346.8724	842.4342
1347.5715	837.64612
1348.2705	853.10522
1348.9696	812.69928
1349.6687	842.88922
1350.3677	831.65088
1351.0668	826.06866
1351.7657	813.23499
1352.4648	850.94415
1353.1639	845.5943
1353.8629	836.53778
1354.562	848.38708
1355.261	840.70764
1355.9601	887.44641
1356.6592	857.16986
1357.3582	859.79071
1358.0573	865.99677
1358.7562	855.01282
1359.4553	844.99146
1360.1543	837.52161
1360.8534	835.60529
1361.5525	848.80798
1362.2515	850.18445
1362.9506	829.04102
1363.6495	848.08813
1364.3486	834.52319
1365.0477	875.375
1365.7467	848.45563
1366.4458	860.11188
1367.1448	884.71893
1367.8439	839.26837
1368.543	820.12177
1369.2419	855.62823
1369.941	860.83411
1370.64	850.42755
1371.3391	866.34424
1372.0381	819.30042
1372.7372	834.89191
1373.4363	838.42596
1374.1353	920.67407
1374.8344	895.82404
1375.5333	880.97815
1376.2324	871.44836
1376.9315	868.48895
1377.6305	864.27893
1378.3296	866.21875
1379.0286	853.9079
1379.7277	857.2345
1380.4268	884.23596
1381.1257	870.9303
1381.8248	886.99701
1382.5238	881.77637
1383.2229	881.91022
1383.9219	887.02765
1384.621	873.64996
1385.3201	877.39764
1386.019	889.31934
1386.7181	854.35645
1387.4171	864.45624
1388.1162	900.07678
1388.8153	833.69128
1389.5143	845.33685
1390.2134	879.21136
1390.9124	892.71967
1391.6115	920.06378
1392.3105	871.11743
1393.0095	874.05054
1393.7086	883.4552
1394.4076	889.89301
1395.1067	904.98505
1395.8057	919.71008
1396.5048	874.60284
1397.2039	887.95721
1397.9028	855.66461
1398.6019	882.3996
1399.3009	882.65778
1400	876.7403
