101.41437885008341, 59.46718260904649
104.2731934005275, 59.420730659445496
107.13183964680636, 59.39744858325658
109.99048589308524, 59.37416650706768
112.84913213936409, 59.35088443087877
115.70777838564294, 59.327602354689866
118.56659293608703, 59.281150405088866
121.42507087820067, 59.281038202312054
124.28371712447952, 59.25775612612314
127.1423633707584, 59.234474049934235
130.00084131287204, 59.23436184715742
132.8596558633161, 59.18790989755643
135.71813380542974, 59.18779769477961
138.5766117475434, 59.1876854920028
141.4347530813266, 59.23391303605017
144.2928944151098, 59.28014058009754
147.15069914056255, 59.372707870969094
150.0085038660153, 59.46527516184065
152.86614028730284, 59.581012326124295
155.72344010025992, 59.743089237232134
158.58073991321703, 59.905166148339966
161.43820803033933, 60.04407318603571
164.29550784329643, 60.206150097143535
167.15280765625351, 60.368227008251374
170.01044407754105, 60.483964172535025
172.8680804988286, 60.59970133681867
175.72571692011613, 60.71543850110231
178.58335334140367, 60.83117566538596
181.44149467518685, 60.87740320943334
184.2994677048048, 60.946800626892795
187.15777734275323, 60.96985829752808
190.01575037237123, 61.03925571498754
192.87389170615444, 61.08548325903491
195.73203303993762, 61.131710803082285
198.59017437372083, 61.177938347129654
201.44831570750404, 61.22416589117702
204.30662534545243, 61.2472235618123
207.16459837507043, 61.31662097927177
210.02290801301882, 61.33967864990705
212.88088104263682, 61.409076067366506
215.73902237642, 61.455303611413875
218.59699540603796, 61.524701028873345
221.4551367398212, 61.57092857292071
224.31327807360438, 61.61715611696808
227.1714194073876, 61.66338366101546
230.029729045336, 61.68644133165073
232.8878703791192, 61.7326688756981
235.74618001706762, 61.755726546333385
238.60448965501604, 61.77878421696866
241.46279929296446, 61.801841887603935
244.32110893091286, 61.82489955823922
247.1787453522004, 61.94063672252287
250.0368866859836, 61.98686426657023
252.8950280197668, 62.033091810617606
255.75333765771524, 62.05614948125289
258.6118155998289, 62.05603727847607
261.4699569336121, 62.10226482252344
264.32843487572575, 62.102152619746626
267.1865762095089, 62.148380163794
270.04454923912687, 62.21777758125346
272.9028588770753, 62.24083525188874
275.7608319066933, 62.3102326693482
278.61897324047646, 62.35646021339557
281.4771145742597, 62.40268775744295
284.33491929971245, 62.495255048314505
287.1932289376609, 62.51831271894978
290.05120196727887, 62.58771013640924
292.90951160522724, 62.610767807044525
295.7676529390104, 62.656995351091894
298.6256259686284, 62.72639276855135
301.4834306940812, 62.81896005942291
304.3417403320296, 62.84201773005819
307.1995450574824, 62.934585020929745
310.05751808710033, 63.00398243838921
312.91549111671833, 63.07337985584867
315.77396905883194, 63.07326765307186
318.63194208844993, 63.14266507053132
321.4900834222331, 63.18889261457869
324.3480564518511, 63.258290032038154
327.20619778563434, 63.30451757608552
330.0645074235827, 63.327575246720805
332.9221438448703, 63.443312411004456
335.78028517865346, 63.48953995505182
338.6387631207671, 63.489427752275006
341.49639954205463, 63.60516491655866
344.35403596334214, 63.72090208084231
347.2121772971253, 63.76712962488968
350.07031863090856, 63.813357168937046
352.9286282688569, 63.83641483957233
355.7862646901445, 63.95215200385597
358.6442377197625, 64.02154942131543
361.5022107493805, 64.0909468387749
364.3605203873289, 64.11400450941017
367.2186617211121, 64.16023205345755
370.0769713590605, 64.18328972409283
372.93494438867845, 64.25268714155229
375.7922442016356, 64.41476405266013
378.64971231875785, 64.55367109035586
381.50751704421066, 64.64623838122742
384.3654900738286, 64.71563579868689
387.22312649511616, 64.83137296297053
390.0812678288994, 64.8776005070179
392.9389042501869, 64.99333767130156
395.7970455839701, 65.03956521534892
398.65518691775327, 65.0857927593963
401.5126550348756, 65.22469979709203
404.3701231519979, 65.36360683478777
407.2282644857811, 65.40983437883514
410.08606921123385, 65.5024016697067
412.9438739366866, 65.59496896057826
415.8013420538089, 65.73387599827399
418.6589784750965, 65.84961316255765
421.51661489638406, 65.9653503268413
424.37441962183675, 66.05791761771285
427.2318877389591, 66.19682465540859
430.0893558560814, 66.33573169310432
432.9468239732037, 66.47463873080007
435.8046286986564, 66.56720602167162
438.66192851161355, 66.72928293277945
441.5193966287358, 66.86818997047519
444.3768647458582, 67.00709700817094
447.23483777547614, 67.0764944256304
450.0921375884333, 67.23857133673823
452.9496057055556, 67.37747837443398
455.80757873517354, 67.44687579189343
458.6648785481307, 67.60895270300128
461.52268327358337, 67.70151999387284
464.37981478237526, 67.88676677839275
467.2374512036628, 68.00250394267641
470.0949193207851, 68.14141098037214
472.9522191337422, 68.30348789147997
475.8095189466993, 68.4655648025878
478.6663138471607, 68.69715133393191
481.52462348510915, 68.7202090045672
484.38209160223147, 68.85911604226294
487.239728023519, 68.97485320654658
490.0978693573022, 69.02108075059395
492.9555057785897, 69.13681791487761
495.8141520248686, 69.1135358386887
498.6717884461561, 69.22927300297235
501.530434692435, 69.20599092678344
504.38924924287903, 69.15953897718245
507.2485687058188, 69.04357740734517
510.1080564729238, 68.9044459640958
512.9680491525245, 68.69580490061014
515.828715048786, 68.39448434347614
518.6885394242214, 68.20901315340258
521.548532103822, 68.00037208991694
524.4083564792573, 67.81490089984338
527.269022375519, 67.51358034270936
530.1288467509543, 67.32810915263582
532.9885028222245, 67.16580783597436
535.8488321101555, 66.91082702566453
538.7083198772606, 66.77169558241515
541.5678076443655, 66.6325641391658
544.4272954114705, 66.49343269591643
547.2864465702451, 66.40064099949123
550.1450928165239, 66.37735892330232
553.0037390628028, 66.35407684711342
555.8622170049164, 66.3539646443366
558.7205266428647, 66.37702231497188
561.5784996724827, 66.44641973243134
564.4364727021007, 66.51581714989081
567.2946140358839, 66.56204469393818
570.1530919779975, 66.56193249116137
573.0122431367721, 66.46914079473618
575.8712259913814, 66.3995189717231
578.7307137584863, 66.26038752847373
581.5905381339218, 66.07491633840017
584.4508674218529, 65.81993552809034
587.3101868847925, 65.70397395825306
590.1706844768888, 65.42582327453114
593.0305088523243, 65.24035208445758
595.8906698360901, 65.00854114755984
598.750830819856, 64.77673021066211
601.6104868911262, 64.61442889400065
604.4703112665616, 64.4289577039271
607.3299673378317, 64.26665638726564
610.1892868007715, 64.15069481742836
613.0491111762069, 63.96522362735481
615.9080940308162, 63.89560180434171
618.7675817979211, 63.75647036109235
621.6269012608609, 63.64050879125507
624.4855475071398, 63.61722671506616
627.3445303617491, 63.54760489205307
630.2035132163584, 63.47798306903998
633.0624960709678, 63.40836124602689
635.9211423172466, 63.38507916983798
638.779451955195, 63.40813684047326
641.6384348098043, 63.338515017460175
644.496912751918, 63.338402814683356
647.3547174773706, 63.43097010555491
650.2133637236495, 63.40768802936601
653.0718416657631, 63.407575826589195
655.9301513037116, 63.43063349722447
658.7886292458252, 63.43052129444766
661.6471071879388, 63.430409091670846
664.5054168258873, 63.453466762306114
667.3635581596706, 63.49969430635349
670.2216994934537, 63.545921850400866
673.0811872605586, 63.40679040715149
675.9394968985071, 63.42984807778677
678.7979748406207, 63.42973587500996
681.65695769523, 63.36011405199687
684.5152673331784, 63.38317172263214
687.3730720586312, 63.4757390135037
690.23171830491, 63.45245693731479
693.0907011595193, 63.3828351143017
695.9493474057982, 63.35955303811279
698.8076570437466, 63.382610708748075
701.6668082025211, 63.28981901232289
704.5256227529652, 63.24336706272189
707.3841006950789, 63.243254859945075
710.2430835496882, 63.17363303693199
713.1012248834713, 63.21986058097936
715.9597028255849, 63.219748378202546
718.8181807676987, 63.219636175425734
721.677163622308, 63.15001435241263
724.5358098685867, 63.126732276223734
727.3944561148658, 63.10345020003483
730.2525974486489, 63.14967774408219
733.1109070865973, 63.17273541471747
735.9698899412066, 63.103113591704385
738.828199579155, 63.12617126233967
741.6870141295991, 63.07971931273866
744.5461652883736, 62.98692761631348
747.404474926322, 63.00998528694876
750.2637943892619, 62.89402371711148
753.1221040272102, 62.91708138774676
755.9809185776543, 62.87062943814576
758.8395648239332, 62.84734736195686
761.698211070212, 62.824065285767944
764.5566890123256, 62.82395308299113
767.4151669544392, 62.82384088021432
770.2739815048834, 62.77738893061332
773.1329643594927, 62.707767107600226
775.9912739974411, 62.73082477823551
778.8504251562156, 62.63803308181032
781.7092397066598, 62.59158113220933
784.5680542571038, 62.54512918260833
787.4268688075479, 62.49867723300733
790.2861882704876, 62.38271566317005
793.1451711250969, 62.31309384015696
796.0043222838715, 62.22030214373178
798.8626319218198, 62.243359814367054
801.7219513847597, 62.12739824452978
804.580934239369, 62.05777642151669
807.4399170939782, 61.98815459850359
810.298563340257, 61.964872522314685
813.1577144990316, 61.872080825889505
816.0177071786322, 61.66343976240386
818.8771949457372, 61.52430831915449
821.7360094961813, 61.47785636955349
824.5954972632862, 61.338724926304124
827.4541435095651, 61.31544285011522
830.3127897558439, 61.29216077392631
833.1721092187837, 61.17619920408904
836.0300822484018, 61.24559662154849
838.8882235821849, 61.29182416559587
841.747038132629, 61.24537221599487
844.6060209872383, 61.17575039298178
847.4644989293519, 61.175638190204964
850.3226402631351, 61.22186573425233
853.1807815969183, 61.26809327829971
856.0397644515276, 61.198471455286615
858.8977374811456, 61.26786887274608
861.7557105107635, 61.33726629020554
864.6145250612077, 61.29081434060455
867.4730030033213, 61.29070213782773
870.3308077287741, 61.383269428699286
873.1882758458963, 61.52217646639503
876.0464171796796, 61.56840401044239
878.9045585134628, 61.61463155448977
881.7623632389154, 61.707198845361326
884.6199996602031, 61.82293600964497
887.4772994731602, 61.9850129207528
890.335945719439, 61.961730844563895
893.1935821407264, 62.077468008847546
896.050377041188, 62.30905454019165
898.9080134624755, 62.424791704475304
901.764808362937, 62.65637823581942
904.6234546092157, 62.633096159630504
907.4800812055121, 62.88785256438671
910.3363711934778, 63.1889487159671
913.1931660939391, 63.42053524731121
916.0501292985659, 63.62895190524323
918.9070925031925, 63.83736856317525
921.7640557078191, 64.04578522110727
924.621187216611, 64.23103200562718
927.4784870295681, 64.39310891673503
930.3352819300295, 64.62469544807914
933.1919085263257, 64.87945185283533
936.0487034267871, 65.11103838417944
938.904993414753, 65.41213453575983
941.7621249235448, 65.59738132027977
944.6194247365019, 65.75945823138758
947.4765562452939, 65.94470501590752
950.3325096249291, 66.29214091431209
953.189641133721, 66.47738769883202
956.0466043383476, 66.68580435676404
958.9039041513048, 66.84788126787186
961.7615405725923, 66.9636184321555
964.381980323695, 66.940345706198
967.475803590176, 67.33411200119536
970.3332717072983, 67.47301903889111
973.1905715202554, 67.63509594999894
976.0480396373777, 67.77400298769467
978.9050028420045, 67.98241964562669
981.7617977424658, 68.2140061769708
984.6192658595882, 68.35291321466654
987.4770705850408, 68.4454805055381
990.3347070063285, 68.56121766982174
993.1928483401116, 68.60744521386911
996.0508213697295, 68.67684263132858
998.9084577910172, 68.79257979561223
1001.7669357331308, 68.79246759283541
1004.6242355460879, 68.95454450394325
1007.4822085757058, 69.02394192140271
1010.3401816053239, 69.09333933886218
1013.1988278516027, 69.07005726267327
1016.0564642728901, 69.18579442695692
1018.9134274775168, 69.39421108488894
1021.7714005071349, 69.4636085023484
1024.6298784492485, 69.46349629957159
1027.4878514788666, 69.53289371703104
1030.3464977251454, 69.50961164084214
1033.2053122755894, 69.46315969124115
1036.0634536093726, 69.50938723528851
1038.9222681598167, 69.46293528568751
1041.7810827102608, 69.41648333608651
1044.6397289565398, 69.39320125989761
1047.4990484194793, 69.27723969006033
1050.3585361865844, 69.13810824681096
1053.217014128698, 69.13799604403415
1056.0770068082986, 68.92935498054851
1058.936831183734, 68.74388379047495
1061.7964872550042, 68.58158247381348
1064.655806717944, 68.46562090397622
1067.5156310933794, 68.28014971390266
1070.37562377298, 68.07150865041702
1073.235953060911, 67.81652784010718
1076.0954408280159, 67.67739639685783
1078.9554335076166, 67.46875533337217
1081.8154261872173, 67.26011426988651
1084.6757554751482, 67.0051334595767
1087.5359164589142, 66.77332252267895
1090.395909138515, 66.56468145919331
1093.2559018181155, 66.35604039570767
1096.1163994102117, 66.07788971198573
1098.976728698143, 65.8229089016759
1101.8367213777435, 65.61426783819027
1104.6970506656746, 65.35928702788044
1107.5570433452751, 65.15064596439478
1110.4182141540323, 64.77981578702449
1113.278206833633, 64.57117472353886
1116.1373579924075, 64.47838302711367
1118.9978555845037, 64.20023234339175
1121.858184872435, 63.945251533081915
1124.7173360312092, 63.852459836656735
1127.8181158698528, 63.28853803062093
1130.4373213904107, 63.43517770968543
1133.2976506783416, 63.18019689937561
1136.1578116621076, 62.948385962477865
1139.0179726458732, 62.71657502558013
1141.8776287171436, 62.55427370891867
1144.737284788414, 62.3919723922572
1147.5972774680142, 62.18333132877156
1150.45710184345, 61.99786013869801
1153.3172628272157, 61.76604920180027
1156.1769188984858, 61.60374788513881
1159.0359017530952, 61.534126062125715
1161.8953895202003, 61.39499461887635
1164.7553821998008, 61.1863535553907
1167.6138601419145, 61.18624135261389
1170.473179604854, 61.070279782776616
1173.3323307636285, 60.97748808635143
1176.1926600515599, 60.7225072760416
1179.0504647770124, 60.815074566913154
1181.9091110232914, 60.79179249072425
1184.7680938779008, 60.722170667711154
1187.6277499491707, 60.5598693510497
1190.4855546746237, 60.652436641921256
1193.3457156583895, 60.42062570502351
1196.2055400338247, 60.23515451494996
1199.0648594967647, 60.11919294511269
1201.9243472638695, 59.98006150186331
1204.7828252059833, 59.9799492990865
1207.6423129730883, 59.84081785583713
1210.5001176985409, 59.93338514670869
1213.3582590323242, 59.979612690756056
1216.2177467994293, 59.84048124750669
1219.0760564373775, 59.86353891814197
1221.9347026836565, 59.84025684195306
1224.7935172341006, 59.793804892352064
1227.6514902637184, 59.86320230981153
1230.5099682058321, 59.863090107034715
1233.3684461479456, 59.862977904257896
1236.225914265068, 60.00188494195364
1239.085402032173, 59.86275349870427
1241.9440482784519, 59.83947142251536
1244.802189612235, 59.885698966562735
1247.660835858514, 59.86241689037383
1250.5199870172883, 59.76962519394864
1253.3786332635673, 59.746343117759736
1256.2372795098463, 59.72306104157083
1259.0957574519598, 59.72294883879402
1261.9542353940735, 59.7228366360172
1264.8138914653434, 59.56053531935574
1267.6730426241181, 59.46774362293056
1270.5315205662318, 59.467631420153744
1270.0727234118394, 24.24945188446746
1272.2058104018504, 25.73223963075877
1273.354654633649, 64.33319263391634
1273.3901668125106, 59.44434934396484
1274.344619733479, 26.42725168103894
1276.2124593591018, 64.4257599247879
1276.2486447546244, 59.444237141188026
1279.0699274762242, 64.56466696248364
1279.1069543925728, 59.4672948118233
1281.9284054183377, 64.56455475970682
1282.2048730604074, 59.29726085379308
1283.3682475518035, 63.1047966333566
1284.7862101437904, 64.65712205057838
1284.5864892010616, 59.358953680577976
1286.2262205814213, 63.174194050816055
1285.8569612429264, 15.629641859896594
1286.9300686003755, 64.65703789849576
1287.6817150022528, 59.559637697141234
1290.5393514235402, 59.67537486142488
1292.2232345965765, 24.619300287540625
1293.6373261927633, 59.49761761225729
1295.1396091715262, 16.648751631004032
1296.256812220263, 59.60564083563498
1297.2827944114506, 16.741346972569772
1299.1152901623768, 59.60552863285816
1301.9737681044905, 59.60541643008135
1303.14090138891, 62.895491703441465
1304.831404525778, 59.72115359436499
1305.9993045291722, 62.90567722218113
1307.9308379310999, 59.34259077562594
1309.0987566349568, 62.52453997306296
1310.5508849724838, 59.37338108762998
1311.9579077937312, 62.43174827663778
1313.4071749604493, 59.67447723921037
1314.7975356693403, 65.0266618960153
1314.8051093567751, 63.98401759247115
1314.816385735845, 62.43163607386096
1316.2659895108934, 59.62802528960937
1316.5105354629595, 25.96219922183907
1315.8083704856576, 24.247656640038443
1317.6563502197841, 64.9802099464143
1317.674527069628, 62.477863617908326
1319.1249723655028, 59.558403466596275
1320.5158379868892, 64.84107850316494
1320.5319951867505, 62.61677065560407
1321.9834503076163, 59.55829126381946
1323.3754940581596, 64.67877718650348
1323.387275349725, 63.05688604765701
1324.8427697705563, 59.44232969398219
1325.5198574272404, 64.6091834141846
1326.007490695274, 63.06450648624896
1325.8069843331073, 25.081379373154917
1327.700742800174, 59.511727111441644
1328.0227086682419, 15.187759274108842
1330.5580426131312, 59.67380402254948
1330.1626961290272, 15.720582210504347
1333.4182035968972, 59.441993085651745
1335.0908103908635, 25.93830003037769
1336.2771022994236, 59.3839561993447
1336.5299793076683, 24.571221397675828
1337.3021588177025, 16.647096640046016
1339.1343179602982, 59.55761804715858
1340.1586171098334, 16.92502291821431
1341.992795902412, 59.557505844381765
1344.8512738445254, 59.55739364160495
1347.708910265813, 59.6731308058886
1350.5682297287528, 59.55716923605132
1353.4275491916926, 59.44120766621405
1356.2856905254757, 59.48743521026142
1359.3834408891453, 59.34057112564329
1362.0029830180335, 59.440871057883605
1364.860451135156, 59.57977809557935
1367.7190973814345, 59.55649601939044
1370.5775753235482, 59.556383816613625
1373.4365581781576, 59.48676199360054
1376.294194599445, 59.60249915788418
1379.1531774540545, 59.53287733487109
1382.0119920044986, 59.486425385270095
1384.8699650341164, 59.55582280272955
1387.7286112803954, 59.532540726540645
1390.587089222509, 59.53242852376383
1393.4455671646226, 59.53231632098702
1396.3035401942407, 59.601713738446485
1399.1615132238585, 59.67111115590595
