101.48422507865013, 49.851685143028135
105.7727835126467, 49.73566747180245
108.63126145476033, 49.73555526902564
111.49041261353486, 49.64276357260045
114.3488905556485, 49.64265136982364
117.20770510609259, 49.59619942022264
120.06651965653666, 49.54974747062164
122.92499759865032, 49.54963526784483
125.78381214909439, 49.50318331824383
128.64262669953848, 49.45673136864283
131.50110464165212, 49.456619165866016
134.35958258376576, 49.456506963089204
137.2180605258794, 49.45639476031239
140.07653846799303, 49.45628255753557
142.93501641010667, 49.45617035475876
145.7926528313942, 49.571907519042405
148.65045755684696, 49.66447480991396
151.50826228229974, 49.75704210078552
154.36556209525682, 49.91911901189335
157.2226936040487, 50.104365796413276
160.07982511284055, 50.2896125809332
162.93695662163242, 50.47485936545313
165.7942564345895, 50.63693627656096
168.6515562475466, 50.79901318766879
171.50919266883415, 50.91475035195244
174.36682909012166, 51.03048751623609
177.22446551140922, 51.14622468051974
180.08243854102722, 51.2156220979792
182.94024326647997, 51.30818938885076
185.79821629609793, 51.37758680631022
188.65652593404636, 51.400644476945494
191.51449896366432, 51.470041894404964
194.37280860161275, 51.49309956504024
197.2307816312307, 51.5624969824997
200.08909126917914, 51.58555465313498
202.9470642987971, 51.65495207059445
205.80520563258034, 51.70117961464181
208.6631786621983, 51.77057703210128
211.52165660431194, 51.77046482932447
214.3796296339299, 51.83986224678393
217.23793927187833, 51.862919917419205
220.0959123014963, 51.93231733487867
222.9538853311143, 52.00171475233814
225.81202666489747, 52.0479422963855
228.6703363028459, 52.07099996702078
231.52830933246386, 52.140397384480245
234.3867872745775, 52.14028518170343
237.24526521669117, 52.140172978926614
240.1037431588048, 52.1400607761498
242.96154788425756, 52.23262806702136
245.81968921804076, 52.27885561106873
248.67749394349352, 52.371422901940285
251.5356352772767, 52.41765044598766
254.39394491522512, 52.44070811662293
257.252591161504, 52.41742604043403
260.1107324952872, 52.4636535844814
262.9688738290704, 52.509881128528775
265.8271834670188, 52.53293879916405
268.6851564966368, 52.60233621662351
271.54346613458523, 52.625393887258795
274.40143916420317, 52.69479130471825
277.2597488021516, 52.71784897535353
280.11738522343916, 52.833586139637184
282.9753582530571, 52.90298355709664
285.83383619517076, 52.90287135431983
288.69197752895394, 52.949098898367204
291.5497822544067, 53.04166618923876
294.4079235881899, 53.08789373328612
297.26589661780787, 53.15729115074559
300.1237013432606, 53.24985844161715
302.9816743728786, 53.319255859076605
305.839984010827, 53.34231352971189
308.6981253446102, 53.38854107375926
311.5562666783934, 53.434768617806625
314.41390309968097, 53.550505782090276
317.27187612929896, 53.61990319954974
320.13035407141257, 53.61979099677293
322.98799049270013, 53.73552816105657
325.8459635223181, 53.80492557851604
328.70444146443174, 53.80481337573923
331.5622461898845, 53.89738066661078
334.4202192195025, 53.96677808407024
337.27785564079, 54.08251524835389
340.13549206207756, 54.198252412637544
342.99346509169555, 54.267649830097
345.85194303380916, 54.26753762732019
348.70991606342716, 54.33693504477965
351.56805739721034, 54.38316258882702
354.42603042682833, 54.45256000628648
357.28383515228103, 54.54512729715805
360.141808181899, 54.6145247146175
363.00011781984745, 54.637582385252784
365.8579225453002, 54.73014967612434
368.71572727075295, 54.8227169669959
371.57370030037094, 54.892114384455354
374.43234654664985, 54.86883230826645
377.28998296793736, 54.9845694725501
380.1476193892249, 55.10030663683374
383.0050875063472, 55.23921367452949
385.86272392763476, 55.35495083881314
388.7206969572527, 55.424348256272594
391.57833337854026, 55.540085420556245
394.4363064081582, 55.60948283801571
397.29411113361095, 55.70205012888727
400.15208416322895, 55.77144754634673
403.0095522803513, 55.91035458404247
405.86685209330835, 56.072431495150305
408.7246568187611, 56.164998786021854
411.58279815254434, 56.21122633006923
414.4411077904927, 56.23428400070451
417.29857590761503, 56.37319103840025
420.15621232890254, 56.488928202683894
423.01317553352925, 56.697344860615914
425.8704753464863, 56.85942177172375
428.7286166802695, 56.905649315771115
431.58608479739183, 57.04455635346686
434.44405782700983, 57.11395377092632
437.30152594413215, 57.25286080862206
440.1589940612544, 57.391767846317805
443.0164621783768, 57.53067488401354
445.8737619913338, 57.69275179512138
448.7313984126214, 57.808488959405025
451.58886652974365, 57.94739599710076
454.4456614302051, 58.17898252844488
457.30329785149263, 58.29471969272852
460.16110257694544, 58.38728698360008
463.0182340857373, 58.57253376812001
465.87637541952046, 58.61876131216737
468.73384353664284, 58.75766834986312
471.59114334959986, 58.91974526097095
474.44861146672224, 59.05865229866669
477.30591127967926, 59.22072920977452
480.1640526134625, 59.266956753821894
483.02067920975867, 59.5217131585781
485.8784839352115, 59.61428044944965
488.73662526899466, 59.66050799349702
491.594093386117, 59.799415031192765
494.4524030240654, 59.82247270182804
497.310880966179, 59.82236049905123
500.1691906041275, 59.84541816968651
503.02800515457153, 59.79896622008551
505.8881661383374, 59.567155283187766
508.74765390544235, 59.4280238399384
511.60730997671254, 59.26572252327694
514.4669660479827, 59.10342120661548
517.3269587275834, 58.89478014312983
520.186951407184, 58.686139079644185
523.0472806951151, 58.43115826933436
525.9072733747157, 58.22251720584871
528.7674343584815, 57.99070626895097
531.6282685589083, 57.66621583840487
534.4877563260133, 57.52708439515549
537.3469074847878, 57.43429269873031
540.2069001643885, 57.22565163524467
543.0665562356586, 57.063350318583204
545.9243609611113, 57.15591760945476
548.7845219448773, 56.92410667255702
551.6433364953213, 56.877654722956024
554.5009729166087, 56.99339188723967
557.3597874670529, 56.946939937638675
560.2177604966708, 57.01633735509814
563.0765750471149, 56.96988540549714
565.9343797725677, 57.062452696368695
568.7928577146813, 57.06234049359188
571.6516722651254, 57.015888543990876
574.5094769905782, 57.10845583486243
577.3684598451875, 57.038834011849346
580.2286208289534, 56.80702307495161
583.0881085960583, 56.66789163170223
585.9481012756588, 56.45925056821659
588.8074207385987, 56.343288998379315
591.6674134181993, 56.134647934893664
594.5274060977999, 55.92600687140802
597.3873987774006, 55.71736580792238
600.2473914570012, 55.508724744436726
603.1072158324366, 55.32325355436318
605.967040207872, 55.13778236428963
608.8260230624813, 55.06816054127654
611.6855108295863, 54.929029098027165
614.544830292526, 54.81306752818989
617.4041497554658, 54.697105958352616
620.2631326100751, 54.62748413533952
623.1224520730148, 54.51152256550225
625.9812666234589, 54.46507061590125
628.8392396530769, 54.53446803336072
631.6977175951905, 54.5343558305839
634.5563638414693, 54.51107375439499
637.4151783919134, 54.46462180479399
640.2741612465228, 54.3949999817809
643.1321342761407, 54.46439739924036
645.9907805224195, 54.441115323051456
648.8494267686985, 54.41783324686255
651.7079047108122, 54.41772104408574
654.5667192612561, 54.37126909448474
657.425365507535, 54.34798701829583
660.2838434496488, 54.34787481551901
663.1424896959276, 54.32459273933011
666.0014725505368, 54.25497091631702
668.8604554051461, 54.18534909330393
671.7194382597555, 54.11572727029083
674.5780845060343, 54.092445194101934
677.4377405773045, 53.930143877440464
680.2970600402443, 53.81418230760319
683.1555379823579, 53.81407010482638
686.0143525328019, 53.767618155225385
688.873167083246, 53.72116620562438
691.7323182420206, 53.6283745091992
694.5911327924647, 53.5819225595982
697.4504522554043, 53.46596098976092
700.3090985016833, 53.44267891357202
703.1677447479622, 53.41939683738311
706.0272325150671, 53.28026539413374
708.8860470655111, 53.23381344453274
711.7451982242858, 53.14102174810756
714.6028346455732, 53.25675891239121
717.461480891852, 53.2334768362023
720.3204637464613, 53.163855013189206
723.1792782969055, 53.11740306358821
726.0377562390191, 53.117290860811394
728.8965707894632, 53.070838911210394
731.7553853399072, 53.0243869616094
734.6136949778557, 53.04744463224468
737.4725095282998, 53.00099268264368
740.3304825579178, 53.07039010010314
743.1889605000315, 53.07027789732633
746.0476067463103, 53.046995821137415
748.9060846884239, 53.0468836183606
751.7650675430332, 52.977261795347516
754.6238820934773, 52.930809845746516
757.4820234272605, 52.977037389793885
760.3410062818698, 52.9074155667808
763.1994842239834, 52.90730336400399
766.0582987744275, 52.86085141440298
768.9174499332021, 52.7680597179778
771.7750863544895, 52.88379688226145
774.6337326007684, 52.86051480607254
777.492210542882, 52.860402603295725
780.3506884849957, 52.86029040051891
783.2101762521006, 52.721158957269544
786.0686541942143, 52.72104675449273
788.9279736571541, 52.60508518465546
791.7869565117634, 52.535463361642364
794.6452661497117, 52.55852103227764
797.5044173084864, 52.46572933585246
800.3644099880869, 52.257088272366815
803.2235611468615, 52.16429657594163
806.0822073931404, 52.14101449975272
808.9408536394192, 52.117732423563815
811.8000047981938, 52.024940727138635
814.6601657819596, 51.79312979024089
817.5198218532298, 51.630828473579435
820.3796462286651, 51.445357283505885
823.2387973874396, 51.35256558708069
826.0974436337185, 51.32928351089179
828.9570997049888, 51.16698219423033
831.8155776471024, 51.16686999145351
834.6742238933812, 51.143587915264604
837.5338799646514, 50.98128659860315
840.3920212984347, 51.02751414265052
843.2503309363831, 51.05057181328579
846.1089771826619, 51.027289737096886
848.9667819081147, 51.11985702796845
851.8261013710544, 51.00389545813117
854.684579313168, 51.00378325535436
857.5430572552816, 51.003671052577545
860.4010302848997, 51.073068470037
863.2593399228481, 51.09612614067228
866.1179861691269, 51.07284406448338
868.9754542862493, 51.21175110217912
871.8341005325282, 51.18846902599021
874.6925784746418, 51.1883568232134
877.5508881125901, 51.21141449384868
880.4081879255473, 51.3734914049565
883.2658243468348, 51.489228569240154
886.123965680618, 51.53545611328753
888.9804239727489, 51.813382391455825
891.8389019148626, 51.813270188679006
894.697211552811, 51.83632785931429
897.5538381491073, 52.09108426407049
900.4111379620643, 52.25316117517832
903.2691109916824, 52.32255859263778
906.1264108046394, 52.48463550374562
908.9823641842747, 52.832071402150184
911.8401689097275, 52.92463869302175
914.697805331015, 53.04037585730539
917.5537587106503, 53.38781175570997
920.4102170027813, 53.66573803387826
923.267180207408, 53.87415469181028
926.1244800203651, 54.036231602918114
928.9819481374874, 54.17513864061385
931.838069821288, 54.499404665606335
934.695369634245, 54.661481576714166
937.5521645347064, 54.89306810805827
940.4081179143418, 55.24050400646285
943.2650811189685, 55.44892066439487
946.1213711069342, 55.75001681597526
948.9783343115608, 55.95843347390727
951.8347926036919, 56.236359752075565
954.692092416649, 56.3984366631834
957.5497288379365, 56.51417382746705
960.4070286508935, 56.67625073857488
963.2633186388593, 56.97734689015527
966.1204501476512, 57.16259367467519
968.977581656443, 57.34784045919512
971.8347131652349, 57.533087243715045
974.6918446740268, 57.71833402823497
977.548471270323, 57.97309043299117
980.4057710832801, 58.135167344099
983.2627342879068, 58.34358400203103
986.1200341008639, 58.505660913138854
988.9771656096558, 58.69090769765878
991.8341288142824, 58.8993243555908
994.6915969314048, 59.038231393286544
997.5488967443619, 59.20030830439437
1000.4053550364928, 59.47823458256267
1003.261981632789, 59.73299098731887
1006.122563376968, 59.4432553668909
1008.9786009086858, 59.77910632858943
1011.8360690258081, 59.91801336628517
1014.6920224054435, 60.265449264689735
1017.5486490017397, 60.52020566944594
1020.4057805105316, 60.70545245396587
1023.2640901484799, 60.72851012460115
1026.1210533531068, 60.93692678253316
1028.977679949403, 61.19168318728937
1031.8366628040121, 61.12206136427628
1034.6937943128041, 61.3073081487962
1037.5512624299265, 61.44621518649194
1040.4094037637096, 61.49244273053932
1043.2667035766667, 61.65451964164714
1046.1255181271108, 61.60806769204615
1048.9833228525636, 61.700634982917705
1051.8421374030077, 61.654183033316706
1054.7017934742778, 61.49188171665524
1057.5607763288872, 61.42225989364215
1060.4192542710007, 61.42214769086534
1063.0407599484831, 61.252132433297916
1066.1372199802192, 61.28290404483916
1068.997380963985, 61.05109310794142
1071.8578785560812, 60.772942424219494
1074.7175346273516, 60.61064110755803
1077.5785371319437, 60.26298080359983
1080.4400445490312, 59.845810879405356
1083.0593061709776, 59.984727267332495
1086.158851779076, 59.59071786631871
1089.0183395461809, 59.451586423069344
1091.8793420507727, 59.10392611911114
1094.7395030345388, 58.8721151822134
1097.6006738432957, 58.50128500484311
1100.4613397395574, 58.1999644477091
1103.32301546081, 57.75962465010252
1106.1850277903934, 57.27294510567177
1108.805579744273, 57.234225797439535
1111.905349757925, 56.80932323187629
1114.7660156541867, 56.50800267474228
1117.6265132462831, 56.229851991020354
1120.4878523592054, 55.835851940237966
1123.3486865596321, 55.51136150969186
1126.209520760059, 55.18687107914575
1129.070691568816, 54.816040901775466
1131.9313574650776, 54.51472034464145
1134.791602600926, 54.27132447103766
1137.6518477367745, 54.02792859743388
1140.5123453288709, 53.74977791371195
1143.3731795292974, 53.425287483165846
1146.2335088172285, 53.170306672856015
1149.093164888499, 53.00800535619455
1151.9531575680994, 52.79936429270891
1154.8141600726913, 52.45170398875071
1157.6734795356313, 52.33574241891343
1160.5333039110665, 52.15027122883988
1163.3944747198236, 51.77944105146958
1166.2536258785983, 51.6866493550444
1169.1121038207118, 51.68653715226758
1171.970918371156, 51.64008520266659
1174.8310793549217, 51.40827426576885
1177.6907354261918, 51.24597294910739
1180.5495499766362, 51.19952099950639
1183.4085328312453, 51.129899176493296
1186.2688621191764, 50.87491836618347
1189.1283498862815, 50.735786922934096
1191.988342565882, 50.52714585944845
1194.8461472913348, 50.61971315032001
1197.7051301459442, 50.550091327306916
1200.565459433875, 50.295110516997084
1203.4252838093105, 50.109639326923535
1206.2839300555893, 50.08635725073463
1209.1420713893726, 50.132584794782
1212.0020640689734, 49.923943731296355
1214.8603737069216, 49.94700140193164
1217.7183467365396, 50.01639881939109
1220.3401890223524, 49.80004381499948
1223.4353026207668, 50.01617441383747
1226.2936122587153, 50.039232084472744
1229.1522585049943, 50.01595000828384
1232.010231534612, 50.0853474257433
1234.8698876058825, 49.923046109081845
1237.490720066704, 49.84571034516278
1240.5870117942748, 49.89965183011612
1243.4464995613798, 49.76052038686675
1246.304640895163, 49.80674793091412
1249.162613924781, 49.87614534837358
1252.02126017106, 49.85286327218468
1254.8795698090082, 49.87592094281995
1257.7367013178002, 50.06116772733988
1260.59602078074, 49.94520615750261
1263.4560134603405, 49.73656509401696
1266.3155012274456, 49.59743365076759
1269.1744840820547, 49.5278118277545
1272.0327937200032, 49.55086949838978
1274.892113182943, 49.4349079285525
1277.7500862125607, 49.50430534601197
1280.607386025518, 49.6663822571198
1283.4633394051534, 50.013818155524376
1286.3221539555973, 49.96736620592337
1289.1809685060416, 49.920914256322376
1292.0435699002032, 49.3531401549493
1294.8991025194252, 49.758500736884095
1297.756065724052, 49.966917394816114
1300.6145436661654, 49.9668051920393
1303.4736948249401, 49.874013495614115
1306.3331825920452, 49.734882052364746
1309.1914922299934, 49.75793972300003
1312.0496335637768, 49.804167267047404
1314.9072699850644, 49.91990443133105
1317.765916231343, 49.89662235514214
1320.6247307817873, 49.85017040554114
1323.4833770280661, 49.826888329352236
1326.3410134493536, 49.94262549363589
1329.199323087302, 49.96568316427116
1332.0571278127547, 50.05825045514271
1334.9159423631988, 50.01179850554172
1337.7749252178082, 49.94217668252863
1340.6345812890784, 49.77987536586717
1343.4922177103658, 49.895612530150814
1346.3495175233231, 50.057689441258646
1349.2079954654366, 50.057577238481834
1352.0658001908894, 50.15014452935339
1354.9246147413335, 50.10369257975239
1357.7841025084383, 49.96456113650302
1360.641738929726, 50.080298300786666
1363.5003851760048, 50.05701622459776
1366.3588631181185, 50.05690402182095
1369.217845972728, 49.98728219880786
1372.0763239148414, 49.98716999603104
1374.9339603361288, 50.10290716031469
1377.7927748865732, 50.05645521071369
1380.6512528286867, 50.056343007936874
1383.5090575541394, 50.14891029880844
1386.3673671920878, 50.17196796944371
1389.2260134383666, 50.148685893254815
1392.084996292976, 50.079064070241714
1394.9429693225939, 50.148461487701184
1397.8002691355512, 50.310538398809015
