200, 0.026012008951321386
200.5, 0.025925041913893665
201, 0.02600129025595932
201.5, 0.026322202099307246
202, 0.02608878690099703
202.5, 0.02459650125818358
203, 0.02290435794065626
203.5, 0.022329084185513937
204, 0.02240210659258779
204.5, 0.02217028653783526
205, 0.02174079312087862
205.5, 0.02158407387897998
206, 0.021655895146307613
206.5, 0.021701475509950607
207, 0.02168328412097731
207.5, 0.021670059510623285
208, 0.021674617064889046
208.5, 0.02167843581388562
209, 0.021677309842786596
209.5, 0.021676186560893762
210, 0.02167645326975831
210.5, 0.021676880321029546
211, 0.021676855652945193
211.5, 0.021676350075554796
212, 0.02167616953000495
212.5, 0.021677685080077058
213, 0.021678564582734206
213.5, 0.021673261829958324
214, 0.02166943835935975
214.5, 0.02168815784392286
215, 0.02170425640099194
215.5, 0.021636139514000674
216, 0.021460708136609608
216.5, 0.021240031917653557
217, 0.021042411911656678
217.5, 0.02093556205365099
218, 0.020933470391468312
218.5, 0.02095845315444944
219, 0.020959421462172667
219.5, 0.02095346552344446
220, 0.020954519786511416
220.5, 0.020953208054278916
221, 0.020947014944191045
221.5, 0.020957234706874606
222, 0.020981892495927634
222.5, 0.020946235269425406
223, 0.020796680151405122
223.5, 0.020582065383317527
224, 0.02037075725847437
224.5, 0.020231021356757584
225, 0.0202047842456321
225.5, 0.02023077555164554
226, 0.020238883987723888
226.5, 0.020232038835591992
227, 0.020229568829254196
227.5, 0.020231360133228016
228, 0.020232101813317693
228.5, 0.020231636933362718
229, 0.020231422600857196
229.5, 0.020231540279495364
230, 0.020231579350134976
230.5, 0.02023155484513306
231, 0.020231632124425025
231.5, 0.020231628026839088
232, 0.02023128142437558
232.5, 0.020231283012492107
233, 0.020232562246050634
233.5, 0.020232694250647554
234, 0.020228056522982096
234.5, 0.020227054552844237
235, 0.02024377609097172
235.5, 0.020249313102207567
236, 0.02018929944656711
236.5, 0.02016233206633855
237, 0.020387985230087335
237.5, 0.02079176588647591
238, 0.021019032280004457
238.5, 0.020992725987683647
239, 0.02094529607976381
239.5, 0.020961229225857636
240, 0.020930526897229296
240.5, 0.020882914025582844
241, 0.021048413733560145
241.5, 0.021441839639709137
242, 0.021734822601411574
242.5, 0.021755684715526136
243, 0.021644298272959328
243.5, 0.02157705845698732
244, 0.021741810601541456
244.5, 0.02214693575773552
245, 0.02242029741452556
245.5, 0.02238292109155815
246, 0.022427369023933164
246.5, 0.022800511516037014
247, 0.023140337815946488
247.5, 0.023163379676038542
248, 0.023123949068997396
248.5, 0.023269935127282038
249, 0.023485540913376624
249.5, 0.023639362049117985
250, 0.0238365802190591
250.5, 0.02418378132032939
251, 0.024546264652965166
251.5, 0.024768009374836808
252, 0.024911465671508592
252.5, 0.025083661080428588
253, 0.025265025681231013
253.5, 0.025411118234747287
254, 0.02559898077981715
254.5, 0.025926570625913525
255, 0.026298780277428158
255.5, 0.026555454273567425
256, 0.026701879992433675
256.5, 0.02682505214637465
257, 0.027010326512250882
257.5, 0.027328416405001166
258, 0.027702524742804213
258.5, 0.02797566908066218
259, 0.02813169480559452
259.5, 0.02825287101827556
260, 0.028425474113720206
260.5, 0.028729578822816126
261, 0.02910703391156555
261.5, 0.029387888972894127
262, 0.029548501630874635
262.5, 0.02970558301807058
263, 0.02989164480874107
263.5, 0.030046123728904472
264, 0.03019763536959741
264.5, 0.030482238579544907
265, 0.030874338024378334
265.5, 0.031128421108673976
266, 0.0311394978057572
266.5, 0.031033325634277742
267, 0.030973046492075107
267.5, 0.031150864073358764
268, 0.03155909073272578
268.5, 0.03181708153277607
269, 0.03177309951498575
269.5, 0.03183216630515162
270, 0.03221317438455851
270.5, 0.03254198081201065
271, 0.032558102374110276
271.5, 0.032518166584954655
272, 0.032655842437632865
272.5, 0.03289093820035249
273, 0.0331043659040291
273.5, 0.033239198929797875
274, 0.03326963812893413
274.5, 0.03323847764798371
275, 0.03320530124597976
275.5, 0.03323239913149012
276, 0.033366434568068426
276.5, 0.033575060807435775
277, 0.03379767747209517
277.5, 0.03394947339089127
278, 0.033965105786355476
278.5, 0.0339517876493054
279, 0.03405925315033054
279.5, 0.03426875763080883
280, 0.03449105969735722
280.5, 0.03465592431444875
281, 0.03471163646316644
281.5, 0.034691755192699625
282, 0.03467147502008039
282.5, 0.03467608926485943
283, 0.03469793628324602
283.5, 0.034699850630960705
284, 0.034635758221169155
284.5, 0.034617580573762075
285, 0.0348590258237923
285.5, 0.03526179681643493
286, 0.03547605491854777
286.5, 0.035444451390754916
287, 0.03538719524937317
287.5, 0.035394315166807244
288, 0.03540903822501129
288.5, 0.03540654631458362
289, 0.03540699250995416
289.5, 0.035411849968559395
290, 0.035395797127447226
290.5, 0.0353769145410705
291, 0.03543818600397086
291.5, 0.035609550627804354
292, 0.035826561270509094
292.5, 0.036023422609960054
293, 0.03614772944124223
293.5, 0.036171045690037484
294, 0.03611104114450914
294.5, 0.036043951105337646
295, 0.036166585300313914
295.5, 0.03654582169596354
296, 0.036872239028308385
296.5, 0.036915643389232145
297, 0.03684708869899156
297.5, 0.03684136599723786
298, 0.03684996120424311
298.5, 0.03681975866315357
299, 0.036848792125533936
299.5, 0.03701967199483547
300, 0.03720453119882028
300.5, 0.03725856893530466
301, 0.0372174108368003
301.5, 0.03716915711174973
302, 0.03719709326210119
302.5, 0.03735709445776869
303, 0.03754769274516123
303.5, 0.037627664798153604
304, 0.0375914609714364
304.5, 0.0375032565390927
305, 0.03752361768114165
305.5, 0.037820535912554076
306, 0.038212963260580435
306.5, 0.03836813124957106
307, 0.0383164355345319
307.5, 0.03828864729769432
308, 0.038304132972954985
308.5, 0.0382537914203579
309, 0.038233294257309036
309.5, 0.03847307890079754
310, 0.03887668127874111
310.5, 0.039088620099328675
311, 0.039055189045555716
311.5, 0.03900313340244932
312, 0.0390138034184041
312.5, 0.039010416399866465
313, 0.038993926569314996
313.5, 0.039061046229258545
314, 0.03923914852139343
314.5, 0.03946007856971667
315, 0.03965478064341488
315.5, 0.039762529872729546
316, 0.03976820270993631
316.5, 0.03972843226610856
317, 0.03970640782179069
317.5, 0.039765289479420485
318, 0.03992949769764975
318.5, 0.04014607020064498
319, 0.040350719107976385
319.5, 0.04047446946112654
320, 0.0404875828705763
320.5, 0.04046071394029682
321, 0.04045548243275754
321.5, 0.040463756479816815
322, 0.040468392542859055
322.5, 0.04046272440974774
323, 0.04045013280355125
323.5, 0.04046280730966778
324, 0.0405087356713425
324.5, 0.04046993433188617
325, 0.040261629216788775
325.5, 0.040103154196125756
326, 0.04022406330746009
326.5, 0.040443489058568205
327, 0.04050103133066851
327.5, 0.04046492858880335
328, 0.040489297829683135
328.5, 0.04048579602563607
329, 0.04030563403751608
329.5, 0.04011465491745392
330, 0.04018383637414946
330.5, 0.0404098268739248
331, 0.040517398795439474
331.5, 0.04048407322594583
332, 0.04043250555658817
332.5, 0.04043751144838259
333, 0.040538045518992094
333.5, 0.0407273912199525
334, 0.04096280230439231
334.5, 0.04115129575244647
335, 0.04117130754303411
335.5, 0.041129998076137375
336, 0.04132901095088315
336.5, 0.0417347761936715
337, 0.0419763851075633
337.5, 0.04195459099845433
338, 0.04189061535563232
338.5, 0.04189419846598175
339, 0.041913639064823704
339.5, 0.041914975389440445
340, 0.0419037192403755
340.5, 0.04189603611307957
341, 0.041919547483959985
341.5, 0.04195025915723749
342, 0.0418728412249465
342.5, 0.04167011758438688
343, 0.041534857259869495
343.5, 0.0415543204682991
344, 0.04153040551550358
344.5, 0.04134516481479733
345, 0.041172444252689955
345.5, 0.04114943275899774
346, 0.04118810537942352
346.5, 0.04119552470646981
347, 0.04118537235594766
347.5, 0.041183610670658455
348, 0.04118568050918514
348.5, 0.04118391573202518
349, 0.04118538085403467
349.5, 0.04119463390699163
350, 0.04118797961544052
350.5, 0.04115260633590845
351, 0.041173282947215895
351.5, 0.041333387631938834
352, 0.04152451852464045
352.5, 0.04159416695621965
353, 0.041559374243814284
353.5, 0.041506500432452964
354, 0.04152217637480804
354.5, 0.041674424229248386
355, 0.04186905703547805
355.5, 0.04194590943667642
356, 0.04191980171090526
356.5, 0.04189921632442406
357, 0.04190583778966417
357.5, 0.041907205874812004
358, 0.04190446354778077
358.5, 0.04192037592115316
359, 0.04192702318093999
359.5, 0.04186406061241088
360, 0.041833925785132564
360.5, 0.04207102675203511
361, 0.042483230227111535
361.5, 0.042662945326427226
362, 0.04260136421939187
362.5, 0.04273666035233925
363, 0.04314220890109355
363.5, 0.04341719094712404
364, 0.04340747405448442
364.5, 0.043337905511248054
365, 0.043339342074840914
365.5, 0.043355724701574894
366, 0.04335214280040922
366.5, 0.043357201462600914
367, 0.04337298400724776
367.5, 0.04333890708038268
368, 0.04327606855623101
368.5, 0.0433967978401808
369, 0.0437770440239158
369.5, 0.04410181917478406
370, 0.0441434146479156
370.5, 0.044070981251582486
371, 0.044056875484211555
371.5, 0.04407667814567395
372, 0.0440824539203738
372.5, 0.044075860950449686
373, 0.04406933671461244
373.5, 0.04407529307120961
374, 0.04409503010265303
374.5, 0.04408029692771975
375, 0.044007972943072904
375.5, 0.044051821298087046
376, 0.04437847207711898
376.5, 0.04475761971432424
377, 0.04487719499889331
377.5, 0.044813090077111206
378, 0.04477323862599458
378.5, 0.04479071445119531
379, 0.04481956958510436
379.5, 0.04481321640982172
380, 0.04474200715389054
380.5, 0.044743427167652006
381, 0.045018487674879704
381.5, 0.04541717608632179
382, 0.045593193079287775
382.5, 0.04554693126566611
383, 0.04551317755636064
383.5, 0.045529535940626475
384, 0.04548458136237421
384.5, 0.045455181567161884
385, 0.04567374146054615
385.5, 0.046076595629310324
386, 0.04631466547076446
386.5, 0.04629495157908037
387, 0.046214627904578864
387.5, 0.04620320547193957
388, 0.04628931137190562
388.5, 0.04646475681672679
389, 0.04667957236836606
389.5, 0.04687558361934763
390, 0.046987296153015334
390.5, 0.04699456500326171
391, 0.04695493626361791
391.5, 0.04693226445519849
392, 0.04698796550324624
392.5, 0.04714870815306582
393, 0.04736804518510995
393.5, 0.047580145324660594
394, 0.04769532547438704
394.5, 0.04768525000931212
395, 0.04769516710936894
395.5, 0.04784083331419964
396, 0.04806206737444718
396.5, 0.04827289386811695
397, 0.048412235446185226
397.5, 0.0484445636701718
398, 0.048412540336365883
398.5, 0.04837814345421998
399, 0.04840526893596531
399.5, 0.048541130341337
400, 0.04874768273353858
400.5, 0.04896085191342048
401, 0.0491184073472366
401.5, 0.04917062700224084
402, 0.04914356574547729
402.5, 0.04909627647768999
403, 0.04911109223973409
403.5, 0.049261020579872694
404, 0.04945593819705174
404.5, 0.049540788564303107
405, 0.04951372156444045
405.5, 0.049458585471175875
406, 0.049462260937656155
406.5, 0.0496011589708083
407, 0.04980006056399677
407.5, 0.049889683811765284
408, 0.049868059296432676
408.5, 0.04985795155849648
409, 0.0498695449191765
409.5, 0.04982047761237829
410, 0.04978801118133491
410.5, 0.04999549905760403
411, 0.05039580563490986
411.5, 0.050652333984831044
412, 0.05064576966827872
412.5, 0.05053358496587834
413, 0.05048922465092731
413.5, 0.050682020044171106
414, 0.0510795263242797
414.5, 0.0513525402977103
415, 0.05135595910959834
415.5, 0.05128947472175216
416, 0.051287528193305176
416.5, 0.05130321706141683
417, 0.051300073050987494
417.5, 0.05130424617725027
418, 0.051321498750176664
418.5, 0.05129187221966547
419, 0.05122329784064783
419.5, 0.051326624327805326
420, 0.0517036232056266
420.5, 0.052035365731472605
421, 0.052067925172197826
421.5, 0.05202445348202667
422, 0.05214803477679042
422.5, 0.05237969666730302
423, 0.052600575452121934
423.5, 0.052741540817199395
424, 0.05276789214476296
424.5, 0.05274742006694455
425, 0.05275710066243844
425.5, 0.05275338348651293
426, 0.05268507084127838
426.5, 0.05271134219286233
427, 0.05301845133718408
427.5, 0.053406853485190586
428, 0.053553474320065186
428.5, 0.05349359617568927
429, 0.05342590683254411
429.5, 0.05344183944131742
430, 0.05356741221665473
430.5, 0.05376101266667377
431, 0.05394588912419984
431.5, 0.05411752682119264
432, 0.05431566275128075
432.5, 0.054501202779225655
433, 0.05458044771596915
433.5, 0.05456464159363417
434, 0.05455142750733155
434.5, 0.054559548372881794
435, 0.05453421066790276
435.5, 0.054512540001840915
436, 0.05462611916017379
436.5, 0.054838337108683466
437, 0.05491596000118537
437.5, 0.054863659273219345
438, 0.05500679198256886
438.5, 0.05540380366654296
439, 0.05569467438771014
439.5, 0.05570451507844165
440, 0.055613969986427536
440.5, 0.05558237918296771
441, 0.05567010092472402
441.5, 0.055863109164915103
442, 0.056017149485741324
442.5, 0.056039067290790334
443, 0.05598932250240196
443.5, 0.055951266871191785
444, 0.0560119636108829
444.5, 0.05619912330310517
445, 0.05636627432386765
445.5, 0.0563945046874228
446, 0.056358595144934354
446.5, 0.05634796978264223
447, 0.05635912701777013
447.5, 0.05636872595286935
448, 0.056360659421360926
448.5, 0.05633411229077345
449, 0.05635202079399548
449.5, 0.05647916882328419
450, 0.056688038098632654
450.5, 0.05691545741262449
451, 0.05706971747634215
451.5, 0.057077162673856985
452, 0.05706550251844511
452.5, 0.05721259564068193
453, 0.05741215984277448
453.5, 0.05745442302866055
454, 0.05742730354893433
454.5, 0.05755128257675912
455, 0.05775776784779618
455.5, 0.05782544368593767
456, 0.05779555385011603
456.5, 0.05787339615734044
457, 0.058073886686623166
457.5, 0.05827296632519163
458, 0.058442193220797134
458.5, 0.058632071068528524
459, 0.05882104851698844
459.5, 0.05892127731720831
460, 0.05891566089119238
460.5, 0.0588635917110657
461, 0.05884417090515359
461.5, 0.05895186364657623
462, 0.05915629143913925
462.5, 0.05926849591534611
463, 0.059247049459670964
463.5, 0.05927564239589389
464, 0.05944609739994444
464.5, 0.05967526484688379
465, 0.05987679152623848
465.50000000000006, 0.059987099806000255
466, 0.05999174101953042
466.50000000000006, 0.05996991823771203
467, 0.0599737104054785
467.50000000000006, 0.05996906769054
468, 0.059945569151014566
468.50000000000006, 0.05998230533455373
469, 0.060134507360443346
469.50000000000006, 0.060349667381513705
470, 0.060558265126601896
470.50000000000006, 0.06069739487614234
471, 0.0607282788114315
471.50000000000006, 0.06069512416631895
472, 0.060661170975240486
472.50000000000006, 0.06069031185996021
473, 0.060828308635413775
473.50000000000006, 0.061035535014852704
474, 0.061247939967090326
474.50000000000006, 0.06140391166802606
475, 0.061454951899824084
475.50000000000006, 0.06142648341788737
476, 0.06137615482352565
476.50000000000006, 0.06139419168345828
477, 0.06155900657366198
477.50000000000006, 0.061750693569040505
478, 0.061787085335455516
478.50000000000006, 0.06176219141942896
479, 0.061888156098929725
479.50000000000006, 0.06209389426929246
480, 0.06216228577263849
480.50000000000006, 0.06213292926351344
481, 0.062203539901979354
481.50000000000006, 0.062402183103214104
482, 0.06263134349259258
482.50000000000006, 0.06281203843420402
483, 0.06288673393072242
483.5, 0.06287416044694172
484, 0.06285948293037458
484.5, 0.06286556062736348
485, 0.06285143994403142
485.5, 0.06283597210623593
486, 0.06290720089984658
486.5, 0.06308606547350826
487, 0.06330408983092572
487.5, 0.06349629722940076
488, 0.06361116484592155
488.5, 0.06362547289494946
489, 0.06355971351914647
489.5, 0.06350197023730253
490, 0.06365113358321572
490.5, 0.06403898453894274
491, 0.0643467127695011
491.5, 0.06437760841840534
492, 0.06429507254030076
492.5, 0.06426194767814719
493, 0.06432011390018588
493.5, 0.06447568155171268
494, 0.06468631914467637
494.5, 0.0648961412922544
495, 0.06503300054777095
495.5, 0.0650537395292522
496, 0.06503006594862903
496.5, 0.06503348012177079
497, 0.06503119688815495
497.5, 0.06499291297766019
498, 0.06502010339058595
498.5, 0.06520332544435892
499, 0.06538134480566582
499.5, 0.06537407141793783
500.00000000000006, 0.06536900922588995
500.5, 0.06563010602488639
501.00000000000006, 0.06603620295851809
501.5, 0.06633367689041747
502.00000000000006, 0.0664645936307876
502.5, 0.06646950342871272
503.00000000000006, 0.06645954311350255
503.5, 0.06656667924643145
504.00000000000006, 0.06676778085659829
504.5, 0.0669580349151575
505.00000000000006, 0.06712814095272712
505.5, 0.06732493565286068
506.00000000000006, 0.06750959826196712
506.5, 0.06758745784327747
507.00000000000006, 0.067570924359044
507.5, 0.06755569821277141
508.00000000000006, 0.06756245988118714
508.5, 0.06754555294546216
509.00000000000006, 0.06753087665184354
509.5, 0.06761497537394179
510.00000000000006, 0.06780272007115451
510.5, 0.0679953857422162
511.00000000000006, 0.06816279972309613
511.5, 0.06836471949753664
512, 0.06857440668976456
512.5, 0.06864053968429795
513, 0.0685867365812225
513.5, 0.06871833270719341
514, 0.0691122261809094
514.5, 0.06941044204862223
515, 0.06942141910487509
515.5, 0.06935843247289974
516, 0.0693687453564592
516.5, 0.06935643345390563
517, 0.06929371745795188
517.5, 0.06939619979266087
518, 0.0697678163706571
518.5, 0.07010653276673451
519, 0.0701657919236841
519.5, 0.07008421518661556
520, 0.07003977863761268
520.5, 0.07008826430620718
521, 0.07024132718838527
521.5, 0.0704416387559843
522, 0.07062787212729793
522.5, 0.07079732320390109
523, 0.07096446565538184
523.5, 0.07114760488227923
524, 0.07135365134724458
524.5, 0.07151683052393909
525, 0.07156347567014798
525.5, 0.07153853247024733
526, 0.07152482425295181
526.5, 0.07153120793633583
527, 0.07153524719067816
527.5, 0.07153362569496347
528, 0.0715323414448592
528.5, 0.0715327472641758
529, 0.07153352420237968
529.5, 0.07153347305290747
530, 0.07153177798610977
530.5, 0.07153144269224365
531, 0.07153723286751668
531.5, 0.07153918819787586
532, 0.07151850527466552
532.5, 0.07150901993113168
533, 0.07158837772570181
533.5, 0.07177107462364585
534, 0.07200666584089221
534.5, 0.07220642459319526
535, 0.07224830205549948
535.5, 0.07219997490726093
536, 0.07235662232113305
536.5, 0.07275162524034107
537, 0.07304629368424598
537.5, 0.07306647367727259
538, 0.07292823353324163
538.5, 0.07274414156481934
539, 0.07257979897577882
539.5, 0.07251696911789174
540, 0.07267603622774077
540.5, 0.07305448237505163
541, 0.07337925233043319
541.5, 0.07344832989429351
542, 0.07331249766981829
542.5, 0.07308955861074351
543, 0.07297812101740031
543.5, 0.07310696978757336
544, 0.07335212930414658
544.5, 0.07356837962787444
545, 0.0737014968944717
545.5, 0.07373230710541012
546, 0.07370201991101011
546.5, 0.07366804584157904
547, 0.07369461140639977
547.5, 0.07383033872803624
548, 0.07403682529388889
548.5, 0.0742493660997291
549, 0.0744073842884011
549.5, 0.07446241750734228
550, 0.07443447233908285
550.5, 0.07437737106840692
551, 0.07439444002657725
551.5, 0.07458009813978728
552, 0.07477030973932419
552.5, 0.07470821381650739
553, 0.07448346462622513
553.5, 0.07436043059358044
554, 0.07439052890406261
554.5, 0.07449687337471123
555, 0.07467813761824005
555.5, 0.07498059427095316
556, 0.07535263155755556
556.5, 0.07566819830460236
557, 0.07584515431932659
557.5, 0.07584874872783631
558, 0.07580913866738626
558.5, 0.07600279537732368
559, 0.07640456815368635
559.5, 0.07666514272977121
560, 0.07665847892389133
560.5, 0.07654580747191764
561, 0.07650174998102266
561.5, 0.07669252594007336
562, 0.07708788350029805
562.5, 0.07736762292066768
563, 0.07737961098571422
563.5, 0.0772911301111836
564, 0.07725632405020699
564.5, 0.07734787021395284
565, 0.07755072593849954
565.5, 0.0776855022819899
566, 0.07766840322795865
566.5, 0.07768814157071835
567, 0.0778669494771359
567.5, 0.07804851320973138
568, 0.07809100778216971
568.5, 0.07803097730923125
569, 0.07795944708016656
569.5, 0.07803955978031041
570, 0.07837055782996882
570.5, 0.07875087461327568
571, 0.07897276360276162
571.5, 0.07911011710724569
572, 0.07928270589784103
572.5, 0.07946407828067581
573, 0.07960756002810576
573.5, 0.07980108302046429
574, 0.08014338577724711
574.5, 0.08050992093757503
575, 0.08072605164358626
575.5, 0.08087863782545779
576, 0.08114703808645995
576.5, 0.08153372112099366
577, 0.08195230308163604
577.5, 0.08229685011574084
578, 0.08247316804902272
578.5, 0.0826274788142255
579, 0.0830268883366625
579.5, 0.08360386479578674
580, 0.08407669275901841
580.5, 0.08440411552077165
581, 0.0847263267918753
581.5, 0.08508704817005819
582, 0.08544553863108417
582.5, 0.08579547923496544
583, 0.08616855384993038
583.5, 0.0866668595334239
584, 0.08745617832762387
584.5, 0.08841229731068867
585, 0.0890754500615869
585.5, 0.08937664701806991
586, 0.08978060722672998
586.5, 0.09049214311000187
587, 0.0912829952132932
587.5, 0.09199927030448884
588, 0.09266564733975302
588.5, 0.09334290410240009
589, 0.09412710156756898
589.5, 0.09503093617518499
590, 0.0958886218941698
590.5, 0.09660346354114802
591, 0.09728835246570589
591.5, 0.09808214200281007
592, 0.09911469319733546
592.5, 0.10039530579054123
593, 0.10158547359276326
593.5, 0.10240527366277763
594, 0.10297617319135599
594.5, 0.10352826770617352
595, 0.10438867793122808
595.5, 0.10575987008816079
596, 0.10722223702456157
596.5, 0.10830088334056887
597, 0.1090420220640651
597.5, 0.10962682667748402
598, 0.1101242622876959
598.5, 0.11058144648473678
599, 0.11114421445477518
599.5, 0.11195619163139525
600, 0.11288195783564192
600.5, 0.11369210510895023
601, 0.11436128043109828
601.5, 0.11495503600583767
602, 0.11547146096581262
602.5, 0.11587866077830633
603, 0.11621542908760973
603.5, 0.11655798745652979
604, 0.11691680357346945
604.5, 0.11726118974128019
605, 0.11761016487875842
605.5, 0.1180129375881861
606, 0.11838722421100845
606.5, 0.11854996808912632
607, 0.11852055847862397
607.5, 0.11850308613241156
608, 0.11852673577352513
608.5, 0.11843666281583587
609, 0.11823402004289518
609.5, 0.11810720718742096
610, 0.11811593336055459
610.5, 0.11813960794526834
611, 0.11802557222480958
611.5, 0.11759508901567861
612, 0.1168630141183522
612.5, 0.11615793240648387
613, 0.11572568913680592
613.5, 0.11561110878240599
614, 0.11569001188804495
614.5, 0.11554115410691812
615, 0.11498509772354626
615.5, 0.11446921013235967
616, 0.11428898811554
616.5, 0.11413526557656783
617, 0.11376916292437789
617.5, 0.11342408383056535
618, 0.1132795732448334
618.5, 0.11306936620715491
619, 0.11256452832842034
619.5, 0.11200163288648335
620, 0.11162799835017434
620.5, 0.11129487997570231
621, 0.11080818321547514
621.5, 0.1102417951028003
622, 0.10971640603640365
622.5, 0.10918431621343005
623, 0.10858136513943273
623.5, 0.10808041059727447
624, 0.10787830754066752
624.5, 0.10772895154600204
625, 0.10727037446595111
625.5, 0.10669166931047391
626, 0.10638804521382539
626.5, 0.10626821380360407
627, 0.10601362427344752
627.5, 0.10562388994369376
628, 0.10527166359383455
628.5, 0.10493139110426597
629, 0.10445867867481806
629.5, 0.10390201490200113
630, 0.10344421092047429
630.5, 0.10310918254763568
631, 0.10279027172300903
631.5, 0.10243539328101092
632, 0.10204804704100834
632.5, 0.10167905376173825
633, 0.10142181972893949
633.5, 0.10126221244453282
634, 0.10106267799006285
634.5, 0.100729202124062
635, 0.10023388837635971
635.5, 0.09966149229230503
636, 0.09924768312894983
636.5, 0.09907182310180562
637, 0.09894908112682332
637.5, 0.09876830693826288
638, 0.09858939066373706
638.5, 0.09843384700085422
639, 0.09821292916632751
639.5, 0.09787523477255933
640, 0.09748097384592502
640.5, 0.09710036824026702
641, 0.09679116299682755
641.5, 0.0965859974174964
642, 0.0964523418236547
642.5, 0.09632728686695147
643, 0.09608760735675892
643.5, 0.09568440708299653
644, 0.09537808527353386
644.5, 0.09537534576749473
645, 0.095383638778197
645.5, 0.09509177194322382
646, 0.09468506465396809
646.5, 0.09443371158777714
647, 0.09430734855403566
647.5, 0.09418434371353701
648, 0.09398024541276573
648.5, 0.0936458486907481
649, 0.09327736370083983
649.5, 0.09301452567855273
650, 0.09287110362259077
650.5, 0.09280718313152525
651, 0.0928244415087508
651.5, 0.09292714325815776
652, 0.0929253569180355
652.5, 0.09255192390029132
653, 0.09195849955364088
653.5, 0.09154693444310669
654, 0.09141049494241327
654.5, 0.09141562557631155
655, 0.09142941050833064
655.5, 0.0913306512462918
656, 0.09113432063862503
656.5, 0.09097125885850232
657, 0.09082037041878976
657.5, 0.0905119900322281
658, 0.0901081365005777
658.5, 0.08992854179006637
659, 0.08998170486511703
659.5, 0.08987709716081216
660, 0.08949714307913459
660.5, 0.08913637701642096
661, 0.08895239920330744
661.5, 0.08884289762682007
662, 0.08869743177440348
662.5, 0.08843108215508666
663, 0.08805155166231793
663.5, 0.08774095323056319
664, 0.08758001904312573
664.5, 0.08738523123859321
665, 0.08703797852445405
665.5, 0.08666353350261369
666, 0.08634416732780636
666.5, 0.08594277072156098
667, 0.08538158869989154
667.5, 0.08488394279583622
668, 0.08464274467984534
668.5, 0.0845388597538721
669, 0.08440925430820467
669.5, 0.08418892843674697
670, 0.08385733224458969
670.5, 0.08348434203058963
671, 0.08314184920454404
671.5, 0.08278205659348015
672, 0.08235671371253162
672.5, 0.0820356712662883
673, 0.08200419379161328
673.5, 0.08203286093205853
674, 0.08178474583068918
674.5, 0.08137596500629918
675, 0.08109647411840593
675.5, 0.08095824818032404
676, 0.08083569640977029
676.5, 0.08064929913311847
677, 0.08035342953862656
677.5, 0.07998221186664256
678, 0.07961544848128055
678.5, 0.07926651688769248
679, 0.07890399132028614
679.5, 0.07854446488830702
680, 0.07824370972779959
680.5, 0.07806218395860043
681, 0.07805548136975449
681.5, 0.07809820408148527
682, 0.0778983540679351
682.5, 0.0774895170225326
683, 0.07726203034650136
683.5, 0.07729767436633339
684, 0.07728209291697175
684.5, 0.07709184870249985
685, 0.07689545882147353
685.5, 0.07674717027837852
686, 0.0764964492159792
686.5, 0.07611467560204899
687, 0.07580919794094043
687.5, 0.07565716871043826
688, 0.07544419021585536
688.5, 0.0750689556543217
689, 0.0747416941705149
689.5, 0.0745806791741368
690, 0.07438707170031833
690.5, 0.07402793469711055
691, 0.0736745383848354
691.5, 0.07347219819591777
692, 0.07333184787836666
692.5, 0.07315669531920554
693, 0.07297677018038007
693.5, 0.07282324799882134
694, 0.07262526362065247
694.5, 0.07231217483856844
695, 0.07192421099008761
695.5, 0.07153172625947213
696, 0.07120269025116388
696.5, 0.07098679943179764
697, 0.07083424150167339
697.5, 0.07067036839442686
698, 0.07048654088019712
698.5, 0.07030005933324901
699, 0.07012617734346682
699.5, 0.0699726798128254
700, 0.06979241187685792
700.5, 0.06951721303534464
701, 0.06914173643072807
701.5, 0.06870518557384742
702, 0.06835010494327431
702.5, 0.0682595573933873
703, 0.0683042717930511
703.5, 0.06815441557603563
704, 0.06776414458911761
704.5, 0.06731114732506649
705, 0.0669460164864063
705.5, 0.06678428869091191
706, 0.06680433212105863
706.5, 0.06685526273308362
707, 0.06685695264765257
707.5, 0.06680993614608921
708, 0.06666370949667877
708.5, 0.06630470225869456
709, 0.06575483801610182
709.5, 0.06522168111351612
710, 0.06484028419929488
710.5, 0.06461642745625318
711, 0.06447393963880244
711.5000000000002, 0.06421873409574197
712, 0.06381686207239146
712.5, 0.06355439085194392
713, 0.06356239721023904
713.5000000000002, 0.0635731262266237
714, 0.06340525100530614
714.5, 0.06319957875536675
715, 0.06305442048235577
715.5000000000002, 0.0628323915401322
716, 0.06245382974257385
716.5, 0.06212727398049678
717, 0.061992128341270325
717.5000000000002, 0.06177284124382476
718, 0.06124378575103251
718.5, 0.06070514237035396
719, 0.06046788237217282
719.5000000000002, 0.06034555280246978
720, 0.06007313188024488
720.5, 0.059660414418537866
721, 0.05921382596327285
721.5000000000002, 0.05890939855716726
722, 0.058887477231460705
722.5, 0.058910777189254304
723, 0.05865681219645669
723.5000000000002, 0.058248939715541015
724, 0.05797229021212158
724.5, 0.05783488041400575
725, 0.05771271216949736
725.5000000000002, 0.05752513813435822
726, 0.057224167286717864
726.5, 0.056852207515045494
727, 0.056499118126923875
727.5000000000002, 0.05615277029721677
728, 0.05574197161996208
728.5, 0.055368072151959824
729, 0.055248478778674115
729.5000000000002, 0.05529600470569418
730, 0.05517241204234147
730.5, 0.054795194526562674
731, 0.054333247709733024
731.5000000000002, 0.05395232632015434
732, 0.05379833636680664
732.5, 0.05383026631744314
733, 0.053791347289877556
733.5000000000002, 0.053599094939309366
734, 0.053415016635405044
734.5, 0.053273095795901115
735, 0.052997496494002316
735.5000000000002, 0.05258815321515464
736, 0.05235943835950019
736.5, 0.0524018162697778
737, 0.05234126091345481
737.5000000000002, 0.05198323923963155
738, 0.05160566347487361
738.5, 0.05140920872801147
739.0000000000002, 0.051281067685006954
739.5, 0.051112455407683055
740, 0.050920074093307344
740.5, 0.05073469598643843
741.0000000000002, 0.05056925260263778
741.5, 0.05041636642470104
742, 0.05021214520540518
742.5, 0.049901161921307224
743.0000000000002, 0.049503553334088846
743.5, 0.049079322845912876
744, 0.048782542115264116
744.5, 0.04873385012132969
745.0000000000002, 0.04877318616836279
745.5, 0.04868975094665695
746, 0.04845540931609005
746.5, 0.048111814422972854
747.0000000000002, 0.0477492539467721
747.5, 0.04747039560038513
748, 0.047334264996103936
748.5, 0.04735723282352178
749.0000000000002, 0.04736322807605975
749.5, 0.04711878253419077
750, 0.04671815784143829
750.5, 0.046414925467407775
751.0000000000002, 0.046268600388670644
751.5, 0.04622153518377281
752, 0.04623114681663254
752.5, 0.046264701936500896
753.0000000000002, 0.04626860280103273
753.5, 0.04617715717487347
754, 0.045989566258127224
754.5, 0.04576103243847629
755.0000000000002, 0.04557104060674788
755.5, 0.045514419551832996
756, 0.04554229519026265
756.5, 0.04546102539377517
757.0000000000002, 0.04525696804981816
757.5, 0.04513015808607457
758, 0.045141546900042684
758.5, 0.04515602338087821
759.0000000000002, 0.04503150031721381
759.5, 0.04463768827335446
760, 0.04404536586495866
760.5, 0.04364642363460247
761.0000000000002, 0.04362517836642987
761.5, 0.04373847278284315
762, 0.04377610006901478
762.5, 0.04368570506001068
763.0000000000002, 0.043490184274431076
763.5, 0.04333992269250442
764, 0.043327690330451585
764.5, 0.04335422567332903
765.0000000000002, 0.0433411944183949
765.5, 0.043357387181971574
766, 0.04342739663389816
766.5, 0.043346742999027965
767.0000000000002, 0.042982247001388085
767.5, 0.04263349061923327
768, 0.04258336784746741
768.5, 0.042631737638402556
769.0000000000002, 0.04251839394499879
769.5, 0.04229204234160422
770, 0.042077819055484356
770.5, 0.041923518208420996
771.0000000000002, 0.04185173538363163
771.5, 0.04188824329052443
772, 0.042045525046706445
772.5, 0.04223601870836169
773.0000000000002, 0.04233887381560053
773.5, 0.04230363161938955
774, 0.042127642218867334
774.5000000000002, 0.041938417723559995
775, 0.04190657744029991
775.5, 0.04193275419303799
776, 0.041785116483118
776.5000000000002, 0.041573763308420886
777, 0.04161079440700144
777.5, 0.04183691155552738
778, 0.04193370224459214
778.5000000000002, 0.04189741693155846
779, 0.04197741430395918
779.5, 0.04218434639615043
780, 0.04230847015639716
780.5000000000002, 0.04229507639574637
781, 0.04225535464921604
781.5, 0.042252924856626906
782, 0.04228710763204757
782.5000000000002, 0.042309298947206586
783, 0.04221662507106583
783.5, 0.042017366733214545
784, 0.04188127143125986
784.5000000000002, 0.04188081568630053
785, 0.04191496198410938
785.5, 0.041916598316061204
786, 0.041906131996470974
786.5000000000002, 0.041903573892628
787, 0.04191024966625545
787.5, 0.04191813596684013
788, 0.04190337069048844
788.5000000000002, 0.041873673925096444
789, 0.041921210075649085
789.5, 0.042094342814946506
790, 0.042281074457505397
790.5000000000002, 0.042359077900491204
791, 0.042262618367924554
791.5, 0.04201339971322027
792, 0.041907668897617656
792.5000000000002, 0.0421863801464859
793, 0.04261279646547689
793.5, 0.042888134235102515
794, 0.04298954978918268
794.5000000000002, 0.04298321094588142
795, 0.04298445377842164
795.5, 0.04310230617879185
796, 0.043313021164821275
796.5000000000002, 0.0435418374983193
797, 0.043699354506010146
797.5, 0.04371407200879329
798, 0.043699216567899324
798.5000000000002, 0.043826873999092686
799, 0.04402965883550891
799.5, 0.04413002598709537
800, 0.0441027059249256
800.5000000000002, 0.044017873931822105
801, 0.04401625453219904
801.5, 0.04426433377226291
802, 0.044659838541942554
802.5000000000002, 0.04492245983717835
803, 0.045064727391708304
803.5, 0.045327851432894084
804, 0.04571260572499569
804.5000000000002, 0.046003687693447204
805, 0.046161765186013004
805.5, 0.046328600721701085
806, 0.04652510823503042
806.5000000000002, 0.04663018016570164
807, 0.04662078685375748
807.5, 0.046604603157681335
808.0000000000002, 0.04661742673840308
808.5000000000002, 0.04658485131887735
809, 0.04653672309953305
809.5, 0.046676311680642346
810.0000000000002, 0.047048482275871994
810.5000000000002, 0.04739677572691381
811, 0.04757725901359511
811.5, 0.04772425283298354
812.0000000000002, 0.04792043103318333
812.5, 0.04806523672669516
813, 0.048086852042217854
813.5, 0.04804373538564577
814.0000000000002, 0.04801145334257273
814.5, 0.04805849587462885
815, 0.04821838668961531
815.5, 0.04841918474472151
816.0000000000002, 0.04859482081008881
816.5, 0.04877253648107438
817, 0.04897571118264765
817.5, 0.0491299258270832
818.0000000000002, 0.04916446699688004
818.5, 0.04913607544316645
819, 0.04912335490164488
819.5, 0.04913208122711776
820.0000000000002, 0.04914415806152661
820.5, 0.049138119002503644
821, 0.04910396841222375
821.5, 0.04911571020684247
822.0000000000002, 0.04925956313303759
822.5, 0.04945611330711819
823, 0.049561538208424905
823.5, 0.049529499341302796
824.0000000000002, 0.04937184060559152
824.5, 0.049180784247083165
825, 0.04908505627443083
825.5, 0.04910589299766832
826.0000000000002, 0.04919967682061066
826.5, 0.049381025590613636
827, 0.049698961805831776
827.5, 0.050075485955582866
828.0000000000002, 0.050332958056627075
828.5, 0.05033771529708175
829, 0.05001126835026792
829.5, 0.04958256549873252
830.0000000000002, 0.04956563693632543
830.5, 0.0499838908887934
831, 0.05031375980338648
831.5, 0.050316780387823945
832.0000000000002, 0.05014027118271924
832.5, 0.04993884981385077
833, 0.04984254126131049
833.5, 0.04986254551610514
834.0000000000002, 0.049831801492413175
834.5, 0.04966393272428393
835, 0.049436545152941935
835.5, 0.049233576725352
836.0000000000002, 0.049120024358498826
836.5, 0.04911369742951499
837, 0.04913572621760898
837.5, 0.04913173177970431
838.0000000000002, 0.049136595965383334
838.5, 0.04916266591716356
839, 0.04912525927604228
839.5, 0.048966857739040415
840.0000000000002, 0.0487631843183699
840.5, 0.04858662886446752
841, 0.048409941394697786
841.5, 0.04820861106347185
842.0000000000002, 0.048053371455733074
842.5, 0.0480132940515956
843, 0.048046494902263315
843.5000000000002, 0.048082211274073194
844.0000000000002, 0.0480592122960426
844.5, 0.047931751149918544
845, 0.04772536554331508
845.5000000000002, 0.04749668805452001
846.0000000000002, 0.04734034508064744
846.5, 0.04733668850180883
847, 0.04734852005272083
847.5000000000002, 0.04718153334159925
848, 0.04698358216573717
848.5, 0.04703755496026718
849, 0.04726406239482139
849.5000000000002, 0.04739667817006221
850, 0.04736726974358041
850.5, 0.047233447828859965
851, 0.047046746028487574
851.5000000000002, 0.04685185011330251
852, 0.04667506559753287
852.5, 0.04652547283647701
853, 0.04635880606265841
853.5000000000002, 0.046088788148593296
854, 0.04572188031645408
854.5, 0.04535359602767741
855, 0.045008058670739315
855.5000000000002, 0.044630457953846125
856, 0.04425089727632192
856.5, 0.04400324296111957
857, 0.04386384045438507
857.5000000000002, 0.04359063976737021
858, 0.04307449295461363
858.5, 0.04243020610145376
859, 0.041828204865668295
859.5000000000002, 0.04149970701530681
860, 0.04150025657831913
860.5, 0.04154436070395229
861, 0.04141563043494645
861.5000000000002, 0.04112306873248628
862, 0.04074105941907191
862.5, 0.04043103336530918
863, 0.04026987071518662
863.5000000000002, 0.0400755917894301
864, 0.03971980746585502
864.5, 0.0393633582246643
865, 0.039154645712623615
865.5000000000002, 0.03901607752270975
866, 0.0388495066970973
866.5, 0.038661980276083585
867, 0.03848029497363936
867.5000000000002, 0.038307246710893694
868, 0.03813727048337501
868.5, 0.03795575766361914
869, 0.03775594375184199
869.5000000000002, 0.03759046845784775
870, 0.03749715343427962
870.5, 0.037288592026632705
871, 0.036758773630405805
871.5000000000002, 0.03620521602371063
872, 0.03606874052218423
872.5, 0.03614147030606152
873, 0.0359489610631234
873.5000000000002, 0.03553197095122285
874, 0.03519882195183066
874.5, 0.03505422029875038
875, 0.03506600982120123
875.5000000000002, 0.035085284309642306
876, 0.034898484291133514
876.5, 0.03451116143899402
877.0000000000002, 0.03409434242638698
877.5000000000002, 0.0337406506726452
878, 0.033471077823634565
878.5, 0.03329398386777738
879.0000000000002, 0.033207679523818645
879.5000000000002, 0.03320563344626182
880, 0.03327391284538983
880.5, 0.03331299525838838
881.0000000000002, 0.03312731412454961
881.5000000000002, 0.03273511363193793
882, 0.03244271949252664
882.5, 0.032415624875047344
883.0000000000002, 0.03258087651451058
883.5000000000002, 0.03280140539140397
884, 0.03286726520356076
884.5, 0.032698406931662816
885.0000000000002, 0.03246702523533174
885.5, 0.03229092091984476
886, 0.032118966163261264
886.5, 0.0319231753277428
887.0000000000002, 0.03177800137442044
887.5, 0.03174317450048192
888, 0.031801929271225826
888.5, 0.031880937993413405
889.0000000000002, 0.031776554544303504
889.5, 0.031392116186163
890, 0.031066752643310047
890.5, 0.031070697709675854
891.0000000000002, 0.03107333546309421
891.5, 0.030744942013374965
892, 0.030363031388720096
892.5, 0.030270181930305506
893.0000000000002, 0.030341250174786172
893.5, 0.030355816664037194
894, 0.030344289111851164
894.5, 0.030416440552125446
895.0000000000002, 0.030644149331104598
895.5, 0.031048679357384756
896, 0.03139583046938599
896.5, 0.031390695239123856
897.0000000000002, 0.031140327072972873
897.5, 0.030920474543331244
898, 0.03076172818790235
898.5, 0.030572718158301315
899.0000000000002, 0.030389360253615494
899.5, 0.03031596489043753
900, 0.0303357423856363
900.5, 0.03035399715566567
901.0000000000002, 0.030348568293605438
901.5, 0.030351176835880733
902, 0.030355766911634774
902.5, 0.030327154069728524
903.0000000000002, 0.03031080189990465
903.5, 0.030422858550850362
904, 0.030627333987129024
904.5, 0.03073126231108947
905.0000000000002, 0.030708962054198485
905.5, 0.030733932958711296
906, 0.030788248239241867
906.5, 0.030595768165148862
907.0000000000002, 0.03017191442699174
907.5, 0.02997646853783842
908, 0.03017208191274845
908.5, 0.030384232099853525
909.0000000000002, 0.03039150173362115
909.5, 0.030339163720596085
910, 0.030337592421420756
910.5, 0.03034755062586747
911.0000000000002, 0.03034025026734144
911.5, 0.030352070748328686
912, 0.03038562255535282
912.5000000000002, 0.030333741268414705
913.0000000000002, 0.030145040880099505
913.5, 0.029979575827532745
914, 0.029963166818829934
914.5000000000002, 0.029985829698671806
915.0000000000002, 0.02995035168686544
915.5, 0.029984143713878364
916, 0.030189409602032757
916.5000000000002, 0.030346162202835036
917.0000000000002, 0.030231103947320426
917.5, 0.030004000703938716
918, 0.029901556145846442
918.5000000000002, 0.02996537218051243
919.0000000000002, 0.030155375979622367
919.5, 0.03033100073131545
920, 0.030351132009307502
920.5000000000002, 0.030333538952180494
921, 0.030470310482767715
921.5, 0.030672480211794806
922, 0.030742487237258143
922.5000000000002, 0.030713354399945603
923, 0.030724244730951034
923.5, 0.030733281341155383
924, 0.030606023201676158
924.5000000000002, 0.03040424440414813
925, 0.03030938813001749
925.5, 0.03033147797233582
926, 0.03035615055601315
926.5000000000002, 0.03035028814592189
927, 0.030348969868390974
927.5, 0.030353304816918447
928, 0.030333522107643396
928.5000000000002, 0.03031930540890493
929, 0.030400103407791645
929.5, 0.030584836206261512
930, 0.030787915910236552
930.5000000000002, 0.03096473816567613
931, 0.031129883642468936
931.5, 0.031301740813877155
932, 0.031497997655344
932.5000000000002, 0.03169637603119746
933, 0.03181160764406543
933.5, 0.03181492276871434
934, 0.03178806888755792
934.5000000000002, 0.03178692046397902
935, 0.03179295844607788
935.5, 0.031791117418923376
936, 0.03179381280401772
936.5000000000002, 0.03180350541914312
937, 0.031788239024361564
937.5, 0.03175004164456374
938, 0.031802419120611325
938.5000000000002, 0.032001325236990175
939, 0.032155614533983745
939.5, 0.03212767721741372
940, 0.03215243611209806
940.5000000000002, 0.03245297199973474
941, 0.03285831103650283
941.5, 0.03313602112602887
942, 0.03323700897252213
942.5000000000002, 0.03319683897825365
943, 0.03321680812194905
943.5, 0.033496146575888064
944, 0.033897350766603385
944.5000000000002, 0.03418577016362212
945, 0.03431252104784699
945.5, 0.03431565696338634
946.0000000000002, 0.03430750744178668
946.5000000000002, 0.03441755440770977
947, 0.034620212252294835
947.5, 0.03481638577289525
948.0000000000002, 0.034986943935247816
948.5000000000002, 0.035158337741307166
949, 0.035336887816347584
949.5, 0.03551567103431319
950.0000000000002, 0.035692322227449225
950.5000000000002, 0.03586802835996872
951, 0.03604478954430557
951.5, 0.036224835625766616
952.0000000000002, 0.03640324055354738
952.5000000000002, 0.036569686628201814
953, 0.03674018954768188
953.5, 0.03695838807349994
954.0000000000002, 0.03728975757487629
954.5000000000002, 0.037817285125926636
955, 0.0384162615106135
955.5, 0.038706997778978236
956.0000000000002, 0.03865355865869935
956.5000000000002, 0.038720396176683214
957, 0.03909386420460759
957.5, 0.039467676045764066
958.0000000000002, 0.03965745178085678
958.5, 0.03976745948413851
959, 0.0399118036035051
959.5, 0.040166412226277814
960.0000000000002, 0.04053467386033083
960.5, 0.04087040810947662
961, 0.041072474884341625
961.5, 0.041200153014532725
962.0000000000002, 0.04133776563453195
962.5, 0.04157159695986945
963, 0.0419331579447938
963.5, 0.04228092233810088
964.0000000000002, 0.042492091054964654
964.5, 0.042630582373100245
965, 0.0427857267268944
965.5, 0.04298255409280971
966.0000000000002, 0.043208066750407226
966.5, 0.0433497126213217
967, 0.04332301814010864
967.5, 0.04333423322720853
968.0000000000002, 0.043616952526498776
968.5, 0.04401801444348186
969, 0.044282881611105385
969.5, 0.04441586832562472
970.0000000000002, 0.044526787023625114
970.5, 0.04472343596963768
971, 0.04508516218190195
971.5, 0.04545307755171846
972.0000000000002, 0.045577800112897915
972.5, 0.04553065939114809
973, 0.0455560871902998
973.5, 0.045758456242957046
974.0000000000002, 0.04613762876747096
974.5, 0.04651775902765665
975, 0.04662253320996124
975.5, 0.04656684513056408
976.0000000000002, 0.04675804153097829
976.5, 0.04716993817884407
977, 0.04739620193517169
977.5, 0.047361404815266295
978.0000000000002, 0.047325715876521235
978.5, 0.0473516451822803
979, 0.047270882236261635
979.5000000000002, 0.04706915879352869
980.0000000000002, 0.046934795328913426
980.5, 0.04693894785917285
981, 0.04697470415320493
981.5000000000002, 0.046976331640208424
982.0000000000002, 0.046961500075351936
982.5, 0.046953935878027986
983, 0.046975208718130546
983.5000000000002, 0.04700432475231853
984.0000000000002, 0.04693919155736648
984.5, 0.04675048081694477
985, 0.046585620699215236
985.5000000000002, 0.046553849324962315
986.0000000000002, 0.04661598426464075
986.5, 0.04668227855827989
987, 0.04658519860783361
987.5000000000002, 0.04624153998753333
988.0000000000002, 0.045868238136035466
988.5, 0.045658191636233525
989, 0.045520237572799216
989.5000000000002, 0.04534126947523165
990.0000000000002, 0.045165031514150855
990.5, 0.045073277336954765
991, 0.04514504767894301
991.5000000000002, 0.045396673346206784
992.0000000000002, 0.0455313768097243
992.5, 0.04525395741566651
993, 0.044844097322772836
993.5000000000002, 0.04471178299583889
994, 0.04478317116389907
994.5, 0.044819872978153596
995, 0.04480210874382429
995.5000000000002, 0.044799526300996595
996, 0.04480311799584025
996.5, 0.044774078653976424
997, 0.0447731033415768
997.5000000000002, 0.04490283102895265
998, 0.045101901987674275
998.5, 0.04521358383570839
999, 0.04519547548352476
999.5000000000002, 0.045085753942587736
1000, 0.044903476590700486
1000.5, 0.0446568921092525
1001, 0.04445705328406091
1001.5000000000002, 0.04449436090216319
1002, 0.04471207631951146
1002.5, 0.04481867886275481
1003, 0.0447826170161395
1003.5000000000002, 0.044859525272076706
1004, 0.045074966520138204
1004.5, 0.04516327409288623
1005, 0.04510839395537214
1005.5000000000002, 0.04525114306978706
1006, 0.0456546008163391
1006.5, 0.045926771521384246
1007, 0.04590884193912226
1007.5000000000002, 0.045898525656589695
1008, 0.04607076545931277
1008.5, 0.04628564123298595
1009, 0.04645041869643507
1009.5000000000002, 0.046646159560359
1010, 0.04688427136315365
1010.5, 0.046957973572849365
1011, 0.04676961236803301
1011.5000000000002, 0.04659868139300094
1012, 0.04668860395759078
1012.5, 0.046985287857207125
1013, 0.04736962127040223
1013.5000000000002, 0.047691492953825465
1014, 0.04786046168982305
1014.5, 0.04804203304779742
1015.0000000000002, 0.048391911188437664
1015.5000000000002, 0.04875282863111707
1016, 0.04894573332580621
1016.5, 0.0491072757659029
1017.0000000000002, 0.04942287195429507
1017.5000000000002, 0.049803723398758826
1018, 0.050083412237503455
1018.5, 0.05021095592466851
1019.0000000000002, 0.05019920780394871
1019.5000000000002, 0.05019503707421935
1020, 0.05038511479331631
1020.5, 0.05079470638664296
1021.0000000000002, 0.05135734001479486
1021.5000000000002, 0.05189587867532508
1022, 0.0521975327448958
1022.5, 0.05233121831474641
1023.0000000000002, 0.05253126046616263
1023.5000000000002, 0.052904776860106084
1024, 0.05345726186217459
1024.5, 0.054018825392122105
1025.0000000000002, 0.054306994469786374
1025.5000000000002, 0.054425715949390385
1026, 0.05479425391579151
1026.5, 0.055388378876833566
1027.0000000000002, 0.055763174349755085
1027.5000000000002, 0.05588347029943308
1028, 0.05616216411681674
1028.5, 0.0567175225504275
1029.0000000000002, 0.057291352545408514
1029.5000000000002, 0.057685982691893956
1030, 0.05781684518570995
1030.5, 0.057769933416114916
1031.0000000000002, 0.05787004691740516
1031.5, 0.05823589329563361
1032, 0.05861372212095084
1032.5, 0.058909304795215056
1033.0000000000002, 0.059388388386012236
1033.5, 0.06013727767195676
1034, 0.060788404428903764
1034.5, 0.06113539401396495
1035.0000000000002, 0.061480155992148955
1035.5, 0.06202836582789595
1036, 0.0625427621950777
1036.5, 0.06286104674452031
1037.0000000000002, 0.0632557415821734
1037.5, 0.06394278736085002
1038, 0.0646807397052469
1038.5, 0.06523255545714601
1039.0000000000002, 0.06573958834238791
1039.5, 0.06638488630727768
1040, 0.06714644939611758
1040.5, 0.06793355789049693
1041.0000000000002, 0.06858853133212672
1041.5, 0.06898787503333914
1042, 0.06930804211880137
1042.5, 0.06978126821092712
1043.0000000000002, 0.07034651152517346
1043.5, 0.07085965280027118
1044, 0.07139104404252006
1044.5, 0.07207453609407788
1045.0000000000002, 0.0728023925633402
1045.5, 0.07337854133566901
1046, 0.07388265395614046
1046.5, 0.0745223882585182
1047.0000000000002, 0.07525880680334607
1047.5, 0.07591140366567739
1048, 0.07642216692375692
1048.5000000000002, 0.07681991764668505
1049.0000000000002, 0.0771618479716113
1049.5, 0.07752819024713076
1050, 0.07804665542449096
1050.5000000000002, 0.07887503283592678
1051.0000000000002, 0.07996919437739569
1051.5, 0.0810982613272262
1052, 0.08215689760999778
1052.5000000000002, 0.0831767865153068
1053.0000000000002, 0.08410020225056991
1053.5, 0.0847602004684953
1054, 0.08512104640370965
1054.5000000000002, 0.08532818435367073
1055.0000000000002, 0.0856006310473244
1055.5, 0.0862432919074897
1056, 0.08731196343120207
1056.5000000000002, 0.08844642385258927
1057.0000000000002, 0.08938364733104398
1057.5, 0.09010786377500679
1058, 0.09065799915120376
1058.5000000000002, 0.09113133729162715
1059.0000000000002, 0.09169688246989949
1059.5, 0.09267116343498782
1060, 0.09413353105123179
1060.5000000000002, 0.09549911126162347
1061.0000000000002, 0.09632059521500735
1061.5, 0.09685693563027686
1062, 0.09739822057327918
1062.5000000000002, 0.09791831559928188
1063.0000000000002, 0.0983842541601887
1063.5, 0.09897803210630796
1064, 0.09988329812419683
1064.5000000000002, 0.10108113851358502
1065.0000000000002, 0.10244634187165635
1065.5, 0.10360098335589984
1066, 0.10422157116325337
1066.5000000000002, 0.10468348126537974
1067, 0.10548363675949024
1067.5, 0.10642603314788901
1068, 0.10713617741192072
1068.5000000000002, 0.1078246959581538
1069, 0.10888713776773373
1069.5, 0.11020525485893118
1070, 0.11143773528990997
1070.5000000000002, 0.11245367596619649
1071, 0.11324650273388359
1071.5, 0.11392358043595874
1072, 0.11464357506767575
1072.5000000000002, 0.11536535853953211
1073, 0.11593079442717802
1073.5, 0.11642971742471586
1074, 0.11713272646717188
1074.5000000000002, 0.1182051055263097
1075, 0.11970495700800898
1075.5, 0.12137157549184097
1076, 0.12266943500223004
1076.5000000000002, 0.12350972315128061
1077, 0.12426701037054377
1077.5, 0.12502468075055262
1078, 0.1255170673498921
1078.5000000000002, 0.1259096887631066
1079, 0.12693529852099505
1079.5, 0.12874817072996414
1080, 0.13062379021200954
1080.5000000000002, 0.132099953832978
1081, 0.1332433655664219
1081.5, 0.13415864476587813
1082, 0.134933152627848
1082.5000000000002, 0.13564232532577025
1083, 0.13634147875004043
1083.5, 0.13712859144127432
1084.0000000000002, 0.1382026594348078
1084.5000000000002, 0.13962130362680092
1085, 0.14104983258374848
1085.5, 0.14226410214289598
1086.0000000000002, 0.14352895122957487
1086.5000000000002, 0.14502064575427098
1087, 0.1463521634579743
1087.5, 0.14723011929393193
1088.0000000000002, 0.14811318641280002
1088.5000000000002, 0.1494498907894386
1089, 0.1509425807493442
1089.5, 0.15221537451824385
1090.0000000000002, 0.15342359250699233
1090.5000000000002, 0.15480868666444447
1091, 0.15624917551505935
1091.5, 0.15754580763740555
1092.0000000000002, 0.15874989140531703
1092.5000000000002, 0.15998462379806455
1093, 0.16122843761892258
1093.5, 0.16244098326470102
1094.0000000000002, 0.1639078880419903
1094.5000000000002, 0.16597598670974356
1095, 0.16817028095539843
1095.5, 0.16967268072198416
1096.0000000000002, 0.1705895450374011
1096.5000000000002, 0.17154526760149114
1097, 0.17282566142739297
1097.5, 0.1744824304694942
1098.0000000000002, 0.17647152327773064
1098.5000000000002, 0.1786733855111189
1099, 0.1808337261883448
1099.5, 0.18259979384639125
1100.0000000000002, 0.18382450683595208
1100.5000000000002, 0.18455885682988737
1101, 0.18503585405824352
1101.5, 0.18566093845831333
1102.0000000000002, 0.18668512864922937
1102.5000000000002, 0.1881702386823434
1103, 0.18997853706637113
1103.5, 0.19173598477446774
1104.0000000000002, 0.1932017800025464
1104.5, 0.1943441504965404
1105, 0.19513310389636418
1105.5, 0.19551980088941334
1106.0000000000002, 0.19572312133674552
1106.5, 0.19643195214755627
1107, 0.19788030250487898
1107.5, 0.19931415888715398
1108.0000000000002, 0.20024112558725515
1108.5, 0.20100103152382265
1109, 0.20188396512474627
1109.5, 0.2027804699312289
1110.0000000000002, 0.20355420920660683
1110.5, 0.2041639797863508
1111, 0.20459327465542665
1111.5, 0.2048514714119476
1112.0000000000002, 0.204991676321449
1112.5, 0.20520482415611818
1113, 0.2056534152953945
1113.5, 0.20626107545315076
1114.0000000000002, 0.20688417034327455
1114.5, 0.20734718369813743
1115, 0.20750308565198505
1115.5, 0.20739966379178576
1116.0000000000002, 0.20713496784404928
1116.5, 0.20673265424708165
1117, 0.20620472908958498
1117.5000000000002, 0.20566667640907277
1118.0000000000002, 0.20525367785849158
1118.5, 0.20492711551457188
1119, 0.20458098961223492
1119.5000000000002, 0.20422093319747103
1120.0000000000002, 0.20388365655141372
1120.5, 0.2033358303375794
1121, 0.20224315213182298
1121.5000000000002, 0.200917872997869
1122.0000000000002, 0.200040434789306
1122.5, 0.19960090931060948
1123, 0.1991060047900175
1123.5000000000002, 0.19837408526298317
1124.0000000000002, 0.19747922601956802
1124.5, 0.19642291923560495
1125, 0.19514071580691894
1125.5000000000002, 0.19369902017581941
1126.0000000000002, 0.1922945167780049
1126.5, 0.19104338996260462
1127, 0.18996232167854965
1127.5000000000002, 0.1889433129012844
1128.0000000000002, 0.1877347385972713
1128.5, 0.18629474008919245
1129, 0.1848821630622709
1129.5000000000002, 0.18363430319443375
1130.0000000000002, 0.18246731202307065
1130.5, 0.18135934934983156
1131, 0.1804269931399205
1131.5000000000002, 0.17962490100391937
1132.0000000000002, 0.17856910602367304
1132.5, 0.17704326529915992
1133, 0.17527815572164462
1133.5000000000002, 0.17349488120822676
1134.0000000000002, 0.17174859243407126
1134.5, 0.17014655202356355
1135, 0.16900674399244975
1135.5000000000002, 0.16840788825046893
1136.0000000000002, 0.1675777051148747
1136.5, 0.16591811615304508
1137, 0.16401411734799853
1137.5000000000002, 0.16249993728921042
1138.0000000000002, 0.16118143391218653
1138.5, 0.15975484972935394
1139, 0.1583437627710872
1139.5000000000002, 0.1571514221689645
1140.0000000000002, 0.1561778493098096
1140.5, 0.15533873280134236
1141, 0.1544346578179785
1141.5000000000002, 0.15324940221345829
1142, 0.15172613752678843
1142.5, 0.14991078380318335
1143, 0.1481375190091785
1143.5000000000002, 0.14681315774104509
1144, 0.14585101445309379
1144.5, 0.14494189007853586
1145, 0.14405375869965698
1145.5000000000002, 0.14328502209787664
1146, 0.14241418687902274
1146.5, 0.14105711158374512
1147, 0.13938104162983833
1147.5000000000002, 0.13791640274990402
1148, 0.13672918083430563
1148.5, 0.13552535086580386
1149, 0.13426156843608628
1149.5000000000002, 0.13312141955334023
1150, 0.13222621104194776
1150.5, 0.13162088962460317
1151, 0.1311454087342958
1151.5000000000002, 0.1304266451406978
1152, 0.12935525733217978
1152.5, 0.12815428153141495
1153.0000000000002, 0.1269339663136252
1153.5000000000002, 0.12562632366774396
1154, 0.12431087410703634
1154.5, 0.12330677377091326
1155.0000000000002, 0.12265112024767888
1155.5000000000002, 0.12187106112032897
1156, 0.12076784865271273
1156.5, 0.11975575417063478
1157.0000000000002, 0.11906007882255487
1157.5000000000002, 0.11835873486684678
1158, 0.11745070859406104
1158.5, 0.1165917180874867
1159.0000000000002, 0.11593237854451233
1159.5000000000002, 0.11516094187356674
1160, 0.11401931633420326
1160.5, 0.1126457058867053
1161.0000000000002, 0.1112701986779372
1161.5000000000002, 0.1101811982644989
1162, 0.10955965387751943
1162.5, 0.10912104495378927
1163.0000000000002, 0.10853039553992583
1163.5000000000002, 0.10772709965600602
1164, 0.10673505098554104
1164.5, 0.10562375520686806
1165.0000000000002, 0.10448574920066267
1165.5000000000002, 0.10346364175522338
1166, 0.10267995399468843
1166.5, 0.1020155985111274
1167.0000000000002, 0.10129091192300721
1167.5000000000002, 0.10058132414239684
1168, 0.10004053915658784
1168.5, 0.09952844487337653
1169.0000000000002, 0.09878846669749508
1169.5000000000002, 0.09785412124043091
1170, 0.09691148643372804
1170.5, 0.09603718654121907
1171.0000000000002, 0.09523954738004725
1171.5000000000002, 0.09454053975524168
1172, 0.09396644006999944
1172.5, 0.09345345061704324
1173.0000000000002, 0.09287147733755774
1173.5000000000002, 0.09215889510813335
1174, 0.09131793441822589
1174.5, 0.09041581438845958
1175.0000000000002, 0.08957803285125443
1175.5000000000002, 0.08886599810051543
1176, 0.08826868313028036
1176.5, 0.08774465774133178
1177.0000000000002, 0.08722163185191678
1177.5, 0.08668108670068908
1178, 0.08617729190439916
1178.5, 0.08568236669420093
1179.0000000000002, 0.08503950262941529
1179.5, 0.08417749679895481
1180, 0.08318593679485287
1180.5, 0.08222060348737814
1181.0000000000002, 0.08153114447903775
1181.5, 0.08118512300056246
1182, 0.08084876540571106
1182.5, 0.08031257006449932
1183.0000000000002, 0.07977632142281565
1183.5, 0.07933778640225186
1184, 0.07867091430495443
1184.5, 0.07759113228076753
1185.0000000000002, 0.07654052552886559
1185.5, 0.07590623214515724
1186, 0.07550050150294141
1186.5000000000002, 0.0750979961100916
1187.0000000000002, 0.07478953154623402
1187.5, 0.07466045481088823
1188, 0.07444876342208129
1188.5000000000002, 0.07387936939477324
1189.0000000000002, 0.07306956125748354
1189.5, 0.07221832539707362
1190, 0.07131554920194694
1190.5000000000002, 0.07032323203837065
1191.0000000000002, 0.06948021738995824
1191.5, 0.06905433001452965
1192, 0.06875219856608761
1192.5000000000002, 0.06809768296924346
1193.0000000000002, 0.06712187774057032
1193.5, 0.06609797651731508
1194, 0.06523812116410121
1194.5000000000002, 0.0646983437733224
1195.0000000000002, 0.06439862747504876
1195.5, 0.06412294112377326
1196, 0.06376088193077678
1196.5000000000002, 0.06328122363994859
1197.0000000000002, 0.06273400550722152
1197.5, 0.062222216489444704
1198, 0.06170943007794871
1198.5000000000002, 0.061049330290355086
1199.0000000000002, 0.060305243302316236
1199.5, 0.05973031598057088
1200, 0.059259823026506675
1200.5000000000002, 0.058499684346168146
1201.0000000000002, 0.057518183592508376
1201.5, 0.056933613485368406
1202, 0.05683248610276237
1202.5000000000002, 0.056568379508948996
1203.0000000000002, 0.0558578946433862
1203.5, 0.05502130323805965
1204, 0.05429039583680029
1204.5000000000002, 0.053673113108407056
1205.0000000000002, 0.05313932752848649
1205.5, 0.052627277813806383
1206, 0.05209731827378605
1206.5000000000002, 0.051562084409779274
1207.0000000000002, 0.05103233348320657
1207.5, 0.05049975147358332
1208, 0.049962328030084824
1208.5000000000002, 0.049441280820049505
1209.0000000000002, 0.04893597207358902
1209.5, 0.04837114549442678
1210, 0.04769101928960218
1210.5000000000002, 0.04694865423241512
1211.0000000000002, 0.046213493518645565
1211.5, 0.045532547781277355
1212, 0.04494293439516883
1212.5, 0.044462074353520675
1213, 0.044087920977302075
1213.5, 0.043750182142960115
1214, 0.04338076513467082
1214.5, 0.0430340006863037
1215, 0.04279154797999751
1215.5, 0.042649033356793487
1216, 0.0425544180574825
1216.5, 0.04235090985610601
1217, 0.041858755563370154
1217.5, 0.04107311227308563
1218, 0.04009382047940635
1218.5, 0.03921021206024433
1219, 0.038771022564414115
1219.5, 0.038676610751140816
1220, 0.038577714055070156
1220.5, 0.038381203997725155
1221, 0.03815729465786799
1221.5, 0.03781314808367331
1222, 0.03715438298457274
1222.5, 0.036381135571125656
1223, 0.036002823723111255
1223.5, 0.03606012195171959
1224, 0.03615743051071085
1224.5, 0.03614225111471936
1225, 0.036129124867961715
1225.5, 0.03614359678949863
1226, 0.036094771209766896
1226.5, 0.035930106037929455
1227, 0.03565544301158563
1227.5, 0.03530079678422804
1228, 0.03492511942367338
1228.5, 0.03456713483503382
1229, 0.03422918606635039
1229.5, 0.033890995569375915
1230, 0.033498150252087355
1230.5, 0.03308279169967421
1231, 0.0328578802549746
1231.5, 0.03288769688081983
1232, 0.03285176710170801
1232.5, 0.032532532487051014
1233, 0.032108108807799796
1233.5000000000002, 0.03174598819520491
1234, 0.03140601619087513
1234.5, 0.031040865617317448
1235.0000000000002, 0.030699382464993596
1235.5, 0.030448112787271997
1236, 0.030347396328362697
1236.5, 0.0303977276542009
1237, 0.03035774720767548
1237.5000000000002, 0.030022143419845437
1238, 0.0296479157263978
1238.5, 0.029548307946288932
1239.0000000000002, 0.02961618343443917
1239.5, 0.029640790824262964
1240, 0.029625396546792082
1240.5, 0.029637357206432124
1241, 0.029635544682847126
1241.5000000000002, 0.02954087926458171
1242, 0.02933432483639764
1242.5, 0.0290279008208838
1243.0000000000002, 0.028657652464098793
1243.5, 0.02827232165725413
1244, 0.02792158253109045
1244.5, 0.027653471604675683
1245, 0.027490526901028045
1245.5000000000002, 0.02743542041123015
1246, 0.027448343445605428
1246.5, 0.02746146607357214
1247.0000000000002, 0.027457668733401053
1247.5, 0.027460618489255295
1248, 0.027464945936018004
1248.5, 0.02743531707583302
1249, 0.027283026530059318
1249.5000000000002, 0.026873560008084052
1250, 0.02629484652862335
1250.5, 0.02588355887820204
1251.0000000000002, 0.025727491725715312
1251.5, 0.02558505038436676
1252, 0.025376988314527726
1252.5, 0.025282782168762563
1253, 0.025419018169117402
1253.5, 0.025770594654572987
1254, 0.02619978945924961
1254.5, 0.026374572692386966
1255.0000000000002, 0.026184041273519254
1255.5, 0.0259930068775428
1256, 0.02601324551984452
1256.5000000000002, 0.02599348983317662
1257, 0.025784870917835212
1257.5, 0.025648880749257974
1258, 0.025783285584186078
1258.5, 0.026030254777405504
1259.0000000000002, 0.026172078065279214
1259.5, 0.0259976341333088
1260, 0.02543803740754358
1260.5000000000002, 0.024929604718846088
1261, 0.024856100720467178
1261.5, 0.024928849037601064
1262, 0.024793828123434558
1262.5, 0.0245804315309317
1263.0000000000002, 0.024509721624289105
1263.5, 0.02455747710235867
1264, 0.02461947346549309
1264.5000000000002, 0.024589049112715977
1265, 0.024395474731550904
1265.5, 0.024215586533183675
1266, 0.02428549629950416
1266.5, 0.024513248978622282
1267.0000000000002, 0.02466734355143463
1267.5, 0.02462584689344849
1268, 0.024342337260849667
1268.5000000000002, 0.023954987081014845
1269, 0.023689266522095354
1269.5, 0.02354054651715287
1270, 0.02336537988422005
1270.5, 0.023175551341279577
1271.0000000000002, 0.023089676749724397
1271.5, 0.023106714816935825
1272, 0.023130209309733973
1272.5000000000002, 0.02312630698220619
1273, 0.02311942667705702
1273.5, 0.023120127581791827
1274, 0.023122996785232885
1274.5, 0.023123567779573362
1275.0000000000002, 0.023119442593189654
1275.5, 0.02311631200519093
1276, 0.02312913795777738
1276.5000000000002, 0.02314214792537228
1277, 0.023096238119822754
1277.5, 0.022944562068829444
1278, 0.02266497264539369
1278.5, 0.022294397293005197
1279.0000000000002, 0.021968103276743256
1279.5, 0.021768855887667193
1280, 0.021658535852326577
1280.5000000000002, 0.021618373422930826
1281, 0.02170177702768694
1281.5, 0.021902635951410288
1282, 0.022046093660558208
1282.5, 0.02203344649429695
1283.0000000000002, 0.0220455494171391
1283.5, 0.022219044353308126
1284, 0.02240475430559019
1284.5000000000002, 0.02245195257967203
1285, 0.0223990901826
1285.5, 0.02233611428629889
1286, 0.022392591033910114
1286.5, 0.022668444783950914
1287, 0.023085708092000723
1287.5, 0.023515202001724633
1288, 0.02382189936097001
1288.5000000000002, 0.023903037776691116
1289, 0.02385350494447558
1289.5, 0.023821307805057756
1290.0000000000002, 0.023836824039932036
1290.5, 0.023876188937218656
1291, 0.02386567557948438
1291.5, 0.0237264026937708
1292, 0.023529548360282315
1292.5000000000002, 0.023414702643644314
1293, 0.023441167257837625
1293.5, 0.023611431358723345
1294.0000000000002, 0.023805757404756323
1294.5, 0.023846313351440607
1295, 0.023815344841780384
1295.5, 0.0239591483454602
1296, 0.024180216754425166
1296.5000000000002, 0.024121427759528635
1297, 0.023730672875843628
1297.5, 0.02323216740050782
1298.0000000000002, 0.022847268141337085
1298.5, 0.02277654439197807
1299, 0.022986110586937225
1299.5, 0.023188622129216352
1300, 0.023209455807345014
1300.5000000000002, 0.023031515565174576
1301, 0.022791526465694045
1301.5, 0.022818805961600797
1302.0000000000002, 0.023190744083957937
1302.5, 0.023581025148919132
1303, 0.023783472363927305
1303.5, 0.023854513276075906
1304, 0.023860691169802384
1304.5000000000002, 0.023839017429434062
1305, 0.023824414228069135
1305.5, 0.023854232609734627
1306.0000000000002, 0.02390677262537544
1306.5, 0.0238179092535179
1307, 0.023493666067187835
1307.5, 0.023086266188203863
1308, 0.022785358893812835
1308.5000000000002, 0.02276914089109361
1309, 0.02310491915776902
1309.5, 0.023485389856534367
1310.0000000000002, 0.02360630636252914
1310.5, 0.02348976834070704
1311, 0.023257696269281092
1311.5, 0.02312155486389944
1312, 0.02324902635352466
1312.5000000000002, 0.02346516202621518
1313, 0.023535218832790195
1313.5, 0.023491885266942347
1314.0000000000002, 0.023452261466598623
1314.5, 0.023470166762982858
1315, 0.02355108772341541
1315.5, 0.023530031583056443
1316, 0.023214901134251842
1316.5000000000002, 0.022825248233356854
1317, 0.022748475321946016
1317.5, 0.023001405328391233
1318.0000000000002, 0.02339393038874249
1318.5, 0.023753218136672638
1319, 0.023928639733876822
1319.5, 0.02389902888996631
1320, 0.02373579670988657
1320.5000000000002, 0.023543909122889506
1321, 0.023447059667090486
1321.5, 0.023460398539535077
1322.0000000000002, 0.023504701848595322
1322.5, 0.023512253368245584
1323, 0.023431182761118996
1323.5000000000002, 0.023252902851618518
1324, 0.02301638277549467
1324.5, 0.0228099517303042
1325, 0.02277595635759444
1325.5, 0.02294955592933312
1326.0000000000002, 0.023217252453780257
1326.5, 0.02344005374919611
1327, 0.02345841348828437
1327.5000000000002, 0.023262441742239903
1328, 0.023094500890804892
1328.5, 0.023087980879418324
1329, 0.02312743094542169
1329.5, 0.023127413573068023
1330.0000000000002, 0.023122777264169003
1330.5, 0.023134491392460155
1331, 0.023115079757752066
1331.5000000000002, 0.023002728986512677
1332, 0.022723796202976487
1332.5, 0.022298490979760666
1333, 0.022033446855262206
1333.5, 0.022150152295525083
1334.0000000000002, 0.02240234589425627
1334.5, 0.02250531671358391
1335, 0.022404622357004134
1335.5000000000002, 0.022153468054732617
1336, 0.02203286411805505
1336.5, 0.022291643691563223
1337, 0.022718704750537833
1337.5, 0.023009054430603748
1338.0000000000002, 0.023118217305122757
1338.5, 0.02310439380886975
1339, 0.023105680079672064
1339.5000000000002, 0.023257630717659517
1340, 0.023453722370079144
1340.5, 0.023491237126523012
1341, 0.023248409115846025
1341.5, 0.02268295542744958
1342.0000000000002, 0.02212608457924181
1342.5, 0.02205674565136817
1343, 0.02232438900468814
1343.5000000000002, 0.0224297978828375
1344, 0.022381292849795953
1344.5, 0.02251176618629369
1345, 0.022736753123840825
1345.5, 0.02267421284829485
1346.0000000000002, 0.02242831771555176
1346.5, 0.022502789405043244
1347, 0.022918610498829706
1347.5000000000002, 0.023238028311681425
1348, 0.023373747543842804
1348.5, 0.02362180292832916
1349, 0.02401758549950872
1349.5, 0.024270643789947255
1350.0000000000002, 0.024270423661792995
1350.5, 0.024166814991304575
1351, 0.024020270482446815
1351.5000000000002, 0.023735144650561923
1352, 0.023338765252910343
1352.5, 0.023079801243808484
1353, 0.023069978325461205
1353.5, 0.023131659660595605
1354.0000000000002, 0.023136153624585765
1354.5, 0.02311963648881643
1355, 0.02311839494476553
1355.5000000000002, 0.023121959474388554
1356, 0.02312042796877456
1356.5, 0.023122512129835404
1357.0000000000002, 0.023130632130838102
1357.5, 0.02311999747837823
1358.0000000000002, 0.023088283670803955
1358.5, 0.023124029672419222
1359, 0.02328975646361575
1359.5000000000002, 0.023480050338376746
1360, 0.023566931775429345
1360.5, 0.023493579201602333
1361.0000000000002, 0.023268189562978714
1361.5, 0.023120752251238108
1362, 0.023265815530855383
1362.5, 0.023471128839266275
1363, 0.023416091168626862
1363.5000000000002, 0.02317063554195764
1364, 0.02293558737680812
1364.5, 0.02278228055214382
1365.0000000000002, 0.022723059483487962
1365.5, 0.02274441437618202
1366, 0.022827944694023272
1366.5, 0.023024393191754422
1367, 0.023399068039446358
1367.5000000000002, 0.023773502348992226
1368, 0.023845827563867106
1368.5, 0.023613634473930056
1369.0000000000002, 0.023271264816057124
1369.5, 0.02291467329185648
1370, 0.02256165440830149
1370.5, 0.02220979181638727
1371, 0.02184921201342105
1371.5000000000002, 0.02163245809994019
1372, 0.021850109140539642
1372.5, 0.022436470083930793
1373.0000000000002, 0.02295829962636642
1373.5, 0.0232839011379522
1374, 0.023646525586205835
1374.5, 0.024057017688459803
1375, 0.024215568258331155
1375.5000000000002, 0.024035019670113345
1376, 0.023764458706925118
1376.5, 0.023572956757585417
1377.0000000000002, 0.023458023594406963
1377.5, 0.023424674575720617
1378, 0.023519152103942953
1378.5, 0.02371957423387916
1379, 0.02385786760025821
1379.5000000000002, 0.023851500372549794
1380, 0.023851956997818502
1380.5, 0.023921853393991
1381.0000000000002, 0.02381464847775827
1381.5, 0.023413482056157786
1382, 0.02311437313226039
1382.5, 0.02322785602297217
1383, 0.02348904869637547
1383.5000000000002, 0.02358903886796282
1384, 0.023485672232439803
1384.5, 0.023243875386667612
1385.0000000000002, 0.023119212918347287
1385.5, 0.023306865728377812
1386, 0.02348406135510639
1386.5, 0.023273795353372817
1387, 0.02282322251480362
1387.5000000000002, 0.022414365869502295
1388, 0.022090418387257338
1388.5, 0.021820315527762202
1389.0000000000002, 0.021678728550119097
1389.5, 0.021761588795274678
1390, 0.021980270114236644
