201.5, 0.40209051473048196
202, 0.40209984942186283
202.5, 0.40213614968221045
203, 0.402114626114073
203.5, 0.40195422027017436
204, 0.4017632786188182
204.5, 0.4016932733513361
205, 0.401728349648805
205.5, 0.40178365771647073
206, 0.40176726007046903
206.5, 0.40160564668682774
207, 0.40141205164730853
207.5, 0.40136892086579345
208, 0.4013953709545567
208.5, 0.40128150574758636
209, 0.40107548822658645
209.5, 0.40097798241261917
210, 0.40100192023554604
210.5, 0.4010292230969865
211, 0.4010235758205455
211.5, 0.40101524425177204
212, 0.40101626418884917
212.5, 0.40102075406875415
213, 0.40102183571225425
213.5, 0.401012965321797
214, 0.40100706027662714
214.5, 0.4010364372393843
215, 0.4010615464897439
215.5, 0.40095650483163847
216, 0.4007438926159893
216.5, 0.4006537734872254
217, 0.4007068972130191
217.5, 0.40058315730561356
218, 0.4001921931721595
218.5, 0.3998851027082715
219, 0.39986239258334444
219.5, 0.39995303156780515
220, 0.39999078851143677
220.5, 0.3999101777946511
221, 0.3997175087691992
221.5, 0.39956081251594555
222, 0.3995412487608824
222.5, 0.3995756940522347
223, 0.39958158701569724
223.5, 0.39957310895664633
224, 0.39957349154459765
224.5, 0.39957332073455853
225, 0.3995645733476261
225.5, 0.39957238457891553
226, 0.3996075594058398
226.5, 0.3995811948118423
227, 0.39941546140434536
227.5, 0.3992273949623031
228, 0.3991648434482695
228.5, 0.3992025812187232
229, 0.3992540741973887
229.5, 0.3992327438681883
230, 0.39907457751924
230.5, 0.39888243226898035
231, 0.3988126482364873
231.5, 0.3988409150252886
232, 0.3988608887091035
232.5, 0.39885379380239616
233, 0.3988484644684176
233.5, 0.3988502714343535
234, 0.3988502348782972
234.5, 0.3988494387578835
235, 0.39885508879706233
235.5, 0.3988572192206611
236, 0.39883537582140505
236.5, 0.3988254761376132
237, 0.39890958163623613
237.5, 0.39909506840795594
238, 0.39931505535598244
238.5, 0.3995035013241771
239, 0.3996002263990702
239.5, 0.39959852040030974
240, 0.39955617458450954
240.5, 0.3995382980116605
241, 0.39961359566947985
241.5, 0.3997916904868445
242, 0.39999330443414516
242.5, 0.40017063413813436
243, 0.4003411268133721
243.5, 0.4005182144397347
244, 0.4006960191761635
244.5, 0.40087137955754937
245, 0.40105133700206397
245.5, 0.401235128364012
246, 0.40140048609573076
246.5, 0.4015509592224752
247, 0.401767196773273
247.5, 0.40210170138865553
248, 0.4024841608504063
248.5, 0.4028443950790329
249, 0.40319074643408015
249.5, 0.40354271859136237
250, 0.4038986862538504
250.5, 0.4042532494353378
251, 0.4046066734924475
251.5, 0.4049604518932858
252, 0.4053145355784732
252.5, 0.4056684960675122
253, 0.4060224370493607
253.5, 0.40637655372808623
254, 0.4067304476756235
254.5, 0.4070837385627287
255, 0.4074378607314605
255.5, 0.4077942606102749
256, 0.4081478667058053
256.5, 0.40849286864754164
257, 0.40884707329868597
257.5, 0.4092336055661052
258, 0.4095903153798989
258.5, 0.4098150357069802
259, 0.409969233297681
259.5, 0.41021864786590767
260, 0.4105905063274954
260.5, 0.41100314393902515
261, 0.41136616256185066
261.5, 0.411591134165154
262, 0.41174003536086434
262.5, 0.41201091566998616
263, 0.41239691907262654
263.5, 0.41267307811088216
264, 0.41281814851502097
264.5, 0.4130611404541994
265, 0.4134444141276613
265.5, 0.4137465498911924
266, 0.4139024084030013
266.5, 0.41410357046126867
267, 0.41444999275952077
267.5, 0.4148560485941537
268, 0.415234116163426
268.5, 0.4155252750255466
269, 0.415712329530048
269.5, 0.41585804732585274
270, 0.4160206752318488
270.5, 0.41622479635976106
271, 0.4164475784390902
271.5, 0.41655473116074426
272, 0.41650247100868987
272.5, 0.41656692273791773
273, 0.41693212883583364
273.5, 0.4172800080495589
274, 0.4173221540358746
274.5, 0.41727547020454336
275, 0.417398948149562
275.5, 0.41762336714778203
276, 0.41781845476950663
276.5, 0.41798185303707625
277, 0.4181468648980132
277.5, 0.4183307446091239
278, 0.4185353884172529
278.5, 0.41870114064802844
279, 0.41875814487305874
279.5, 0.41873184498606564
280, 0.4186892069982132
280.5, 0.41869988425298543
281, 0.4188239567627273
281.5, 0.41902103832522153
282, 0.41920440212451837
282.5, 0.4193757176445857
283, 0.4195822812799722
283.5, 0.41976662087267036
284, 0.4198122419246836
284.5, 0.4197862456471386
285, 0.419883491111667
285.5, 0.4200879348021975
286, 0.4202094414902269
286.5, 0.42019719897761043
287, 0.4201369432265586
287.5, 0.42012096953726397
288, 0.4202385491123848
288.5, 0.4204446739900878
289, 0.42054215208002244
289.5, 0.42051162956066823
290, 0.4205732880081847
290.5, 0.4207779525144497
291, 0.42090906033502085
291.5, 0.4208907354406515
292, 0.42090875480927525
292.5, 0.42107198040803007
293, 0.4213061048086777
293.5, 0.42151827746887216
294, 0.42161764218254394
294.5, 0.42159512317054026
295, 0.42162752505360734
295.5, 0.42181336794295377
296, 0.42198410884299276
296.5, 0.42200642714438963
297, 0.4219710190229762
297.5, 0.4219704863476007
298, 0.4219721694547848
298.5, 0.42194671778400783
299, 0.4219713288132252
299.5, 0.422116572389302
300, 0.42232240257782705
300.5, 0.42251064685996786
301, 0.42267901223285775
301.5, 0.42284684469184886
302, 0.4230291585874235
302.5, 0.4232301620120219
303, 0.4233969928009965
303.5, 0.4234647900646429
304, 0.4234347126204657
304.5, 0.4233502983360774
305, 0.4233690614154997
305.5, 0.42366409194614196
306, 0.42405696687230654
306.5, 0.4242155359959501
307, 0.4241638928066659
307.5, 0.4241247648416444
308, 0.424138458008284
308.5, 0.4241287990480529
309, 0.42411949840067464
309.5, 0.42420512191413784
310, 0.42439457327877517
310.5, 0.4246234662448717
311, 0.4248118918343442
311.5, 0.42487294937175946
312, 0.424848859263254
312.5, 0.4249108240467453
313, 0.4250993324898087
313.5, 0.42529985171124285
314, 0.42546859972082063
314.5, 0.4256618390448137
315, 0.4258653899813549
315.5, 0.42595695844979486
316, 0.4259308270828498
316.5, 0.42597902071087945
317, 0.4261721304829721
317.5, 0.4263332801932309
318, 0.4263509876002206
318.5, 0.42629544163036714
319, 0.4262581737123411
319.5, 0.4263300122184145
320, 0.42652711691008005
320.5, 0.42667794089374
321, 0.4266747973744355
321.5, 0.4266736468561123
322, 0.4268145803990545
322.5, 0.4270381699204028
323, 0.42725233482188885
323.5, 0.4273910936669735
324, 0.42741792055326033
324.5, 0.42739284625786833
325, 0.4273850540986647
325.5, 0.42739132684689973
326, 0.4273919938947873
326.5, 0.4273913063253506
327, 0.42739741017750876
327.5, 0.4273948677999626
328, 0.4273697419080196
328.5, 0.4273775982078455
329, 0.42749134094490515
329.5, 0.427693905499559
330, 0.4279232117181909
330.5, 0.42809117234521044
331, 0.4281142489760221
331.5, 0.42809391439787203
332, 0.4282188340877495
332.5, 0.42842433518442213
333, 0.4284966159946526
333.5, 0.4284671593778864
334, 0.4285380645773623
334.5, 0.42873563391748803
335, 0.4289432483406893
335.5, 0.4291162591644626
336, 0.4292791309061845
336.5, 0.4294534911151263
337, 0.4296538717421934
337.5, 0.4298464463008802
338, 0.4299452391223203
338.5, 0.42993933188208533
339, 0.42991484079044473
339.5, 0.42991624868788103
340, 0.42992115228886996
340.5, 0.4299187114408881
341, 0.4299238262038859
341.5, 0.4299334799687887
342, 0.42990980815829094
342.5, 0.4298715151223994
343, 0.4299545019077783
343.5, 0.43017833362914104
344, 0.43027720728909113
344.5, 0.4301049515514551
345, 0.42990472598458973
345.5, 0.42987483013560646
346, 0.4299243336539834
346.5, 0.42994332067271557
347, 0.4299189876269952
347.5, 0.42987811192547887
348, 0.4299205030773877
348.5, 0.430107199690391
349, 0.43027826455603946
349.5, 0.43028421420984364
350, 0.4302758343109475
350.5, 0.4304309871443285
351, 0.4306267703212504
351.5, 0.4306828267789654
352, 0.430648476054721
352.5, 0.43063814336218265
353, 0.4306449266921477
353.5, 0.43062474539762063
354, 0.43062787146342596
354.5, 0.4307368549512377
355, 0.4309378109124281
355.5, 0.4311654039730003
356, 0.4313370289094698
356.5, 0.4313738038297107
357, 0.4313526393247916
357.5, 0.43143890698098397
358, 0.43163766033232187
358.5, 0.43184200447522836
359, 0.43201459486794114
359.5, 0.4321760013719075
360, 0.43235016840475504
360.5, 0.4325594470495334
361, 0.4327542545803852
361.5, 0.4328188831551528
362, 0.4327895106291668
362.5, 0.43286868792588773
363, 0.4330752245834034
363.5, 0.4331937314683877
364, 0.43317155981058375
364.5, 0.4331987848444008
365, 0.43336959735137814
365.5, 0.433603266842738
366, 0.43380891248520914
366.5, 0.4339044990937282
367, 0.4338882549644566
367.5, 0.4339109210813483
368, 0.43406772501669966
368.5, 0.43429660800930103
369, 0.4345122126274067
369.5, 0.434622444913341
370, 0.4346042694551916
370.5, 0.43462588612608777
371, 0.43480218786313807
371.5, 0.43498430131386057
372, 0.43502757292502425
372.5, 0.4349782628080151
373, 0.434926757100899
373.5, 0.43497370754539344
374, 0.43517026916861645
374.5, 0.4353354693214343
375, 0.43530409853267016
375.5, 0.43531780631845274
376, 0.4356508712014203
376.5, 0.4360290117274521
377, 0.4360773026562853
377.5, 0.43603757530970877
378, 0.43631768002768356
378.5, 0.43672115370125153
379, 0.4368397568405008
379.5, 0.43678210454902067
380, 0.4368804679280289
380.5, 0.43709403143330994
381, 0.43718981226191955
381.5, 0.4371609706769314
382, 0.4371372967760715
382.5, 0.43714510686222297
383, 0.4371397706503306
383.5, 0.4371336911986897
384, 0.43718561091915464
384.5, 0.43735837563604574
385, 0.43770886454975644
385.5, 0.4381065927389033
386, 0.43825084530881153
386.5, 0.4381897698175251
387, 0.43834809913152817
387.5, 0.43876399834200486
388, 0.43899113289741953
388.5, 0.4389372111925851
389, 0.4390242922444757
389.5, 0.4394031934133388
390, 0.4397613155105884
390.5, 0.43993582609161186
391, 0.44008128477669495
391.5, 0.44027924773980787
392, 0.4404157278819446
392.5, 0.44042564145255403
393, 0.4403935095931776
393.5, 0.4403887127170498
394, 0.4403992224563049
394.5, 0.44040496921773575
395, 0.4403960838663268
395.5, 0.4403785125936164
396, 0.4404008726060772
396.5, 0.4405158743126413
397, 0.4407628066732422
397.5, 0.44113689698650893
398, 0.44147421684715915
398.5, 0.4416433053419393
399, 0.44182277774124934
399.5, 0.4421952152527424
400, 0.4425429018040936
400.5, 0.4426035468747149
401, 0.4425598651970445
401.5, 0.4426908612942809
402, 0.44289832054012646
402.5, 0.44296919838027293
403, 0.44293496124084986
403.5, 0.4429206111172894
404, 0.44292848461618217
404.5, 0.44290956271006754
405, 0.4429079415137176
405.5, 0.4430108415857448
406, 0.4432076878781086
406.5, 0.44342726733541327
407, 0.44360402025768464
407.5, 0.4436813054912335
408, 0.443668325506837
408.5, 0.44362544628303735
409, 0.4436187046526556
409.5, 0.4437143323904077
410, 0.44390239533153164
410.5, 0.4441014735556372
411, 0.4442765104096118
411.5, 0.4444450979165012
412, 0.44462057692873036
412.5, 0.4448076796326106
413, 0.44499274685416423
413.5, 0.44513963627480313
414, 0.4452833644138511
414.5, 0.44556481508424584
415, 0.44596904673332205
415.5, 0.44621011199564253
416, 0.4461890048196321
416.5, 0.4462002260113629
417, 0.44639743990765535
417.5, 0.4465527666979333
418, 0.4465356330628032
418.5, 0.44655370645192916
419, 0.4467408344440168
419.5, 0.44691027793472504
420, 0.4469182874931745
420.5, 0.4469025972208851
421, 0.4470132598854152
421.5, 0.4472679203422054
422, 0.44763200864053776
422.5, 0.44797799963870777
423, 0.44819490263994755
423.5, 0.4483369522184216
424, 0.4484906216688891
424.5, 0.4486839327354616
425, 0.44890931987774263
425.5, 0.4490608086035641
426, 0.44904350991267517
426.5, 0.44904272288925295
427, 0.449301685126276
427.5, 0.4497058326791509
428, 0.4500075930170069
428.5, 0.4501416976725693
429, 0.4501415899482114
429.5, 0.45013066475346464
430, 0.4502606553493821
430.5, 0.45046283970763334
431, 0.4505490627014661
431.5, 0.4505240025491949
432, 0.4505163647484989
432.5, 0.4505275064156202
433, 0.4504706162231892
433.5, 0.45044258910697244
434, 0.45068196917952696
434.5, 0.4510926199127765
435, 0.4512733530561849
435.5, 0.4512164308305886
436, 0.4513311244078251
436.5, 0.45171609642534183
437, 0.4520853602714855
437.5, 0.45227720487686107
438, 0.45232218907460153
438.5, 0.45230161234445143
439, 0.4523507116482297
439.5, 0.4525241589259833
440, 0.45273850794391646
440.5, 0.45292623519153075
441, 0.4530723514045303
441.5, 0.4532114392506572
442, 0.4534674961041548
442.5, 0.4538613621513162
443, 0.4541525842469376
443.5, 0.454186079132752
444, 0.454120844253065
444.5, 0.4541075680151383
445, 0.4541277143927225
445.5, 0.45413955612869117
446, 0.45412556133479964
446.5, 0.454093244405153
447, 0.4541247070361808
447.5, 0.45428294656646917
448, 0.4544779218832876
448.5, 0.45462077906736686
449, 0.4548196985395697
449.5, 0.45518677945838404
450, 0.4555391747532186
450.5, 0.45564560320199243
451, 0.45558505269221905
451.5, 0.4555365243639746
452, 0.45555694934365043
452.5, 0.4556538707932093
453, 0.4558563909800122
453.5, 0.45619061232976577
454, 0.45656002424785413
454.5, 0.45681709811259175
455, 0.45696955677940754
455.5, 0.4571142567450004
456, 0.45729556679039696
456.5, 0.457516469425406
457, 0.45770253552531115
457.5, 0.4577343666682814
458, 0.45770155041029326
458.5, 0.4578579258588269
459, 0.4582371792515758
459.5, 0.4586661439539337
460, 0.45902913947139146
460.5, 0.4592804686934441
461, 0.4594455931212358
461.5, 0.45962576760917895
462, 0.4598257391720667
462.5, 0.45992302741311464
463, 0.45990516871760123
463.5, 0.4599285049329235
464, 0.46008638698540805
464.5, 0.46035040815980033
465, 0.46069013215596344
465.50000000000006, 0.46109074809286954
466, 0.46149257115190545
466.50000000000006, 0.46174303825098806
467, 0.4617693572277112
467.50000000000006, 0.46170316367358977
468, 0.46167231096638917
468.50000000000006, 0.46172441293253486
469, 0.46187609808156993
469.50000000000006, 0.4620912777373204
470, 0.4623116066876749
470.50000000000006, 0.46243714077872466
471, 0.46242032323867055
471.50000000000006, 0.4624346685138362
472, 0.46262291489108787
472.50000000000006, 0.4627938072330483
473, 0.4627630017013592
473.50000000000006, 0.4627797646128332
474, 0.4631155888129088
474.50000000000006, 0.4634911054770736
475, 0.46354394812668775
475.50000000000006, 0.4635029054782702
476, 0.46374507066377
476.50000000000006, 0.4641599829377774
477, 0.46446215823609804
477.50000000000006, 0.4645920910044523
478, 0.46460201525862754
478.50000000000006, 0.4645917846230525
479, 0.46467672364712076
479.50000000000006, 0.46487666840425834
480, 0.46515798925436014
480.50000000000006, 0.46552148663073256
481, 0.465977790835698
481.50000000000006, 0.4663518649564399
482, 0.4663569821170037
482.50000000000006, 0.46611597807241656
483, 0.46607036263808854
483.5, 0.4662881235770696
484, 0.46649696508124594
484.5, 0.4666467112913806
485, 0.46691932741466935
485.5, 0.46730647658621594
486, 0.46757814147890653
486.5, 0.46771680842210606
487, 0.46798333623980815
487.5, 0.46839454189804075
488, 0.4686028161597585
488.5, 0.46854559444492583
489, 0.4686486127411057
489.5, 0.4690538911874397
490, 0.46933106533295177
490.5, 0.4692919074771452
491, 0.46933853010485205
491.5, 0.46969937769469794
492, 0.47006731700468474
492.5, 0.47023426826871384
493, 0.4704157489436738
493.5, 0.47077219273644366
494, 0.4711294032032549
494.5, 0.471332897506085
495, 0.47147353878296216
495.5, 0.4716515706123835
496, 0.4718284409270739
496.5, 0.4719690376589116
497, 0.4721771437169465
497.5, 0.47253784759519746
498, 0.472890335844109
498.5, 0.4730680341118957
499, 0.4732387483656858
499.5, 0.47360758562018357
500.00000000000006, 0.47396362034523476
500.5, 0.4740183092421839
501.00000000000006, 0.4739785465716304
501.5, 0.4741994345595669
502.00000000000006, 0.4746148042695326
502.5, 0.47499104312273677
503.00000000000006, 0.47533090349718987
503.5, 0.47573806362789317
504.00000000000006, 0.47609706587276346
504.5, 0.4761938084269631
505.00000000000006, 0.47614881769172823
505.5, 0.47628209600450055
506.00000000000006, 0.4766718209470714
506.5, 0.4772162105878911
507.00000000000006, 0.47776652810079145
507.5, 0.4781462800095443
508.00000000000006, 0.47830940865689875
508.5, 0.47832902899969343
509.00000000000006, 0.4783106188537295
509.5, 0.4783839566954273
510.00000000000006, 0.4785709610833533
510.5, 0.47877373445743066
511.00000000000006, 0.4789477093877307
511.5, 0.47912185372825367
512, 0.4793038996380786
512.5, 0.4794665280946607
513, 0.47962406602848273
513.5, 0.47985859239166484
514, 0.4802039321830752
514.5, 0.48060045972263865
515, 0.4809796237522791
515.5, 0.4812737816572479
516, 0.48145966050553524
516.5, 0.4816099164280663
517, 0.48178244283134164
517.5, 0.4819685722129975
518, 0.48215153703155245
518.5, 0.48231962817399154
519, 0.4824775330183776
519.5, 0.4826780241733749
520, 0.48297468010537403
520.5, 0.4833914558382332
521, 0.48392067148751794
521.5, 0.4844550155664449
522, 0.48488221427350797
522.5, 0.48517830436592835
523, 0.48536071688749527
523.5, 0.485531491222728
524, 0.4858041305472446
524.5, 0.48620372067780726
525, 0.4867143197950127
525.5, 0.48725827943015243
526, 0.4877339320396019
526.5, 0.4880456682702762
527, 0.4881230231250906
527.5, 0.4880870261750868
528, 0.4881415364007321
528.5, 0.48834927839108044
529, 0.4886859854232889
529.5, 0.4890545938499694
530, 0.48932184409679025
530.5, 0.4894796564720112
531, 0.48960870046747706
531.5, 0.4897821894658754
532, 0.490061640906274
532.5, 0.49042883348338717
533, 0.4907982832605605
533.5, 0.4911466276789779
534, 0.49151185515986695
534.5, 0.4918784709862233
535, 0.49217080879681396
535.5, 0.49235439529043334
536, 0.49245088828709915
536.5, 0.49257410807177104
537, 0.49295395147648946
537.5, 0.49355474902176355
538, 0.49392863846659374
538.5, 0.49391187471460696
539, 0.4938798715211149
539.5, 0.4940545060440943
540, 0.494267273519286
540.5, 0.4944174403340712
541, 0.49464113263304443
541.5, 0.4950069367638953
542, 0.49534950406614864
542.5, 0.4955470529631022
543, 0.49568711232777807
543.5, 0.49585789573192407
544, 0.4960439364148389
544.5, 0.4962204180198785
545, 0.49639767070260354
545.5, 0.49658424152234215
546, 0.4967525261817156
546.5, 0.49689099043361173
547, 0.497097285174276
547.5, 0.4974529467176232
548, 0.49780993596210843
548.5, 0.49800214274106946
549, 0.4981642144487207
549.5, 0.4984889017577332
550, 0.4988647284428446
550.5, 0.4990953535750019
551, 0.4992433985119228
551.5, 0.49947564481300155
552, 0.4998668317207209
552.5, 0.500425639850593
553, 0.5009688721450891
553.5, 0.5012276993508568
554, 0.5011694898037071
554.5, 0.5009189728108878
555, 0.50072149815087
555.5, 0.500878597364324
556, 0.5012930539787962
556.5, 0.5015771304993714
557, 0.5017118435452125
557.5, 0.5019899710545613
558, 0.5023901541371767
558.5, 0.502588668695442
559, 0.5025522152877524
559.5, 0.502568025851143
560, 0.5027511735128418
560.5, 0.5029915221343955
561, 0.5031884912137453
561.5, 0.5032735570308822
562, 0.5032595412400568
562.5, 0.5032755939225785
563, 0.5033264523060872
563.5, 0.5031951798885201
564, 0.5028219979521665
564.5, 0.5024790134822172
565, 0.5023895366061828
565.5, 0.5025986229870735
566, 0.5030137441808356
566.5, 0.5032722446823231
567, 0.5031474306705052
567.5, 0.5028736921992946
568, 0.5026762424484688
568.5, 0.5025291224565508
569, 0.5023702574342789
569.5, 0.5021725755042167
570, 0.50194631532711
570.5, 0.501815729803224
571, 0.5018576299611192
571.5, 0.501827572152149
572, 0.5014949020570809
572.5, 0.5011184732365586
573, 0.5010245325771744
573.5, 0.5010870200775439
574, 0.501048565734346
574.5, 0.50080462501814
575, 0.5003323119597138
575.5, 0.4997689151984396
576, 0.49930434557812553
576.5, 0.4989879798939234
577, 0.4987933868800525
577.5, 0.4986291152906489
578, 0.4983761757107924
578.5, 0.49800068224662963
579, 0.49752254557961706
579.5, 0.4969797089152145
580, 0.49642141904533144
580.5, 0.4958893028933098
581, 0.49541979546324866
581.5, 0.4950633446013839
582, 0.49487426832021864
582.5, 0.4947352450904523
583, 0.4943767506796425
583.5, 0.49380596189597614
584, 0.49332535754011286
584.5, 0.49312064065960026
585, 0.49321850554039603
585.5, 0.4934586662729433
586, 0.49345247314297913
586.5, 0.49308535794850683
587, 0.49266494081709256
587.5, 0.492337620096411
588, 0.49193188661098763
588.5, 0.49138273281636924
589, 0.4908735322720066
589.5, 0.49051113012296244
590, 0.49019102978042073
590.5, 0.4898345295452532
591, 0.4894819887526507
591.5, 0.4891517578535256
592, 0.4887619480242369
592.5, 0.4882545939865799
593, 0.48768834301325303
593.5, 0.48713370013892665
594, 0.48663047147989646
594.5, 0.4862134934400343
595, 0.48592263633244026
595.5, 0.48576128649636596
596, 0.4855737701114361
596.5, 0.4852230984943082
597, 0.48486254681890517
597.5, 0.484672415704551
598, 0.48450933747441616
598.5, 0.48417474257636395
599, 0.4838028475719872
599.5, 0.4836052751832607
600, 0.4834483384064946
600.5, 0.48310005721975735
601, 0.48272590935173487
601.5, 0.48263379531044037
602, 0.48268293841530074
602.5, 0.4825206121823358
603, 0.4821143510923347
603.5, 0.48161769964238266
604, 0.4810834172621633
604.5, 0.48050144728440514
605, 0.479958935643644
605.5, 0.47960825408066654
606, 0.47945432071254135
606.5, 0.4793819849813524
607, 0.4793722734234672
607.5, 0.4794944905136771
608, 0.4796966523730565
608.5, 0.47980211013076424
609, 0.4797840061058767
609.5, 0.4797918782176608
610, 0.4798288876724327
610.5, 0.47969926069636604
611, 0.4793445517928153
611.5, 0.47892247722162384
612, 0.47855151784312955
612.5, 0.4782598830854591
613, 0.47806052996899495
613.5, 0.47795361632529254
614, 0.4779335485577677
614.5, 0.4779859339948358
615, 0.47811739468586734
615.5, 0.47838427395909544
616, 0.478773310926906
616.5, 0.4790770398800367
617, 0.4791403468245111
617.5, 0.4790450952992509
618, 0.4788892379711759
618.5, 0.47868645210293614
619, 0.4784602470371063
619.5, 0.4783322812771542
620, 0.4784132423764146
620.5, 0.4786755025785898
621, 0.479044059422992
621.5, 0.47938960785284823
622, 0.47960159197629426
622.5, 0.4797536545301425
623, 0.4799510027673598
623.5, 0.4801214271989567
624, 0.4801546503274624
624.5, 0.4801338728337039
625, 0.48018936993864336
625.5, 0.4801828475534856
626, 0.4798934056588313
626.5, 0.47949767643590524
627, 0.47934539784260444
627.5, 0.4793984798985832
628, 0.4794099115369539
628.5, 0.4793916899201275
629, 0.4795129338325371
629.5, 0.47971848052784616
630, 0.4797991496669828
630.5, 0.479770646746266
631, 0.47982910511054144
631.5, 0.4800206284841575
632, 0.48024949265138095
632.5, 0.4804360626609673
633, 0.48052453421025576
633.5, 0.4805188019616796
634, 0.4804889035271569
634.5, 0.48048321092763346
635, 0.48051680260664464
635.5, 0.48054550729453094
636, 0.4804464864062574
636.5, 0.48023227817150327
637, 0.4801374835570187
637.5, 0.4802868054585735
638, 0.4805757161341514
638.5, 0.4808367009297425
639, 0.4808247880765337
639.5, 0.4804671056840958
640, 0.480092511548592
640.5, 0.4799182587375954
641, 0.47974862357129466
641.5, 0.4794182441067917
642, 0.4790248903886245
642.5, 0.47866962198805874
643, 0.47831850428995126
643.5, 0.47794050500305585
644, 0.4776107195171241
644.5, 0.4773986357260337
645, 0.4772544597075381
645.5, 0.4771417126381735
646, 0.4772242205482268
646.5, 0.4776256376642092
647, 0.4779607126384935
647.5, 0.47778937735529214
648, 0.4773241481474061
648.5, 0.4769509491613174
649, 0.4766145380264425
649.5, 0.47611699059667123
650, 0.4755622297411868
650.5, 0.4751612164247214
651, 0.474834705591925
651.5, 0.474375929464957
652, 0.47381628469083836
652.5, 0.47332052253936485
653, 0.472986137577999
653.5, 0.47285867873413434
654, 0.47288533657039933
654.5, 0.47294462255303993
655, 0.4729474548812358
655.5, 0.4728368163621939
656, 0.47264429698014154
656.5, 0.47247543354789734
657, 0.4723179672516741
657.5, 0.4720436848155237
658, 0.47166596262242344
658.5, 0.4713591135498133
659, 0.47118560894351247
659.5, 0.4710580629369011
660, 0.47089749437051276
660.5, 0.4706503606431528
661, 0.4703034938977635
661.5, 0.46990374241581456
662, 0.4695195964037544
662.5, 0.46924737184161913
663, 0.4690927287811698
663.5, 0.46888032217646514
664, 0.46852183328792674
664.5, 0.46816372305329546
665, 0.46793590047281197
665.5, 0.467852085497628
666, 0.4678709044624395
666.5, 0.46784724470684513
667, 0.4676837060185961
667.5, 0.46748635136279637
668, 0.46734208279938705
668.5, 0.4671318113888643
669, 0.46676179594532863
669.5, 0.46641919121572617
670, 0.4662708015356013
670.5, 0.4660769567947033
671, 0.46558044161875767
671.5, 0.4650187193395623
672, 0.46471895479430514
672.5, 0.46461574492891755
673, 0.4645151560792884
673.5, 0.4643056660482261
674, 0.4639377812280264
674.5, 0.4635770935539987
675, 0.4634529860355805
675.5, 0.46350283786032065
676, 0.4635323632895636
676.5, 0.46351979553352707
677, 0.46353352994906116
677.5, 0.463539437517278
678, 0.46344440230472805
678.5, 0.4632505044163737
679, 0.4630282769222889
679.5, 0.46284727239148504
680, 0.4627708745454123
680.5, 0.4627836885342014
681, 0.4628030586340557
681.5, 0.46279956021137947
682, 0.4627978273171197
682.5, 0.4628013038283134
683, 0.46278871244426667
683.5, 0.4627764728065409
684, 0.46282594395328946
684.5, 0.462875969114419
685, 0.4626982418360358
685.5, 0.4622946148163435
686, 0.4620333894421045
686.5, 0.4620539840453647
687, 0.4620544468138429
687.5, 0.4618706585168605
688, 0.4616832740006994
688.5, 0.4616406972139714
689, 0.46173939966394395
689.5, 0.4619283866815004
690, 0.4620896966337218
690.5, 0.4621322574507375
691, 0.4620643250194878
691.5, 0.46191153094765947
692, 0.4617018181123812
692.5, 0.4614805341691438
693, 0.461351505067094
693.5, 0.46137037282517557
694, 0.4613557037519379
694.5, 0.461154177793782
695, 0.46099195662542836
695.5, 0.46111392625871284
696, 0.46133453577844474
696.5, 0.46139198805201953
697, 0.4613543827333594
697.5, 0.46137140121917386
698, 0.46136891212722164
698.5, 0.4612162072144257
699, 0.46102034790958235
699.5, 0.46096566281646145
700, 0.46099296853933824
700.5, 0.460932499149699
701, 0.46072621622990384
701.5, 0.46038719169174025
702, 0.4600178815611988
702.5, 0.4597638996597566
703, 0.4596093333683692
703.5, 0.4594331701339971
704, 0.4592438583316786
704.5, 0.4591476137031406
705, 0.4591593108172555
705.5, 0.45921146901817833
706, 0.4592240918335341
706.5, 0.4591122787252775
707, 0.45891242946027877
707.5, 0.4587888598642481
708, 0.4587941534656119
708.5, 0.4588390708230322
709, 0.45885122303106374
709.5, 0.45879237485198043
710, 0.45863560500056955
710.5, 0.45836783052114305
711, 0.4580115835581765
711.5000000000002, 0.45764667309001605
712, 0.4573060194667291
712.5, 0.45692497299593937
713, 0.4565153684497637
713.5000000000002, 0.45627168049655753
714, 0.4562750535711456
714.5, 0.45628535152588057
715, 0.4561263707416774
715.5000000000002, 0.4559141682664687
716, 0.4557514527828196
716.5, 0.4555577163338935
717, 0.4552486368328412
717.5000000000002, 0.45484226469859834
718, 0.4544080817428616
718.5, 0.45412963529805117
719, 0.4541278971022302
719.5000000000002, 0.45413484967131046
720, 0.4538631334025762
720.5, 0.4534467869403117
721, 0.4531279139398564
721.5000000000002, 0.45303224882653204
722, 0.45320079805390867
722.5, 0.4533933065076716
723, 0.453316721262901
723.5000000000002, 0.45308669051437966
724, 0.4529516279060103
724.5, 0.452778204423845
725, 0.4522801773548818
725.5000000000002, 0.4515031089186762
726, 0.4506724706541416
726.5, 0.44997614388235074
727, 0.4495651840979378
727.5000000000002, 0.4494316145856784
728, 0.4494555160769057
728.5, 0.4494737008612988
729, 0.44930114009515665
729.5000000000002, 0.44892347969363233
730, 0.44847355229254515
730.5, 0.44809854863580856
731, 0.4479474029410634
731.5000000000002, 0.4479783888246772
732, 0.4479517228985147
732.5, 0.4477715193920362
733, 0.4475214634993716
733.5000000000002, 0.4472019982163241
734, 0.44669397835991664
734.5, 0.44608523332907524
735, 0.44577694274297686
735.5000000000002, 0.4459303560132143
736, 0.4462709213669781
736.5, 0.44652559950468584
737, 0.4464997658700054
737.5000000000002, 0.4461539084279249
738, 0.44575037050439614
738.5, 0.4454379558642839
739.0000000000002, 0.44501692118106717
739.5, 0.4444102378659621
740, 0.443987990826506
740.5, 0.4439813413390632
741.0000000000002, 0.44400327084019187
741.5, 0.44371060753603897
742, 0.44327916801279543
742.5, 0.4429199029466835
743.0000000000002, 0.44257300332367977
743.5, 0.442127505427675
744, 0.4415245884680312
744.5, 0.44080242644957734
745.0000000000002, 0.44039900580004565
745.5, 0.4407258016233646
746, 0.44139563987624897
746.5, 0.44182315371665637
747.0000000000002, 0.441872422461111
747.5, 0.441599411656581
748, 0.44120135382791426
748.5, 0.44091239668356474
749.0000000000002, 0.44077594733367154
749.5, 0.4407424739769866
750, 0.4407551751536858
750.5, 0.4407589522658252
751.0000000000002, 0.44075538689300464
751.5, 0.4407748506242447
752, 0.44077953410165616
752.5, 0.4406902327165684
753.0000000000002, 0.4404997986320647
753.5, 0.4402589391693321
754, 0.4400684393637082
754.5, 0.4400577759807748
755.0000000000002, 0.44010566475838664
755.5, 0.43986728844574585
756, 0.4393030688536247
756.5, 0.43869964028062325
757.0000000000002, 0.43829976553108907
757.5, 0.4382730994183184
758, 0.4386237955716977
758.5, 0.43914575345216444
759.0000000000002, 0.4395830658925759
759.5, 0.43963205328216837
760, 0.43925836218496295
760.5, 0.4388668659679563
761.0000000000002, 0.4386861394577455
761.5, 0.4385545409351502
762, 0.43836551391800316
762.5, 0.43820687860874885
763.0000000000002, 0.43816237169857275
763.5, 0.43825307026766414
764, 0.43844740937901283
764.5, 0.4386015331100396
765.0000000000002, 0.43861897798793903
765.5, 0.43859047913171934
766, 0.43859854081423255
766.5, 0.438590186635584
767.0000000000002, 0.43848917560997924
767.5, 0.43823472004249686
768, 0.43782830839837383
768.5, 0.4375157909438886
769.0000000000002, 0.43750439948642217
769.5, 0.4375199116577516
770, 0.4372389077710438
770.5, 0.4368320489449228
771.0000000000002, 0.43658133867194293
771.5, 0.43644752442863377
772, 0.4362902165787582
772.5, 0.4361027772851792
773.0000000000002, 0.43594810453662547
773.5, 0.435991714930105
774, 0.4364065757395835
774.5000000000002, 0.43699413598353287
775, 0.43738658094318095
775.5, 0.437509458537119
776, 0.437458233380263
776.5000000000002, 0.4372630755728881
777, 0.4369180968652663
777.5, 0.4365418852083215
778, 0.43633686308886965
778.5000000000002, 0.43635681276849647
779, 0.4365284698739026
779.5, 0.43672727846026305
780, 0.43679303472949715
780.5000000000002, 0.43676015002825486
781, 0.4368561768690572
781.5, 0.4370744411839831
782, 0.43713558389658347
782.5000000000002, 0.4369511012157965
783, 0.4366938464468505
783.5, 0.43649658523012147
784, 0.4364099732866631
784.5000000000002, 0.43641896038283434
785, 0.4364151578571335
785.5, 0.4363792341246847
786, 0.43646356283239063
786.5000000000002, 0.4366884647009064
787, 0.4367775452519309
787.5, 0.4365964393997489
788, 0.4364052447910379
788.5000000000002, 0.4363910301547673
789, 0.4364243609521029
789.5, 0.4364018112795609
790, 0.4364310009215907
790.5000000000002, 0.4365963609163469
791, 0.4367906425926217
791.5, 0.43688189066216776
792, 0.43678638023788297
792.5000000000002, 0.43647289632235964
793, 0.43608011973729
793.5, 0.43577959067498295
794, 0.43569455870961304
794.5000000000002, 0.4358747016701261
795, 0.4360574682112329
795.5, 0.4359544192242969
796, 0.4357284262546455
796.5000000000002, 0.4356595311572412
797, 0.4356972123263011
797.5, 0.43568276890007107
798, 0.4356799196380611
798.5000000000002, 0.4358287120667642
799, 0.43602744468753996
799.5, 0.43607518604453954
800, 0.4360472753189597
800.5000000000002, 0.43615886213695065
801, 0.4363652384903317
801.5, 0.4364644995396212
802, 0.4364409950968945
802.5000000000002, 0.436411921124948
803, 0.4364169335426349
803.5, 0.4364305223891074
804, 0.4364320670571188
804.5000000000002, 0.4364091122948702
805, 0.43639668393385844
805.5, 0.4364750272888608
806, 0.43665667186224655
806.5000000000002, 0.4368758351127213
807, 0.4370671441841618
807.5, 0.43717192203352906
808.0000000000002, 0.43717612964965435
808.5000000000002, 0.4371263251263915
809, 0.43699889987315566
809.5, 0.43665551127322366
810.0000000000002, 0.43609931618808595
810.5000000000002, 0.43559683709173613
811, 0.4353470377939255
811.5, 0.43536501913235404
812.0000000000002, 0.43556849666545017
812.5, 0.43570895796317666
813, 0.4356714531418052
813.5, 0.4357233824551102
814.0000000000002, 0.4360506205565208
814.5, 0.4364535410831798
815, 0.43671691329917606
815.5, 0.43678349064421973
816.0000000000002, 0.4366537894850496
816.5, 0.4364236813228439
817, 0.4362019991745364
817.5, 0.4360652475957765
818.0000000000002, 0.4360518572370745
818.5, 0.4360644442088778
819, 0.43601297742026557
819.5, 0.43604229722377796
820.0000000000002, 0.43632145331839556
820.5, 0.43672304300551024
821, 0.4370308915063327
821.5, 0.43714957619334116
822.0000000000002, 0.4370503226551242
822.5, 0.4368367044972328
823, 0.436653885161313
823.5, 0.4364845560306666
824.0000000000002, 0.43624847123991295
824.5, 0.4360685909624491
825, 0.43615511780384375
825.5, 0.4363770892755716
826.0000000000002, 0.4364154288225518
826.5, 0.4363712783641708
827, 0.4366176866969874
827.5, 0.43703697720236556
828.0000000000002, 0.43713992239513966
828.5, 0.4369042088122762
829, 0.436721183893095
829.5, 0.4367353216678739
830.0000000000002, 0.43683101387736856
830.5, 0.4368622067817681
831, 0.43666717624820006
831.5, 0.43627965298143623
832.0000000000002, 0.43597051034649137
832.5, 0.4358172508517685
833, 0.4356138549860289
833.5, 0.43526227104548554
834.0000000000002, 0.4348610917627346
834.5, 0.4344928563364341
835, 0.4341841890165511
835.5, 0.4339670297488768
836.0000000000002, 0.43389353881591575
836.5, 0.43393196151298363
837, 0.4338656485643957
837.5, 0.4335561341849685
838.0000000000002, 0.433111430213157
838.5, 0.43268278803131965
839, 0.43243994388894536
839.5, 0.4325031864142024
840.0000000000002, 0.4328317410653344
840.5, 0.43329175799606034
841, 0.4335334995154144
841.5, 0.43329310981993363
842.0000000000002, 0.43282649645027405
842.5, 0.4324418600368204
843, 0.432114272812841
843.5000000000002, 0.4317531476680486
844.0000000000002, 0.43140235153535167
844.5, 0.43114126412651865
845, 0.43101127020489216
845.5000000000002, 0.4310179159653267
846.0000000000002, 0.431021569003153
846.5, 0.43086313379730246
847, 0.43066772545230847
847.5000000000002, 0.4306473577833684
848, 0.43067070900976323
848.5, 0.4304647810807558
849, 0.43006065663249904
849.5000000000002, 0.4296506902391173
850, 0.4293076194350801
850.5, 0.4290307984589319
851, 0.42886009834824845
851.5000000000002, 0.428861627895722
852, 0.4290543846091154
852.5, 0.4294135743659392
853, 0.4297972862991374
853.5000000000002, 0.42996727166831905
854, 0.42979568281553404
854.5, 0.4292708473641017
855, 0.42852749514463084
855.5000000000002, 0.4278483985137239
856, 0.42732934531488154
856.5, 0.4268327518037438
857, 0.4262951621682415
857.5000000000002, 0.42577094186540054
858, 0.4252602486792497
858.5, 0.4246699204352803
859, 0.4239657053343343
859.5000000000002, 0.4232259624785173
860, 0.42259416909778735
860.5, 0.42231499038577625
861, 0.42246415893709566
861.5000000000002, 0.4227376667699586
862, 0.4228454997859038
862.5, 0.42264495644169053
863, 0.42212443094397034
863.5000000000002, 0.42156482826809005
864, 0.421184690652574
864.5, 0.420870302662672
865, 0.4205035318625764
865.5000000000002, 0.42016233362042543
866, 0.4199372833916497
866.5, 0.41980764433500295
867, 0.4197439752463894
867.5000000000002, 0.419795289619439
868, 0.41999106922894913
868.5, 0.4201593697937993
869, 0.42010552196865036
869.5000000000002, 0.4198541607570453
870, 0.4195045039277915
870.5, 0.4191456936613881
871, 0.41886140644549796
871.5000000000002, 0.41872450781862014
872, 0.4187713495930028
872.5, 0.4187752650167418
873, 0.4184238789948601
873.5000000000002, 0.4178246413399672
874, 0.41730000166934655
874.5, 0.41697883822728643
875, 0.4168635946029985
875.5000000000002, 0.41688943407041956
876, 0.41694768987233355
876.5, 0.41695009290242013
877.0000000000002, 0.41683097262802915
877.5000000000002, 0.4166348313175392
878, 0.4164975310808333
878.5, 0.416495166699402
879.0000000000002, 0.41663992273476913
879.5000000000002, 0.41684446594023095
880, 0.41692410694637183
880.5, 0.41688860526061056
881.0000000000002, 0.4169787925916255
881.5000000000002, 0.4172044058705928
882, 0.41725546077256737
882.5, 0.4170520257253524
883.0000000000002, 0.4168847299378017
883.5000000000002, 0.4168917336667075
884, 0.41691099434767886
884.5, 0.4168763632455911
885.0000000000002, 0.4169499826136397
885.5, 0.41717082562674057
886, 0.41727228667114935
886.5, 0.4171066539081325
887.0000000000002, 0.41689044685415666
887.5, 0.4167612409171092
888, 0.41651529593623116
888.5, 0.41600886633491396
889.0000000000002, 0.41543743227244456
889.5, 0.41500588873902877
890, 0.41474339429008233
890.5, 0.4146485872859845
891.0000000000002, 0.41474275319185405
891.5, 0.4150328743088173
892, 0.41544217945206163
892.5, 0.4158659806981495
893.0000000000002, 0.4161725820022789
893.5, 0.41625673068510904
894, 0.4162026663849533
894.5, 0.41614933234798246
895.0000000000002, 0.4161743838981221
895.5, 0.4163172013830081
896, 0.41651280679730973
896.5, 0.41665019238683143
897.0000000000002, 0.41661039991501403
897.5, 0.4163011523417365
898, 0.4159134001624556
898.5, 0.41575988655893614
899.0000000000002, 0.4158096937126383
899.5, 0.41583845608704995
900, 0.41582346514957114
900.5, 0.41587739683844693
901.0000000000002, 0.41606361203352915
901.5, 0.4163990836970053
902, 0.41677851526890997
902.5, 0.4170005560135758
903.0000000000002, 0.41699258054906285
903.5, 0.41680955642682005
904, 0.4165973232222545
904.5, 0.41658489538566
905.0000000000002, 0.4167878237607566
905.5, 0.41697010833654846
906, 0.41698947184475754
906.5, 0.4168460508634021
907.0000000000002, 0.41663193869696347
907.5, 0.41655723442749115
908, 0.4167156581641439
908.5, 0.41699744409103223
909.0000000000002, 0.41733015606858104
909.5, 0.41774223832785984
910, 0.41817391517681124
910.5, 0.4183650702477154
911.0000000000002, 0.41820388683918785
911.5, 0.4179722037603345
912, 0.41791110170289625
912.5000000000002, 0.4180169160133538
913.0000000000002, 0.41821894086956113
913.5, 0.41836452280731296
914, 0.418361265531609
914.5000000000002, 0.4183615878224577
915.0000000000002, 0.41850747644724506
915.5, 0.41871815399880197
916, 0.41889391820682687
916.5000000000002, 0.4190709289975688
917.0000000000002, 0.4192891641420834
917.5, 0.41943853969554745
918, 0.41938799690935447
918.5000000000002, 0.41913211041594056
919.0000000000002, 0.4187315196866701
919.5, 0.41839372013881915
920, 0.41835106817209
920.5000000000002, 0.41862452094996505
921, 0.41913179569355374
921.5, 0.4196828657166849
922, 0.4200706984446472
922.5000000000002, 0.42039856590423996
923, 0.4209017803728018
923.5, 0.42146321280672794
924, 0.4217833356637428
924.5000000000002, 0.4219127636081895
925, 0.42211417962009135
925.5, 0.42232112712937453
926, 0.42224387777152295
926.5000000000002, 0.4220061757494371
927, 0.4220595967509081
927.5, 0.4224595448961076
928, 0.42288861589342075
928.5000000000002, 0.4230968817875158
929, 0.42292798321262837
929.5, 0.42251236886686805
930, 0.4222977965451695
930.5000000000002, 0.42246746002514823
931, 0.42284541064183745
931.5, 0.4233420307355459
932, 0.42402208397387253
932.5000000000002, 0.42479895745793483
933, 0.4253284317228764
933.5, 0.42549593098753624
934, 0.4256356760469837
934.5000000000002, 0.42588825915569606
935, 0.42591651486917836
935.5, 0.4256323037332336
936, 0.42563148384570526
936.5000000000002, 0.4262782138472663
937, 0.42711954647444805
937.5, 0.42773276730211707
938, 0.4281397758975497
938.5000000000002, 0.4284043812384287
939, 0.4284739761756232
939.5, 0.42837084859974983
940, 0.4284726581191952
940.5000000000002, 0.42908453747826925
941, 0.42988472837235614
941.5, 0.4304881336857297
942, 0.4309611657225878
942.5000000000002, 0.43146990873559965
943, 0.4320160717149988
943.5, 0.4325544182212623
944, 0.4330810658639346
944.5000000000002, 0.4336069610526584
945, 0.4341398680049432
945.5, 0.43468270513742546
946.0000000000002, 0.43521113985562254
946.5000000000002, 0.4356829280335738
947, 0.43600974024410366
947.5, 0.43609906693943545
948.0000000000002, 0.43606250602748275
948.5000000000002, 0.43611767431452897
949, 0.43631936250513736
949.5, 0.43661625964660855
950.0000000000002, 0.4369777477065794
950.5000000000002, 0.43738549169526963
951, 0.4377524336350541
951.5, 0.43794761525440695
952.0000000000002, 0.43808137127063296
952.5000000000002, 0.43846896036281047
953, 0.43905917654728466
953.5, 0.43943522853107675
954.0000000000002, 0.4395584720596568
954.5000000000002, 0.4398279053035963
955, 0.4403755255750045
955.5, 0.44097052205459153
956.0000000000002, 0.44149505863176486
956.5000000000002, 0.44202128020442155
957, 0.4425691988613869
957.5, 0.4430553271535883
958.0000000000002, 0.44342893824819407
958.5, 0.4437130013882239
959, 0.4440000249038454
959.5, 0.4445033301506722
960.0000000000002, 0.44526085667619164
960.5, 0.445894558537019
961, 0.44614441335642563
961.5, 0.44617867049695803
962.0000000000002, 0.4462381274258027
962.5, 0.44658465425502736
963, 0.4473698169687834
963.5, 0.4483874349286322
964.0000000000002, 0.4493793333318987
964.5, 0.4501513452022612
965, 0.4505917911327224
965.5, 0.4508634114562108
966.0000000000002, 0.4511666120628076
966.5, 0.4515595789595276
967, 0.4520516711322399
967.5, 0.45260894774562965
968.0000000000002, 0.45317984921511556
968.5, 0.453691137244456
969, 0.45408083917189124
969.5, 0.45441429127500255
970.0000000000002, 0.45478804233366577
970.5, 0.45514089220450704
971, 0.4553601290593533
971.5, 0.45551502336066274
972.0000000000002, 0.45575827456187035
972.5, 0.456138852282687
973, 0.4566403573583526
973.5, 0.4571858892362929
974.0000000000002, 0.4576634247744338
974.5, 0.45800593307359927
975, 0.4581886266406108
975.5, 0.45833771434015713
976.0000000000002, 0.45868779359429324
976.5, 0.45924808994068755
977, 0.45982338899049235
977.5, 0.4602099557055389
978.0000000000002, 0.46021441197294244
978.5, 0.4599694753543476
979, 0.4599593342484667
979.5000000000002, 0.4603315715711708
980.0000000000002, 0.46079968272467287
980.5, 0.4612784076685751
981, 0.4619929205566885
981.5000000000002, 0.46293490181252384
982.0000000000002, 0.4637043843946743
982.5, 0.46409368222951997
983, 0.4642829330213054
983.5000000000002, 0.46444353471834454
984.0000000000002, 0.4646563056452411
984.5, 0.4649736614114589
985, 0.4654088236012083
985.5000000000002, 0.46594041030402034
986.0000000000002, 0.4664755061657937
986.5, 0.4669105373175467
987, 0.46714188196358875
987.5000000000002, 0.46714451457005424
988.0000000000002, 0.46713544120019657
988.5, 0.4672923441631416
989, 0.4674944368135938
989.5000000000002, 0.46766856792760714
990.0000000000002, 0.4681848698421084
990.5, 0.4693068763985311
991, 0.47033582330994184
991.5000000000002, 0.4705411022209075
992.0000000000002, 0.4703866398867461
992.5, 0.47057643512661296
993, 0.4710323430927643
993.5000000000002, 0.47146580684568506
994, 0.4720307448501059
994.5, 0.4729913615637501
995, 0.4741127620593796
995.5000000000002, 0.47496708442372004
996, 0.475398657721688
996.5, 0.475407544088411
997, 0.47516726182515434
997.5000000000002, 0.4749322962714434
998, 0.47477035900073805
998.5, 0.47464074582087257
999, 0.4746387707962657
999.5000000000002, 0.47494299382134064
1000, 0.4755145706285424
1000.5, 0.4761451675961019
1001, 0.47668440304333903
1001.5000000000002, 0.4770462937875882
1002, 0.4773546236389309
1002.5, 0.47792263529277657
1003, 0.47869608024324284
1003.5000000000002, 0.4792213887245347
1004, 0.47937551323323335
1004.5, 0.4794582108661626
1005, 0.47963449361057076
1005.5000000000002, 0.47985387760029274
1006, 0.480149926593877
1006.5, 0.4807035421684701
1007, 0.4814778586828431
1007.5000000000002, 0.48204971344257697
1008, 0.4822303602750322
1008.5, 0.4823439752004931
1009, 0.4826457975645958
1009.5000000000002, 0.48312432911882397
1010, 0.483761102845944
1010.5, 0.48460171894173276
1011, 0.4855834719879605
1011.5000000000002, 0.48632879418780517
1012, 0.486586690427824
1012.5, 0.4866458327491604
1013, 0.4867987524895766
1013.5000000000002, 0.487004909050065
1014, 0.4871816830988446
1014.5, 0.48735808404059133
1015.0000000000002, 0.48760324641121
1015.5000000000002, 0.4880439453508173
1016, 0.48875406500714347
1016.5, 0.48946747759687825
1017.0000000000002, 0.48989389279730955
1017.5000000000002, 0.49019768098328376
1018, 0.49065338847233053
1018.5, 0.49122592752428396
1019.0000000000002, 0.4917764449850397
1019.5000000000002, 0.4922973486280299
1020, 0.4928320324804346
1020.5, 0.49336426956901713
1021.0000000000002, 0.4938434208267508
1021.5000000000002, 0.4941737040697174
1022, 0.49425519552878294
1022.5, 0.49421802774690227
1023.0000000000002, 0.4943140852812228
1023.5000000000002, 0.4945220263432003
1024, 0.4946490090741522
1024.5, 0.49479467243419695
1025.0000000000002, 0.495268144197585
1025.5000000000002, 0.4960278816727123
1026, 0.4967346374297632
1026.5, 0.4972554157292888
1027.0000000000002, 0.4976642274937716
1027.5000000000002, 0.49801675091402897
1028, 0.4983405904298618
1028.5, 0.4986808046890736
1029.0000000000002, 0.499103816177333
1029.5000000000002, 0.4996302708821362
1030, 0.5002174917511485
1030.5, 0.5007834448192818
1031.0000000000002, 0.5011952184693786
1031.5, 0.5013962716513334
1032, 0.5014643492844276
1032.5, 0.5015547904204865
1033.0000000000002, 0.5019420840412703
1033.5, 0.5026834355128353
1034, 0.5033579192162118
1034.5, 0.5037149490644928
1035.0000000000002, 0.5040407019037023
1035.5, 0.5045575647051254
1036, 0.5051195269885943
1036.5, 0.5056120908081058
1037.0000000000002, 0.506191073433786
1037.5, 0.5069495999616785
1038, 0.5076043803644658
1038.5, 0.507896409041621
1039.0000000000002, 0.5079563149208268
1039.5, 0.5080484215292308
1040, 0.5086149546408433
1040.5, 0.5099897456866135
1041.0000000000002, 0.5117489662188899
1041.5, 0.5132665179691551
1042, 0.5140668317510524
1042.5, 0.5138545253990408
1043.0000000000002, 0.5131389632474238
1043.5, 0.512662054008605
1044, 0.5126106572220396
1044.5, 0.5129278068059935
1045.0000000000002, 0.5135343381628739
1045.5, 0.5143403341813193
1046, 0.5152519426769445
1046.5, 0.5161764400096152
1047.0000000000002, 0.517056056398934
1047.5, 0.5178553527484956
1048, 0.5185514330573042
1048.5000000000002, 0.5191337242113659
1049.0000000000002, 0.5196502880142853
1049.5, 0.5201877519083613
1050, 0.5207308149313055
1050.5000000000002, 0.521181010172667
1051.0000000000002, 0.5215252067584405
1051.5, 0.521833413398479
1052, 0.5221757747734714
1052.5000000000002, 0.5226170012151585
1053.0000000000002, 0.5231547143973585
1053.5, 0.5237091238953817
1054, 0.524239471822355
1054.5000000000002, 0.5247617866973419
1055.0000000000002, 0.5252903393309308
1055.5, 0.5258309884328903
1056, 0.5263720262648084
1056.5000000000002, 0.5268748700797212
1057.0000000000002, 0.5273656841675631
1057.5, 0.5279921679204811
1058, 0.5287596642958876
1058.5000000000002, 0.5293569976235545
1059.0000000000002, 0.5295924238744731
1059.5, 0.5296364940198375
1060, 0.5297126892616257
1060.5000000000002, 0.5300505557069464
1061.0000000000002, 0.5307429460199178
1061.5, 0.5314828230618309
1062, 0.5320214721076223
1062.5000000000002, 0.5325384154191379
1063.0000000000002, 0.5332206157375154
1063.5, 0.5339572037920615
1064, 0.5345877240684815
1064.5000000000002, 0.5350336369448485
1065.0000000000002, 0.5352672283739959
1065.5, 0.5354002870842642
1066, 0.5355617393089681
1066.5000000000002, 0.5357493134667823
1067, 0.5359249936255803
1067.5, 0.5361016433577528
1068, 0.5363242007399425
1068.5000000000002, 0.5367269409375921
1069, 0.5374322438013301
1069.5, 0.5381645312938286
1070, 0.5384998263316287
1070.5000000000002, 0.5383975271719117
1071, 0.5380309549689253
1071.5, 0.537657109338743
1072, 0.5375622413231563
1072.5000000000002, 0.5377912784180747
1073, 0.5382285043695987
1073.5, 0.538776762207158
1074, 0.5393554323111036
1074.5000000000002, 0.5398915232337425
1075, 0.5403220035443383
1075.5, 0.5406633434342147
1076, 0.5410029332276052
1076.5000000000002, 0.5413635631957485
1077, 0.5417006135266438
1077.5, 0.5420364238865011
1078, 0.5424716748921701
1078.5000000000002, 0.5430139862176988
1079, 0.5435457241771262
1079.5, 0.5439458952198326
1080, 0.5441015188338627
1080.5000000000002, 0.5439666998648376
1081, 0.5436030480952216
1081.5, 0.5431728762846402
1082, 0.5429998713694324
1082.5000000000002, 0.5431900454818814
1083, 0.5433801269563696
1083.5, 0.5433585843360507
1084.0000000000002, 0.5433809284732023
1084.5000000000002, 0.5435960778746269
1085, 0.5437222443676044
1085.5, 0.5436209442099862
1086.0000000000002, 0.5437530151761103
1086.5000000000002, 0.5443837663909794
1087, 0.5448083138752767
1087.5, 0.5444266916890352
1088.0000000000002, 0.5437291870097585
1088.5000000000002, 0.5432909257715701
1089, 0.5430153686736378
1089.5, 0.5426834971351765
1090.0000000000002, 0.542311590377502
1090.5000000000002, 0.5419652115404605
1091, 0.5416080213831854
1091.5, 0.5411987832638177
1092.0000000000002, 0.5408683054691694
1092.5000000000002, 0.5407744280090347
1093, 0.5408230941180666
1093.5, 0.5408384606585466
1094.0000000000002, 0.5408282979296313
1094.5000000000002, 0.5408681612956785
1095, 0.5408675941896339
1095.5, 0.5406650982379607
1096.0000000000002, 0.5402697565323297
1096.5000000000002, 0.5397857478507411
1097, 0.5392483934809
1097.5, 0.5386547560326245
1098.0000000000002, 0.5381117915863038
1098.5000000000002, 0.5377940904282574
1099, 0.5376525187520851
1099.5, 0.537459305599405
1100.0000000000002, 0.5371025951644631
1100.5000000000002, 0.5365858189230429
1101, 0.5360230872863796
1101.5, 0.5356272306622651
1102.0000000000002, 0.5353330645695942
1102.5000000000002, 0.5347666990415056
1103, 0.533968450785986
1103.5, 0.5335137243317485
1104.0000000000002, 0.5335519230860681
1104.5, 0.5335882998460648
1105, 0.533390588423792
1105.5, 0.5332123346339728
1106.0000000000002, 0.533026886762863
1106.5, 0.5322431226349276
1107, 0.5306590921500112
1107.5, 0.5289512147528428
1108.0000000000002, 0.5276990113501656
1108.5, 0.527040971821799
1109, 0.5268830039891159
1109.5, 0.5267003526024008
1110.0000000000002, 0.5261572287211116
1110.5, 0.525629546199242
1111, 0.5254309024080315
1111.5, 0.5252890375252014
1112.0000000000002, 0.5249420898346713
1112.5, 0.5245763966433901
1113, 0.5243900269578206
1113.5, 0.524225020106316
1114.0000000000002, 0.5238979910767128
1114.5, 0.5235201798615148
1115, 0.5231941716817721
1115.5, 0.5225415524517398
1116.0000000000002, 0.5211614511431762
1116.5, 0.5194345014374345
1117, 0.5179780731597907
1117.5000000000002, 0.5170882353651844
1118.0000000000002, 0.5168699307680487
1118.5, 0.5169763227607311
1119, 0.5168750618050453
1119.5000000000002, 0.5162303903070327
1120.0000000000002, 0.5148500305179385
1120.5, 0.5129581126772053
1121, 0.5110159838545696
1121.5000000000002, 0.5094497068919468
1122.0000000000002, 0.5086223654220186
1122.5, 0.5083758578376308
1123, 0.5081935154523058
1123.5000000000002, 0.507829384132835
1124.0000000000002, 0.5072650178029737
1124.5, 0.5065425240126534
1125, 0.5057539186251077
1125.5000000000002, 0.5050228117639968
1126.0000000000002, 0.5044928323584117
1126.5, 0.5040319135969796
1127, 0.5032098750903429
1127.5000000000002, 0.5019445495471958
1128.0000000000002, 0.5006034386719062
1128.5, 0.4994788940643442
1129, 0.4987166336783946
1129.5000000000002, 0.4982355935885402
1130.0000000000002, 0.49762397200316066
1130.5, 0.4967183659753305
1131, 0.4958320232500151
1131.5000000000002, 0.49513483344851816
1132.0000000000002, 0.4944284842389718
1132.5, 0.49356884624513764
1133, 0.49262048836534766
1133.5000000000002, 0.4916848930032641
1134.0000000000002, 0.49088677959492866
1134.5, 0.49024057212630956
1135, 0.4894487762116878
1135.5000000000002, 0.4882899143487176
1136.0000000000002, 0.48694162817146613
1136.5, 0.4856284819178658
1137, 0.48447003075116357
1137.5000000000002, 0.4835673956461194
1138.0000000000002, 0.4830395477785421
1138.5, 0.48290397397892826
1139, 0.4827034681592778
1139.5000000000002, 0.48198363780096964
1140.0000000000002, 0.4809796190748934
1140.5, 0.4800703018176201
1141, 0.47920461223505184
1141.5000000000002, 0.4782337662691576
1142, 0.4773759272317285
1142.5, 0.4769244448041102
1143, 0.47663009254923394
1143.5000000000002, 0.4760399207555174
1144, 0.4750594184642486
1144.5, 0.4737950539529415
1145, 0.4725357073082237
1145.5000000000002, 0.4716336149219287
1146, 0.47099211584795897
1146.5, 0.47025048088397103
1147, 0.46933455638451294
1147.5000000000002, 0.4683753081429807
1148, 0.46748577875149133
1148.5, 0.4667515689676899
1149, 0.46607646622208043
1149.5000000000002, 0.4652196126365923
1150, 0.46427472060671815
1150.5, 0.4636539948029945
1151, 0.4633591364603825
1151.5000000000002, 0.4629362544647747
1152, 0.46221658190966386
1152.5, 0.46140411091076083
1153.0000000000002, 0.46055959214530817
1153.5000000000002, 0.45952237459184186
1154, 0.4583694709974738
1154.5, 0.45755970699611026
1155.0000000000002, 0.45731885570021036
1155.5000000000002, 0.4574223529022531
1156, 0.45754579719626753
1156.5, 0.45725968871132217
1157.0000000000002, 0.45640274178780627
1157.5000000000002, 0.4554091033544406
1158, 0.4546334386295141
1158.5, 0.454058056449793
1159.0000000000002, 0.45357443020984134
1159.5000000000002, 0.4529761848634424
1160, 0.452132072582793
1160.5, 0.45118821559255584
1161.0000000000002, 0.4502927256496696
1161.5000000000002, 0.4494208244867658
1162, 0.44857345136380244
1162.5, 0.44799504462738426
1163.0000000000002, 0.4478843754306383
1163.5000000000002, 0.4479800444421822
1164, 0.4479084430462149
1164.5, 0.44736637675701263
1165.0000000000002, 0.4461918743635057
1165.5000000000002, 0.44489694837066873
1166, 0.4441126501051006
1166.5, 0.4437173787356017
1167.0000000000002, 0.4433206446032395
1167.5000000000002, 0.44274050814901456
1168, 0.4419140065070061
1168.5, 0.44099622321110066
1169.0000000000002, 0.4402215188682371
1169.5000000000002, 0.43954400934822013
1170, 0.43878715917074296
1170.5, 0.43806473118061107
1171.0000000000002, 0.43763908610960434
1171.5000000000002, 0.4373392283902332
1172, 0.43672856679498584
1172.5, 0.4359480367203056
1173.0000000000002, 0.43555606223481413
1173.5000000000002, 0.4354676679783941
1174, 0.435051740341894
1174.5, 0.4341304445820855
1175.0000000000002, 0.4329809820253755
1175.5000000000002, 0.4318775011777337
1176, 0.4310672544097758
1176.5, 0.43067846634893814
1177.0000000000002, 0.4306966612047949
1177.5, 0.43104089115243716
1178, 0.43155306383357883
1178.5, 0.432099025377622
1179.0000000000002, 0.43258759777566913
1179.5, 0.4328725497673943
1180, 0.4327118166893531
1180.5, 0.43204521823385167
1181.0000000000002, 0.4311685064500915
1181.5, 0.43037240003332156
1182, 0.42985533130035825
1182.5, 0.42966643874410304
1183.0000000000002, 0.4295318936220963
1183.5, 0.4292285590366677
1184, 0.4287891598884296
1184.5, 0.428276659356696
1185.0000000000002, 0.42771987017047886
1185.5, 0.42715468389614686
1186, 0.42666205402954305
1186.5000000000002, 0.42629390265788725
1187.0000000000002, 0.4259557150805934
1187.5, 0.42556477109080826
1188, 0.4252391302142261
1188.5000000000002, 0.4250862196411731
1189.0000000000002, 0.42489787664345346
1189.5, 0.4244391489343552
1190, 0.4238586241175667
1190.5000000000002, 0.4234024446588641
1191.0000000000002, 0.42310075391020285
1191.5, 0.42289888884684734
1192, 0.4227347219117844
1192.5000000000002, 0.42255244698612626
1193.0000000000002, 0.4223740200583065
1193.5, 0.42224434609070793
1194, 0.42206638247893247
1194.5000000000002, 0.4216817154842404
1195.0000000000002, 0.4211115081532186
1195.5, 0.42048836906053744
1196, 0.41995692344623925
1196.5000000000002, 0.4196549379496146
1197.0000000000002, 0.4195132680991459
1197.5, 0.41931164949254895
1198, 0.4189500177215193
1198.5000000000002, 0.41843845871240126
1199.0000000000002, 0.4178817747361897
1199.5, 0.41746278895020117
1200, 0.41714698034819175
1200.5000000000002, 0.4166760375960049
1201.0000000000002, 0.41608393235773555
1201.5, 0.41575428217345933
1202, 0.4157774489320215
1202.5000000000002, 0.4158359572697685
1203.0000000000002, 0.4158042981790443
1203.5, 0.4158766428253412
1204, 0.41609167815514925
1204.5000000000002, 0.41619314498279325
1205.0000000000002, 0.4160419289494188
1205.5, 0.41576304442683076
1206, 0.4154406334322428
1206.5000000000002, 0.4150173286726645
1207.0000000000002, 0.41447935676043757
1207.5, 0.4139533602656421
1208, 0.413612655705175
1208.5000000000002, 0.4137002765347709
1209.0000000000002, 0.4142662145852173
1209.5, 0.41476450628138894
1210, 0.4147375982800713
1210.5000000000002, 0.41437592533323553
1211.0000000000002, 0.4139219781133693
1211.5, 0.413315088299823
1212, 0.41247645521576437
1212.5, 0.41154908765138776
1213, 0.41068366572162895
1213.5, 0.4097876086303548
1214, 0.40877137866914115
1214.5, 0.4079558073770392
1215, 0.407709955923386
1215.5, 0.40784733879384494
1216, 0.40801659797483025
1216.5, 0.4081920687682038
1217, 0.4084741671014479
1217.5, 0.4088557010401265
1218, 0.40927278732461725
1218.5, 0.40961775956733315
1219, 0.4097568712713999
1219.5, 0.40952771993586456
1220, 0.40878639840151065
1220.5, 0.40782761505248377
1221, 0.4072127622492153
1221.5, 0.4070956319704607
1222, 0.40731888199192123
1222.5, 0.40770169804995193
1223, 0.40805279066643707
1223.5, 0.4082387082975737
1224, 0.4081865234305758
1224.5, 0.4079780810288973
1225, 0.407848101997324
1225.5, 0.4078621877872094
1226, 0.40788427429279195
1226.5, 0.4078701890913068
1227, 0.4079084131385605
1227.5, 0.4080632480400611
1228, 0.4083492074719569
1228.5, 0.408625992828895
1229, 0.40851393352753695
1229.5, 0.407943051871853
1230, 0.4074372895280046
1230.5, 0.4072738156051229
1231, 0.4071085661248999
1231.5, 0.406731390166428
1232, 0.40640307035848755
1232.5, 0.4063362368037351
1233, 0.4064568836675402
1233.5000000000002, 0.40664929985865483
1234, 0.4068067644440392
1234.5, 0.4068517680979322
1235.0000000000002, 0.4067960695736589
1235.5, 0.406707876210776
1236, 0.406795961189383
1236.5, 0.407184539112621
1237, 0.4075148508678562
1237.5000000000002, 0.40743116699971726
1238, 0.4071777148328507
1238.5, 0.40710048267083276
1239.0000000000002, 0.4071528037404605
1239.5, 0.40718054708778806
1240, 0.407165036636599
1240.5, 0.40711605707900866
1241, 0.4068915424036966
1241.5000000000002, 0.4063447967938889
1242, 0.40579313790824334
1242.5, 0.40570846866409804
1243.0000000000002, 0.4059844811746157
1243.5, 0.4062380276222465
1244, 0.40639035545306323
1244.5, 0.40653921774150115
1245, 0.40672127725431895
1245.5000000000002, 0.40692830558542703
1246, 0.40711016428179836
1246.5, 0.40719131765308103
1247.0000000000002, 0.4071780072223633
1247.5, 0.40714321203439263
1248, 0.407139649048717
1248.5, 0.40719497114674197
1249, 0.4072252350686597
1249.5000000000002, 0.4070404527036161
1250, 0.40665600944173697
1250.5, 0.40632255358521585
1251.0000000000002, 0.4061468942030696
1251.5, 0.40603693810975006
1252, 0.4058885317559181
1252.5, 0.4056007104200582
1253, 0.4052061126621608
1253.5, 0.4049465380982429
1254, 0.4049325365380668
1254.5, 0.4050104066332918
1255.0000000000002, 0.40504091436375333
1255.5, 0.4049673858021816
1256, 0.40486183390528974
1256.5000000000002, 0.40505959048518203
1257, 0.405661803546128
1257.5, 0.4060977363354048
1258, 0.4059763488724698
1258.5, 0.40570042068300605
1259.0000000000002, 0.4056531050119968
1259.5, 0.405716880864306
1260, 0.4057284342422459
1260.5000000000002, 0.4057150952412739
1261, 0.4057249378442598
1261.5, 0.4057169332965296
1262, 0.4056633365335832
1262.5, 0.40570128788011917
1263.0000000000002, 0.40597105807757095
1263.5, 0.4063827236933695
1264, 0.4067858942840641
1264.5000000000002, 0.4071142719339488
1265, 0.40731639982285694
1265.5, 0.4072335102301803
1266, 0.4067067927563742
1266.5, 0.4059166814944387
1267.0000000000002, 0.40518585919138117
1267.5, 0.40470644000883593
1268, 0.40457622762640166
1268.5000000000002, 0.4046285461675988
1269, 0.4045661301744049
1269.5, 0.4043575089335437
1270, 0.40412881618522467
1270.5, 0.40378595466198763
1271.0000000000002, 0.40309404084508627
1271.5, 0.4021539800464099
1272, 0.4013310837285198
1272.5000000000002, 0.4008059003528279
1273, 0.4005826764210064
1273.5, 0.4005962056618244
1274, 0.40072013241776894
1274.5, 0.400891754201515
1275.0000000000002, 0.40112026055279404
1275.5, 0.40133336869453473
1276, 0.40135810465066624
1276.5000000000002, 0.40127594995856064
1277, 0.4015242677144114
1277.5, 0.4021409843176006
1278, 0.4025074311668989
1278.5, 0.40234087730607804
1279.0000000000002, 0.4020389501922478
1279.5, 0.4019479359762975
1280, 0.40218191856560637
1280.5000000000002, 0.40271380736792284
1281, 0.40326741843476877
1281.5, 0.40364888264821575
1282, 0.4039458382379649
1282.5, 0.404207564874698
1283.0000000000002, 0.40426131472708493
1283.5, 0.40403838403205716
1284, 0.4039113586503452
1284.5000000000002, 0.40423411238507334
1285, 0.40499426585962495
1285.5, 0.40601460508898146
1286, 0.4067820954906717
1286.5, 0.4068533274107967
1287, 0.4064746150208557
1287.5, 0.4060434822759902
1288, 0.40573845642446094
1288.5000000000002, 0.40564357785567384
1289, 0.40569926007253787
1289.5, 0.40581310752973565
1290.0000000000002, 0.406016278310373
1290.5, 0.40634389219017186
1291, 0.4064852324737669
1291.5, 0.4060427701475301
1292, 0.4052246562617182
1292.5000000000002, 0.4045121071008059
1293, 0.40403026904875416
1293.5, 0.4037068531376823
1294.0000000000002, 0.4035505348763614
1294.5, 0.40361356536282045
1295, 0.4038205084043197
1295.5, 0.4040135708983643
1296, 0.40417798167301566
1296.5000000000002, 0.40441161536868453
1297, 0.4047676560512077
1297.5, 0.4052536661127011
1298.0000000000002, 0.405803268810769
1298.5, 0.40628166638721763
1299, 0.40663572162909845
1299.5, 0.40690435517966606
1300, 0.4070957343667546
1300.5000000000002, 0.4071758508187283
1301, 0.40716645815645025
1301.5, 0.40716751159840103
1302.0000000000002, 0.4071934605494889
1302.5, 0.4071210695447114
1303, 0.4069263048935108
1303.5, 0.4067732673508878
1304, 0.40675804977250596
1304.5000000000002, 0.406812001112408
1305, 0.4068472833250121
1305.5, 0.4067746154744559
1306.0000000000002, 0.4065111796096229
1306.5, 0.40599038519535124
1307, 0.40530843202410205
1307.5, 0.40499493141291165
1308, 0.4053455843179782
1308.5000000000002, 0.405721919747431
1309, 0.4055854131858313
1309.5, 0.4053531738071424
1310.0000000000002, 0.405472954147135
1310.5, 0.4057099120383737
1311, 0.4057561184719606
1311.5, 0.40571555518672364
1312, 0.4057487255854686
1312.5000000000002, 0.40573030980835656
1313, 0.40548560593720595
1313.5, 0.40506583812517827
1314.0000000000002, 0.40460878247977694
1314.5, 0.4042970839310269
1315, 0.40429951201315806
1315.5, 0.40455208487343375
1316, 0.4048965628478832
1316.5000000000002, 0.4052553737055252
1317, 0.4055975657028399
1317.5, 0.40595039565991764
1318.0000000000002, 0.4063599302584875
1318.5, 0.40671975687655704
1319, 0.40684687424755805
1319.5, 0.40680740305471474
1320, 0.40683388116226127
1320.5000000000002, 0.40702441354614216
1321, 0.40736416131323383
1321.5, 0.4077421077729185
1322.0000000000002, 0.4079709940984507
1322.5, 0.40796927838241515
1323, 0.40776152719618475
1323.5000000000002, 0.4074020921805276
1324, 0.40697369527383553
1324.5, 0.4065888543349496
1325, 0.406391227034535
1325.5, 0.4063974612502489
1326.0000000000002, 0.4064522879799758
1326.5, 0.40645843725250475
1327, 0.4064241123530272
1327.5000000000002, 0.40639657438068544
1328, 0.4064731657502282
1328.5, 0.4066664168899209
1329, 0.4068214785770561
1329.5, 0.40684109445381356
1330.0000000000002, 0.40678753523132694
1330.5, 0.40674771167710755
1331, 0.4068190922185124
1331.5000000000002, 0.40702158938360034
1332, 0.4071654462450792
1332.5, 0.4070831109385965
1333, 0.406776178182476
1333.5, 0.4063393251506532
1334.0000000000002, 0.40607536824160606
1334.5, 0.4062007353086712
1335, 0.40643371265519623
1335.5000000000002, 0.40643247728961807
1336, 0.40611022194136404
1336.5, 0.4055152818640594
1337, 0.40502038893299097
1337.5, 0.40500167127746034
1338.0000000000002, 0.40530213502121937
1338.5, 0.40562862630772256
1339, 0.40599173920970677
1339.5000000000002, 0.4064712266881547
1340, 0.4067926598945154
1340.5, 0.4066017112775743
1341, 0.40616406776447744
1341.5, 0.40599298078200485
1342.0000000000002, 0.4060589694064004
1342.5, 0.40606343524133626
1343, 0.4060430812784198
1343.5000000000002, 0.4062254370395243
1344, 0.40661707910890454
1344.5, 0.4070703035901446
1345, 0.4074316432849999
1345.5, 0.4075503378672528
1346.0000000000002, 0.4073602253460952
1346.5, 0.40687609117149737
1347, 0.40629533652912675
1347.5000000000002, 0.40597607031720206
1348, 0.4059975102636697
1348.5, 0.4061397278532687
1349, 0.4063032672997312
1349.5, 0.40654483086850723
1350.0000000000002, 0.4067806909410875
1350.5, 0.40673812191027026
1351, 0.40657127258109615
1351.5000000000002, 0.407071071993921
1352, 0.4082865208966736
1352.5, 0.4089709220579002
1353, 0.40865960803173806
1353.5, 0.4085443557622036
1354.0000000000002, 0.40932327915400757
1354.5, 0.41031180964891434
1355, 0.4110572922470812
1355.5000000000002, 0.41203660514136187
1356, 0.41318685708093716
1356.5, 0.41270079581904395
1357.0000000000002, 0.40967398216141326
1357.5, 0.40667094811599813
1358.0000000000002, 0.4058705591667986
1358.5, 0.40607833358490486
1359, 0.4058425413977914
1359.5000000000002, 0.4053617720211776
1360, 0.40509887517812027
1360.5, 0.40499777192141206
1361.0000000000002, 0.4048824984382412
1361.5, 0.4046623146542755
1362, 0.4043346575337109
1362.5, 0.4042381366477953
1363, 0.40472947195207676
1363.5000000000002, 0.40556169019204447
1364, 0.4062938186497894
1364.5, 0.40674356692614244
1365.0000000000002, 0.40684515377763675
1365.5, 0.40657417697992726
1366, 0.40594873360483963
1366.5, 0.40519726586896265
1367, 0.4046378965439549
1367.5000000000002, 0.40433342601116673
1368, 0.4042090050190036
1368.5, 0.4044047633114214
1369.0000000000002, 0.40517600507908225
1369.5, 0.4063224127358096
1370, 0.4073191571403102
1370.5, 0.40799607210622113
1371, 0.4084842334982197
1371.5000000000002, 0.40884075544538867
1372, 0.4090441113427856
1372.5, 0.4090584013674692
1373.0000000000002, 0.4088396996850314
1373.5, 0.40846102527725026
1374, 0.408129083659851
1374.5, 0.40794452984403506
1375, 0.40786111570448946
1375.5000000000002, 0.4078481905875456
1376, 0.40791191436897434
1376.5, 0.4080655447734809
1377.0000000000002, 0.4083287676073888
1377.5, 0.40868446632266153
1378, 0.40904780015394904
1378.5, 0.4093050165079526
1379, 0.40929872236621445
1379.5000000000002, 0.40897719785148634
1380, 0.4085406498466858
1380.5, 0.408225972314486
1381.0000000000002, 0.4082747649512505
1381.5, 0.40871573978938236
1382, 0.4089631103958251
1382.5, 0.4086172180241664
1383, 0.4082397377545738
1383.5000000000002, 0.40835100354847575
1384, 0.4086035037309236
1384.5, 0.40856314843661234
1385.0000000000002, 0.4082646151965975
1385.5, 0.4078671077851336
1386, 0.40754234282715107
1386.5, 0.4074325644999678
1387, 0.4075029613766672
1387.5000000000002, 0.4076639646605923
1388, 0.4078508728491632
1388.5, 0.4079954693401514
1389.0000000000002, 0.4079408153997257
1389.5, 0.40753351888104683
1390, 0.40694327629215044
1390.5, 0.4064828677165754
1391, 0.40637462433368143
1391.5000000000002, 0.4067538769135839
1392, 0.4073545388823733
