126.06016758838729, 11.45825117558806
128.91864553050092, 11.458138972811241
131.77762838511023, 11.388517149798162
134.63627463138909, 11.365235073609256
137.49475257350275, 11.365122870832437
140.35306221145117, 11.388180541467719
143.21103524106914, 11.457577958927175
146.06917657485232, 11.503805502974544
148.92698130030507, 11.596372793846115
151.7844494174274, 11.735279831541845
154.64191753454972, 11.874186869237576
157.49938565167204, 12.013093906933335
160.35668546462912, 12.175170818041153
163.2139852775862, 12.337247729148984
166.07145339470853, 12.47615476684473
168.92892151183082, 12.615061804540474
171.78655793311836, 12.730798968824132
174.6441943544059, 12.846536133107776
177.50183077569346, 12.96227329739142
180.35980380531143, 13.03167071485089
183.2177768349294, 13.101068132310346
186.0759181687126, 13.147295676357714
188.93389119833057, 13.216693093817184
191.7923691404442, 13.216580891040365
194.65017386589696, 13.309148181911922
197.5086518080106, 13.309035979135118
200.36662483762856, 13.378433396594573
203.224934475577, 13.401491067229841
206.08290750519498, 13.470888484689311
208.94088053481298, 13.540285902148767
211.79902186859616, 13.586513446196136
214.6574998107098, 13.586401243419331
217.515641144493, 13.6326287874667
220.37378247827618, 13.67885633151407
223.2320921162246, 13.701914002149351
226.09023345000782, 13.74814154619672
228.9485430879562, 13.771199216832002
231.80702103006985, 13.771087014055183
234.66516236385306, 13.817314558102552
237.52364030596672, 13.817202355325747
240.3817816397499, 13.863429899373116
243.24009127769833, 13.886487570008384
246.09806430731632, 13.955884987467854
248.9560373369343, 14.025282404927324
251.8143469748827, 14.048340075562592
254.6726566128311, 14.071397746197874
257.53130285911, 14.048115670008968
260.3896124970584, 14.071173340644236
263.2475855266764, 14.14057075810372
266.10606346879007, 14.140458555326902
268.964036498408, 14.209855972786357
271.82234613635643, 14.23291364342164
274.6804874701396, 14.279141187469008
277.53862880392285, 14.325368731516392
280.396770137706, 14.371596275563746
283.2549114714892, 14.417823819611115
286.1128845011072, 14.487221237070585
288.9710258348904, 14.533448781117954
291.8289988645084, 14.60284619857741
294.687476806622, 14.602733995800605
297.54544983624, 14.672131413260075
300.40325456169273, 14.764698704131618
303.26156419964116, 14.787756374766914
306.1195372292591, 14.85715379222637
308.97767856304233, 14.903381336273725
311.835483288495, 14.995948627145296
314.6934563181131, 15.065346044604752
317.5517659560615, 15.088403715240034
320.40973898567944, 15.157801132699504
323.2680486236279, 15.180858803334772
326.12652656574153, 15.180746600557967
328.9844995953595, 15.250144018017423
331.8428092333079, 15.273201688652705
334.70044565459546, 15.388938852936363
337.55808207588296, 15.504676017220007
340.4163917138314, 15.527733687855275
343.2745330476146, 15.573961231902658
346.13216946890213, 15.689698396186301
348.99047910685056, 15.71275606682157
351.8484521364685, 15.78215348428104
354.70659347025173, 15.828381028328408
357.5643981957045, 15.920948319199965
360.42220292115724, 16.013515610071522
363.28051255910566, 16.036573280706804
366.13865389288884, 16.08280082475416
368.99696353083726, 16.105858495389455
371.85493656045526, 16.17525591284891
374.7132461984037, 16.19831358348418
377.5708826196912, 16.314050747767837
380.4290239534744, 16.360278291815206
383.2868286789272, 16.452845582686777
386.1448017085452, 16.522243000146233
389.00311134649354, 16.5453006707815
391.86091607194635, 16.637867961653072
394.7188891015643, 16.707265379112528
397.57703043534747, 16.753492923159897
400.43500346496546, 16.822890340619367
403.29297649458346, 16.892287758078822
406.15094952420145, 16.96168517553828
409.00909085798463, 17.00791271958566
411.8670638876026, 17.077310137045117
414.7248686130553, 17.169877427916674
417.58267333850813, 17.26244471878823
420.4409829764565, 17.285502389423513
423.2987877019093, 17.378069680295056
426.156592427362, 17.470636971166627
429.0143971528148, 17.56320426203817
431.8718652699371, 17.70211129973393
434.7300066037203, 17.748338843781298
437.58781132917306, 17.84090613465284
440.4454477504606, 17.9566432989365
443.30342078007857, 18.026040716395954
446.1612255055313, 18.11860800726751
449.0191985351493, 18.18800542472698
451.87700326060207, 18.280572715598538
454.7348079860548, 18.37314000647008
457.592949319838, 18.419367550517464
460.45058574112556, 18.535104714801108
463.30872707490875, 18.581332258848477
466.1668684086919, 18.627559802895846
469.02467313414473, 18.720127093767402
471.8828144679279, 18.76635463781477
474.7409558017111, 18.812582181862155
477.5985922229986, 18.928319346145784
480.4569018609471, 18.951377016781066
483.31521149889545, 18.97443468741635
486.17318452851345, 19.043832104875804
489.0313258622966, 19.090059648923187
491.8889622835842, 19.20579681320683
494.7469353132022, 19.275194230666287
497.60524495115055, 19.298251901301583
500.46355458909903, 19.32130957193685
503.32119101038654, 19.437046736220495
506.17950064833497, 19.460104406855777
509.0374736779529, 19.529501824315247
511.8954467075709, 19.598899241774703
514.7537563455194, 19.621956912409985
517.6118976793026, 19.668184456457354
520.4695341005901, 19.783921620740998
523.3273388260428, 19.87648891161257
526.1853118556609, 19.945886329072025
529.0431165811136, 20.038453619943567
531.8995748732445, 20.316379898111876
534.7572112945321, 20.43211706239552
537.61518432415, 20.50151447985499
540.4728207454376, 20.617251644138634
543.3299522542295, 20.802498428658552
546.1872520671866, 20.964575339766398
549.0450567926393, 21.05714263063794
551.9025249097616, 21.196049668333686
554.7611711560404, 21.17276759214478
557.6183026648324, 21.358014376664713
560.476780606946, 21.357902173887894
563.3357634615553, 21.2882803508748
566.1937364911734, 21.35767776833427
569.0527193457826, 21.28805594532116
571.9118705045571, 21.195264248895995
574.7706850550012, 21.14881229929499
577.6294996054453, 21.10236034969398
580.488819068385, 20.986398779856714
583.3478019229943, 20.91677695684362
586.206279865108, 20.9166647540668
589.0652627197173, 20.84704293105372
591.9240772701613, 20.800590981452714
594.7833967331011, 20.684629411615447
597.6427161960409, 20.568667841778165
600.5018673548153, 20.475876145352984
603.3616917302508, 20.290404955279442
606.2215161056861, 20.10493376520587
609.080835568626, 19.98897219536859
611.941164856557, 19.733991385058772
614.8006526236619, 19.594859941809403
617.6603086949322, 19.432558625147934
620.5203013745328, 19.223917561662304
623.3802940541334, 19.015276498176647
626.2404550378992, 18.783465561278902
629.0999428050043, 18.644334118029548
631.9590939637787, 18.551542421604353
634.8185817308837, 18.412410978354984
637.6782378021538, 18.25010966169353
640.5380621775894, 18.064638471619972
643.3975499446942, 17.925507028370617
646.2575426242948, 17.71686596488496
649.1171986955651, 17.55456464822349
651.9770230710005, 17.369093458149948
654.836174229775, 17.276301761724767
657.6953253885495, 17.183510065299572
660.5554863723154, 16.95169912840184
663.4153107477508, 16.766227938328285
666.2751351231861, 16.58075674825473
669.1347911944564, 16.418455431593273
671.993942353231, 16.325663735168092
674.8541033369968, 16.093852798270348
677.7137594082669, 15.931551481608892
680.5730788712068, 15.81558991177161
683.4329032466421, 15.630118721698054
686.2923910137471, 15.4909872784487
689.1517104766867, 15.375025708611417
692.0110299396266, 15.259064138774136
694.8700127942359, 15.189442315761056
697.729668865506, 15.027140999099586
700.589156632611, 14.888009555850218
703.4481394872204, 14.818387732837124
706.3067857334992, 14.795105656648218
709.1664418047693, 14.632804339986762
712.025592963544, 14.540012643561582
714.8847441223185, 14.447220947136387
717.7430537602669, 14.470278617771669
720.6017000065457, 14.446996541582763
723.4606828611551, 14.37737471856967
726.3191608032687, 14.377262515792864
729.1769655287214, 14.469829806664407
732.0357800791654, 14.423377857063414
734.8944263254443, 14.400095780874508
737.7532408758884, 14.353643831273502
740.6113822096715, 14.39987137532087
743.4693552392897, 14.46926879278034
746.3278331814033, 14.469156590003522
749.1861428193516, 14.492214260638818
752.0442841531349, 14.538441804686187
754.9019205744224, 14.65417896896983
757.7598936040404, 14.7235763864293
760.6180349378236, 14.76980393047667
763.4760079674415, 14.839201347936125
766.3338126928943, 14.931768638807682
769.1921223308427, 14.954826309442964
772.0504319687911, 14.977883980078232
774.9079000859135, 15.116791017773977
777.7665463321923, 15.093508941585071
780.6246876659756, 15.13973648563244
783.4829973039239, 15.162794156267722
786.3414752460376, 15.162681953490903
789.2009630131425, 15.023550510241535
792.0587677385953, 15.116117801113091
794.9177505932046, 15.046495978099998
797.7770700561443, 14.93053440826273
800.6360529107536, 14.860912585249636
803.4941942445369, 14.907140129297005
806.353008794981, 14.860688179696012
809.2121599537555, 14.767896483270832
812.07131111253, 14.675104786845637
814.9304622713045, 14.582313090420456
817.7907915592356, 14.327332280110625
820.6507842388362, 14.118691216624981
823.5107769184368, 13.910050153139338
826.3702646855418, 13.770918709889969
829.2300890609772, 13.585447519816412
832.0897451322473, 13.423146203154957
834.9490645951871, 13.307184633317675
837.808384058127, 13.191223063480393
840.667198608571, 13.1447711138794
843.5263497673454, 13.05197941745422
846.3856692302852, 12.936017847616938
849.2443154765641, 12.912735771428032
852.102961722843, 12.889453695239126
854.9616079691218, 12.86617161905022
857.8200859112354, 12.866059416273401
860.6789004616795, 12.819607466672409
863.5378833162888, 12.749985643659329
866.3965295625677, 12.726703567470409
869.2553441130118, 12.680251617869402
872.113485446795, 12.726479161916785
874.9712901722477, 12.819046452788342
877.8301047226918, 12.772594503187335
880.6887509689707, 12.749312426998443
883.5470606069191, 12.772370097633711
886.4053702448675, 12.79542776826898
889.2636798828158, 12.818485438904275
892.1214846082687, 12.911052729775818
894.9801308545476, 12.887770653586912
897.8382721883307, 12.933998197634295
900.6959086096183, 13.04973536191794
903.5538816392362, 13.11913277937741
906.411686364689, 13.211700070248952
909.2699960026374, 13.234757740884234
912.1274641197598, 13.373664778579979
914.9842590202212, 13.605251309924085
917.8408856165174, 13.860007714680279
920.6980171253092, 14.045254499200212
923.5563267632577, 14.068312169835494
926.4134582720495, 14.253558954355412
929.2704214766762, 14.461975612287432
932.1278895937986, 14.600882649983177
934.98468449426, 14.832469181327284
937.8414793947213, 15.064055712671404
940.6994524243394, 15.13345313013086
943.5574254539574, 15.202850547590316
946.4148935710797, 15.34175758528606
949.272361688202, 15.480664622981806
952.1306713261505, 15.503722293617074
954.9894858765945, 15.45727034401608
957.8477955145429, 15.480328014651363
960.705936848326, 15.526555558698732
963.5644147904397, 15.526443355921913
966.4227244283882, 15.549501026557195
969.2812023705018, 15.54938882378039
972.1395120084502, 15.572446494415658
974.9979899505639, 15.572334291638839
977.8554580676862, 15.711241329334598
980.7137677056346, 15.734298999969866
983.5715724310874, 15.826866290841423
986.4288722440444, 15.988943201949255
989.287350186158, 15.988830999172436
992.1433035657933, 16.336266897577005
995.0004350745853, 16.521513682096938
997.8565567583859, 16.84577970708942
1000.9540266151132, 16.73753207815811
1003.3337353085616, 17.061816803613382
1006.4276146764311, 17.447859807473378
1009.2845778810577, 17.656276465405398
1012.1406995648582, 17.98054249039788
1014.9964846403284, 18.351148262214537
1017.8517648033028, 18.791263654267496
1020.7078864871032, 19.115529679259964
1023.5631666500777, 19.555645071312895
1026.4194566380436, 19.856741222893305
1029.274736801018, 20.296856614946236
1032.369008878606, 20.628836580844677
1034.9864752561234, 21.014898285167476
1037.6029318086494, 21.53997922996281
1040.6956891487505, 22.08048805657009
1043.3127067151604, 22.52833608999181
1046.4043981288821, 23.215587448208993
1049.260603964765, 23.528268536495418
1052.115799975657, 23.97996886525442
1055.2064254629986, 24.813962755081533
1057.8235832828798, 25.242502560659815
1060.6774328604497, 25.879561876715556
1063.5308616776067, 26.574545876301514
1066.3859735364158, 27.03783114176656
1069.2400755702338, 27.64013564770414
1072.0935885394733, 28.323534710584042
1074.9471856607956, 28.995348836757927
1077.8008669342005, 29.65557802622574
1080.4170429797844, 30.21927542670791
1083.5092393060015, 30.83701716468883
1086.3650243814718, 31.207622936505487
1089.2216509777677, 31.46237934126168
1092.0787824865597, 31.647626125781613
1094.9367555161778, 31.717023543241083
1097.7967481957783, 31.508382479755426
1100.655226137892, 31.50827027697862
1103.5148822091621, 31.34596896031715
1106.3789983408108, 30.569665998235237
1109.002159009251, 30.17181365211559
1110.9125234872865, 29.5229823947258
1113.2977301167987, 29.090384588719374
1115.2075335809498, 28.51878624270323
1117.5917303854706, 28.22520767716938
1119.5029924857204, 27.452803761581762
1121.88617946525, 27.298244436520463
1123.7975537682764, 26.510393938658112
1126.1820871811278, 26.17047562630006
1128.0933492813774, 25.398071710712458
1130.478443708113, 24.98092048698078
1132.388808186148, 24.332089229590977
1134.774351423991, 23.853151676760376
1136.6843792936957, 23.250660166194777
1139.0675662732253, 23.096100841133477
1140.9795015901357, 22.231017431897484
1143.6022414981633, 21.891089769308053
1146.4652636527378, 21.265390984404732
1149.0888450815914, 20.80961395475485
1151.950464701456, 20.376997448285636
1153.8607169767142, 19.743612773170582
1156.4834007833533, 19.411408401718504
1159.3438983754497, 19.13325771799657
1162.2057424008678, 18.669748046977915
1164.8303336547126, 18.074951776855457
1168.1688150760363, 17.580530240824544
1170.7927892146088, 17.070690173213094
1173.4149681087524, 16.80799542199729
1176.7518786912005, 16.529826037812583
1179.135290076284, 16.344373548201816
1182.235452799655, 15.865407944677031
1185.0954454792557, 15.656766881191388
1187.9567845921779, 15.262766830408992
1190.8172821842743, 14.984616146687074
1193.6779480805358, 14.683295589553055
1196.5386139767973, 14.38197503241905
1199.398606656398, 14.173333968933406
1202.2596091609896, 13.825673664975199
1205.119938448921, 13.570692854665381
1207.9800994326868, 13.338881917767637
1210.840597024783, 13.060731234045704
1213.6997481835576, 12.967939537620524
1216.559572558993, 12.782468347546967
1219.4182188052719, 12.759186271358061
1222.2773699640463, 12.66639457493288
1225.1368577311514, 12.527263131683512
1227.996177194091, 12.41130156184623
1230.8551600487003, 12.34167973883315
1233.7134696866488, 12.364737409468418
1236.5722842370928, 12.318285459867411
1239.4312670917022, 12.248663636854332
1242.2909231629724, 12.086362320192876
1245.1497377134165, 12.039910370591883
1248.0083839596953, 12.016628294402963
1250.8675351184697, 11.923836597977783
1253.725676452253, 11.970064142025166
1256.5839860902015, 11.993121812660434
1259.4419591198193, 12.06251923011989
1262.301110278594, 11.969727533694723
1265.1611029581945, 11.761086470209065
1268.0210956377953, 11.552445406723422
1270.8799101882394, 11.505993457122429
1273.7378832178572, 11.575390874581885
1276.5960245516405, 11.621618418629254
1279.4538292770933, 11.71418570950081
1282.3118023067111, 11.783583126960266
1285.1706168571552, 11.737131177359274
1288.029094799269, 11.737018974582469
1290.886394612226, 11.899095885690286
1293.7453774668354, 11.829474062677193
1296.6041920172793, 11.7830221130762
1299.4631748718887, 11.713400290063106
1302.3231675514894, 11.504759226577477
1305.1792892352898, 11.829025251569945
1308.0384403940643, 11.736233555144764
1310.8970866403433, 11.712951478955858
1313.7550596699612, 11.782348896415314
1316.6133693079096, 11.805406567050596
1319.472352162519, 11.735784744037517
1322.330493496302, 11.782012288084871
1325.1896446550768, 11.68922059165969
1328.048795813851, 11.59642889523451
1330.906768843469, 11.66582631269398
1333.7649101772524, 11.712053856741335
1336.622714902705, 11.804621147612906
1339.48220266981, 11.665489704363537
1342.1028668264664, 11.611323813856572
1345.1991585540372, 11.665265298809913
1348.057468191986, 11.688322969445181
1350.915609525769, 11.734550513492565
1354.0149868297024, 11.363710985890847
1356.6339118433182, 11.548967120642189
1359.4907067437794, 11.780553651986295
1362.3500262067191, 11.664592082149028
1365.2091773654938, 11.571800385723833
1368.0661405701203, 11.780217043655853
1371.164171440732, 11.594736503350902
1373.7829281501824, 11.803162511514316
1376.6415743964612, 11.77988043532541
1379.738819847635, 11.702525970943555
1382.3585302806887, 11.779656029771772
1385.2175131352978, 11.710034206758692
1388.0761593815769, 11.686752130569786
