201.5, 0.7846500374506942
202, 0.7846861131597326
202.5, 0.7848591729158912
203, 0.7850425008619537
203.5, 0.7850881616159306
204, 0.7850591862221038
204.5, 0.7850698468777164
205, 0.785069253507334
205.5, 0.7849557124267401
206, 0.7847513120240596
206.5, 0.784533235812744
207, 0.784365423696605
207.5, 0.7842983711036736
208, 0.7843176987268078
208.5, 0.784369256458733
209, 0.7843687246937434
209.5, 0.7842257170992073
210, 0.7840243514986656
210.5, 0.7839589198494719
211, 0.7839893322683227
211.5, 0.7838983530874125
212, 0.7836923346719495
212.5, 0.783574037411321
213, 0.7835890842041726
213.5, 0.7836227140195726
214, 0.7836209781556311
214.5, 0.783604795267752
215, 0.7835990640532745
215.5, 0.7836274588335977
216, 0.7836535291116128
216.5, 0.7835605086063941
217, 0.7833544304150516
217.5, 0.7832365816548541
218, 0.7832640223914517
218.5, 0.783219712909442
219, 0.7830180004113614
219.5, 0.782875903864272
220, 0.7828974037682723
220.5, 0.7828704342288847
221, 0.7826759594807244
221.5, 0.7825181620889452
222, 0.7825298134750891
222.5, 0.782519845766015
223, 0.7823429539014402
223.5, 0.7821610866317046
224, 0.7821281443600695
224.5, 0.7821668722218622
225, 0.7821773544117435
225.5, 0.7821669826958576
226, 0.7821632767847869
226.5, 0.782166357484209
227, 0.7821692321799527
227.5, 0.7821673638192057
228, 0.7821599994871415
228.5, 0.7821635858592473
229, 0.7821898569815314
229.5, 0.7821804451919006
230, 0.7820621934089417
230.5, 0.7818594403549985
231, 0.7816402694367093
231.5, 0.7814727519560747
232, 0.7814154347402624
232.5, 0.7814352066802823
233, 0.7814526408029621
233.5, 0.7814478727369092
234, 0.7814386034727672
234.5, 0.7814387971159952
235, 0.7814568422627233
235.5, 0.7814620944442788
236, 0.7814016920414962
236.5, 0.7813747847618409
237, 0.7816005962063164
237.5, 0.782004392076185
238, 0.7822314410163871
238.5, 0.7822050062591708
239, 0.7821582491769171
239.5, 0.7821747381877686
240, 0.7821416952190442
240.5, 0.782091782107276
241, 0.7822654638172367
241.5, 0.7826682361483193
242, 0.7829327670678502
242.5, 0.7829161772776188
243, 0.7829038493862986
243.5, 0.78306947842579
244, 0.7832993999399762
244.5, 0.783491260045224
245, 0.7836337231686934
245.5, 0.7837661378512283
246, 0.7840204027996326
246.5, 0.7844266841827052
247, 0.7847083130698073
247.5, 0.7846971078269704
248, 0.7847030450509035
248.5, 0.7849984195021875
249, 0.7854235538370131
249.5, 0.7857873790860948
250, 0.7861304227664473
250.5, 0.7865137383688122
251, 0.7868455374613562
251.5, 0.7870348636003844
252, 0.7871998405312777
252.5, 0.7874913688434166
253, 0.7878839166926063
253.5, 0.7882903629700977
254, 0.788621734070621
254.5, 0.7888128587868665
255, 0.7889760434430733
255.5, 0.7892752898202888
256, 0.789655773457129
256.5, 0.7899779649221761
257, 0.7903261959540113
257.5, 0.79087574693627
258, 0.7914360341185257
258.5, 0.7916276376955653
259, 0.7915595772391191
259.5, 0.791659907562235
260, 0.7920493245747676
260.5, 0.7926042129558664
261, 0.7931578716899155
261.5, 0.7935202197142026
262, 0.7936765034639228
262.5, 0.7937791574367167
263, 0.7939430707697585
263.5, 0.7942326721492037
264, 0.7946084955538983
264.5, 0.7949129361193858
265, 0.7950884591593408
265.5, 0.7952191268533828
266, 0.7953801028220199
266.5, 0.7956186112097563
267, 0.7959562477336185
267.5, 0.79637532113335
268, 0.7967901658988404
268.5, 0.7969973751091465
269, 0.7969601247527827
269.5, 0.7970123686210574
270, 0.7973517719862637
270.5, 0.7977522577312248
271, 0.7979985583241238
271.5, 0.7980608506807525
272, 0.7980029476605006
272.5, 0.7980764629336116
273, 0.7984348687523843
273.5, 0.7987900278154159
274, 0.7988670843669734
274.5, 0.7987872928356374
275, 0.7987366030007002
275.5, 0.7987789463992437
276, 0.7989297105261132
276.5, 0.7991269228417877
277, 0.7993020850764055
277.5, 0.7994788318876772
278, 0.7996924539483028
278.5, 0.7998553464506724
279, 0.799865338937865
279.5, 0.7998517759834571
280, 0.8000054755381367
280.5, 0.8002045262313411
281, 0.8002162670632555
281.5, 0.8001902159848202
282, 0.8004428021165568
282.5, 0.8008478707583573
283, 0.8010370304317797
283.5, 0.8009894192253962
284, 0.8009153354565519
284.5, 0.8009203326918091
285, 0.8010250150279172
285.5, 0.8012111839768121
286, 0.8014290159497781
286.5, 0.8016156698099888
287, 0.8017001100850029
287.5, 0.8016896669865708
288, 0.8016723163962858
288.5, 0.8016782019335665
289, 0.8016667778469059
289.5, 0.8016499318735671
290, 0.8017120102148361
290.5, 0.8018838093051357
291, 0.8021109316490499
291.5, 0.8023176073358953
292, 0.8024053236252877
292.5, 0.8023777946672581
293, 0.8024272274484752
293.5, 0.8026275360481718
294, 0.8027720610663451
294.5, 0.8027543694634719
295, 0.8027742634694472
295.5, 0.8029578101574986
296, 0.8031328187829163
296.5, 0.8031581074688733
297, 0.8031185946808493
297.5, 0.8031086989136488
298, 0.8031211575233594
298.5, 0.8031305747399874
299, 0.8031211284983084
299.5, 0.8030945105121022
300, 0.8031164216931693
300.5, 0.8032491590727842
301, 0.8034596297179804
301.5, 0.8036827677781023
302, 0.8038333358243122
302.5, 0.803847691754582
303, 0.8038350098589864
303.5, 0.8039447840781473
304, 0.8041542480135789
304.5, 0.8043715585860379
305, 0.8045367035167066
305.5, 0.8046092586468067
306, 0.8045880079723411
306.5, 0.8045038338787895
307, 0.8045054886079113
307.5, 0.8047835695194013
308, 0.8051832463623115
308.5, 0.8053458129143516
309, 0.805296709866457
309.5, 0.8053365041945203
310, 0.8055360553499593
310.5, 0.8057717995046088
311, 0.8059546806030135
311.5, 0.8060355565391251
312, 0.8060270031525418
312.5, 0.8060025194373054
313, 0.8060015287067162
313.5, 0.806020483590931
314, 0.8060321606984694
314.5, 0.8059843352398615
315, 0.8059351751315078
315.5, 0.8060996992544474
316, 0.8064918810451004
316.5, 0.8067876186973577
317, 0.8068112686968746
317.5, 0.8067058784047143
318, 0.8066431189620337
318.5, 0.8067854638372655
319, 0.8071599979815152
319.5, 0.8074931635542544
320, 0.8075708136706501
320.5, 0.8074313537933011
321, 0.8071942990810324
321.5, 0.8070982460973638
322, 0.8072765722501298
322.5, 0.8074585100174504
323, 0.8074273460134335
323.5, 0.8074545786534456
324, 0.8077931147959898
324.5, 0.8081665524176735
325, 0.8082571177570623
325.5, 0.8081847928928284
326, 0.8081573314717148
326.5, 0.8081762155127509
327, 0.808184438955024
327.5, 0.8081795457703533
328, 0.808177140048536
328.5, 0.8081783887115643
329, 0.80817896800994
329.5, 0.8081786737730556
330, 0.8081789749778755
330.5, 0.8081790141164297
331, 0.8081772113123783
331.5, 0.8081771341743489
332, 0.808183884045273
332.5, 0.8081848588417628
333, 0.8081603965825275
333.5, 0.8081541041808193
334, 0.8082503641615484
334.5, 0.8084418593353448
335, 0.8086476455186333
335.5, 0.8088247772665274
336, 0.8089691049333672
336.5, 0.8091304071047677
337, 0.8094075831884296
337.5, 0.8097816994658644
338, 0.810100432560577
338.5, 0.8102863076035005
339, 0.8103651304464099
339.5, 0.8103692653010006
340, 0.8103314191761465
340.5, 0.8103066283399591
341, 0.8103839309182381
341.5, 0.810572794188176
342, 0.8107384252620584
342.5, 0.8107771594508901
343, 0.810675193069377
343.5, 0.8104771761338003
344, 0.8103331387334237
344.5, 0.8103270507581289
345, 0.8103450711497286
345.5, 0.8103138508109228
346, 0.8103562237899525
346.5, 0.8105479580762638
347, 0.8107106878151675
347.5, 0.8107051282620727
348, 0.8107074678495422
348.5, 0.8108820964426043
349, 0.8110646333407638
349.5, 0.8110780807747272
350, 0.8110639627586591
350.5, 0.8112027068413055
351, 0.8114082078638919
351.5, 0.8115217484153006
352, 0.8114611326506993
352.5, 0.8112146590051802
353, 0.811055122460265
353.5, 0.8112993967128017
354, 0.8117166154990683
354.5, 0.8118774248566454
355, 0.8118136070840853
355.5, 0.8117733481163223
356, 0.8117894551968282
356.5, 0.8117792721953777
357, 0.8117723495144954
357.5, 0.8118644894567812
358, 0.8120579973722151
358.5, 0.8122863306973169
359, 0.8124696058137391
359.5, 0.8125254004515879
360, 0.8125028478679488
360.5, 0.8125634963309647
361, 0.8127500296390283
361.5, 0.8129826512708801
362, 0.8131760366342788
362.5, 0.8132477538852334
363, 0.813225684059124
363.5, 0.8132716781615293
364, 0.8134487764951909
364.5, 0.8136724937855963
365, 0.8138663335428377
365.5, 0.8139829683383683
366, 0.8140004642976737
366.5, 0.813936842319039
367, 0.8138752579923969
367.5, 0.8140158009717245
368, 0.8144024489103917
368.5, 0.8147139283665832
369, 0.8147432788061448
369.5, 0.8146760012739793
370, 0.8146746522510082
370.5, 0.8146799539078269
371, 0.8146465198466686
371.5, 0.814687257471127
372, 0.8148758101619283
372.5, 0.8150433658203253
373, 0.8150453242010518
373.5, 0.8150402767259324
374, 0.8151965943973773
374.5, 0.8153931144684428
375, 0.8154627975332005
375.5, 0.8154147562474461
376, 0.8153288279626605
376.5, 0.8153719843810203
377, 0.8156884606854171
377.5, 0.8160720444720486
378, 0.8162199099747613
378.5, 0.816155365604179
379, 0.8160489313200205
379.5, 0.8160723810664113
380, 0.8163659394982719
380.5, 0.8167582481596106
381, 0.8169299948497839
381.5, 0.8168818834824471
382, 0.816810853821215
382.5, 0.8168173394902147
383, 0.8169280279322659
383.5, 0.8171172442738394
384, 0.8173206296959954
384.5, 0.8174987205228983
385, 0.8176380733929407
385.5, 0.8177968289357024
386, 0.8180959543912949
386.5, 0.8184847452048326
387, 0.8187267914043566
387.5, 0.8187306940230146
388, 0.8185925838517356
388.5, 0.8184064104507728
389, 0.8182480315635803
389.5, 0.8182033301995798
390, 0.818373751184016
390.5, 0.8187428934701861
391, 0.8190938543418081
391.5, 0.819292406774656
392, 0.8193969796941774
392.5, 0.8194392670325766
393, 0.8193492232592827
393.5, 0.8191340810231735
394, 0.8190157013682862
394.5, 0.8191456603577385
395, 0.8194036233221678
395.5, 0.8196381630517751
396, 0.8197399842424057
396.5, 0.8196889170386086
397, 0.8197419776945909
397.5, 0.8200919515935876
398, 0.8204552312285125
398.5, 0.8205333197872606
399, 0.8204656656888971
399.5, 0.8204596625044598
400, 0.8204662452066969
400.5, 0.820401643754801
401, 0.820432640986358
401.5, 0.8207495268030411
402, 0.8211340376614019
402.5, 0.8212612882735378
403, 0.8212001852297535
403.5, 0.8211694578177405
404, 0.8211841496226682
404.5, 0.8211698386048368
405, 0.8211665059351552
405.5, 0.8212686191847423
406, 0.8214659439735678
406.5, 0.8216837770950215
407, 0.821859992733912
407.5, 0.8219448902615897
408, 0.8219343848182181
408.5, 0.8218637974346614
409, 0.8218449864476551
409.5, 0.8220455576713027
410, 0.8224307036858067
410.5, 0.8227733700694788
411, 0.8229559385791644
411.5, 0.8229888404267726
412, 0.8229617908247595
412.5, 0.8230476611994471
413, 0.8232547509281801
413.5, 0.823368867347731
414, 0.8233409201363552
414.5, 0.8233880125076837
415, 0.8235854256278211
415.5, 0.8237381637060435
416, 0.823742284744267
416.5, 0.823709888465413
417, 0.8237157550441773
417.5, 0.8237083479088119
418, 0.8236752631538359
418.5, 0.8237321496720763
419, 0.823927093799431
419.5, 0.824082746716718
420, 0.8240797225449965
420.5, 0.8240787331244677
421, 0.8242251153214012
421.5, 0.8244399624327784
422, 0.8246259554405624
422.5, 0.8247935046937362
423, 0.8249701637839806
423.5, 0.8251476668957614
424, 0.825315437546941
424.5, 0.8254982926591984
425, 0.8257127343517672
425.5, 0.8258703787262816
426, 0.825881158178427
426.5, 0.8258691809509208
427, 0.8260055604950215
427.5, 0.8262072497344001
428, 0.8263000162913254
428.5, 0.8262660281306935
429, 0.8261737663046529
429.5, 0.8261845340031363
430, 0.8264770248956506
430.5, 0.826873792133183
431, 0.8270136894238679
431.5, 0.8269609138625028
432, 0.8270481108236686
432.5, 0.8272630811264435
433, 0.8273434352796526
433.5, 0.8273079614579212
434, 0.8274064629374477
434.5, 0.8276214012003335
435, 0.8276873523957557
435.5, 0.8276359935889944
436, 0.8278113308364855
436.5, 0.8282201363607192
437, 0.8284633776092629
437.5, 0.8284335616748298
438, 0.8284318884084667
438.5, 0.8286071025285746
439, 0.8288453270141927
439.5, 0.8290435094286426
440, 0.8291505565131696
440.5, 0.829157794782166
441, 0.829125147583243
441.5, 0.8291092475437577
442, 0.8291451401674297
442.5, 0.8292723203796416
443, 0.8295463478729675
443.5, 0.8299442423111117
444, 0.8302348244057208
444.5, 0.8302665329561152
445, 0.8302153327436647
445.5, 0.8302352634779029
446, 0.8302142714651376
446.5, 0.8300473069556726
447, 0.8298576688349945
447.5, 0.8297890997568369
448, 0.8298485826216112
448.5, 0.8300027757205403
449, 0.8301973979082538
449.5, 0.8303812806471447
450, 0.8305536469699267
450.5, 0.8307284982509824
451, 0.8309066924224738
451.5, 0.8310845162107396
452, 0.8312611175466478
452.5, 0.8314370436799262
453, 0.8316142496606491
453.5, 0.8317944661706623
454, 0.8319712318213852
454.5, 0.8321365758738729
455, 0.8323129417511161
455.5, 0.8325320724887191
456, 0.8327160400291961
456.5, 0.8327310714627203
457, 0.8326975396168734
457.5, 0.8329064873258689
458, 0.8333079954637215
458.5, 0.8335800708820109
459, 0.8337165782700406
459.5, 0.8339999867878451
460, 0.8344048187396407
460.5, 0.8345865779467189
461, 0.8345344745815753
461.5, 0.8346327027492579
462, 0.835004274843281
462.5, 0.8354109910226123
463, 0.8357479094042848
463.5, 0.8361331744176315
464, 0.836548687609843
464.5, 0.8367332262904867
465, 0.8366657470435235
465.50000000000006, 0.836792055753658
466, 0.837243581605374
466.50000000000006, 0.8374254743898549
467, 0.8370467180171226
467.50000000000006, 0.8366946507380483
468, 0.8368032991470109
468.50000000000006, 0.8371153067790436
469, 0.8373467072324069
469.50000000000006, 0.8374445429373266
470, 0.8374318359056111
470.50000000000006, 0.8374445520452635
471, 0.8375916741430771
471.50000000000006, 0.8378014452489652
472, 0.8379854073467249
472.50000000000006, 0.8381556705380397
473, 0.8383392596592903
473.50000000000006, 0.8385119435443108
474, 0.838654203395155
474.50000000000006, 0.8388504582345375
475, 0.8391869622791941
475.50000000000006, 0.8395554080088371
476, 0.8398009141006506
476.50000000000006, 0.8399443087052946
477, 0.8400769541205966
477.50000000000006, 0.8402670064567265
478, 0.8405630885397386
478.50000000000006, 0.8409375783216502
479, 0.8413243722164631
479.50000000000006, 0.8416739074573596
480, 0.8419470899737589
480.50000000000006, 0.8421110354905516
481, 0.8421440696512436
481.50000000000006, 0.8421252295719145
482, 0.8422000184997047
482.50000000000006, 0.8423921801961869
483, 0.8426240920549383
483.5, 0.8428114237036959
484, 0.8428717469271456
484.5, 0.842848343849703
485, 0.8429080802222476
485.5, 0.8430944816848838
486, 0.8433061784990006
486.5, 0.8434851295219817
487, 0.8436384671815669
487.5, 0.843799806847841
488, 0.8440336877440306
488.5, 0.8443728123917058
489, 0.8447953256601268
489.5, 0.8452091318909736
490, 0.8454084359482535
490.5, 0.8453663526235037
491, 0.8454302036864393
491.5, 0.8457851741534802
492, 0.8461620044453351
492.5, 0.846358891681249
493, 0.8464923229421628
493.5, 0.8466712125123314
494, 0.8468475896841422
494.5, 0.8469904194060639
495, 0.8472079693105404
495.5, 0.847570965339286
496, 0.8479183608057135
496.5, 0.8481064719096791
497, 0.8482704844246214
497.5, 0.8485715760895741
498, 0.8489677837803721
498.5, 0.8493641452244458
499, 0.849691867380627
499.5, 0.8499068750856774
500.00000000000006, 0.8500607811239246
500.5, 0.8502288251305268
501.00000000000006, 0.8504109877238255
501.5, 0.8505819694282779
502.00000000000006, 0.8507593856540205
502.5, 0.8509697358008625
503.00000000000006, 0.8511437933609968
503.5, 0.8511806555848104
504.00000000000006, 0.8511591908617736
504.5, 0.8512481547457338
505.00000000000006, 0.8514492801005055
505.5, 0.8516596983581862
506.00000000000006, 0.851833023773661
506.5, 0.8519691283695494
507.00000000000006, 0.8521352975315581
507.5, 0.8524430003655024
508.00000000000006, 0.8528268158708465
508.5, 0.8530721255704183
509.00000000000006, 0.8532098046294434
509.5, 0.8535143282900222
510.00000000000006, 0.8540586509934007
510.5, 0.8546800292713074
511.00000000000006, 0.8552365004085171
511.5, 0.8556286874340087
512, 0.8558225689281106
512.5, 0.8558713957180007
513, 0.8558558127377116
513.5, 0.8558883931116418
514, 0.8560401203209496
514.5, 0.8563052184809011
515, 0.8566546044813411
515.5, 0.857028951554061
516, 0.857386576732717
516.5, 0.8577315704924703
517, 0.8580773154922259
517.5, 0.8584451956317213
518, 0.8588285302760017
518.5, 0.859140399431696
519, 0.8593283002282786
519.5, 0.8594884387224776
520, 0.8596945793888426
520.5, 0.8598416418309974
521, 0.8598428906933085
521.5, 0.8598390145726438
522, 0.8599778653258137
522.5, 0.860187042467988
523, 0.8603608852099814
523.5, 0.8605382474187032
524, 0.8607998742256985
524.5, 0.8612040964649231
525, 0.861768277152759
525.5, 0.8622937950993331
526, 0.8625467753341709
526.5, 0.8626799132889058
527, 0.862978478008092
527.5, 0.8633644223560063
528, 0.8636040672857082
528.5, 0.8637508932139025
529, 0.8640061146607071
529.5, 0.8643863254286511
530, 0.8647914490805981
530.5, 0.8651445083849807
531, 0.8653911577929267
531.5, 0.8655537982483216
532, 0.8657122865238349
532.5, 0.865892796219417
533, 0.8660734934648668
533.5, 0.8662487829062644
534, 0.8664300102179293
534.5, 0.8666112331906787
535, 0.8667683026606356
535.5, 0.8669280025270972
536, 0.8671787237426716
536.5, 0.8675367285498962
537, 0.8679157465383597
537.5, 0.8682685369929658
538, 0.8686181110627595
538.5, 0.8689755611734101
539, 0.869321997703714
539.5, 0.8696616094153087
540, 0.8700474901728487
540.5, 0.8704580117121549
541, 0.8707012515469466
541.5, 0.8706976691044253
542, 0.8706884423172779
542.5, 0.8708498938157341
543, 0.8710576072884477
543.5, 0.871208592458425
544, 0.8714168420539588
544.5, 0.8717704255514775
545, 0.8721278194622308
545.5, 0.8723479245212247
546, 0.8724822288764862
546.5, 0.8726220475521943
547, 0.8728283751327652
547.5, 0.8731396976151975
548, 0.8735238881845445
548.5, 0.8739225829043813
549, 0.8742531171409381
549.5, 0.8744499190647986
550, 0.8746118691524024
550.5, 0.8748839134583697
551, 0.8752725654627471
551.5, 0.8757122861881714
552, 0.8760496543839523
552.5, 0.8761207496443603
553, 0.8760807057299183
553.5, 0.8762390030099945
554, 0.8766399122076274
554.5, 0.8771624023374999
555, 0.8777025913012081
555.5, 0.8781726156338664
556, 0.8785196756543793
556.5, 0.8787241426067566
557, 0.8788773123948589
557.5, 0.8791566637342412
558, 0.879540367996465
558.5, 0.8798185148329576
559, 0.879970358222567
559.5, 0.8801836391966225
560, 0.880537305686546
560.5, 0.8809663632036241
561, 0.881359025369091
561.5, 0.8815550220704285
562, 0.8815409785955161
562.5, 0.8815269270608576
563, 0.8816651471170553
563.5, 0.8819802463719357
564, 0.882388319812791
564.5, 0.8826267493051623
565, 0.8826037035414084
565.5, 0.8826244829852011
566, 0.882845738897342
566.5, 0.8829587533273481
567, 0.8827743815279832
567.5, 0.882595062180876
568, 0.8826326071156735
568.5, 0.8825903995052325
569, 0.8822368144260357
569.5, 0.8818755400961223
570, 0.8818052744913695
570.5, 0.8818779242695295
571, 0.8818926280450365
571.5, 0.881879029195071
572, 0.8819011239591386
572.5, 0.8818876356409979
573, 0.8817516625414996
573.5, 0.8815478951046828
574, 0.8813643358353486
574.5, 0.8811921314437476
575, 0.8809962718232688
575.5, 0.880823512752712
576, 0.8807478695517991
576.5, 0.8807743373298919
577, 0.880861762321928
577.5, 0.8808531811277045
578, 0.8805480851888559
578.5, 0.8799609737060211
579, 0.8792380642456255
579.5, 0.8785202207657911
580, 0.8779317213691863
580.5, 0.8774249578550041
581, 0.8768363638126228
581.5, 0.8762678967872136
582, 0.8760331254496532
582.5, 0.876086725457954
583, 0.8760480582777931
583.5, 0.8758375419013334
584, 0.8757025280532674
584.5, 0.8757174553897832
585, 0.8757344432347132
585.5, 0.8756034210794351
586, 0.8751906661822451
586.5, 0.8744892268759211
587, 0.8736762422831894
587.5, 0.8729217558732488
588, 0.8723590346761784
588.5, 0.8720067356432062
589, 0.8716805284892902
589.5, 0.8712933019525116
590, 0.8710014821490126
590.5, 0.8708611732804235
591, 0.8706288137115875
591.5, 0.8701381242080647
592, 0.8695318794980617
592.5, 0.8689650587618938
593, 0.868484104953139
593.5, 0.8681014725003834
594, 0.8677824974333554
594.5, 0.8674721500020077
595, 0.8670756044868901
595.5, 0.8665376730544798
596, 0.866009783899711
596.5, 0.865640217220347
597, 0.8653012612141074
597.5, 0.8648233712777688
598, 0.864257232393689
598.5, 0.8637109909994687
599, 0.8631889619689364
599.5, 0.8626605890465641
600, 0.8621279280126456
600.5, 0.8616232829079774
601, 0.8613093076662575
601.5, 0.8613695274322767
602, 0.861603671518116
602.5, 0.8616347074792888
603, 0.8614040542087044
603.5, 0.8610452336207692
604, 0.8606820378276454
604.5, 0.8604222257527929
605, 0.8602624224510849
605.5, 0.8601181466528193
606, 0.8599412308477935
606.5, 0.8597196067734731
607, 0.8595235281745646
607.5, 0.8594900881234168
608, 0.8595359496642851
608.5, 0.8593560891388471
609, 0.858952976659096
609.5, 0.8586910639579829
610, 0.8587002503207508
610.5, 0.8587826729763686
611, 0.8587983914543131
611.5, 0.8587225310905362
612, 0.8585563092965243
612.5, 0.8583289708673658
613, 0.8581104237383068
613.5, 0.8580380851861706
614, 0.8581017567032667
614.5, 0.8579806217285206
615, 0.8575644569577088
615.5, 0.857302905961334
616, 0.8574681659271056
616.5, 0.8576861459129602
617, 0.857671536106391
617.5, 0.8576829455299406
618, 0.8579658187692043
618.5, 0.8584101796905759
619, 0.8588422466033352
619.5, 0.8591171402670835
620, 0.85915509013132
620.5, 0.8591185663203232
621, 0.8591650632936619
621.5, 0.8591347730227499
622, 0.8588404567813666
622.5, 0.8584430237516122
623, 0.8581794554343659
623.5, 0.8580504530735417
624, 0.8579835491124906
624.5, 0.8580096282874127
625, 0.8581803964920751
625.5, 0.8583698640200667
626, 0.8583997310670254
626.5, 0.8583756658024945
627, 0.8585215475493946
627.5, 0.8587279979737685
628, 0.8587125680326968
628.5, 0.8584910121753898
629, 0.8582674478466171
629.5, 0.8581008806585825
630, 0.8579421185188609
630.5, 0.8577646465493445
631, 0.8575647148017602
631.5, 0.8573786127710717
632, 0.8572766214396538
632.5, 0.857278710317913
633, 0.8573497568042844
633.5, 0.8573839121518028
634, 0.8572028393150988
634.5, 0.856819507368849
635, 0.8564913553264809
635.5, 0.8563216389528843
636, 0.856174256383203
636.5, 0.855985190712348
637, 0.8558319572920154
637.5, 0.8557030461011713
638, 0.8554085577512502
638.5, 0.8548787624877925
639, 0.8543175069210638
639.5, 0.8539018029697977
640, 0.8536775365545202
640.5, 0.8535752637525168
641, 0.8532820193632124
641.5, 0.8526114004906272
642, 0.8518374221379997
642.5, 0.85123062677287
643, 0.850796081945069
643.5, 0.8504646195916771
644, 0.8500891201049176
644.5, 0.8495642426359145
645, 0.8490251277952259
645.5, 0.848623605290133
646, 0.8483077807875846
646.5, 0.8479800478070246
647, 0.8476094068653324
647.5, 0.8472037920434107
648, 0.8468735181555688
648.5, 0.8467211866870215
649, 0.8465453241392744
649.5, 0.8460781305701408
650, 0.8455050900468744
650.5, 0.8451599370071626
651, 0.8448326073061692
651.5, 0.8440920516887568
652, 0.8431340867483134
652.5, 0.8424810639996523
653, 0.8421978034113388
653.5, 0.8420539778241336
654, 0.8418840302486338
654.5, 0.8415828848530645
655, 0.8412048071962532
655.5, 0.8409173117933677
656, 0.8406091099841893
656.5, 0.8399333987366682
657, 0.8389764176570896
657.5, 0.8382549503132393
658, 0.8379236145911924
658.5, 0.8377150859548455
659, 0.8375157884618979
659.5, 0.8374270272708242
660, 0.8373412588699004
660.5, 0.8368479081629406
661, 0.8359060022829182
661.5, 0.8350800407702429
662, 0.8346858000922321
662.5, 0.8345170049582987
663, 0.8343669172747129
663.5, 0.8341294751095126
664, 0.8337745918870859
664.5, 0.8334122959758066
665, 0.8330940807589413
665.5, 0.8326831697528131
666, 0.8321191762546561
666.5, 0.831630105195958
667, 0.83139626688539
667.5, 0.8312965011661728
668, 0.8311722165541772
668.5, 0.8309386361459485
669, 0.8305720281794439
669.5, 0.8302270636832129
670, 0.8300412253087781
670.5, 0.8298746251173548
671, 0.8295585966601818
671.5, 0.8291762265504327
672, 0.828852049198023
672.5, 0.8284864573629185
673, 0.8279463845838269
673.5, 0.8274088870837865
674, 0.8271288595516392
674.5, 0.8270030569710974
675, 0.8268024635466489
675.5, 0.8266180148760212
676, 0.8266740411804585
676.5, 0.8268967688889479
677, 0.8270521600380296
677.5, 0.8270271984815848
678, 0.8267939660209623
678.5, 0.8264134523048824
679, 0.826006357782988
679.5, 0.8256515856015098
680, 0.8253913484354457
680.5, 0.8252220817637044
681, 0.825098893173679
681.5, 0.824939236017517
682, 0.8246312230069923
682.5, 0.824238981879933
683, 0.8240160367232964
683.5, 0.8240274199182737
684, 0.8240966675290116
684.5, 0.8241073275023135
685, 0.8240450570951817
685.5, 0.8238924717514575
686, 0.8236171099807017
686.5, 0.8232475285432003
687, 0.8229180106937038
687.5, 0.8227151873982039
688, 0.822615135663892
688.5, 0.8225922998787196
689, 0.8226440061729371
689.5, 0.822711778299508
690, 0.8225962328517866
690.5, 0.8222195714750392
691, 0.8218886844612387
691.5, 0.8218415325802506
692, 0.8219095644652975
692.5, 0.8219140614281883
693, 0.8219074064385448
693.5, 0.8219464684215019
694, 0.8219115261063913
694.5, 0.8217086591790985
695, 0.821548077669948
695.5, 0.8216520974084837
696, 0.8218835516120311
696.5, 0.8220147761849669
697, 0.8219413678983077
697.5, 0.8216322215389678
698, 0.8212488774825151
698.5, 0.8209979796417476
699, 0.8208555365935406
699.5, 0.8207050842979551
700, 0.8205187400007838
700.5, 0.8203158416811861
701, 0.8201413362537019
701.5, 0.8200513122566624
702, 0.82006803242725
702.5, 0.8201897734115223
703, 0.8203796589105842
703.5, 0.8205782950500379
704, 0.8207543829738214
704.5, 0.8208946982114151
705, 0.8209092605915721
705.5, 0.8206530587105194
706, 0.8202470580510075
706.5, 0.8200588773256567
707, 0.8201075340298332
707.5, 0.8200341151924043
708, 0.8198015088109708
708.5, 0.8197752588160666
709, 0.8200050013529989
709.5, 0.8200888573497521
710, 0.8198881641038183
710.5, 0.8197042837191704
711, 0.819700529945246
711.5000000000002, 0.8197489618450117
712, 0.8197543137393907
712.5, 0.8197345748647263
713, 0.8197214213513463
713.5000000000002, 0.8197489417656576
714, 0.819796545585172
714.5, 0.819714252744309
715, 0.8194691711939783
715.5000000000002, 0.819388320249231
716, 0.8196944602706369
716.5, 0.8201220407895714
717, 0.8203886223559824
717.5000000000002, 0.8204618868913041
718, 0.8204065881649063
718.5, 0.8204568447673294
719, 0.8207905038540294
719.5000000000002, 0.8211664915765202
720, 0.8212949590363443
720.5, 0.821202817593463
721, 0.8210127324198425
721.5000000000002, 0.8208406805578101
722, 0.8207816716287479
722.5, 0.8208128404072847
723, 0.8208632860235805
723.5000000000002, 0.8208468137250142
724, 0.8206914859311936
724.5, 0.8204975971760486
725, 0.8204294656051947
725.5000000000002, 0.8204561787730593
726, 0.8204527560542604
726.5, 0.8204440783659143
727, 0.820539142344179
727.5000000000002, 0.8207350515236698
728, 0.8209523435480156
728.5, 0.8211303714073483
729, 0.8212255910709323
729.5000000000002, 0.8212209842865141
730, 0.8211222210387397
730.5, 0.8209427231768617
731, 0.8207052692473972
731.5000000000002, 0.8205011049702488
732, 0.8204891383296015
732.5, 0.8206799433236175
733, 0.8209066593533745
733.5000000000002, 0.82108270538704
734, 0.8212409278031194
734.5, 0.821412155721869
735, 0.8216116311275573
735.5000000000002, 0.8218127368795705
736, 0.8219227648493561
736.5, 0.8219179466348725
737, 0.821912149941792
737.5000000000002, 0.8219461704208788
738, 0.8218801183180704
738.5, 0.8216696286639652
739.0000000000002, 0.8215427578365593
739.5, 0.8216649574532267
740, 0.8219387592355101
740.5, 0.822207033751085
741.0000000000002, 0.8222615057140713
741.5, 0.822028235206429
742, 0.8219093561870288
742.5, 0.8222257565614917
743.0000000000002, 0.8226245331521923
743.5, 0.8227172263838696
744, 0.8226345466218162
744.5, 0.8226005488555036
745.0000000000002, 0.8226259351744689
745.5, 0.8226571660638609
746, 0.8226395742376098
746.5, 0.8225524685585321
747.0000000000002, 0.822587889862978
747.5, 0.822946847289846
748, 0.8233202147455867
748.5, 0.8232641322231025
749.0000000000002, 0.8230169089648043
749.5, 0.8230782077319122
750, 0.8233165231758928
750.5, 0.8233014788021946
751.0000000000002, 0.8230668287645538
751.5, 0.8229128149847953
752, 0.8229394329290113
752.5, 0.8231042374752373
753.0000000000002, 0.8232984538105472
753.5, 0.823374957171019
754, 0.8233522526984277
754.5, 0.8233855553396879
755.0000000000002, 0.8235611920750469
755.5, 0.8238923571054291
756, 0.8242778600237761
756.5, 0.8245047239326612
757.0000000000002, 0.8245035700569288
757.5, 0.8243774283601764
758, 0.8242014418361654
758.5, 0.8240021530910134
759.0000000000002, 0.8238127739957198
759.5, 0.8236808016770039
760, 0.8236506447354519
760.5, 0.8237590887752545
761.0000000000002, 0.8239645868696138
761.5, 0.8240861812567897
762, 0.8240615236540711
762.5, 0.824097437979916
763.0000000000002, 0.8242957265622074
763.5, 0.8244461587591962
764, 0.824426462019478
764.5, 0.8244488631501448
765.0000000000002, 0.824650353411671
765.5, 0.8248000337814633
766, 0.8246937433400767
766.5, 0.8244278952640774
767.0000000000002, 0.8241633839198448
767.5, 0.8240741104588153
768, 0.8242517204388978
768.5, 0.8244331635871843
769.0000000000002, 0.8243448917771335
769.5, 0.8240985692876451
770, 0.8238871666601675
770.5, 0.8237324054055224
771.0000000000002, 0.8236211071194357
771.5, 0.8236738526616207
772, 0.8240093168337368
772.5, 0.8243865472050741
773.0000000000002, 0.8244741429297586
773.5, 0.8244244062001973
774, 0.824568289267815
774.5000000000002, 0.824777554239044
775, 0.8247203613015528
775.5, 0.8244915586638373
776, 0.8244115828822955
776.5000000000002, 0.8244479844173407
777, 0.8243511351544162
777.5, 0.8241426051806954
778, 0.8240365605574268
778.5000000000002, 0.824058433264138
779, 0.8240789770312001
779.5, 0.8240695015553334
780, 0.8240940202290437
780.5000000000002, 0.8241158872581166
781, 0.823997729090084
781.5, 0.8237829641069596
782, 0.8237224699025048
782.5000000000002, 0.8239011265977687
783, 0.8241775642607373
783.5, 0.8243971189321098
784, 0.8244094350693245
784.5000000000002, 0.8242134632118622
785, 0.8240434223858938
785.5, 0.8240311559851003
786, 0.8240897254638384
786.5000000000002, 0.8241208877209816
787, 0.824048879656931
787.5, 0.8238633405146735
788, 0.8236937132734145
788.5000000000002, 0.8236474565572796
789, 0.8237295678354326
789.5, 0.8239073396011305
790, 0.8240861922571977
790.5000000000002, 0.8241665673746933
791, 0.8240675765432774
791.5, 0.8237557216366931
792, 0.8233548966303723
792.5000000000002, 0.8230317788515874
793, 0.8229830090717345
793.5, 0.8233163352619249
794, 0.8236936008140504
794.5000000000002, 0.8237557205198073
795, 0.8237076369000641
795.5, 0.8238601070080469
796, 0.8240595293777472
796.5000000000002, 0.824025888904697
797, 0.8237797997784406
797.5, 0.8234544665108552
798, 0.8230903830128228
798.5000000000002, 0.8226932967519255
799, 0.8223446885488074
799.5, 0.8221453848938614
800, 0.8219897132079509
800.5000000000002, 0.8216758442237941
801, 0.8212914480635873
801.5, 0.8210976845134482
802, 0.8211323440676365
802.5000000000002, 0.8212720095975556
803, 0.8214525058803636
803.5, 0.8216590966356878
804, 0.8218453123228656
804.5000000000002, 0.8219375791807002
805, 0.8219303404632035
805.5, 0.8218876662432083
806, 0.8218750864564444
806.5000000000002, 0.8219547725772639
807, 0.822133488531269
807.5, 0.8223488813135511
808.0000000000002, 0.8225405282779168
808.5000000000002, 0.8226572177362308
809, 0.8226730645293419
809.5, 0.822600525059189
810.0000000000002, 0.8224456360543976
810.5000000000002, 0.8221975625801735
811, 0.821858652287558
811.5, 0.8214604298244895
812.0000000000002, 0.821064704038439
812.5, 0.820792067592221
813, 0.8207271492995727
813.5, 0.8208469513018457
814.0000000000002, 0.8210680819423211
814.5, 0.8211849210362367
815, 0.8210570486634411
815.5, 0.8208133295119981
816.0000000000002, 0.8206030170837919
816.5, 0.8204621052980726
817, 0.8204046765376711
817.5, 0.8204571545839789
818.0000000000002, 0.8206257644581659
818.5, 0.8208113044975752
819, 0.8208983870400939
819.5, 0.8208416069023542
820.0000000000002, 0.8206452832470797
820.5, 0.8204729409719048
821, 0.8204900926978607
821.5, 0.8204948973945781
822.0000000000002, 0.8202003987654937
822.5, 0.8198047359212056
823, 0.819675857479558
823.5, 0.8197327360927299
824.0000000000002, 0.8196865331697178
824.5, 0.8194739149148357
825, 0.8191605003218341
825.5, 0.8187963737772848
826.0000000000002, 0.8184203124065165
826.5, 0.8180661517058936
827, 0.8177664703019032
827.5, 0.8175877969803934
828.0000000000002, 0.8176171425287911
828.5, 0.8178167483049374
829, 0.8180406403680371
829.5, 0.8182171917155029
830.0000000000002, 0.8183498958300293
830.5, 0.8183783562910782
831, 0.8181732774405299
831.5, 0.8177848793590273
832.0000000000002, 0.8174840310972361
832.5, 0.8173367047529656
833, 0.8171117805772098
833.5, 0.8167357901329294
834.0000000000002, 0.8164084589351753
834.5, 0.8162292904484969
835, 0.8160869951781418
835.5, 0.8159079176274452
836.0000000000002, 0.8157299753182046
836.5, 0.8155683916494744
837, 0.8153628000830477
837.5, 0.8151229344419212
838.0000000000002, 0.8150511186288031
838.5, 0.8152403976177965
839, 0.8154097137569366
839.5, 0.8153709847926041
840.0000000000002, 0.8154138141246928
840.5, 0.8157663867472564
841, 0.8161283264897454
841.5, 0.8161561212703557
842.0000000000002, 0.8157854473701477
842.5, 0.8150795063182597
843, 0.8143639263729305
843.5000000000002, 0.81394219291616
844.0000000000002, 0.8136403980435655
844.5, 0.8132162919487652
845, 0.8128920038519103
845.5000000000002, 0.8129702254549904
846.0000000000002, 0.813209634628358
846.5, 0.8132058713024559
847, 0.8129538911320325
847.5000000000002, 0.8126162192297378
848, 0.8122565911949841
848.5, 0.8119050956047035
849, 0.8117518970700429
849.5000000000002, 0.812043814781357
850, 0.8126487660288355
850.5, 0.8132089572788166
851, 0.8135412394259672
851.5000000000002, 0.8135928160537353
852, 0.8133888375745155
852.5, 0.8130173406631444
853, 0.8126371426543758
853.5000000000002, 0.8124580928837715
854, 0.8124842271238257
854.5, 0.812522304432483
855, 0.8125099663678662
855.5000000000002, 0.8125324283144411
856, 0.8125635196977651
856.5, 0.8124359530991107
857, 0.8120902621546481
857.5000000000002, 0.8116232210185809
858, 0.8111012892652011
858.5, 0.8105293310766732
859, 0.809959987075476
859.5000000000002, 0.8095341425452642
860, 0.809323724846838
860.5, 0.8092550056048815
861, 0.8092513476062815
861.5000000000002, 0.8092639818515818
862, 0.8092642552051486
862.5, 0.8092627827745216
863, 0.8092670285922527
863.5000000000002, 0.8092609245406246
864, 0.8092427985169713
864.5, 0.8092658894820768
865, 0.8093355337967707
865.5000000000002, 0.8092595045302297
866, 0.8089072999509257
866.5, 0.8085466384642843
867, 0.8084546533129247
867.5000000000002, 0.8085332766779808
868, 0.8085995396317004
868.5, 0.8085548680275737
869, 0.8083627734828305
869.5000000000002, 0.8081887483479208
870, 0.8082078743461807
870.5, 0.8082104943536006
871, 0.8079065029472616
871.5000000000002, 0.8075136391196922
872, 0.8074112569167818
872.5, 0.8074653972740604
873, 0.80733490357635
873.5000000000002, 0.8071228322632175
874, 0.807146870824583
874.5, 0.8073735299625889
875, 0.8075686430260202
875.5000000000002, 0.8077282618979342
876, 0.8079992810051939
876.5, 0.8083742988925626
877.0000000000002, 0.8087241845919926
877.5000000000002, 0.8089113147282161
878, 0.808801144137195
878.5, 0.8084225903317868
879.0000000000002, 0.8079602821600599
879.5000000000002, 0.8075808079917873
880, 0.8074196436510793
880.5, 0.8074453708798139
881.0000000000002, 0.8074352599536779
881.5000000000002, 0.8073803231022911
882, 0.807564186745181
882.5, 0.8079851112763403
883.0000000000002, 0.8081934313607504
883.5000000000002, 0.8080108783156217
884, 0.8077663010897647
884.5, 0.8077122598164642
885.0000000000002, 0.8078717719198795
885.5, 0.8081312875346824
886, 0.8081466612344375
886.5, 0.8077776233420988
887.0000000000002, 0.8074241119261787
887.5, 0.8074434862404892
888, 0.8078815005598302
888.5, 0.8086323630593891
889.0000000000002, 0.8092918239973415
889.5, 0.8095543524313332
890, 0.8096253342483767
890.5, 0.8097121344854923
891.0000000000002, 0.8096294484462936
891.5, 0.8091881674366942
892, 0.8085773151011424
892.5, 0.8080658436934374
893.0000000000002, 0.8078218663389031
893.5, 0.8079269305381213
894, 0.8081549503771439
894.5, 0.8082268019873626
895.0000000000002, 0.8081854730366124
895.5, 0.8081753840685558
896, 0.8081829780982315
896.5, 0.8081450118836228
897.0000000000002, 0.8081493639325884
897.5, 0.8083267154583175
898, 0.8085232889755285
898.5, 0.8084644771262939
899.0000000000002, 0.8082395264123319
899.5, 0.8081372892362404
900, 0.8081687558363425
900.5, 0.8081670219672309
901.0000000000002, 0.8081501422244046
901.5, 0.8082675209727226
902, 0.8084729722026698
902.5, 0.8085622593044023
903.0000000000002, 0.808535214795757
903.5, 0.808583207749848
904, 0.8087681055452081
904.5, 0.8090077611256524
905.0000000000002, 0.8092063009808141
905.5, 0.8092635295684162
906, 0.8092262266909777
906.5, 0.8093282226836942
907.0000000000002, 0.8095672146394592
907.5, 0.8095842044609993
908, 0.8093314472562301
908.5, 0.8093084116658217
909.0000000000002, 0.8096996243486879
909.5, 0.8100288109192271
910, 0.8100276767982749
910.5, 0.8099922125784684
911.0000000000002, 0.8101444934213828
911.5, 0.8103817693530776
912, 0.8105863011820044
912.5000000000002, 0.810717532699064
913.0000000000002, 0.81075502019101
913.5, 0.8107011917636491
914, 0.8105617075623495
914.5000000000002, 0.8103393650569723
915.0000000000002, 0.8100791498577489
915.5, 0.8099840185020762
916, 0.8102240766911241
916.5000000000002, 0.8106796057124305
917.0000000000002, 0.8111871320370901
917.5, 0.8117346577214861
918, 0.812327619735655
918.5000000000002, 0.8128245720274198
919.0000000000002, 0.8130786498328377
919.5, 0.8132091807587575
920, 0.8133991980616362
920.5000000000002, 0.8135777254344894
921, 0.8135990786878
921.5, 0.8135795541534732
922, 0.8137256358330371
922.5000000000002, 0.8139284026530301
923, 0.813932036721764
923.5, 0.8137083952057125
924, 0.8133772439214526
924.5000000000002, 0.8131940956267187
925, 0.8134722246760455
925.5, 0.8140769912575327
926, 0.8145628886253895
926.5000000000002, 0.814876455041079
927, 0.8152849407762822
927.5, 0.815838632233487
928, 0.8163835678528106
928.5000000000002, 0.8168968724434287
929, 0.8174919201264882
929.5, 0.8180806428528657
930, 0.8183451848770522
930.5000000000002, 0.8182929567326371
931, 0.818358505698297
931.5, 0.8187193954844054
932, 0.8191478794311757
932.5000000000002, 0.819503355112698
933, 0.8198336161373992
933.5, 0.8201819444689814
934, 0.82055340619181
934.5000000000002, 0.8209271035369043
935, 0.8212382954866813
935.5, 0.8214436066875905
936, 0.8215593085029566
936.5000000000002, 0.8216618842248363
937, 0.8219588474923577
937.5, 0.8225270606493453
938, 0.8230153220523521
938.5000000000002, 0.8231274029657482
939, 0.822984360823374
939.5, 0.8227748281369696
940, 0.822630367305384
940.5000000000002, 0.8226642262589825
941, 0.8229675110848547
941.5, 0.8235840119323685
942, 0.8243642100720555
942.5000000000002, 0.8251248252530142
943, 0.8257998425058893
943.5, 0.826371321718783
944, 0.8268789419203318
944.5000000000002, 0.8273815449815345
945, 0.8279235198407253
945.5, 0.8285228606622153
946.0000000000002, 0.8290395069204332
946.5000000000002, 0.8292953972020557
947, 0.8294312530136909
947.5, 0.8297369985020906
948.0000000000002, 0.8303184511960499
948.5000000000002, 0.8311587529344034
949, 0.8320755476032924
949.5, 0.8327964912807446
950.0000000000002, 0.8332913841399947
950.5000000000002, 0.8337016098301209
951, 0.8340593228901936
951.5, 0.8343084281132048
952.0000000000002, 0.8344716439496361
952.5000000000002, 0.8346473044088436
953, 0.8349721669059871
953.5, 0.8356079986859527
954.0000000000002, 0.8363954798222261
954.5000000000002, 0.8368230192068216
955, 0.8367870412420382
955.5, 0.8367170793894118
956.0000000000002, 0.8368696524150584
956.5000000000002, 0.8372110857733711
957, 0.8377101131592246
957.5, 0.8383722754416861
958.0000000000002, 0.8391219594017673
958.5, 0.8397368111406338
959, 0.8401101887340952
959.5, 0.8403911657645899
960.0000000000002, 0.8407164452862063
960.5, 0.8411301779221079
961, 0.8416424428942626
961.5, 0.842209536058906
962.0000000000002, 0.8427731545712202
962.5, 0.8432570915901139
963, 0.8436227721330319
963.5, 0.8439594725476476
964.0000000000002, 0.8443370159857619
964.5, 0.8446673287983488
965, 0.8449104615143885
965.5, 0.8453605767591904
966.0000000000002, 0.8462492183258309
966.5, 0.847141168712726
967, 0.847534785216456
967.5, 0.8475632989364608
968.0000000000002, 0.8475308342663206
968.5, 0.8475475615601119
969, 0.8476507457316681
969.5, 0.8478607463874375
970.0000000000002, 0.8481822100117757
970.5, 0.8485525547156504
971, 0.8488923983606145
971.5, 0.8492443990790812
972.0000000000002, 0.8497033163903643
972.5, 0.8502562967698557
973, 0.8508291063469768
973.5, 0.8513574749044646
974.0000000000002, 0.8517884208069628
974.5, 0.8521284505918122
975, 0.8524287981031459
975.5, 0.8527741930283065
976.0000000000002, 0.8532660345520768
976.5, 0.8538278906262246
977, 0.854236147915843
977.5, 0.8545433678151364
978.0000000000002, 0.8550708852645851
978.5, 0.8558253671003918
979, 0.8564573654864212
979.5000000000002, 0.8568156979303302
980.0000000000002, 0.8570171294951382
980.5, 0.857179315525171
981, 0.8573976355421745
981.5000000000002, 0.8577300903564924
982.0000000000002, 0.8581792530972882
982.5, 0.8587134772909374
983, 0.8592501609661002
983.5000000000002, 0.8596792304613026
984.0000000000002, 0.8598479778241358
984.5, 0.859705892109605
985, 0.8594334051629194
985.5000000000002, 0.8592065779383541
986.0000000000002, 0.8591179576855533
986.5, 0.8592233775372602
987, 0.8595123240059314
987.5000000000002, 0.8599691656506279
988.0000000000002, 0.860597033986453
988.5, 0.8613517255510149
989, 0.8620117598662079
989.5000000000002, 0.8623635065321316
990.0000000000002, 0.8623760933485514
990.5, 0.862091897757987
991, 0.8616793211346867
991.5000000000002, 0.8613402514297718
992.0000000000002, 0.8612682998706382
992.5, 0.861609565175625
993, 0.8622526625672506
993.5000000000002, 0.8630256536034455
994, 0.8639589705411677
994.5, 0.8651124474069976
995, 0.8661613595417262
995.5000000000002, 0.8666693042960454
996, 0.8667239522034533
996.5, 0.8666625968913173
997, 0.8666711408161246
997.5000000000002, 0.8668315161789766
998, 0.8670306807603617
998.5, 0.8670573666634518
999, 0.8670216051787655
999.5000000000002, 0.8672371772493379
1000, 0.8676417849503631
1000.5, 0.8678936900861329
1001, 0.8680226378693534
1001.5000000000002, 0.8683755607765988
1002, 0.8689536643824395
1002.5, 0.8694159745569502
1003, 0.8695993352939965
1003.5000000000002, 0.8695512856551012
1004, 0.8693631745555349
1004.5, 0.8691670377536034
1005, 0.869112170615758
1005.5000000000002, 0.8693647342907556
1006, 0.8699120545946067
1006.5, 0.870470643235702
1007, 0.8708560616152943
1007.5000000000002, 0.871088879797332
1008, 0.8711608356726421
1008.5, 0.8709726774306539
1009, 0.8705655106016759
1009.5000000000002, 0.8702987253466182
1010, 0.8704064194684702
1010.5, 0.8707281400986476
1011, 0.8710895664187949
1011.5000000000002, 0.8714329169722085
1012, 0.8716980564019071
1012.5, 0.871759473080717
1013, 0.8715217571456375
1013.5000000000002, 0.871034166067206
1014, 0.8704194170158304
1014.5, 0.8699648478540192
1015.0000000000002, 0.8698915187568691
1015.5000000000002, 0.8699569552113146
1016, 0.869892784618465
1016.5, 0.8699297501220877
1017.0000000000002, 0.8703606034098491
1017.5000000000002, 0.8709597962274517
1018, 0.871384380432785
1018.5, 0.8716967535420957
1019.0000000000002, 0.8720797213460194
1019.5000000000002, 0.8724320106951365
1020, 0.8725566698635665
1020.5, 0.8725069817050478
1021.0000000000002, 0.8724509074417569
1021.5000000000002, 0.8724637150569137
1022, 0.8725666925391696
1022.5, 0.8727589172016491
1023.0000000000002, 0.8730171033037782
1023.5000000000002, 0.8732032014745708
1024, 0.8731210416428166
1024.5, 0.8728957416958145
1025.0000000000002, 0.8728831823171731
1025.5000000000002, 0.8731018248413694
1026, 0.8732800188864085
1026.5, 0.8732802038587704
1027.0000000000002, 0.8731031463785834
1027.5000000000002, 0.8727559556716484
1028, 0.872249349340983
1028.5, 0.8716850595783748
1029.0000000000002, 0.8712701514029979
1029.5000000000002, 0.8710844556738853
1030, 0.8710305930983852
1030.5, 0.871029290551777
1031.0000000000002, 0.8710464811810978
1031.5, 0.871054469913324
1032, 0.871030511673924
1032.5, 0.8709993502945669
1033.0000000000002, 0.8710724255667677
1033.5, 0.8712719435372669
1034, 0.8714152848580613
1034.5, 0.8714064802200546
1035.0000000000002, 0.871411300529925
1035.5, 0.8714963610877362
1036, 0.8713699503618422
1036.5, 0.8708557199861735
1037.0000000000002, 0.8702911586862342
1037.5, 0.8700020132163017
1038, 0.8699579643648673
1038.5, 0.8700255357626963
1039.0000000000002, 0.8699623178454988
1039.5, 0.8696059909762293
1040, 0.8692480086191738
1040.5, 0.8692300241807388
1041.0000000000002, 0.8695472384760711
1041.5, 0.8700757084182251
1042, 0.8706135794053612
1042.5, 0.8709564477729671
1043.0000000000002, 0.8710507292056892
1043.5, 0.8708965957236561
1044, 0.8704626137506928
1044.5, 0.8697398241491011
1045.0000000000002, 0.8690144928087971
1045.5, 0.8686628531186605
1046, 0.8685578393401605
1046.5, 0.8683420072402428
1047.0000000000002, 0.868140042212917
1047.5, 0.8683298179599329
1048, 0.8687550932211672
1048.5000000000002, 0.8689275723256391
1049.0000000000002, 0.8688677191999569
1049.5, 0.8689716858849068
1050, 0.8693535323470479
1050.5000000000002, 0.8698743827441313
1051.0000000000002, 0.870276459731712
1051.5, 0.8702099844085074
1052, 0.8696485162599655
1052.5000000000002, 0.8689063098612867
1053.0000000000002, 0.8681874818605626
1053.5, 0.8675470557924293
1054, 0.8670063594044293
1054.5000000000002, 0.8665538966280297
1055.0000000000002, 0.8661845248923165
1055.5, 0.8659054736852697
1056, 0.8657149636159187
1056.5000000000002, 0.8655952285754269
1057.0000000000002, 0.8655565744395017
1057.5, 0.8656625031654461
1058, 0.8658821586584506
1058.5000000000002, 0.8659809237840363
1059.0000000000002, 0.865828180426097
1059.5, 0.8655885491986294
1060, 0.8654026359609497
1060.5000000000002, 0.8652430074849762
1061.0000000000002, 0.8650701519471246
1061.5, 0.8648870398854764
1062, 0.8647045032189639
1062.5000000000002, 0.864534000495079
1063.0000000000002, 0.8643748120116993
1063.5, 0.8641805428560516
1064, 0.8638971457814926
1064.5000000000002, 0.8634829350634021
1065.0000000000002, 0.8629342084868857
1065.5, 0.8624125793168865
1066, 0.8620982239856158
1066.5000000000002, 0.86200642786744
1067, 0.8620690809438979
1067.5, 0.8620462673844044
1068, 0.8617061198224802
1068.5000000000002, 0.8613265687825031
1069, 0.8613324635601306
1069.5, 0.8615888582676968
1070, 0.8617263262257876
1070.5000000000002, 0.8616820292879472
1071, 0.8615519834814948
1071.5, 0.8613661132201981
1072, 0.8611115375792207
1072.5000000000002, 0.860747648032979
1073, 0.8602273004781706
1073.5, 0.859670264392617
1074, 0.8593085531688027
1074.5000000000002, 0.8591605440298986
1075, 0.8590660185518767
1075.5, 0.8588995763383795
1076, 0.8585799303432877
1076.5000000000002, 0.8581899175114693
1077, 0.8579704375106096
1077.5, 0.8578596113304598
1078, 0.8574476474735954
1078.5000000000002, 0.8566891640967691
1079, 0.8560270818050875
1079.5, 0.8556674928423825
1080, 0.8554322140272544
1080.5000000000002, 0.8552266307125872
1081, 0.8551364433623871
1081.5, 0.8551612246382267
1082, 0.8551181524418914
1082.5000000000002, 0.8549287477364004
1083, 0.8547611313511949
1083.5, 0.8546629592523027
1084.0000000000002, 0.8543450495257876
1084.5000000000002, 0.85365452255323
1085, 0.852899478622115
1085.5, 0.8523346023768259
1086.0000000000002, 0.8518579036331345
1086.5000000000002, 0.8513435057643317
1087, 0.8507917063027228
1087.5, 0.8502348963719825
1088.0000000000002, 0.8497301022908961
1088.5000000000002, 0.849326366924231
1089, 0.8490167742763398
1089.5, 0.848786263718049
1090.0000000000002, 0.8486489857304629
1090.5000000000002, 0.8486161459239877
1091, 0.8486383760052872
1091.5, 0.8486538484902965
1092.0000000000002, 0.8486456764579936
1092.5000000000002, 0.8485964099393358
1093, 0.8483706906628675
1093.5, 0.8478374697921921
1094.0000000000002, 0.8472838438623416
1094.5000000000002, 0.8471277319102659
1095, 0.8472010977378261
1095.5, 0.847063506597332
1096.0000000000002, 0.8466500768719791
1096.5000000000002, 0.8461154996975725
1097, 0.8455775753786228
1097.5, 0.845123721638393
1098.0000000000002, 0.8447821626275713
1098.5000000000002, 0.844537601902901
1099, 0.8443676877338137
1099.5, 0.8442425142695007
1100.0000000000002, 0.8440811726690688
1100.5000000000002, 0.8437595928303219
1101, 0.8432294641990916
1101.5, 0.8425245525322536
1102.0000000000002, 0.8417781102379364
1102.5000000000002, 0.8412262407358991
1103, 0.8408963336063241
1103.5, 0.8405515368432692
1104.0000000000002, 0.8402539402611329
1104.5, 0.8405027356967681
1105, 0.8413078476696685
1105.5, 0.841862377114412
1106.0000000000002, 0.8417391799079808
1106.5, 0.8413039097805991
1107, 0.8408188105615748
1107.5, 0.8401847001673636
1108.0000000000002, 0.839407814786125
1108.5, 0.8388199366886963
1109, 0.8386105425827
1109.5, 0.8385080350823978
1110.0000000000002, 0.8383036815559509
1110.5, 0.8381609322157263
1111, 0.8381940165859438
1111.5, 0.8381583195506062
1112.0000000000002, 0.8378474683302017
1112.5, 0.837443318566091
1113, 0.8371288876108783
1113.5, 0.8367424570971911
1114.0000000000002, 0.8361029887816493
1114.5, 0.8353389493089879
1115, 0.8346257135108014
1115.5, 0.833923565148796
1116.0000000000002, 0.8331597850728784
1116.5, 0.8324760809054681
1117, 0.832070654069627
1117.5000000000002, 0.8319969012399036
1118.0000000000002, 0.8322123233241419
1118.5, 0.8323960743394951
1119, 0.8321498182887598
1119.5000000000002, 0.831518579491567
1120.0000000000002, 0.830767039128043
1120.5, 0.8300618352975928
1121, 0.8295091695949925
1121.5000000000002, 0.8291844279895458
1122.0000000000002, 0.8291382003426634
1122.5, 0.8293483285373826
1123, 0.8297341885184533
1123.5000000000002, 0.8301149778358706
1124.0000000000002, 0.8302399744778401
1124.5, 0.8300430718642899
1125, 0.8296254227774047
1125.5000000000002, 0.8290845478446667
1126.0000000000002, 0.8285078202530111
1126.5, 0.8279660952471105
1127, 0.8275111737744727
1127.5000000000002, 0.8271544430176272
1128.0000000000002, 0.8268573824063713
1128.5, 0.8265371433697203
1129, 0.8260569175955839
1129.5000000000002, 0.8254637828712504
1130.0000000000002, 0.825092634741401
1130.5, 0.8250801836970004
1131, 0.825178835491695
1131.5000000000002, 0.8251996175662806
1132.0000000000002, 0.8251405653182006
1132.5, 0.8250020633670547
1133, 0.824743451141712
1133.5000000000002, 0.8243743400971766
1134.0000000000002, 0.8240397873912647
1134.5, 0.8238406763729218
1135, 0.8237013032055898
1135.5000000000002, 0.82353906918319
1136.0000000000002, 0.8233428474795536
1136.5, 0.8231328624057268
1137, 0.8229907952625274
1137.5000000000002, 0.8229741355289655
1138.0000000000002, 0.822991450699361
1138.5, 0.8229199041509162
1139, 0.8226610498221165
1139.5000000000002, 0.8221663968203837
1140.0000000000002, 0.8216064795376845
1140.5, 0.8211822665532235
1141, 0.8208703938996009
1141.5000000000002, 0.8205696080972302
1142, 0.8201937237546582
1142.5, 0.819683648544323
1143, 0.8191371482603902
1143.5000000000002, 0.8187046161779274
1144, 0.818379701710248
1144.5, 0.8180768894794845
1145, 0.8177158535521576
1145.5000000000002, 0.8172305573752596
1146, 0.8166800926624291
1146.5, 0.8161983234277653
1147, 0.8158577919780429
1147.5000000000002, 0.8156772153206512
1148, 0.8155274171884943
1148.5, 0.8151823418121517
1149, 0.8147720113462381
1149.5000000000002, 0.8147211168341361
1150, 0.8149718675100037
1150.5, 0.8149956877607757
1151, 0.8146221663251556
1151.5000000000002, 0.8140952789200807
1152, 0.8136810139374001
1152.5, 0.8136386831482453
1153.0000000000002, 0.8138904023952553
1153.5000000000002, 0.8139065763189615
1154, 0.8135194975202511
1154.5, 0.8131568337444974
1155.0000000000002, 0.8130114517019214
1155.5000000000002, 0.8127951094280234
1156, 0.8123953619674842
1156.5, 0.8121210769575573
1157.0000000000002, 0.8121272840402296
1157.5000000000002, 0.8121418142343212
1158, 0.8119754406403805
1158.5, 0.8117678571323496
1159.0000000000002, 0.8116204864295813
1159.5000000000002, 0.8114024463719738
1160, 0.8110321341798556
1160.5, 0.8106947755586991
1161.0000000000002, 0.8105293651826024
1161.5000000000002, 0.8103434837159148
1162, 0.8099281662053915
1162.5, 0.809285690916968
1163.0000000000002, 0.8085075439477292
1163.5000000000002, 0.8078520611041371
1164, 0.8075496282768202
1164.5, 0.807463435311772
1165.0000000000002, 0.8073641703749402
1165.5000000000002, 0.807144100219001
1166, 0.8067703909694552
1166.5, 0.8064172819968961
1167.0000000000002, 0.8063018100821782
1167.5000000000002, 0.8063558347442069
1168, 0.8063812495053762
1168.5, 0.8061527564456601
1169.0000000000002, 0.8054865638810624
1169.5000000000002, 0.8047257782633044
1170, 0.8044461585046938
1170.5, 0.804541877098089
1171.0000000000002, 0.8045135006048543
1171.5000000000002, 0.804293761874131
1172, 0.8041060313703179
1172.5, 0.8039496756055927
1173.0000000000002, 0.8036570607865313
1173.5000000000002, 0.8032722775896491
1174, 0.8030158245872843
1174.5, 0.8028728861728598
1175.0000000000002, 0.8026048922738621
1175.5000000000002, 0.8022130863047872
1176, 0.8019583237209071
1176.5, 0.8018336836362961
1177.0000000000002, 0.8015029565132155
1177.5, 0.8009243648799966
1178, 0.8004715914913575
1178.5, 0.8002987145412401
1179.0000000000002, 0.8001902005069548
1179.5, 0.8000128605514578
1180, 0.7998215514807752
1180.5, 0.7997347973166842
1181.0000000000002, 0.7999554929831467
1181.5, 0.8005082964063485
1182, 0.801026687073031
1182.5, 0.8012561535911805
1183.0000000000002, 0.8013199153438595
1183.5, 0.801342216351625
1184, 0.8013072472157203
1184.5, 0.8011798568934014
1185.0000000000002, 0.8009352910050203
1185.5, 0.8005808727981268
1186, 0.8002253055259498
1186.5000000000002, 0.7999779974664042
1187.0000000000002, 0.7998700695577283
1187.5, 0.7998842586795282
1188, 0.7998750709311073
1188.5000000000002, 0.7997138064996171
1189.0000000000002, 0.7995221311212736
1189.5, 0.7994624018097889
1190, 0.7995002641522843
1190.5000000000002, 0.7995396249405574
1191.0000000000002, 0.7995215976608772
1191.5, 0.7994078779602529
1192, 0.7992041254334648
1192.5000000000002, 0.7989483684266344
1193.0000000000002, 0.7987869129043433
1193.5, 0.7988861470162977
1194, 0.7991035893011951
1194.5000000000002, 0.7991459960011258
1195.0000000000002, 0.7989225998351932
1195.5, 0.7984737719237569
1196, 0.7979161567162584
1196.5000000000002, 0.7974131984000831
1197.0000000000002, 0.7970671794411038
1197.5, 0.7969275272435764
1198, 0.7969485881659609
1198.5000000000002, 0.7970065627458911
1199.0000000000002, 0.7970132791675141
1199.5, 0.7969237618941392
1200, 0.7968717538335595
1200.5000000000002, 0.7971667975219038
1201.0000000000002, 0.7977603589840729
1201.5, 0.7981783976735605
1202, 0.7981980186563461
1202.5000000000002, 0.7979583117195963
1203.0000000000002, 0.7975998505788794
1203.5, 0.7972284172817367
1204, 0.7968848501945687
1204.5000000000002, 0.7965089574312781
1205.0000000000002, 0.796112894057706
1205.5, 0.7958578478530257
1206, 0.7958276202066401
1206.5000000000002, 0.7959145147251561
1207.0000000000002, 0.7959786147115128
1207.5, 0.7958601178047469
1208, 0.7955052213216223
1208.5000000000002, 0.7951417869440148
1209.0000000000002, 0.7949443512084915
1209.5, 0.7948004934139272
1210, 0.7946049686752243
1210.5000000000002, 0.7944478548494944
1211.0000000000002, 0.7944179790167664
1211.5, 0.7944496000345406
1212, 0.7944604797908972
1212.5, 0.7944508494768572
1213, 0.7944062291477283
1213.5, 0.7941376967486578
1214, 0.7934858446081117
1214.5, 0.7927337476033585
1215, 0.792245671563863
1215.5, 0.7919666361790579
1216, 0.791717214904349
1216.5, 0.791563688554593
1217, 0.7916473577421487
1217.5, 0.7918672830615033
1218, 0.7920328896814995
1218.5, 0.7922008680390459
1219, 0.7925346762780756
1219.5, 0.7929148362213938
1220, 0.7930857490369402
1220.5, 0.7932220026107927
1221, 0.7937499195073632
1221.5, 0.7945338297103118
1222, 0.7950382796241225
1222.5, 0.7951652740455237
1223, 0.7951829283427815
1223.5, 0.7951922167410952
1224, 0.7951287917613487
1224.5, 0.7949557690903373
1225, 0.7946724832932148
1225.5, 0.7943120606480824
1226, 0.7939464604414854
1226.5, 0.7937111379227058
1227, 0.7938156113848849
1227.5, 0.7942169671226593
1228, 0.7945052543065398
1228.5, 0.7945016101602711
1229, 0.7944434161824607
1229.5, 0.7944619113580339
1230, 0.7944302153603886
1230.5, 0.7942682007572845
1231, 0.794044216434688
1231.5, 0.793838345629451
1232, 0.7937168317510497
1232.5, 0.7937050401347381
1233, 0.7937293101207804
1233.5000000000002, 0.7937294536182262
1234, 0.7937282094422948
1234.5, 0.7937429461128155
1235.0000000000002, 0.7937260024628386
1235.5, 0.7936187110158822
1236, 0.7933701182577384
1236.5, 0.7929804238186384
1237, 0.7926542755191556
1237.5000000000002, 0.7925820684756459
1238, 0.7926394265966851
1238.5, 0.7926489031406236
1239.0000000000002, 0.7926407550257719
1239.5, 0.7927114062985522
1240, 0.7929418737808307
1240.5, 0.7933632525801206
1241, 0.7937033754314607
1241.5000000000002, 0.7936347561565117
1242, 0.7933946567100939
1242.5, 0.7934465262995054
1243.0000000000002, 0.7938914697205901
1243.5, 0.7946213631791799
1244, 0.795352526940523
1244.5, 0.795722279360373
1245, 0.7956533841871143
1245.5000000000002, 0.7952607204771118
1246, 0.7946975119443596
1246.5, 0.7941348953407894
1247.0000000000002, 0.7936138169596154
1247.5, 0.7930783445614374
1248, 0.7926814503969414
1248.5, 0.792751942370879
1249, 0.7931807370392283
1249.5000000000002, 0.793419965712193
1250, 0.7933657237045161
1250.5, 0.7934321866749398
1251.0000000000002, 0.7936760055365696
1251.5, 0.7936710543489112
1252, 0.7932943795001204
1252.5, 0.7928939394544408
1253, 0.7926896883607529
1253.5, 0.7926434761609923
1254, 0.7927540792815833
1254.5, 0.7931251560959033
1255.0000000000002, 0.7937906855550413
1255.5, 0.7946253881852919
1256, 0.7954396285124343
1256.5000000000002, 0.7959427234636557
1257, 0.7959316077657997
1257.5, 0.7954556784566146
1258, 0.7946900956902835
1258.5, 0.7940545247889536
1259.0000000000002, 0.7938297039838669
1259.5, 0.7937209078652456
1260, 0.793471051221748
1260.5000000000002, 0.7933657742178457
1261, 0.7936704891571257
1261.5, 0.7940752318152735
1262, 0.7942106269345439
1262.5, 0.7941048600685092
1263.0000000000002, 0.7939001272735768
1263.5, 0.7937380431498474
1264, 0.793722602234102
1264.5000000000002, 0.793736542903338
1265, 0.7936140416530904
1265.5, 0.7934073837322644
1266, 0.7932376392757309
1266.5, 0.7930635958496279
1267.0000000000002, 0.7927817481674476
1267.5, 0.792402532309514
1268, 0.7919969471485223
1268.5000000000002, 0.791648395527994
1269, 0.7914341373655126
1269.5, 0.791278274782774
1270, 0.7910168546091823
1270.5, 0.7906416862727954
1271.0000000000002, 0.790255122223649
1271.5, 0.7899036022928283
1272, 0.7895837299717064
1272.5000000000002, 0.7892416063991814
1273, 0.7887841310484496
1273.5, 0.7882343751567324
1274, 0.7877316642867948
1274.5, 0.7873649534498804
1275.0000000000002, 0.7871609624645466
1275.5, 0.787139127373689
1276, 0.7873108388483205
1276.5000000000002, 0.7875483807205926
1277, 0.7875366302536938
1277.5, 0.7872777887150821
1278, 0.7872835652159882
1278.5, 0.7877003139328631
1279.0000000000002, 0.7879668016418999
1279.5, 0.7877928912853633
1280, 0.7875513607999255
1280.5000000000002, 0.7875195670233891
1281, 0.787601422243032
1281.5, 0.7877243669884786
1282, 0.7879935399634028
1282.5, 0.788479415704334
1283.0000000000002, 0.7890834782778482
1283.5, 0.7896773648096571
1284, 0.7901296134922493
1284.5000000000002, 0.7903607665371905
1285, 0.7904762446894285
1285.5, 0.7906072497307327
1286, 0.790826061257513
1286.5, 0.7911638256481643
1287, 0.7915323949495288
1287.5, 0.7918153997383637
1288, 0.7919237912868947
1288.5000000000002, 0.7918074879244799
1289, 0.7915917477972416
1289.5, 0.7914553693505815
1290.0000000000002, 0.7915150781036328
1290.5, 0.7918297212484524
1291, 0.7922121350857991
1291.5, 0.7923909258512507
1292, 0.7923315180983256
1292.5000000000002, 0.792127443303967
1293, 0.7919429621868082
1293.5, 0.791964777615774
1294.0000000000002, 0.7921808380370108
1294.5, 0.7924516161668462
1295, 0.792631150930299
1295.5, 0.7925831451415806
1296, 0.7923719380504287
1296.5000000000002, 0.7922151609595955
1297, 0.7922193305336578
1297.5, 0.792383685827041
1298.0000000000002, 0.7925922029779355
1298.5, 0.7926250977803917
1299, 0.7924356413588837
1299.5, 0.7921718079048543
1300, 0.7919689624038295
1300.5000000000002, 0.7919307636158319
1301, 0.7919848153642308
1301.5, 0.7918255836336908
1302.0000000000002, 0.7914180601574072
1302.5, 0.7911619697870977
1303, 0.7911972709791176
1303.5, 0.7911610929623242
1304, 0.7909187251897409
1304.5000000000002, 0.7908628865158096
1305, 0.7912017706736448
1305.5, 0.7916226789614413
1306.0000000000002, 0.791859779769566
1306.5, 0.7919209099366726
1307, 0.7918878542161271
1307.5, 0.7919335006980508
1308, 0.7921424095456804
1308.5000000000002, 0.7922833853440012
1309, 0.792162277091305
1309.5, 0.7919191835078168
1310.0000000000002, 0.7917218015580457
1310.5, 0.791564907433491
1311, 0.7914048710516313
1311.5, 0.7912145788176007
1312, 0.7909926463797533
1312.5000000000002, 0.7908436052436181
1313, 0.7908870837858089
1313.5, 0.7911408189604426
1314.0000000000002, 0.7915819970612913
1314.5, 0.792157781595538
1315, 0.7927890538272194
1315.5, 0.7932909004231281
1316, 0.7934650223443965
1316.5000000000002, 0.7933975186521574
1317, 0.7932918599446719
1317.5, 0.7931092323395568
1318.0000000000002, 0.7926950426865609
1318.5, 0.7921246122888506
1319, 0.7916109892900852
1319.5, 0.7912733869711286
1320, 0.7911560279023726
1320.5000000000002, 0.7911835425391713
1321, 0.7911964460251699
1321.5, 0.7911814080466679
1322.0000000000002, 0.7912504967960796
1322.5, 0.7914341180841786
1323, 0.7916776815866922
1323.5000000000002, 0.7918802873644111
1324, 0.7918985829431968
1324.5, 0.7917146141345628
1325, 0.7914635255569246
1325.5, 0.7912630027321718
1326.0000000000002, 0.7911930468292702
1326.5, 0.7912221922044292
1327, 0.7911579120570621
1327.5000000000002, 0.7909528060351085
1328, 0.7908231877748075
1328.5, 0.7908493781446835
1329, 0.7908107822207053
1329.5, 0.7906082538187201
1330.0000000000002, 0.7904664568161663
1330.5, 0.7904978655833927
1331, 0.790454671367236
1331.5000000000002, 0.7902144009758509
1332, 0.7901243644980023
1332.5, 0.7904322958780694
1333, 0.7908579867422127
1333.5, 0.7911111058534855
1334.0000000000002, 0.7911990503635761
1334.5, 0.7911968100157774
1335, 0.7911976517399056
1335.5000000000002, 0.7912917072171551
1336, 0.7915366337955845
1336.5, 0.7919351144227759
1337, 0.7922633481855673
1337.5, 0.7923051096830667
1338.0000000000002, 0.7922716985137064
1338.5, 0.7924467160594048
1339, 0.7926370736014634
1339.5000000000002, 0.7925094934018977
1340, 0.7920582315866144
1340.5, 0.7914359530240882
1341, 0.7909172901346955
1341.5, 0.7907861124457118
1342.0000000000002, 0.7908497107248289
1342.5, 0.7907026169212097
1343, 0.7904824240762992
1343.5000000000002, 0.7906224054989437
1344, 0.7910461094350569
1344.5, 0.791338786179333
1345, 0.791313068085078
1345.5, 0.7909672021681379
1346.0000000000002, 0.7904057359279963
1346.5, 0.7898213906303838
1347, 0.7894344077283798
1347.5000000000002, 0.7894767619540448
1348, 0.7898776513935873
1348.5, 0.790251025280077
1349, 0.7904254741869844
1349.5, 0.7905001865097867
1350.0000000000002, 0.7905183111950461
1350.5, 0.7904295841893527
1351, 0.7902437102539963
1351.5000000000002, 0.7900681203103549
1352, 0.7900149077216769
1352.5, 0.7901896725394545
1353, 0.7905686621456757
1353.5, 0.7908923222077354
1354.0000000000002, 0.7910442279539662
1354.5, 0.7912545635589657
1355, 0.7916391739897384
1355.5000000000002, 0.7919507483869095
1356, 0.7920041065242378
1356.5, 0.7919089075125594
1357.0000000000002, 0.7918273893503615
1357.5, 0.7919371666460078
1358.0000000000002, 0.7923086972590067
1358.5, 0.7926481632248761
1359, 0.7927012571012274
1359.5000000000002, 0.7926440783505826
1360, 0.7926741193950586
1360.5, 0.7926518652163427
1361.0000000000002, 0.7923978052364417
1361.5, 0.7919697414691235
1362, 0.7915079373728098
1362.5, 0.7912140022456905
1363, 0.791260478720027
1363.5000000000002, 0.7915112958527599
1364, 0.7917380720104755
1364.5, 0.7918929728705314
1365.0000000000002, 0.7919942140823351
1365.5, 0.7919661813640335
1366, 0.7917088498218366
1366.5, 0.7913163772702012
1367, 0.7909817427923712
1367.5000000000002, 0.7908309155477599
1368, 0.7909319706614449
1368.5, 0.7911451560526072
1369.0000000000002, 0.7912117328131012
1369.5, 0.7911764311765651
1370, 0.7912962283262035
1370.5, 0.7915147701451991
1371, 0.7915224353608274
1371.5000000000002, 0.791307334143008
1372, 0.7911380417266117
1372.5, 0.7911384600663328
1373.0000000000002, 0.7912691862608534
1373.5, 0.7914589956426498
1374, 0.791608967500998
1374.5, 0.7916357694943825
1375, 0.7914794399532066
1375.5000000000002, 0.7911373839577813
1376, 0.7906885936768213
1376.5, 0.7902711867753223
1377.0000000000002, 0.7901068748035905
1377.5, 0.7902668245059998
1378, 0.7905368857365233
1378.5, 0.7907424577011608
1379, 0.7908497081440528
1379.5000000000002, 0.7908625735055106
1380, 0.790832184582072
1380.5, 0.7908120125782476
1381.0000000000002, 0.7908448766642395
1381.5, 0.7909699681864485
1382, 0.791220848779932
1382.5, 0.7915885037745758
1383, 0.7919288811123191
1383.5000000000002, 0.792081453278257
1384, 0.7919257255082981
1384.5, 0.7914262025489867
1385.0000000000002, 0.7908627275951157
1385.5, 0.7905374146524754
1386, 0.7904710803647541
1386.5, 0.7905953691698508
1387, 0.7908076657193959
1387.5000000000002, 0.7910343428869945
1388, 0.7914466117565941
1388.5, 0.7922435515464283
1389.0000000000002, 0.793182994055299
1389.5, 0.7938644511759564
1390, 0.7941072019968919
1390.5, 0.7938549804752434
1391, 0.7932328779152419
1391.5000000000002, 0.7924755362425473
1392, 0.7919596591411799
