14.500000000000004, 24.27920949068728
15.000000000000004, 23.467916217657375
15.5, 24.122022099181436
15.999999999999996, 24.303302528307768
16.500000000000004, 24.307947693378523
16.999999999999996, 24.806061718822505
17.499999999999996, 25.292424880822637
18, 25.510182448923445
18.500000000000004, 25.715410857993362
19.000000000000004, 26.706482120744454
19.500000000000004, 27.87879144805541
19.999999999999996, 28.372430318209382
20.499999999999996, 28.783783187635237
21.000000000000004, 29.506456386809646
21.999999999999996, 31.64497823992707
22.500000000000004, 32.355165824500375
23.000000000000004, 32.326112662226706
23.500000000000004, 32.67614293850187
23.999999999999996, 33.677943946238045
24.500000000000004, 34.147017564891954
25.000000000000004, 34.584281458874614
25.500000000000004, 35.37438004400579
25.999999999999996, 35.55802186350361
26.499999999999996, 35.710891051974215
27.000000000000004, 36.65966436338461
27.500000000000004, 37.63957537259489
27.999999999999996, 38.07885691391937
28.499999999999996, 38.04556260794799
28.999999999999996, 38.612587887010676
29.499999999999996, 39.68622732307127
30.000000000000004, 40.2290266133609
30.500000000000004, 40.93048873160036
31.000000000000004, 42.250589107117726
31.500000000000004, 43.65626019082707
32, 44.29114388100178
32.5, 44.38027812186671
33, 45.802085066307306
33.5, 47.292829808444196
34, 47.335289457807356
34.5, 47.67320520655705
35, 48.31564122639194
35.5, 48.36843795857865
36, 48.881395393298206
36.5, 50.21087000865049
37, 51.73556320507373
37.5, 52.94783109880701
38, 53.62027174067219
38.5, 53.93112109169329
39, 54.71527241530004
39.5, 56.02690952030188
40, 56.483822612447476
40.5, 56.51479913747682
41, 56.995795931541224
41.500000000000014, 57.62987821314333
42, 57.97815111223029
42.5, 57.98861636644312
43, 58.66140028037443
43.5, 59.83482574248645
44.000000000000014, 60.46924694039995
44.5, 60.8735552651969
45, 61.47541623581711
45.5, 62.38223289381181
46, 63.46780610672506
46.5, 64.30478850791155
47, 64.336826378545
47.5, 64.7557656647983
48, 66.27980317562017
48.5, 67.05651455671756
49, 67.27983527164626
49.5, 67.96765968519792
50, 68.21862261711894
50.5, 68.22554088061347
51.000000000000014, 68.9472972529545
51.5, 69.57910486303757
52, 69.89556774931445
52.5, 70.60527867693392
53, 71.27288785387451
53.5, 71.79374616342957
54, 72.93560257704567
54.5, 73.78323811869399
55, 73.72768996698339
55.5, 74.21695327796002
56, 74.98413997896543
56.499999999999986, 75.2320737133029
57, 75.92124041355227
57.499999999999986, 76.92690279746326
58, 77.41008224812671
58.5, 78.04260905838709
59, 78.82282061949115
59.5, 78.93827813288576
60, 79.11788751672961
60.5, 79.74730888709031
61, 80.11262822089277
61.5, 80.35492636466341
62, 80.70380492018863
62.5, 80.83102899659654
63, 81.02306100011066
63.499999999999986, 81.61441432402114
63.999999999999986, 82.06593693418993
64.5, 82.27336962258975
65, 82.52047644266642
65.49999999999999, 82.86407348153793
66, 83.17113179435309
66.5, 83.2477960428982
67, 83.29048212104522
67.5, 83.40096154045081
67.99999999999999, 83.43762272044538
68.5, 83.60550102425562
68.99999999999999, 83.97970128454823
69.5, 84.1681121276565
70, 84.23336159642183
70.5, 84.40291655943474
71, 84.60852122543339
71.5, 84.75813484092076
72, 84.81261340655041
72.5, 84.85316139069623
72.99999999999999, 84.90369160507062
73.5, 84.92535945575061
74, 84.96663110812959
74.5, 85.04605062683444
74.99999999999999, 85.11212134637475
75.5, 85.1376321553845
75.99999999999999, 85.15535642136493
76.5, 85.26255521527365
77, 85.37829182796712
77.49999999999999, 85.40161999755047
78, 85.4138836421572
78.5, 85.44326997677337
79, 85.4683612206114
79.5, 85.49181513989271
79.99999999999999, 85.51681447341154
80.49999999999999, 85.54199439085266
81, 85.56515899441789
81.49999999999999, 85.5899343959344
82.00000000000001, 85.62164551498918
82.5, 85.63022197125761
83, 85.60249265879533
83.5, 85.57314944219851
84, 85.55229342163211
84.5, 85.54734944156918
84.99999999999999, 85.58790186805474
85.5, 85.63462945708298
86, 85.63429745318443
86.5, 85.63991386885642
87, 85.67016507376663
87.49999999999999, 85.6980560590898
87.99999999999999, 85.71411820538998
88.5, 85.71120513058727
88.99999999999999, 85.69209932315808
89.49999999999999, 85.71651672487809
90, 85.74764629596186
90.5, 85.78535134851155
91, 85.82304625500008
91.49999999999999, 85.85414538790032
92, 85.87832217027997
92.5, 85.86047014282731
93, 85.85949908346974
93.50000000000001, 85.86321853231046
93.99999999999999, 85.86204274823004
94.5, 85.86181554004766
95, 85.86212221823396
95.5, 85.86205197404958
96, 85.86202224201273
96.5, 85.86204741811159
96.99999999999999, 85.86204420821527
97.5, 85.86203448340473
98.00000000000001, 85.86204815520787
98.5, 85.86206016178201
99.00000000000001, 85.86197068248336
99.5, 85.86208513301062
100, 85.86233422207194
100.5, 85.86119062721717
101, 85.86211102121624
101.5, 85.86635378641006
102, 85.85137948313977
102.49999999999999, 85.8251052393714
103, 85.82337088146129
103.5, 85.81926798330437
104, 85.79206791524814
104.49999999999999, 85.76114730248453
104.99999999999999, 85.74580683368109
105.5, 85.74769606691297
106, 85.73826207350469
106.49999999999999, 85.70218715403578
106.99999999999999, 85.64877166517007
107.49999999999999, 85.621000920329
108, 85.59240077039348
108.5, 85.51366156101193
108.99999999999999, 85.46732868873309
109.49999999999999, 85.47816428354099
110, 85.48585557492622
110.5, 85.47120761318752
111, 85.4447631515676
111.49999999999999, 85.42948409458589
112, 85.38472067187429
112.49999999999999, 85.30352009415702
113, 85.2771413524697
113.49999999999999, 85.23571682319293
114.00000000000001, 85.10313910771607
114.49999999999999, 85.02530684410802
114.99999999999997, 84.9776752248944
115.50000000000001, 84.84849583337129
116, 84.76320470663555
116.5, 84.75313266648509
117, 84.72702744844554
117.5, 84.71409289026208
118, 84.690793820076
118.5, 84.54345312429537
119, 84.36502073365207
119.49999999999997, 84.26807812894816
120, 84.23847942020709
120.5, 84.20738908185314
121, 84.13008297115024
121.5, 84.06954671367038
121.99999999999997, 84.02139624401124
122.49999999999997, 83.9332253122746
123, 83.7991668387584
123.5, 83.68370346735635
124, 83.6629742030945
124.5, 83.60314526898901
125, 83.46811714738561
125.5, 83.39765748985711
125.99999999999997, 83.36268926231376
126.50000000000003, 83.31107157853727
127, 83.26674674241598
127.5, 83.20720746419214
127.99999999999997, 83.10806014641337
128.5, 83.00408873079313
128.99999999999997, 82.90808046785672
129.5, 82.81132243639567
130, 82.70604343799255
130.5, 82.61161244566911
131, 82.55780920423571
131.49999999999997, 82.51226452812448
132, 82.4620251833697
132.5, 82.42589445131836
132.99999999999997, 82.34546154947243
133.5, 82.21422146084511
134, 82.14218185386841
134.5, 82.10153911441931
135, 82.0100578482454
135.5, 81.84026455767874
136, 81.68070931271367
136.5, 81.62801314761423
137, 81.5890730893992
137.5, 81.53865542660844
138, 81.50895132680854
138.5, 81.39357923234702
139, 81.21040739600758
139.5, 81.12261878472916
140, 81.04449827545167
140.5, 80.9131890963797
141, 80.83250025583524
141.5, 80.80826769650704
142, 80.77017846188859
142.5, 80.61967767597946
142.99999999999997, 80.45445077936671
143.5, 80.39734692636607
144, 80.286908163509
144.49999999999997, 80.12168894227258
145, 80.03507321919008
145.5, 79.98335992036073
146, 79.90387566302941
146.5, 79.77118179069552
147, 79.60379108583123
147.49999999999997, 79.4439728999729
148, 79.33859197261968
148.5, 79.2621238413694
149, 79.1663315371869
149.5, 79.03019233998185
150, 78.89212074091338
150.5, 78.7755584332393
151, 78.58152499932925
151.5, 78.39856739887689
152, 78.38070877760553
152.5, 78.29977245459584
153, 78.10817817662725
153.5, 77.99090265787835
154, 77.8254751396999
154.5, 77.590023014825
155, 77.50704391534741
155.5, 77.45895379277505
156, 77.30395621697461
156.49999999999997, 77.14694210750005
157, 77.00006839775544
157.49999999999997, 76.82760667651675
158, 76.6531258326692
158.5, 76.48056844069268
159, 76.30265800904479
159.5, 76.15357406731704
160, 76.06937671783098
160.5, 76.05356081908815
160.99999999999997, 75.99017824910447
161.5, 75.83015368639795
161.99999999999997, 75.65034554502958
162.5, 75.42260197028065
163, 75.18448361938901
163.5, 75.13515437668426
163.99999999999997, 75.05258569840863
164.49999999999997, 74.88435368466381
165, 74.6847485577168
165.5, 74.52417646868008
165.99999999999997, 74.47862823418679
166.5, 74.48880829180384
167, 74.39015187949735
167.5, 74.24082983728235
167.99999999999997, 74.10553367481383
168.5, 74.01255606705698
169, 73.9354336280181
169.5, 73.7960087968929
170, 73.61025484446935
170.5, 73.54696757050628
171, 73.39739755236278
171.5, 73.1833972768507
172, 72.94441950281814
172.5, 72.75899274171968
173, 72.73371998275961
173.5, 72.79364057349642
173.99999999999997, 72.74123269412434
174.5, 72.61262265436983
175, 72.42413623121543
175.5, 72.19714394290854
176, 71.96765862519838
176.5, 71.75943101489717
177, 71.56541116233461
177.5, 71.34872403690443
178, 71.18582501912414
178.5, 71.13869611933681
179, 71.10703320942072
179.5, 71.04825357031493
180, 70.94864331777265
180.49999999999997, 70.7210557159132
181, 70.40922417838567
181.5, 70.16073264012567
181.99999999999997, 70.00023752264322
182.5, 69.85461842136628
182.99999999999997, 69.61936928154225
183.49999999999997, 69.45466381998575
184, 69.42313664155532
184.5, 69.31230543039672
185, 69.2074550615429
185.5, 69.1820889052699
185.99999999999997, 68.97489544378618
186.49999999999997, 68.69942879635533
187, 68.5856243210109
187.5, 68.4117424504507
187.99999999999997, 68.18486733005244
188.5, 68.1111582837863
189, 68.10191499769613
189.5, 68.04328233428308
190, 67.90194750790184
190.50000000000003, 67.76192152729959
191, 67.66942891675016
191.5, 67.56492872125497
192, 67.483177922018
192.5, 67.44237008083812
192.99999999999997, 67.33991691353052
193.49999999999997, 67.21643770855539
194, 67.14875218509894
194.49999999999997, 67.0438849691208
195.00000000000003, 66.92060562443507
195.49999999999997, 66.8699657750436
196, 66.80920632743874
196.49999999999997, 66.70238779256275
197, 66.60172039556844
197.50000000000003, 66.50306365394407
198, 66.37877241610641
198.49999999999997, 66.20725959903673
198.99999999999997, 66.04641682860864
199.5, 65.94855983687704
200, 65.8866421346114
200.49999999999997, 65.84610727858328
201, 65.80651568710573
201.5, 65.70387462330002
202.00000000000003, 65.5798088423452
202.49999999999997, 65.51393164513931
203, 65.39906539368226
203.50000000000003, 65.21386351390125
204, 65.0628156768214
204.5, 64.9942500741555
205, 64.9770339916011
205.49999999999997, 64.91472431733953
206, 64.83928682084593
206.50000000000003, 64.77294139906778
207.00000000000003, 64.62844243704225
207.5, 64.47950376256073
208, 64.4191799642052
208.5, 64.3409850351074
209, 64.19722167814052
209.5, 64.01955770485802
209.99999999999997, 63.87262981980566
210.49999999999997, 63.78765168544567
210.99999999999997, 63.74417429996232
211.5, 63.67124848622952
211.99999999999997, 63.54064453493231
212.50000000000003, 63.40145290729638
212.99999999999997, 63.305384169280295
213.50000000000003, 63.260654317888985
214.00000000000003, 63.20451713236435
214.5, 63.11697721616198
215, 63.01524642311989
215.5, 62.937662172219135
215.99999999999997, 62.90343794163646
216.50000000000003, 62.8919906354142
217, 62.809766957624035
217.5, 62.64428865623003
218, 62.476129371755356
218.5, 62.38113918735173
218.99999999999997, 62.340272676647004
219.50000000000003, 62.23788859273666
219.99999999999997, 62.09883302161575
220.5, 61.976238421999135
221, 61.875908174091585
221.50000000000003, 61.83074766227655
222.00000000000003, 61.82222737138565
222.49999999999997, 61.693092128630184
223, 61.51675558179667
223.5, 61.45992506763765
223.99999999999997, 61.430946520672364
224.5, 61.37537386732026
225.00000000000003, 61.32027990324739
225.5, 61.286561918199865
226, 61.26369292487486
226.5, 61.20956559267015
227, 61.10661161469042
227.49999999999997, 60.9790160472865
228.00000000000003, 60.89223454634924
228.5, 60.821585705806555
228.99999999999997, 60.74072816168474
229.5, 60.71359706789438
230, 60.676698746207606
230.5, 60.5472863710662
230.99999999999997, 60.459071495697174
231.5, 60.41788586859755
232, 60.32053983943773
232.49999999999997, 60.23414673450741
233, 60.19231485002672
233.5, 60.14506036040171
233.99999999999997, 60.096241192505836
234.5, 60.04843403007368
235, 59.97137761227229
235.5, 59.85114626231604
236, 59.71892356704967
236.49999999999997, 59.668078351770745
237, 59.64617614952214
237.5, 59.5806374323529
238, 59.60915075303653
238.5, 59.613283093102545
238.99999999999997, 59.50862408949116
239.5, 59.36455709826858
239.99999999999997, 59.240240019955166
240.50000000000003, 59.17071635949114
240.99999999999997, 59.12143057589966
241.49999999999997, 58.98360418274489
241.99999999999997, 58.94444379254172
242.49999999999997, 58.96585898513183
243, 58.96203759843422
243.5, 58.97522871467877
243.99999999999997, 58.95449267903699
244.49999999999991, 58.83462637490852
244.99999999999997, 58.69221632512129
245.49999999999991, 58.57841387498699
245.99999999999997, 58.49864560982172
246.49999999999997, 58.43983778366731
246.99999999999997, 58.39274400320237
247.49999999999991, 58.35128050765406
247.99999999999997, 58.28232381581392
248.49999999999997, 58.17962841874874
248.99999999999991, 58.08148938773088
249.49999999999997, 57.978407296148205
249.99999999999991, 57.87433051795094
250.49999999999991, 57.831999782882846
250.99999999999997, 57.80902954442185
251.49999999999997, 57.73679596666854
251.99999999999997, 57.65002904047163
252.49999999999997, 57.58381382685077
252.99999999999991, 57.541528734556074
253.49999999999997, 57.46305650850854
253.99999999999991, 57.36138915333586
254.49999999999991, 57.311328738398245
254.99999999999991, 57.24798688929925
255.49999999999997, 57.143225032960174
255.99999999999997, 57.065665366856905
256.5, 56.986274007629
257, 56.882868129727505
257.5, 56.81820614667369
257.99999999999994, 56.77337390103179
258.5, 56.70121624929406
259, 56.61151213011073
259.49999999999994, 56.50818585939311
260, 56.39947146628453
260.5, 56.34213316340773
261, 56.324552409483594
261.5, 56.27792565912241
262, 56.231904775051724
262.5, 56.2107518101389
262.99999999999994, 56.19264424731794
263.5, 56.15703120162444
264, 56.10537852183163
264.5, 56.07077205557328
264.99999999999994, 56.05207967824661
265.49999999999994, 56.02957278783266
265.99999999999994, 55.989093328298324
266.5, 55.93669382276374
266.99999999999994, 55.887171264960934
267.49999999999994, 55.83851952435686
268, 55.789124274734476
268.5, 55.74025045967266
269, 55.689819984641524
269.49999999999994, 55.64066170218295
269.99999999999994, 55.59777369187679
270.5, 55.53438400529924
270.99999999999994, 55.4558723888237
271.5, 55.4276459140433
272, 55.3912165903866
272.5, 55.28803067673364
273, 55.20571166928437
273.5, 55.17373647470784
273.99999999999994, 55.157324187366264
274.5, 55.094235502061665
275, 54.985959538925066
275.49999999999994, 54.88467347582681
276, 54.792241905848314
276.5, 54.75055740138178
276.99999999999994, 54.80695318439302
277.49999999999994, 54.71414567464833
278, 54.53498965658791
278.49999999999994, 54.336416019201536
279, 54.18274136727795
279.5, 54.19477651692892
280, 54.226230856235304
280.5, 54.173211857784814
281, 54.10038565582819
281.49999999999994, 54.02216723240843
282, 53.95092276180171
282.49999999999994, 53.89922502362931
283, 53.85351099463356
283.5, 53.80344485825884
284, 53.75156656636278
284.49999999999994, 53.708459799339686
285, 53.68479916535266
285.5, 53.68377602599429
286, 53.6797889057369
286.5, 53.654085290749954
286.99999999999994, 53.627630122408405
287.5, 53.60312896315371
287.99999999999994, 53.576308090838566
288.49999999999994, 53.56352376852431
289, 53.56825494956932
289.49999999999994, 53.575201134571735
289.99999999999994, 53.551501935742586
290.5, 53.4968773119819
290.99999999999994, 53.44547472900365
291.5, 53.39828271240953
292, 53.3488146572569
292.49999999999994, 53.29761530530266
293, 53.251714927291516
293.5, 53.20536753222587
294, 53.12933062839445
294.5, 53.06588333548598
294.99999999999994, 53.06441915010408
295.5, 53.07533517281056
296, 53.07033584054879
296.5, 53.05022274589941
296.99999999999994, 53.01151757422553
297.49999999999994, 52.959956908847126
298, 52.909708330401735
298.5, 52.86174275758058
299, 52.812438154177755
299.5, 52.75991373593838
299.99999999999994, 52.71710649947746
300.49999999999994, 52.69300321987512
301, 52.676074292373144
301.49999999999994, 52.64237578145103
301.99999999999994, 52.58778995263266
302.49999999999994, 52.56846563366429
303, 52.57300731968612
303.49999999999994, 52.55092456925688
304, 52.52152317806115
304.49999999999994, 52.4981668908928
305, 52.473888191779075
305.49999999999994, 52.44897866297601
305.99999999999994, 52.42442632875392
306.5, 52.399298408567
307, 52.37575248819663
307.5, 52.351869729439564
307.99999999999994, 52.315875943430214
308.49999999999994, 52.25433654474723
309, 52.175123873996895
309.5, 52.13309400209403
309.99999999999994, 52.11201998648259
310.5, 52.06287493494221
311, 52.017968577584796
311.5, 51.999600274700484
311.99999999999994, 51.99996850287741
312.5, 51.99499396454819
313, 51.96743209145725
313.5, 51.91839101264469
313.99999999999994, 51.87388956256158
314.5, 51.85063479100646
314.99999999999994, 51.83284238634259
315.5, 51.79971687853215
316, 51.74782666182563
316.5, 51.712811781440536
317, 51.69119476145892
317.5, 51.66307761379118
317.99999999999994, 51.654308831643924
318.5, 51.655298710806626
318.99999999999994, 51.63066054492054
319.5, 51.613161089133555
319.99999999999994, 51.616452621563994
320.5, 51.60758622485309
321, 51.55681236228283
321.5, 51.47799534345615
322, 51.44109031666305
322.5, 51.41804831043318
323, 51.36646272784996
323.5, 51.32558027939937
323.99999999999994, 51.30993534553966
324.5, 51.30923807092071
324.99999999999994, 51.31164728954036
325.5, 51.31064292146382
326, 51.30778079452635
326.5, 51.31633652784822
327, 51.31460132096662
327.49999999999994, 51.25225655806543
328, 51.17216868922693
328.5, 51.12459202831301
329, 51.11461243242396
329.5, 51.120208542113424
330, 51.120073656701116
330.49999999999994, 51.11809744804283
331, 51.119801041753654
331.5, 51.122900100373165
332, 51.10741054089286
332.5, 51.080925463787736
333, 51.06260992508928
333.5, 51.01485602043837
333.99999999999994, 50.935728841147494
334.49999999999994, 50.87393449842329
335, 50.84576567788939
335.5, 50.84828713664971
336, 50.863288093986725
336.5, 50.838745069000225
337, 50.75940563708027
337.5, 50.70771954444211
338, 50.69836055068765
338.5, 50.69993471916052
339, 50.69079842842344
339.5, 50.659189423626444
339.99999999999994, 50.60799726488077
340.5, 50.56880740345526
340.99999999999994, 50.54731966493769
341.49999999999994, 50.520898272321276
342, 50.503233170168514
342.5, 50.505278818560214
343, 50.51398156457431
343.5, 50.499232246201245
344, 50.44820562119951
344.5, 50.392560543722944
345, 50.34850757894257
345.49999999999994, 50.32082100912459
345.99999999999994, 50.314930277043786
346.49999999999994, 50.31553302186387
347, 50.29672479900053
347.5, 50.25418061089677
348, 50.203943331264654
348.5, 50.17257905598827
349, 50.15928989322301
349.5, 50.160610149087006
349.99999999999994, 50.17407037455575
350.49999999999994, 50.148024148258266
350.99999999999994, 50.068070147865335
351.5, 50.01856188303973
351.99999999999994, 50.00931152787078
352.49999999999994, 50.00955114320507
352.99999999999994, 50.00892948891098
353.49999999999994, 50.00992086693959
354, 50.01413014988073
354.5, 49.99731608489897
354.99999999999994, 49.97195165005486
355.5, 49.97468872892468
356, 49.95896351022887
356.5, 49.90424236195204
357, 49.85152586496032
357.5, 49.804982226837836
358, 49.755794714451675
358.5, 49.70295906438582
358.99999999999994, 49.65893766257481
359.49999999999994, 49.63383644052113
360, 49.61554572285755
360.5, 49.58587458818592
361, 49.53589281493641
361.49999999999994, 49.49259048359235
362, 49.474149635687475
362.49999999999994, 49.47647128412934
362.99999999999994, 49.46571748372263
363.49999999999994, 49.43840752825702
364, 49.432004331704285
364.5, 49.43662699968267
365, 49.436074727472516
365.5, 49.435428820781134
366, 49.43576912742662
366.49999999999994, 49.43575854186328
367, 49.43569897783684
367.49999999999994, 49.43572269345638
367.99999999999994, 49.43572449039998
368.49999999999994, 49.43571935484705
368.99999999999994, 49.43572089411039
369.5, 49.4357212408993
369.99999999999994, 49.435720820054215
370.5, 49.4357209101132
371, 49.435720959619246
371.5, 49.43572091122307
372, 49.43572090911293
372.49999999999994, 49.43572101118076
373, 49.43572084320993
373.5, 49.435720647111076
374, 49.43572194982986
374.5, 49.435720393658336
375, 49.43571654050957
375.49999999999994, 49.43573309759846
376, 49.43572117303816
376.5, 49.435656997576935
377, 49.43585741168022
377.5, 49.4358095224616
378, 49.43483849845217
378.5, 49.43713170012524
379, 49.4378461050175
379.49999999999994, 49.419230440031434
380, 49.391580960923335
380.5, 49.367764683236416
381, 49.339405562881794
381.5, 49.3200251633986
382, 49.32188200364038
382.5, 49.311871671286184
382.99999999999994, 49.2822547745933
383.5, 49.25312890480663
383.99999999999994, 49.24288739378439
384.49999999999994, 49.244810029926505
385, 49.22925409917911
385.50000000000006, 49.18970279036758
386, 49.13876405452566
386.50000000000006, 49.10281922339583
387.00000000000006, 49.09047856769852
387.5, 49.09225850126718
388, 49.084846751979825
388.50000000000006, 49.0961506524027
389.00000000000006, 49.14974189685299
389.50000000000006, 49.1763346691591
390.00000000000006, 49.16761866081428
390.50000000000006, 49.16557386658154
391.00000000000006, 49.17031236622352
391.5, 49.16875020596381
392, 49.14853530357436
392.5, 49.118302089159585
393, 49.09390950244851
393.5, 49.08861402596048
394, 49.0919391617357
394.49999999999994, 49.09165145984025
395, 49.09114271085159
395.50000000000006, 49.09138275668846
396, 49.09138469783227
396.50000000000006, 49.09133797399565
397.00000000000006, 49.09135533743854
397.50000000000006, 49.09136128423481
398, 49.0913435088144
398.5, 49.09135099476791
399, 49.09141240891686
399.5, 49.091248324165626
400.00000000000006, 49.09124109397882
400.49999999999994, 49.092130987872544
401, 49.09032343282054
401.50000000000006, 49.08910527417281
402.00000000000006, 49.105198646814145
402.50000000000006, 49.13493957960725
402.99999999999994, 49.16195719383852
403.50000000000006, 49.17026100276165
404.00000000000006, 49.16790555784706
404.50000000000006, 49.17031740208801
405, 49.15935135103069
405.50000000000006, 49.13104578114755
406.00000000000006, 49.10214235329027
406.50000000000006, 49.08861328832062
407, 49.09082358516335
407.5, 49.09204523908616
408.00000000000006, 49.091207338232074
408.5, 49.09132531117314
409.00000000000006, 49.09122227837296
409.5, 49.091516088056444
410.00000000000006, 49.09202660145456
410.50000000000006, 49.08904054247755
411, 49.09228576301116
411.5, 49.11458971317209
412, 49.146864607685536
412.50000000000006, 49.167735376557154
413, 49.16322222263746
413.50000000000006, 49.18246579525484
414.00000000000006, 49.237217103070996
414.5, 49.27646433266807
415, 49.27924393150796
415.50000000000006, 49.25212638628236
416.00000000000006, 49.223534204443375
416.50000000000006, 49.20240639072478
417, 49.19777146396876
417.5, 49.237736862879316
418.00000000000006, 49.28526160498329
418.5, 49.287433797656455
419.00000000000006, 49.280525482173694
419.49999999999994, 49.2826414339641
420.00000000000006, 49.283092272689856
420.5, 49.28251818859838
421, 49.28264438754628
421.5, 49.28273901233644
422, 49.282605776668
422.50000000000006, 49.28257966394433
423, 49.28312878737254
423.5, 49.28218401137072
423.99999999999994, 49.28113209064807
424.50000000000006, 49.29140362722032
425.00000000000006, 49.326490824552515
425.5, 49.381528638078436
426, 49.401626494115746
426.49999999999994, 49.39749143926532
427, 49.421744907291334
427.50000000000006, 49.44017982909804
427.99999999999994, 49.436279792543985
428.50000000000006, 49.434458839703794
429.00000000000006, 49.436382403107544
429.5, 49.43634792467534
430.00000000000006, 49.432574632207356
430.5, 49.4393517487383
431, 49.46486552282168
431.5, 49.4915569953273
432, 49.515339171234494
432.50000000000006, 49.54015265204665
433.00000000000006, 49.56395335051604
433.50000000000006, 49.58935537928113
434, 49.61769511871552
434.5, 49.62887194138115
435, 49.626703394023004
435.50000000000006, 49.64212251996422
436, 49.6825143006663
436.5, 49.733523457015
437, 49.76592245392098
437.50000000000006, 49.78462882518657
438, 49.80812968243391
438.50000000000006, 49.849117899561904
439.00000000000006, 49.90285820286782
439.5, 49.95445049651614
440.00000000000006, 49.98961132166087
440.50000000000006, 50.01034431039372
441, 50.03161221640185
441.5, 50.06837179085341
442.00000000000006, 50.12058702437555
442.5, 50.16506651766284
443.00000000000006, 50.14337136376119
443.5, 50.08705598363911
444.00000000000006, 50.135687327863195
444.5, 50.2170298690743
445, 50.23862757289856
445.50000000000006, 50.24004155461909
446.00000000000006, 50.23872050685917
446.5, 50.23681203320622
447, 50.24923202959584
447.50000000000006, 50.279458891995276
448.00000000000006, 50.324057715344075
448.50000000000006, 50.38983472097898
449.00000000000006, 50.46510496574349
449.50000000000006, 50.52219780049557
450, 50.5561091148634
450.50000000000006, 50.579157895878716
451, 50.61607548394934
451.5, 50.6825866144147
452.00000000000006, 50.76077638398258
452.50000000000006, 50.792080359889354
453.00000000000006, 50.82329074590068
453.5, 50.90287733525239
454, 50.94880131636097
454.5, 50.96855524344141
455, 51.0185772609154
455.5, 51.060208687819056
456, 51.08029741534466
456.50000000000006, 51.1035276004236
457.00000000000006, 51.13012486079026
457.50000000000006, 51.15444128548216
458.00000000000006, 51.175350133507216
458.5, 51.208104522894786
459, 51.2589045271968
459.50000000000006, 51.309966823691035
460.00000000000006, 51.35828418070288
460.5, 51.40759624385288
461, 51.45683461466869
461.5, 51.50622511884547
462, 51.55604094300807
462.50000000000006, 51.603003108976814
463.00000000000006, 51.653736313535504
463.5, 51.71227203933227
464, 51.73307197301337
464.50000000000006, 51.757919159964686
465, 51.82958956476088
465.50000000000006, 51.915171342561976
466, 51.98767086111826
466.50000000000006, 52.01800063121824
467.00000000000006, 51.99953376652527
467.50000000000006, 52.028409776243926
467.99999999999994, 52.04360737233453
468.50000000000006, 52.08478890961674
468.99999999999994, 52.2120934364036
469.50000000000006, 52.310037915962155
470, 52.34359736721141
470.5, 52.377301957368935
471, 52.47285876230848
471.5, 52.60093990078263
472, 52.65156521963776
472.49999999999994, 52.64579239452058
473, 52.644588376680005
473.5, 52.691760491243144
474.00000000000006, 52.79074957551416
474.5, 52.916519112537905
475, 53.02400287434519
475.5, 53.072162317336556
476, 53.078198684426354
476.50000000000006, 53.197792115543585
477, 53.37832238855599
477.5, 53.440795828804184
478.00000000000006, 53.47270192920317
478.5, 53.52584635119401
479.00000000000006, 53.5605192653253
479.5, 53.65084074973478
480, 53.83288847962451
480.50000000000006, 54.02880915920108
481, 54.16731976923263
481.5, 54.2554837214967
482, 54.42024872318311
482.50000000000006, 54.57540846457991
483, 54.612781706627814
483.5, 54.72074425092992
484, 54.87173637117437
484.50000000000006, 54.91304428881672
485.00000000000006, 55.0131935866758
485.50000000000006, 55.20070872805438
486.00000000000006, 55.3150608255801
486.5, 55.402038728567874
487, 55.52934487043409
487.5, 55.67824432792938
488.00000000000006, 55.69044397679896
488.5, 55.66507310940193
489, 55.83336019329286
489.5, 55.98854484061204
490, 56.17072984102654
490.49999999999994, 56.36329655189032
491, 56.5496263305574
491.5, 56.713100534381766
492, 56.943454361469236
492.5, 56.941680420022266
493.00000000000006, 56.8815321029599
493.5, 57.1130829806617
494, 57.56652852305989
494.50000000000006, 57.74785288950929
495.00000000000006, 57.80260266222071
495.50000000000006, 57.93900387187502
496.00000000000006, 58.00153945292335
496.50000000000006, 58.06512329905869
497, 58.27643585536538
497.5, 58.59349022636188
498, 58.98978223336147
498.49999999999994, 59.454950820208836
498.99999999999994, 59.92253102064169
499.49999999999994, 60.28988458087982
500, 60.49833528527405
500.5, 60.792039143383455
501, 61.15117972746832
501.4999999999999, 61.207929465703025
502, 61.27371947876834
502.5000000000001, 61.638517335074
503.0000000000001, 62.09394229800164
503.5, 62.59325246861098
504.0000000000001, 63.17327124789995
504.5000000000001, 63.794956857927666
505, 64.31343351303893
505.5000000000001, 64.63286800927284
506, 65.00845826664883
506.5000000000001, 65.37413515799807
507, 65.48754949719381
507.5000000000001, 65.92027480342874
508, 66.63202056533125
508.4999999999999, 66.76231662802769
509.0000000000001, 66.77948304102014
509.5, 67.11360204520534
510, 67.34025990435833
510.5, 67.616669803532
511, 68.12194696185921
511.5000000000001, 68.3730806278318
512.0000000000001, 68.32974966648194
512.5000000000001, 68.4508137437127
513, 69.12860493897865
513.5, 69.87346379585638
514.0000000000001, 70.54592872830449
514.5, 70.8713333051985
515, 70.4751798555842
515.5000000000001, 70.58041285061898
516, 71.12279796648878
516.5000000000001, 71.6157705934763
517.0000000000001, 71.92043867561172
517.5, 72.01568443077663
518, 72.15255833727073
518.5, 72.96275182937107
519.0000000000001, 73.87193022916667
519.5, 74.03335055854586
519.9999999999999, 74.14424601828479
520.5, 74.61461684164641
520.9999999999999, 75.26399795540766
521.5, 75.53604134766528
522, 75.54448882524154
522.5000000000001, 76.00957399597438
523, 76.25204808492892
523.5, 76.19864197120233
524, 76.65332084922296
524.5, 77.29726107813094
524.9999999999999, 77.93254960691654
525.5, 78.47048269810931
526, 78.56202385818449
526.5, 78.65811131382944
527, 78.62536978955465
527.5000000000001, 78.67413264158239
528, 79.17465153819938
528.5, 79.62414191765659
529, 79.73525677218221
529.5000000000001, 79.72929035310017
530, 80.05373336835883
530.5, 80.70751428346264
530.9999999999999, 81.03881064551818
531.5, 81.06522635037575
532, 81.11495026928256
532.5, 81.4455879178831
533.0000000000001, 81.79901776787122
533.5, 81.84928605340217
534, 81.87412201838994
534.5, 82.02384619926585
535, 82.27415908382959
535.5000000000001, 82.61286735294313
536.0000000000001, 82.93678265950301
536.5000000000001, 83.09864929116563
537.0000000000001, 83.2227078516066
537.5, 83.41331611863295
538, 83.62029936769721
538.5000000000001, 83.73357113719518
539.0000000000001, 83.72353574998239
539.5, 83.73965837102966
540, 83.84302450492957
540.5, 83.90621370524863
540.9999999999999, 83.97924108632262
541.5, 84.05807087759054
542, 84.13866730849138
542.5, 84.23576833999556
543, 84.33830623707044
543.5, 84.41578801546804
544.0000000000001, 84.46472035923672
544.5, 84.45050082332259
545, 84.43869940332885
545.5, 84.45156172292332
546, 84.47658171613716
546.5000000000001, 84.50637028396083
547.0000000000001, 84.52421533188813
547.5, 84.53935103922248
548, 84.5716059047466
548.5, 84.59143864194958
549, 84.61370103964991
549.5000000000001, 84.63699848566193
550.0000000000001, 84.65993636779994
550.5000000000001, 84.68112007387825
551.0000000000001, 84.69915499171118
551.5, 84.71264650911304
552, 84.71200727453325
552.5, 84.66070386390707
553, 84.61321006776352
553.5000000000001, 84.54959614115586
554, 84.46803595703838
554.5, 84.38947531660868
555, 84.35081686885859
555.5000000000001, 84.32861792525438
556, 84.27954124178672
556.5, 84.23150981369274
557, 84.1800099502024
557.5, 84.09927240836639
558, 84.05106543445092
558.5, 83.97349790878134
559.0000000000001, 83.83083275262194
559.5000000000001, 83.63762877343413
560, 83.39838209474101
560.5, 83.12848543785634
561, 82.83652981686579
561.5, 82.52772667771343
562, 82.27742933509288
562.5000000000001, 82.0517876826996
563, 81.80363013735783
563.5, 81.52200666130628
564, 81.19596721678373
564.5000000000001, 80.08656477674762
565, 79.58702962505409
565.5000000000001, 79.60488799103075
566.0000000000001, 78.98335746310883
566.5, 78.4925534568109
567, 78.56715888327948
567.5, 78.16733274449365
568, 77.24404142314813
568.5, 76.328772652682
569.0000000000001, 75.96415059349087
569.5, 75.74879707984877
570.0000000000001, 75.0974885735287
570.5, 74.56918370361586
571, 74.215749274759
571.5, 73.71083661447807
572, 73.55435932453193
572.5, 73.51031775647391
573, 72.65149330581174
573.5, 71.95567792023182
574, 71.99787907227355
574.5, 71.89007695718146
575, 71.4725404555009
575.5, 70.94765630093042
576, 70.46539258918966
576.5, 70.14379860139823
577, 69.92600169315364
577.5, 69.37045216807732
578, 68.67110781583213
578.5, 68.40492811207895
579, 68.46126148540074
579.5, 68.37145687145728
580, 67.67003704986594
580.5000000000001, 66.96463150469476
581.0000000000001, 66.69226241687376
581.5, 66.57859521004447
582, 66.46784420074019
582.5, 66.21787997070533
583.0000000000001, 65.61982246900223
583.5, 64.96799657207941
584, 64.57197957359683
584.5, 64.05600278315197
585.0000000000001, 63.58218646201922
585.5000000000001, 63.55288212524644
586, 63.47058508365739
586.5, 63.15399590346142
587, 62.855893311062005
587.5, 62.37315444634572
588, 61.73001502583148
588.5000000000001, 61.35206981736143
589, 60.96893146002231
589.5, 60.30919377150219
590, 59.643530139826986
590.5, 59.23773850636695
591.0000000000001, 59.155134481768
591.5, 59.07097919335153
592, 58.916635371369395
592.5, 58.69083045439476
593, 57.882677529399956
593.5, 56.92488527172492
594, 56.856486848825114
594.5, 56.77131836363348
595, 56.20479859075572
595.5, 55.89692601991455
596, 55.86581761257958
596.5, 55.82914467446721
597, 55.575140037167785
597.5, 55.23446901361003
598, 54.97499583763637
598.5, 54.63957054355004
599, 54.135438864686144
599.5, 53.49293835734206
600, 52.88241518794175
600.5, 52.50265405720081
601.0000000000001, 52.44613586400603
601.5, 52.34588957664832
602, 52.100127125412044
602.5, 51.98449739563524
603, 51.61745498159727
603.5, 50.90947883071155
604, 50.5825057606457
604.5, 50.52982059677801
605, 50.327948554003164
605.5000000000001, 49.908640120175285
606.0000000000001, 49.57526370230085
606.5, 49.56781383764624
607, 49.30560536799137
607.5, 48.842491109255306
608.0000000000001, 48.72157547303593
608.5000000000001, 48.56329531200863
609, 48.26936327697155
609.5, 48.186039086434086
610, 47.600927684780736
610.5, 46.48690282229411
611.0000000000001, 46.27714821013494
611.5, 46.44335926723373
612, 46.11925291000033
612.5, 45.857568417245844
613, 45.84433159642601
613.5, 45.833677227051076
614, 45.406998112734485
614.5, 44.76662384709002
615, 44.453991069340276
615.5000000000001, 44.133296305048745
616, 43.69488367960548
616.4999999999999, 43.45764403504667
617, 43.281770889439386
617.5, 43.09758660761142
618, 43.111293610687255
618.5, 42.90326032649591
619, 42.27804015655131
619.5, 42.025216558033925
620, 42.043234315082465
620.5, 41.8484635168391
621, 41.635424193780324
621.5, 41.47372101774337
622.0000000000001, 41.28409540676809
622.5000000000001, 41.17337786725891
623, 40.97953396674484
623.5, 40.777240962710984
624, 40.55924016922204
624.5, 40.334026403389316
625, 40.135014313340285
625.5, 39.95425958211167
626, 39.90013601165608
626.5, 39.662940454820486
627, 39.292761443959535
627.5000000000001, 39.11778787764431
627.9999999999999, 38.98089585501831
628.5, 38.91501910246257
629, 38.981171383119346
629.5, 38.60408110190092
630, 37.947949429489185
630.5000000000001, 37.844336441763005
631, 37.84046608418192
631.5000000000001, 37.58277105394454
632, 37.385997903751246
632.5, 37.28139621971828
633, 37.18471554696725
633.5, 37.062340919373305
634, 36.89300932448089
634.5000000000001, 36.67332093051827
635, 36.43777482376879
635.5, 36.2679147850302
636, 36.21865536105892
636.5000000000001, 36.15143059923005
637, 36.013717841275536
637.5000000000001, 35.867942096460496
638.0000000000001, 35.714269300107745
638.5000000000001, 35.593084414968246
639.0000000000001, 35.577865373966574
639.5000000000001, 35.43608982641882
640, 35.10938754541223
640.5, 35.00920969990031
641, 34.993766600285284
641.5, 34.79808466166696
642, 34.63782705423742
642.5, 34.588241216903
643.0000000000001, 34.558593504491284
643.5, 34.42667803899262
644, 34.2147819077436
644.5, 34.05503605871381
645, 33.92411947671185
645.5, 33.82919229088097
646.0000000000001, 33.83126669019684
646.5, 33.72734959644957
647.0000000000001, 33.45715807099529
647.5000000000001, 33.336340830143115
648.0000000000001, 33.32056424835038
648.5, 33.229561287823756
649, 33.04971962314394
649.5, 32.80775205079162
650, 32.56423169154361
650.5, 32.44025786430417
651.0000000000001, 32.40968218001839
651.5000000000001, 32.32070415759988
652, 32.11612812174127
652.5, 31.888410307245962
653, 31.822173652004295
653.5, 31.76246214904441
654, 31.601499302582454
654.4999999999999, 31.491054671156448
655.0000000000001, 31.384501886634638
655.5, 31.20633160303828
656, 31.053338604755155
656.5000000000001, 30.944337501368224
657, 30.830260929200705
657.5000000000001, 30.66574793848052
658.0000000000001, 30.496426618760793
658.5000000000001, 30.411329299484194
659, 30.353576079909317
659.5, 30.305838029174254
660, 30.307628235423408
660.5, 30.211078487158957
661, 29.97218167527599
661.5, 29.792743942948277
662, 29.72205776686988
662.5000000000001, 29.703777129134167
663, 29.645636608667914
663.5, 29.57080910995205
664.0000000000001, 29.529632620638196
664.5, 29.43879101579995
665.0000000000001, 29.308289579709523
665.5000000000001, 29.223292506205865
666, 29.175025815342522
666.5, 29.124816318213163
667, 29.036567957537642
667.5000000000001, 28.925664768872792
668, 28.80250620713872
668.5, 28.65719171445069
669, 28.57479768269924
669.5, 28.585460756666848
670, 28.539405925540606
670.5, 28.460158164621305
671.0000000000001, 28.4211329359469
671.5000000000001, 28.317206828106052
672, 28.157682131180138
672.5, 28.03353479776797
673, 27.906287794518406
673.5, 27.78557200195992
674, 27.743348663768856
674.5, 27.737828704421432
675, 27.686188981981985
675.5, 27.536031138121388
676, 27.484212386674898
676.5, 27.52653149007503
677, 27.41442591546381
677.5000000000001, 27.30368056123197
678, 27.17244126497137
678.5, 27.034210768565814
679, 26.90249181389916
679.5000000000001, 26.790787142855166
680, 26.65958971640734
680.5, 26.703933831831577
681, 26.697987965425156
681.4999999999999, 26.65924478917566
682, 26.612522301814025
682.5, 26.444245729564045
683, 26.302964073102657
683.5, 26.291177759122277
684, 26.241149933529343
684.5, 26.161751916566217
685, 26.13439803715376
685.5, 26.13343740357952
686, 26.089976716784065
686.5, 25.962981159442833
687.0000000000001, 25.866858283575894
687.5, 25.82934468502029
688, 25.779991792546937
688.5, 25.736810811350793
689.0000000000001, 25.688006824346786
689.5, 25.569850623191428
690.0000000000001, 25.459124281451764
690.5, 25.41535470503328
691.0000000000001, 25.374264230430114
691.5, 25.319859581212768
692, 25.26856232661906
692.5000000000001, 25.234845355381353
692.9999999999999, 25.213702031594053
693.5, 25.19015860536561
694, 25.1602417811623
694.5000000000001, 25.103179075592053
695.0000000000001, 25.00085488658104
695.5000000000001, 24.92435382020072
696.0000000000001, 24.908752410988882
696.5, 24.913761463076227
697, 24.90190950908314
697.5, 24.873750350568812
698, 24.876724047716408
698.5, 24.861867091232753
699, 24.78434248102728
699.5000000000001, 24.718303178666716
700.0000000000001, 24.675525105508456
700.5000000000001, 24.626283235877537
701, 24.57748923479066
701.5, 24.5274075848951
702, 24.47075760105166
702.4999999999999, 24.445698152104924
703, 24.45043021446905
703.5, 24.432569729002836
704.0000000000001, 24.402832464554393
704.5, 24.37902269671777
705, 24.353655750197106
705.5, 24.3311272785118
706, 24.309370675075428
706.5, 24.262446591713
707, 24.217610410608103
707.5000000000001, 24.215004802481303
708, 24.22577463274345
708.5000000000001, 24.220420184011928
709, 24.19234442598804
709.4999999999999, 24.183013923985555
710, 24.18455779888258
710.5, 24.13890241931361
711.0000000000001, 24.09702094901718
711.5, 24.101376138139145
712, 24.124341384122317
712.5, 24.149566204348247
713.0000000000001, 24.173654806723746
713.5000000000001, 24.201609639805184
714, 24.221771387766154
714.5, 24.222178572985356
715, 24.219771168073137
715.5, 24.220438619806586
716, 24.21957016632564
716.5000000000001, 24.223728513443106
717, 24.253628229248505
717.5000000000001, 24.327850169541207
718, 24.389173465348662
718.5, 24.408747457046303
719.0000000000001, 24.429774318761403
719.5, 24.456299173200094
720, 24.48033752442477
720.5, 24.507933605598396
721, 24.528137816919212
721.5, 24.528832167812496
722, 24.524015839719482
722.5000000000001, 24.526867286445736
723, 24.546046471329362
723.5, 24.587783044542007
723.9999999999999, 24.638219790281823
724.5, 24.669222852511822
725, 24.684376800533173
725.5, 24.709138838180976
726, 24.775636842146824
726.5000000000001, 24.849822066687082
727, 24.918169992345412
727.5, 25.043586956487857
728.0000000000001, 25.14703064529259
728.5, 25.14432640470406
729, 25.14764816929663
729.5, 25.178097686593247
730, 25.194214420306054
730.5, 25.255291120864484
731, 25.362466721499757
731.5, 25.456354905940742
732, 25.572751943187114
732.5000000000001, 25.698930252497888
733, 25.741772716412385
733.5000000000001, 25.760651443436387
734.0000000000001, 25.81412459261493
734.5, 25.850430162459276
735, 25.869241659975202
735.5, 25.89373492063362
736, 25.920552322122916
736.5, 25.943595781971595
737, 25.964402387396902
737.5, 26.004950586035235
738, 26.055441976573107
738.5, 26.0829217259315
739, 26.106064859429026
739.5, 26.13134784203713
740, 26.136238286995436
740.5, 26.133749038083224
740.9999999999999, 26.156825850161965
741.5000000000001, 26.239274057363133
742, 26.342823290196648
742.5000000000001, 26.417798965453414
743, 26.47718098342692
743.5, 26.564202025095
744, 26.69683984369476
744.5, 26.773120306274706
745.0000000000001, 26.78380180781548
745.5, 26.806524395404622
746, 26.831743683370092
746.5, 26.884708156976856
747, 27.031715514380664
747.5, 27.15353644573716
748, 27.1917326314298
748.5, 27.28321113385779
749, 27.4262571142753
749.5, 27.553925381185294
750, 27.634855414330247
750.5, 27.712525990716827
751, 27.837832597143873
751.5, 27.946796356615195
751.9999999999999, 28.008147939089056
752.5000000000001, 28.038182390254292
753, 28.051737384369147
753.5, 28.078823759461244
754, 28.152076424087355
754.5, 28.213973556408746
755, 28.23357641068958
755.5000000000001, 28.266379862033403
756, 28.331962351118122
756.5000000000001, 28.410431723058053
757, 28.449793949320977
757.5, 28.471519262893253
758.0000000000001, 28.520687746464915
758.5, 28.57046884970869
759, 28.621234505713858
759.5, 28.69477916148398
760, 28.76441717475889
760.5, 28.809015465768226
761, 28.832299885375107
761.5000000000001, 28.864806275697674
762, 28.916644737286788
762.5, 28.96134013298179
763, 29.021459917082367
763.5, 29.101281714987962
763.9999999999999, 29.129181029991244
764.5, 29.116480473287965
765, 29.11420068269399
765.5, 29.127833706943036
766.0000000000001, 29.15731795892249
766.5, 29.20321761374018
767, 29.261097291077803
767.5000000000001, 29.30743365281171
768, 29.31239757209663
768.5, 29.31161109463524
769.0000000000001, 29.31358224748206
769.5, 29.270744124997066
769.9999999999999, 29.225516153523387
770.5, 29.22630382239612
771, 29.25310734567988
771.5, 29.272046036559885
772.0000000000001, 29.268855291930123
772.5000000000001, 29.285167187653556
773.0000000000001, 29.309842499204436
773.5000000000001, 29.30715447631647
774.0000000000001, 29.321765919668238
774.5, 29.34744533866791
775, 29.32750554731004
775.5, 29.30464125404889
776, 29.30830072933982
776.5000000000001, 29.31089599180018
777, 29.308855222868175
777.5000000000001, 29.308666225510606
778, 29.31220682977147
778.5, 29.307156064619704
779.0000000000001, 29.283037231149493
779.5, 29.252857989009044
780, 29.23220941980803
780.5, 29.230098527801374
781, 29.235805644404195
781.5, 29.23350353688896
782, 29.211808341603742
782.5, 29.184116613183065
783, 29.160081437862488
783.5, 29.135712926660133
784, 29.111021728447426
784.5, 29.08652253922689
785, 29.060796428014896
785.4999999999999, 29.037915970660876
785.9999999999999, 29.01586632850362
786.4999999999999, 28.973791881484388
787, 28.92357287837588
787.5, 28.894188845965076
788, 28.887473251308265
788.4999999999999, 28.888638371299592
789, 28.873753216753784
789.4999999999999, 28.825439327439327
790, 28.74727433684727
790.4999999999998, 28.66612210457528
791.0000000000001, 28.605338846279764
791.5, 28.55913422894146
792, 28.485599409031522
792.4999999999999, 28.42077654915758
793.0000000000001, 28.399371005004042
793.5, 28.364111449369602
794, 28.309869486128164
794.4999999999999, 28.262106981638127
794.9999999999999, 28.204671615188232
795.4999999999999, 28.124764517739024
796, 28.025556735123843
796.4999999999999, 27.932402777510106
797.0000000000001, 27.83301640243036
797.4999999999999, 27.68328071886397
798, 27.554644709344615
798.4999999999999, 27.464188435359176
799, 27.30362408401696
799.5, 27.198906105807495
799.9999999999999, 27.22073283662715
800.4999999999999, 27.094319126738228
801.0000000000001, 26.88105863013567
801.4999999999999, 26.781813431171656
802, 26.679248012437725
802.5, 26.477913494089265
803, 26.191639954463312
803.4999999999999, 25.986994484975938
803.9999999999999, 25.910192974775498
804.4999999999999, 25.850196384964903
805, 25.826975710197274
805.4999999999999, 25.78535153657033
806, 25.535370149673824
806.4999999999999, 25.296844099682474
807, 25.262650803819128
807.5, 25.188312207155505
808, 25.04554582606123
808.4999999999999, 24.940210510827825
809, 24.87820880177641
809.5, 24.831783196709253
810, 24.755142014664926
810.4999999999999, 24.589034952649754
811, 24.387354214933083
811.5, 24.299493002238947
812, 24.303139535933227
812.4999999999999, 24.255911998735485
813, 23.982144189248643
813.4999999999999, 23.719185433509978
813.9999999999999, 23.68038163092959
814.5, 23.676710362659946
814.9999999999999, 23.589073252085868
815.4999999999999, 23.413213193098315
816, 23.25853278806302
816.4999999999999, 23.186363820587005
817.0000000000001, 23.163068637408387
817.5, 23.01327966856526
818, 22.778930064547353
818.4999999999999, 22.694567714192573
819, 22.64730729767821
819.4999999999999, 22.551341311753504
820, 22.496207901958655
820.5, 22.439535406017427
821, 22.31621272488259
821.4999999999999, 22.14376408941318
822, 22.032141028072203
822.5, 22.010007363979582
823, 21.808383270905935
823.4999999999999, 21.5331830905576
824, 21.471752442394873
824.4999999999999, 21.434721704599767
825.0000000000001, 21.353490309760133
825.5, 21.338021433258405
826.0000000000001, 21.26759589558496
826.4999999999999, 21.079564122002495
827, 20.880493077312693
827.5, 20.750604021956264
827.9999999999999, 20.685116187902565
828.5, 20.572670373392285
829, 20.455753876808174
829.4999999999999, 20.407861445284325
830, 20.366136020955523
830.5, 20.35858701808226
831, 20.40099915554886
831.4999999999999, 20.297664700509642
832, 20.138285845407182
832.4999999999998, 19.972277601302267
833, 19.841517528001262
833.5000000000001, 19.82406655104775
833.9999999999999, 19.74529443119775
834.5, 19.64435512648832
834.9999999999999, 19.601085103988154
835.5, 19.550206669847668
836, 19.510556704295325
836.4999999999999, 19.496358740199682
837, 19.40438851032478
837.4999999999999, 19.276313703404597
838, 19.219741053220048
838.5, 19.194046193437302
839.0000000000001, 19.133941562207852
839.4999999999999, 19.007930663707526
840, 18.90864611047364
840.4999999999999, 18.868733901448664
841.0000000000001, 18.82014817635418
841.4999999999999, 18.776245420036346
842, 18.7312984387963
842.5, 18.613749724300447
843, 18.505279511732084
843.4999999999999, 18.485031233757795
843.9999999999999, 18.457654182833295
844.4999999999999, 18.398236904516637
845.0000000000001, 18.343116551216994
845.4999999999999, 18.321556232127975
845.9999999999999, 18.327876486182333
846.4999999999999, 18.331489155747647
846.9999999999999, 18.321662881489388
847.4999999999999, 18.294155378998553
848, 18.248313926799923
848.4999999999999, 18.196231590986528
849.0000000000001, 18.147295236310683
849.4999999999999, 18.099434043047694
850.0000000000001, 18.048153054463484
850.4999999999999, 17.99692786325818
851, 17.961702142407518
851.5, 17.894929565709944
852, 17.763257751577896
852.4999999999999, 17.685387064719123
853, 17.677447239247513
853.4999999999999, 17.66035935309418
854, 17.615550642446408
854.5000000000001, 17.565918842455957
855.0000000000001, 17.546362122672136
855.4999999999999, 17.501018112660333
856.0000000000001, 17.42092399358779
856.5, 17.39819358801725
857.0000000000001, 17.41248112481577
857.5, 17.41281799244483
858, 17.39787837435219
858.4999999999999, 17.366017909204032
859.0000000000001, 17.317158913597268
859.4999999999999, 17.26534051814764
860, 17.217183084369893
860.5, 17.169678880119008
861, 17.114721433966338
861.4999999999999, 17.067550075477243
862, 17.059357677244236
862.5, 17.067950293349767
863, 17.067109386964773
863.5, 17.05052378533925
864.0000000000001, 17.016742319814185
864.5, 16.96745660276102
865, 16.909588165677945
865.4999999999999, 16.870962573003922
866, 16.870625274662018
866.4999999999999, 16.875773262358535
867.0000000000001, 16.8738647848637
867.4999999999999, 16.873073407015255
868, 16.875465026230017
868.4999999999999, 16.874481866004388
869, 16.85741760226726
869.5, 16.817940773546837
870.0000000000001, 16.766919090086006
870.4999999999999, 16.73243946871081
871, 16.718976283950937
871.4999999999999, 16.71947631713691
871.9999999999999, 16.724350367366853
872.4999999999999, 16.71844941298376
873, 16.693808942465296
873.4999999999999, 16.6666185114138
874.0000000000001, 16.643057663948298
874.5, 16.619179915810122
874.9999999999999, 16.591933589660997
875.5, 16.568610875128442
876.0000000000001, 16.563097781567905
876.4999999999999, 16.572920181026475
877, 16.572193925958032
877.4999999999999, 16.52493716969657
878.0000000000001, 16.485913300850058
878.5, 16.49043123789555
879, 16.481168442810315
879.4999999999999, 16.445320246932823
880.0000000000001, 16.39650832221271
880.4999999999999, 16.342564471076912
881, 16.297392933815217
881.4999999999999, 16.2716060214308
882, 16.249839383415292
882.4999999999999, 16.22435939154778
882.9999999999999, 16.199145144075715
883.4999999999999, 16.175865138824804
884.0000000000001, 16.15108481221057
884.5, 16.120667347620554
885, 16.10895858003248
885.5, 16.112899698146506
886.0000000000001, 16.075514963458346
886.5, 16.024402709024457
887, 16.001025136391192
887.4999999999999, 15.976931715131528
888, 15.954465605110087
888.4999999999999, 15.95286023312795
889, 15.958261514546308
889.5, 15.955816581625314
890, 15.936890887019999
890.5, 15.898554342570804
891.0000000000001, 15.847349230340399
891.5, 15.797171435050188
892, 15.748663489797025
892.4999999999999, 15.699332530499717
893, 15.649722297353122
893.4999999999999, 15.60097141710824
893.9999999999999, 15.5522372417431
894.5, 15.49946070220902
895, 15.454470450330192
895.4999999999999, 15.429339627553674
896, 15.406545265649044
896.4999999999999, 15.381719888334004
897.0000000000001, 15.360438861689076
897.5, 15.324075919502434
898.0000000000001, 15.272287409582859
898.4999999999999, 15.225932972292611
898.9999999999999, 15.167606017699327
899.4999999999999, 15.091339122579711
900, 15.02781427558132
900.5, 14.99446253652313
901, 14.975175600990454
901.4999999999999, 14.91032644315878
902.0000000000001, 14.840778317745873
902.4999999999998, 14.821661257371375
903.0000000000001, 14.769060473310432
903.4999999999999, 14.692118565024515
904.0000000000001, 14.664937498210094
904.4999999999999, 14.637600952198241
905.0000000000001, 14.583399034561168
905.5, 14.530728935289105
906.0000000000001, 14.487060343439154
906.4999999999999, 14.438366289492848
906.9999999999999, 14.360590417652546
907.4999999999999, 14.301635991615342
908, 14.28336165612599
908.5, 14.223607227108829
909, 14.149852270531596
909.5, 14.124230660684859
910.0000000000001, 14.105870523670703
910.4999999999999, 14.039049511576678
911, 13.907407179279929
911.4999999999999, 13.82512751422908
912, 13.781246031766784
912.5, 13.652555328083409
912.9999999999999, 13.569659095814373
913.5, 13.557799065173995
914, 13.425647543753712
914.4999999999999, 13.295420801713831
915.0000000000001, 13.281788201285437
915.5, 13.235664021625666
916.0000000000001, 13.150168312968546
916.4999999999999, 13.079738794038676
917, 12.987980670000539
917.4999999999999, 12.890761590525798
918.0000000000001, 12.835508636662027
918.4999999999999, 12.801742003513993
919.0000000000001, 12.746553799644218
919.5, 12.642605941106467
919.9999999999999, 12.570885867910292
920.5, 12.55436289362315
921, 12.510963501445929
921.4999999999999, 12.463546805015
922, 12.399657819513976
922.4999999999999, 12.19189495813798
922.9999999999999, 11.994744077767834
923.5, 11.975075247289297
924, 11.949526401939167
924.4999999999999, 11.854422571947225
924.9999999999999, 11.748992875758475
925.4999999999999, 11.679067713991529
926, 11.634205329559194
926.4999999999999, 11.565733837572623
927, 11.484599792322499
927.5, 11.411825137439862
928, 11.356607657668306
928.4999999999999, 11.313745752443651
929, 11.265905269580145
929.4999999999999, 11.190905265002527
930.0000000000001, 11.126166944715735
930.5, 11.103764115654641
931, 11.073309843465054
931.5, 11.014008848687453
932, 10.938598770724141
932.4999999999999, 10.871657071637244
933, 10.792921580409327
933.5, 10.665462624832045
934, 10.567258034993088
934.4999999999999, 10.527009286625159
935.0000000000001, 10.483197145738629
935.4999999999999, 10.42833464465528
936, 10.378494047835858
936.4999999999999, 10.348510335855892
937, 10.325622111031777
937.5, 10.29885931647729
938.0000000000001, 10.286561868478302
938.4999999999999, 10.24704376411755
939.0000000000001, 10.129652520142997
939.4999999999999, 9.98529923376914
939.9999999999999, 9.872600951991316
940.5, 9.819347169580922
941, 9.769525359089727
941.5, 9.690717330076623
942, 9.60629743877206
942.4999999999998, 9.554600911179804
943.0000000000001, 9.534531865619442
943.4999999999999, 9.48331642891985
944, 9.388810100679748
944.5, 9.284353874192945
944.9999999999999, 9.231278988498588
945.5, 9.171652533114155
946, 9.039554686123594
946.4999999999998, 8.963554774917995
946.9999999999999, 8.95340882743048
947.4999999999999, 8.912833882867218
947.9999999999999, 8.843973218689584
948.4999999999999, 8.76936122551254
949, 8.700003686138459
949.5, 8.614078744974165
950, 8.512702831736462
950.5, 8.437675761536298
951, 8.35610288133735
951.5, 8.251065068762585
952.0000000000001, 8.197086237268891
952.5, 8.136667208079118
953, 8.0031297468189
953.4999999999999, 7.9340003980063045
954, 7.919527553479327
954.4999999999999, 7.8478844545199
955.0000000000001, 7.77913766234002
955.4999999999999, 7.733911308655493
956.0000000000001, 7.653862216660755
956.4999999999999, 7.523500699429462
957.0000000000001, 7.397426490198214
957.5, 7.380396310193078
958, 7.374286603772703
958.4999999999999, 7.293060903657647
959.0000000000001, 7.235718797719159
959.5, 7.181767433768897
960, 7.078882520925902
960.4999999999999, 7.002192903139502
961.0000000000001, 6.962269731006458
961.4999999999999, 6.915134919002412
962.0000000000001, 6.860538946179744
962.4999999999999, 6.813243901862208
963, 6.786519011055631
963.4999999999999, 6.761926544079486
964, 6.736502064889336
964.5, 6.728776519067026
965, 6.669024561153421
965.4999999999999, 6.536713655571276
966, 6.456324679057133
966.4999999999999, 6.422089924783364
967.0000000000001, 6.373403235812191
967.5, 6.318151475736599
968, 6.273124526912582
968.5, 6.247009796837133
969.0000000000001, 6.225694159298158
969.4999999999999, 6.200018114659073
970.0000000000001, 6.163915416395156
970.4999999999999, 6.081627801539923
971, 5.952026137775761
971.4999999999999, 5.830431371453585
972.0000000000001, 5.768657968628617
972.5, 5.7734693682339895
973, 5.782779384469833
973.4999999999999, 5.775316350702738
974, 5.752753618642245
974.5, 5.710912298854694
975, 5.659251840976225
975.4999999999999, 5.610856009570838
976, 5.5578855833345955
976.4999999999999, 5.510989746855813
977.0000000000001, 5.488837495771534
977.5, 5.451228199691855
978, 5.39937313060706
978.4999999999999, 5.391768780677239
979.0000000000001, 5.391620204412305
979.5, 5.3642763802184135
979.9999999999999, 5.338442252898616
980.5, 5.31245333561732
981.0000000000001, 5.266607163611354
981.4999999999999, 5.187888019808227
982, 5.124493178833134
982.4999999999999, 5.112019046621683
983.0000000000001, 5.028869160326764
983.5, 4.8993009712989135
984, 4.860893421415099
984.4999999999999, 4.85328706647752
985, 4.824999294527373
985.5, 4.7906458117092825
986, 4.7107483492645486
986.4999999999999, 4.581441207018443
987, 4.482095265021741
987.4999999999999, 4.430777857662548
988.0000000000001, 4.407168699078682
988.4999999999999, 4.383940734978708
988.9999999999999, 4.359877179515308
989.4999999999999, 4.339473012558088
990, 4.294825287859254
990.5, 4.247231609003904
991.0000000000001, 4.243950076433279
991.5, 4.243758079454324
992.0000000000001, 4.21387401588369
992.4999999999998, 4.162204370662323
993, 4.122828411832884
993.4999999999999, 4.101288650843102
994, 4.0554396623203814
994.4999999999999, 4.010178021849228
995.0000000000001, 3.9888593225999927
995.5, 3.9479188784997206
995.9999999999999, 3.897871832246878
996.5, 3.8716559749464494
997, 3.85482363917248
997.5, 3.825675736184067
998, 3.774810231483201
998.5, 3.734234178623751
998.9999999999999, 3.681930971333415
999.4999999999999, 3.556502633772922
1000, 3.460133888273546
1000.5000000000001, 3.4454090822370063
1001, 3.424474633433988
1001.4999999999998, 3.4026741623781334
1002, 3.4045285416102757
1002.4999999999999, 3.3998754567945326
1003.0000000000001, 3.3581887785549185
1003.4999999999999, 3.2795508260685153
1004.0000000000001, 3.2308578804672266
1004.4999999999999, 3.2134241566460133
1004.9999999999999, 3.1859723158197255
1005.5, 3.1742932364367817
1006, 3.176439405029896
1006.4999999999999, 3.155472318290464
1007, 3.129256593156569
1007.4999999999998, 3.105730193011695
1008.0000000000001, 3.06017482500701
1008.5, 3.0120252402878975
1009.0000000000002, 2.9871985433730543
1009.4999999999998, 2.98431602738205
1010, 2.9833165277189693
1010.5, 2.9618297271905902
1011.0000000000001, 2.9161836648141417
1011.5, 2.8679314149384822
1012.0000000000001, 2.8422141706274857
1012.5000000000001, 2.8183375820246397
1012.9999999999999, 2.7940827682821663
1013.5000000000003, 2.789785247747062
1014.0000000000001, 2.795239616166583
1014.5000000000001, 2.7946373354574376
1015.0000000000001, 2.778371212100808
1015.5000000000001, 2.743198985857447
1015.9999999999999, 2.6931271712030167
1016.5000000000001, 2.6404547529138114
1016.9999999999999, 2.5949205956940915
1017.5000000000001, 2.566638261444794
1018.0000000000001, 2.5676897807175862
1018.5000000000001, 2.561622863292243
1019.0000000000001, 2.5093770587076705
1019.5000000000001, 2.478807717427159
1020.0000000000001, 2.486707617643958
1020.5000000000001, 2.4887228030410284
1020.9999999999999, 2.486718379333638
1021.5000000000001, 2.4871528079303857
1022.0000000000001, 2.4859634682557044
1022.5000000000001, 2.488851629238809
1022.9999999999999, 2.490560669497853
1023.5000000000001, 2.4623259585512187
1024, 2.3951458612719563
1024.5000000000002, 2.3141159781543337
1025, 2.288506439492636
1025.5, 2.2953589015591973
1025.9999999999998, 2.2717698791907424
1026.4999999999998, 2.2457080580269064
1027, 2.220268091017786
1027.4999999999998, 2.1710933201578655
1028, 2.1278919934389933
1028.5, 2.106664429053538
1028.9999999999998, 2.087934355913248
1029.5, 2.0522789701076647
1030, 2.000825758852656
1030.5, 1.9641756575692426
1031, 1.9501105808291044
1031.5, 1.9505123357189973
1032, 1.9517576630732663
1032.4999999999998, 1.9514712858501326
1032.9999999999998, 1.9523154944856884
1033.5, 1.9470932169118242
1033.9999999999998, 1.9137618276105144
1034.5, 1.8376032909416153
1035, 1.7801112894018303
1035.4999999999998, 1.7619601109295644
1035.9999999999998, 1.7398951632385007
1036.5, 1.7137198572661276
1037, 1.6896715864106966
1037.5, 1.6608555004891485
1038, 1.643995899845251
1038.5, 1.6464439434399338
1038.9999999999998, 1.633684542124982
1039.5000000000002, 1.6034200901465283
1040, 1.5759506421135683
1040.5, 1.5657273745706135
1040.9999999999998, 1.5688018281033322
1041.5, 1.569871883745364
1041.9999999999998, 1.5674140884443517
1042.5, 1.5680753385801012
1043, 1.5762040752463804
1043.5000000000002, 1.55579386109045
1043.9999999999998, 1.502020419002676
1044.5000000000002, 1.4689840935644156
1045, 1.44811717805932
1045.5, 1.421432405822543
1045.9999999999998, 1.4120985903078918
1046.5, 1.4161917445757695
1047, 1.416593266305199
1047.5, 1.4144739621934121
1048, 1.415851866580283
1048.5, 1.4207569252085364
1049, 1.403313353950594
1049.5, 1.377936482638546
1050, 1.3865432242627804
1050.5, 1.3555768116593896
1051, 1.2735033069117492
1051.5, 1.252459710567578
1051.9999999999998, 1.2634858967329876
1052.5000000000002, 1.25992556069788
1053, 1.2784076114460987
1053.5000000000002, 1.2505814323404962
1054, 1.1204540169886599
1054.5, 1.0309457979677035
1055, 1.0067359731080359
1055.4999999999998, 0.973182010932419
1055.9999999999998, 0.9236660375681964
1056.5000000000002, 0.8816852478101964
1057, 0.875222298473318
1057.5, 0.8818148241392834
1057.9999999999998, 0.8807960440367424
1058.5, 0.8768587453478744
1059, 0.8837805572185573
1059.5, 0.8883906934966177
1060, 0.8311698456214884
1060.5000000000002, 0.7344919095513802
1060.9999999999998, 0.6622504731684984
1061.5, 0.6548850038583396
1061.9999999999998, 0.6907401886602571
1062.5, 0.7062342454011912
1062.9999999999998, 0.6496215840802648
1063.4999999999998, 0.5753639025583368
1064, 0.5900847855671145
1064.5, 0.5668175624545171
1064.9999999999998, 0.4820440440341258
1065.5, 0.5008650518221032
1065.9999999999998, 0.5373906237836792
1066.5, 0.5054085859991488
1067, 0.49364355708671326
1067.5, 0.495922718274727
1068, 0.4713326808225986
1068.5, 0.4406249026773139
1068.9999999999998, 0.4198662211506843
1069.5, 0.41533731338380164
1070, 0.43272387014381763
1070.5, 0.4584799005035478
1070.9999999999998, 0.46577274751039965
1071.5000000000002, 0.4502774380515575
1071.9999999999998, 0.42408640178359747
1072.5, 0.4090615207530135
1073, 0.4099073556196373
1073.5, 0.41915872357263595
1074, 0.42228174644584726
1074.5, 0.42066545940575395
1075, 0.4207291404516553
1075.5, 0.4209418644447567
1076, 0.4209085840227118
1076.4999999999998, 0.42111972573262335
1076.9999999999998, 0.42024680653403834
1077.5, 0.42082538365953326
1077.9999999999998, 0.424421349852409
1078.5000000000002, 0.4136413730779793
1079, 0.4154358745579998
1079.4999999999998, 0.489675891147499
1079.9999999999998, 0.5409131361559787
1080.5, 0.5082084765662103
1080.9999999999998, 0.4716384647162073
1081.5, 0.45780042491252004
1081.9999999999998, 0.4581519798530991
1082.5, 0.4600198425037121
1082.9999999999998, 0.45894386131361387
1083.5, 0.4577867578046835
1084, 0.46275654666975186
1084.5000000000002, 0.45920619515813144
1084.9999999999998, 0.4303642293096033
1085.4999999999998, 0.42406546946259027
1085.9999999999998, 0.4249285968436993
1086.5, 0.35455052607528614
1087, 0.295514055342764
1087.5, 0.3028428422816347
1088, 0.30890402780460136
1088.5, 0.30589229208213453
1089, 0.306883312703917
1089.5, 0.30192389155702415
1090, 0.3087748635590941
1090.5, 0.3387716555195368
1090.9999999999998, 0.3355032671921947
1091.5, 0.3058275621582851
1091.9999999999998, 0.301950756981924
1092.5, 0.3085796050169165
1093, 0.30685489478337047
1093.5, 0.29874746112872685
1094, 0.3184960501491787
1094.5, 0.3472577262082126
1095, 0.29335701212639265
1095.5, 0.21473499946623065
1095.9999999999998, 0.1903099731406428
1096.5, 0.20242159482609168
1097, 0.2349426470623115
1097.5, 0.2670831120923509
1097.9999999999998, 0.25293030077493484
1098.5, 0.2705760114960185
1099, 0.4224462560030702
1099.5, 0.5290631461774495
1100, 0.5027611541823518
1100.5, 0.4230797531056538
1100.9999999999998, 0.3708640945382342
1101.5, 0.3518192446038313
1102, 0.28639500332454304
1102.5, 0.21574798512673965
1103, 0.19278557468592794
1103.5, 0.19047546404976856
1104, 0.19140405629369184
1104.4999999999998, 0.19129380894152348
1104.9999999999998, 0.19170490709268506
1105.4999999999998, 0.19120775322055295
1105.9999999999998, 0.18915097090585675
1106.5, 0.19656687799960082
1107, 0.1930853133697923
1107.5, 0.14365600634307896
1108, 0.10738092268974242
1108.5, 0.1131617388427344
1108.9999999999998, 0.1167604041170307
1109.5, 0.11433724657678113
1109.9999999999998, 0.11457183426621498
1110.5, 0.11500750238720059
1111, 0.11471130443584343
1111.5, 0.11452187678635539
1111.9999999999998, 0.1156069851613779
1112.5, 0.11452678364430824
1113, 0.11104676519525469
1113.5, 0.12554469604218355
1113.9999999999998, 0.15215025204261678
1114.5, 0.1603344235696511
1115, 0.14343667859874643
1115.5, 0.11733683449487842
1116, 0.11145018679526686
1116.5, 0.1155698665799747
1116.9999999999998, 0.11508238232720203
1117.5, 0.11468431687562486
1118, 0.1146861715842249
1118.5000000000002, 0.11425177403737052
1119, 0.1167246558492252
1119.5, 0.11399786810233081
1119.9999999999998, 0.10600442977299451
1120.5, 0.14075270843477483
1121, 0.19073292424687338
1121.5, 0.17661418360991377
1121.9999999999998, 0.13857043651817946
1122.5000000000002, 0.11657486881931334
1122.9999999999998, 0.10972567057949334
1123.5, 0.12003862184954528
1123.9999999999998, 0.1457442740027659
1124.5, 0.1751425264275781
1124.9999999999998, 0.19337138339724902
1125.5, 0.19338482175353988
1126, 0.1879707533436914
1126.5, 0.1926226953617629
1127, 0.21588701319947745
1127.5, 0.2454516489864602
1127.9999999999998, 0.2676736723798143
1128.5, 0.27306290886727425
1128.9999999999998, 0.25991883573558994
1129.5, 0.23317445754895516
1130, 0.20411740055254768
1130.5, 0.1887684237175904
1131, 0.19047102423706974
1131.5, 0.19208523180918746
1132, 0.19117313027733474
1132.5, 0.19122150693023343
1132.9999999999998, 0.19137322804138535
1133.5, 0.1913087735959067
1134, 0.19130568201929066
1134.5, 0.19131895147327782
1135, 0.19131468773076676
1135.5, 0.1913139038487799
1135.9999999999998, 0.19131500076645125
1136.5, 0.19131474440705176
1137, 0.19131464175640644
1137.5, 0.19131472808396666
1137.9999999999998, 0.19131471499363784
1138.5, 0.19131470405370976
1139, 0.19131471053208315
1139.5, 0.19131471009899315
1140, 0.19131470905702486
1140.5, 0.19131470951876395
1141, 0.19131470953288954
1141.4999999999998, 0.1913147094414427
1141.9999999999998, 0.19131470947188234
1142.5, 0.1913147094746961
1142.9999999999998, 0.1913147094740708
1143.5000000000002, 0.19131470947345974
1143.9999999999998, 0.19131470944162743
1144.5, 0.19131470952292773
1145, 0.1913147095370249
1145.5, 0.19131470907024095
1146, 0.1913147099593715
1146.5, 0.19131471071118256
1146.9999999999998, 0.19131470436563802
1147.5, 0.19131471315056103
1147.9999999999998, 0.19131472963560725
1148.5, 0.19131464746234883
1149, 0.19131472170974462
1149.5, 0.1913150108060364
1149.9999999999998, 0.19131399645104352
1150.4999999999998, 0.19131443270889292
1151, 0.1913189519013514
1151.5000000000002, 0.19130707341263076
1152, 0.19130607928032362
1152.5, 0.1913715955408719
1153, 0.19124117021664233
1153.5, 0.19114641769576224
1154, 0.19204389622478857
1154.5, 0.19073308888469853
1155, 0.18853122990607574
1155.5, 0.202532623590713
1155.9999999999998, 0.23122980654980552
1156.5, 0.25850056603127314
1157, 0.27276865261355
1157.4999999999998, 0.2685855578162233
1158, 0.24722613609151267
1158.5, 0.2177718781650526
1159, 0.1936172939127232
1159.5, 0.1877978022991158
1160, 0.1930391914294205
1160.5, 0.19384555052529606
1161, 0.17677894801711602
1161.5, 0.14770565762805177
1162, 0.12149696268147636
1162.5, 0.10928891562089404
1163, 0.11588945071548551
1163.5, 0.13911606305617852
1164, 0.16777372393892165
1164.5, 0.1907060501504958
1165, 0.19830025215811986
1165.5, 0.1807054151098697
1165.9999999999998, 0.15458706167224534
1166.5, 0.16329280158761605
1167, 0.20724024716051304
1167.5, 0.2589363311004149
1168, 0.2776673037930948
1168.5000000000002, 0.2635496478882402
1168.9999999999998, 0.2378592315876915
1169.5, 0.21761411577719514
1170, 0.18732516643993335
1170.5, 0.1328802604006114
1171, 0.10911244969223333
1171.5, 0.11481540761612052
1172, 0.10718252934968575
1172.5, 0.13445413370413917
1173, 0.18800140111318342
1173.5, 0.18040354379141377
1173.9999999999998, 0.1416799643269968
1174.5, 0.11804337611918925
1175, 0.10972647758957521
1175.5000000000002, 0.11815050047243858
1176, 0.14275297885419036
1176.5, 0.17262152431425193
1176.9999999999998, 0.19239099610710753
1177.5, 0.19315179298628493
1178, 0.19033832283524532
1178.5000000000002, 0.19130862182723263
1179, 0.19230147489687965
1179.5, 0.18948872666861405
1180, 0.1901602532358737
1180.5, 0.2099335326695808
1180.9999999999998, 0.2394600929984847
1181.5, 0.2640434461550143
1182, 0.27457835795567576
1182.5, 0.26285736542408245
1183, 0.2356810913152998
1183.4999999999998, 0.22666016527311683
1184, 0.22943012903476756
1184.5, 0.22627957169110857
1184.9999999999998, 0.2423714097244556
1185.5, 0.26804156691905234
1186, 0.270770218378388
1186.5, 0.26676267431193423
1187, 0.26772327153543074
1187.5, 0.26807652957108985
1188, 0.2677901891121195
1188.4999999999998, 0.2678467044447501
1188.9999999999998, 0.26771011096755615
1189.5, 0.2680135484709467
1190, 0.2683136216404307
1190.5, 0.26593536073376356
1190.9999999999998, 0.2691363641036304
1191.5, 0.2755050944785751
1191.9999999999998, 0.24073354886570542
1192.5, 0.19043460694203418
1192.9999999999998, 0.18587862074568307
1193.5, 0.19310656419445138
1193.9999999999998, 0.19134963929843707
1194.5, 0.1929607362546335
1194.9999999999998, 0.18772586725772555
1195.5, 0.18686438156356644
13.811353528322684, 18.53221839183172
11.90190646844788, 16.776091465336023
11.738866653811606, 14.491496062745256
8.02030472768432, 12.385147072886639
7.8447233888452566, 9.924813562404282
5.935276328970453, 8.168686635908585
2.191631354437588, 5.710861430266789
1.9658839187873642, 2.5475754882180297
1.7903025799483014, 0.08724197773565834
13.986934867161747, 20.99255190231409
14.966741445504734, 22.22209158134511
