302, 44.96788297692388
302.5, 45.02941957051507
303, 45.01511055017344
303.5, 44.9867601221821
304, 44.990388742228355
304.5, 44.99128479398669
305, 44.990022877578355
305.5, 45.01544201751697
306, 45.052406751512386
306.5, 45.073031364659904
307, 45.08544349923754
307.5, 45.10162936068664
308, 45.12041897670634
308.5, 45.13769974845781
309, 45.14791775559382
309.5, 45.14555233425403
310, 45.127937472222705
310.5, 45.113002298706604
311, 45.12170619383932
311.5, 45.14974808929865
312, 45.185006870137
312.5, 45.21239373504678
313, 45.227960594397786
313.5, 45.24212065250344
314, 45.259557073502556
314.5, 45.27907063264434
315, 45.2933393101362
315.5, 45.295768077535335
316, 45.292452407974146
316.5, 45.29114036405533
317, 45.29664821712937
317.5, 45.31328830393328
318, 45.344188651387974
318.5, 45.37856990974361
319, 45.39931238699537
319.5, 45.41389413296843
320, 45.4333281851358
320.5, 45.44424518195375
321, 45.441850878740475
321.5, 45.449233937208206
322, 45.46856567010951
322.5, 45.47560314293455
323, 45.473191650205074
323.5, 45.48149012136045
324, 45.50488774528487
324.5, 45.53889469507845
325, 45.57040429044691
325.5, 45.58916365848595
326, 45.59431081992509
326.5, 45.59290957428771
327, 45.599113172474325
327.5, 45.619544206539075
328, 45.65327583826283
328.5, 45.68527247554054
329, 45.70288469656956
329.5, 45.71868498167106
330, 45.73800064965519
330.5, 45.74395801345731
331, 45.74133496075467
331.5, 45.757005978093424
332, 45.77385076966292
332.5, 45.75797374880257
333, 45.74409916439288
333.5, 45.77156545690604
334, 45.81609112591021
334.5, 45.851590944415776
335, 45.87158767932229
335.5, 45.88639512835902
336, 45.91815282980179
336.5, 45.951843632256065
337, 45.958031131556346
337.5, 45.95408727250734
338, 45.965597509595845
338.5, 45.99414490955969
339, 46.030032254976106
339.5, 46.05312553821532
340, 46.06742260411583
340.5, 46.098099345655264
341, 46.13216999673656
341.5, 46.141004874807074
342, 46.13312738998358
342.5, 46.1279975624042
343, 46.14112695222376
343.5, 46.17525289903147
344, 46.21384055217157
344.5, 46.24662666283681
345, 46.2709670408727
345.5, 46.2839513731852
346, 46.284788783044306
346.5, 46.284871656071054
347, 46.296860310078316
347.5, 46.32625336866529
348, 46.36333690183928
348.5, 46.378338935795746
349, 46.374367409482126
349.5, 46.38265896059766
350, 46.403294639304164
350.5, 46.4218595297878
351, 46.43651119527767
351.5, 46.45106545384911
352, 46.47409149726607
352.5, 46.5079871431199
353, 46.544886919766384
353.5, 46.57785903584286
354, 46.60183822657344
354.5, 46.61449358024705
355, 46.616339207846515
355.5, 46.61461495650291
356, 46.61491533076608
356.5, 46.61410714440143
357, 46.613114741981946
357.5, 46.620259012589656
358, 46.63899100320453
358.5, 46.66796478692435
359, 46.7038899871128
359.5, 46.74122187028285
360, 46.76849069116686
360.5, 46.78299843077638
361, 46.80623533280363
361.5, 46.8421558515147
362, 46.86741900456675
362.5, 46.88162850002273
363, 46.900961020022315
363.5, 46.91507967362358
364, 46.91136965462751
364.5, 46.9194290151739
365, 46.95555749091718
365.5, 46.982119518057935
366, 46.994077930482014
366.5, 47.03482000388977
367, 47.08866382480532
367.5, 47.10203764788566
368, 47.09533399844093
368.5, 47.10867912004439
369, 47.128938525111096
369.5, 47.143333533455326
370, 47.167772091829924
370.5, 47.20341370439313
371, 47.22950789265474
371.5, 47.24339754536618
372, 47.25631594280143
372.5, 47.276116843621466
373, 47.30686645262471
373.5, 47.34435217388263
374, 47.380425338195195
374.5, 47.40328938817964
375, 47.417651127028634
375.5, 47.4462789098266
376, 47.481451590798954
376.5, 47.499327371280465
377, 47.51691900602009
377.5, 47.55371338694685
378, 47.578722556804856
378.5, 47.57614652578239
379, 47.581500149132616
379.5, 47.60153092959691
380, 47.60607102725192
380.5, 47.604428000973265
381, 47.62779957220477
381.5, 47.66829622692673
382, 47.70584690656071
382.5, 47.7310550498005
383, 47.74585701798152
383.5, 47.76882560351834
384, 47.804041611769456
384.5, 47.838571638389446
385, 47.87160603130763
385.5, 47.90817863134062
386, 47.93786944774694
386.5, 47.95312230959854
387, 47.974035636184375
387.5, 48.009376906061476
388, 48.0378665613563
388.5, 48.052699846059525
389, 48.0654132402772
389.5, 48.083784671250235
390, 48.112007509394196
390.5, 48.15029961017804
391, 48.19770794246594
391.5, 48.253815480063835
392, 48.30839161525705
392.5, 48.33501479918813
393, 48.33076395619667
393.5, 48.318505458862866
394, 48.32419700550734
394.5, 48.36687962350377
395, 48.422059200847436
395.5, 48.460517336400926
396, 48.482157479134756
396.5, 48.49692340659937
397, 48.521830895842385
397.5, 48.55726406634355
398, 48.588915276175484
398.5, 48.623528434134194
399, 48.67404506479948
399.5, 48.72191409239228
400, 48.752943201417224
400.5, 48.79309051957477
401, 48.84758257292463
401.5, 48.87958189973799
402, 48.891911947689806
402.5, 48.92429413461041
403, 48.98300578581342
403.5, 49.05375062702195
404, 49.1145234966605
404.5, 49.1510676180071
405, 49.175782605125576
405.5, 49.19435307391364
406, 49.19671608377034
406.5, 49.19496244301098
407, 49.2178547104931
407.5, 49.2560652751811
408, 49.287550135894215
408.5, 49.32490577182517
409, 49.37744694771657
409.5, 49.420540863876134
410, 49.43782791576584
410.5, 49.43390635407534
411, 49.433327434666104
411.5, 49.470114795921695
412, 49.52643453628943
412.5, 49.57136508266963
413, 49.631193712458135
413.5, 49.72044433173819
414, 49.787216682720846
414.5, 49.81600221174426
415, 49.85356804588201
415.5, 49.907380620210894
416, 49.95125022326063
416.5, 49.9783609878737
417, 49.99398960268962
417.5, 50.013434567437116
418, 50.04625040884604
418.5, 50.08263686896277
419, 50.1159303483759
419.5, 50.147501130030705
420, 50.18126790591479
420.5, 50.222854977796146
421, 50.27894645265423
421.5, 50.34984745359478
422, 50.40844385632291
422.5, 50.44063400502251
423, 50.476016948859396
423.5, 50.52783233533849
424, 50.58139087190157
424.5, 50.6305607312741
425, 50.677758444925104
425.5, 50.730438008274355
426, 50.789500542464125
426.5, 50.822857995578936
427, 50.81935835344751
427.5, 50.82800820490796
428, 50.865141928112955
428.5, 50.89981118863903
429, 50.932538675071235
429.5, 50.98582555360149
430, 51.062632163831
430.5, 51.1520958755709
431, 51.22349948285014
431.5, 51.2688373178799
432, 51.333948273944905
432.5, 51.42277993314304
433, 51.48658199393789
433.5, 51.53204162912995
434, 51.597394125185104
434.5, 51.66316115669716
435, 51.700491872731554
435.5, 51.72839968090904
436, 51.762801693756806
436.5, 51.79392428556658
437, 51.82573929405613
437.5, 51.879073109953524
438, 51.95067274831157
438.5, 52.02222677661853
439, 52.084759626515456
439.5, 52.13608900715938
440, 52.184427238880275
440.5, 52.23502729846263
441, 52.283912400291484
441.5, 52.333437293938545
442, 52.39305421048915
442.5, 52.46263875759937
443, 52.534725449858854
443.5, 52.595872695179466
444, 52.64167609609559
444.5, 52.702666536372014
445, 52.78936232201629
445.5, 52.86533009750228
446, 52.91248224480821
446.5, 52.9389272057058
447, 52.97578992242016
447.5, 53.05495023224189
448, 53.13898660800284
448.5, 53.189928448799925
449, 53.23984247639684
449.5, 53.30851596639159
450, 53.37306658926986
450.5, 53.42130724092305
451, 53.456546072053825
451.5, 53.48944254521443
452, 53.53278480227418
452.5, 53.5900460687123
453, 53.65783513360973
453.5, 53.72212953410892
454, 53.78474392565743
454.5, 53.87438163130797
455, 53.97887799906045
455.5, 54.05200442362526
456, 54.11722820471421
456.5, 54.22358086856016
457, 54.34952228871667
457.5, 54.458666020935404
458, 54.53510292367525
458.5, 54.583110487427625
459, 54.63241983178621
459.5, 54.70186875467784
460, 54.79395216608461
460.5, 54.871574809911486
461, 54.899013719905945
461.5, 54.9464089759228
462, 55.06532439762435
462.5, 55.17706906135543
463, 55.24037894139797
463.5, 55.29948018876766
464, 55.368587600715486
464.5, 55.43248732261363
465, 55.50175038341941
465.5, 55.59021394058607
466, 55.66445559488713
466.5, 55.70780876979692
467, 55.777877148778295
467.5, 55.885426255460644
468, 55.96191473160066
468.5, 56.0047004528309
469, 56.064533311162506
469.5, 56.13428831223488
470, 56.18695929389021
470.5, 56.23530833635314
471, 56.297710405127035
471.5, 56.37971277747066
472, 56.467267884807086
472.5, 56.52538681256294
473, 56.57208391597176
473.5, 56.65962590651975
474, 56.76569029438245
474.5, 56.84402605137385
475, 56.89519983329012
475.5, 56.939023892993454
476, 57.010708681238725
476.5, 57.11482812731469
477, 57.21441256727587
477.5, 57.293793815738475
478, 57.35805854555878
478.5, 57.42794047617517
479, 57.52280494463094
479.5, 57.63011545437302
480, 57.72401948335866
480.5, 57.76855747967154
481, 57.79168419585179
481.5, 57.89364851244252
482, 58.03830754583187
482.5, 58.10855619182665
483, 58.149724643897635
483.5, 58.24403388923904
484, 58.34985662789694
484.5, 58.430775482071596
485, 58.52056871293584
485.5, 58.62467340651495
486, 58.706741736661364
486.5, 58.76865359162011
487, 58.83610086319898
487.5, 58.90139472208438
488, 58.95146342671561
488.5, 59.00314137037258
489, 59.06931639912985
489.5, 59.14216917520907
490, 59.224789045817715
490.5, 59.3332433767078
491, 59.45320110398479
491.5, 59.55282915170853
492, 59.62311587621142
492.5, 59.67712910939898
493, 59.771891845323054
493.5, 59.9163844370517
494, 60.013829262055076
494.5, 60.053425830015264
495, 60.12697445743686
495.5, 60.25987264566367
496, 60.424769369909676
496.5, 60.55788506861
497, 60.614666355489994
497.5, 60.65512853790173
498, 60.72290456223646
498.5, 60.79409275044868
499, 60.85955035339465
499.5, 60.93277516187573
500, 61.02047546149919
500.5, 61.12168812824814
501, 61.21975424114273
501.5, 61.30255514676929
502, 61.38884972376788
502.5, 61.48965126654943
503, 61.59187814787099
503.5, 61.67495791965051
504, 61.717814260917386
504.5, 61.74803766561701
505, 61.813457050087514
505.5, 61.91428993439681
506, 62.02578764156955
506.5, 62.09805927669981
507, 62.13599643681545
507.5, 62.238552371103175
508, 62.401370560146134
508.5, 62.52045336396664
509, 62.588555192299296
509.5, 62.650552841436564
510, 62.72313504963364
510.5, 62.807642107634905
511, 62.88844925269549
511.5, 62.955715783233344
512, 63.014132507095646
512.5, 63.0809672853173
513, 63.17861351547886
513.5, 63.27886137554082
514, 63.33891514734826
514.5, 63.38050368377398
515, 63.43101880042919
515.5, 63.479959411657966
516, 63.51490343968821
516.5, 63.531242671531814
517, 63.54653253225852
517.5, 63.59364401478895
518, 63.670435469941125
518.5, 63.756840812528175
519, 63.83590770457806
519.5, 63.909317301701094
520, 64.02302331758258
520.5, 64.18010122410817
521, 64.31360357431282
521.5, 64.40630722708607
522, 64.48476834588809
522.5, 64.54433390627852
523, 64.57036947255736
523.5, 64.57639256606126
524, 64.58574016281321
524.5, 64.6259343971737
525, 64.69654911082674
525.5, 64.75903737396666
526, 64.80584674396516
526.5, 64.85492401758427
527, 64.9053480158274
527.5, 64.94673056683865
528, 64.96835414861314
528.5, 64.96854654065817
529, 64.96652889097328
529.5, 64.9682016566308
530, 64.95869350237851
530.5, 64.93985442086793
531, 64.9276462709864
531.5, 64.93622185005904
532, 64.9702514223651
532.5, 65.00027142372826
533, 65.00329812443303
533.5, 64.9899189298427
534, 64.97242472682342
534.5, 64.95963551560145
535, 64.96281952643784
535.5, 64.9913697419453
536, 65.0267798132638
536.5, 65.04654058804314
537, 65.05939055798592
537.5, 65.06661776502861
538, 65.03877342129826
538.5, 64.98298785313123
539, 64.95327087815261
539.5, 64.96224773342365
540, 64.9912853429359
540.5, 65.02747292686283
541, 65.06791966030556
541.5, 65.13637496599497
542, 65.22950330858883
542.5, 65.27838108917908
543, 65.27091732963068
543.5, 65.26837449349662
544, 65.29142744834266
544.5, 65.32819664797034
545, 65.35762222823081
545.5, 65.3629313517045
546, 65.35407267707805
546.5, 65.33937851956466
547, 65.31303685822172
547.5, 65.27805769865171
548, 65.2489719619272
548.5, 65.23658668264517
549, 65.2463026501226
549.5, 65.26808080446096
550, 65.28792994926343
550.5, 65.29805894777138
551, 65.28742090398603
551.5, 65.2383555262312
552, 65.18220595335603
552.5, 65.19579638144182
553, 65.25933832069146
553.5, 65.30260918623438
554, 65.32888699734553
554.5, 65.3608305352106
555, 65.39712583157367
555.5, 65.43171573987351
556, 65.45863987172582
556.5, 65.4744234797835
557, 65.47871568047645
557.5, 65.47707366099607
558, 65.47328126365096
558.5, 65.44176252171425
559, 65.37700251743883
559.5, 65.36383005640855
560, 65.43526427500746
560.5, 65.50944886513068
561, 65.55483618730361
561.5, 65.59936237400066
562, 65.6519862801626
562.5, 65.70734778115349
563, 65.7509561253236
563.5, 65.7719532562802
564, 65.77840184466118
564.5, 65.77854441640604
565, 65.7762570968834
565.5, 65.79357880519643
566, 65.86337731237057
566.5, 65.95197796924785
567, 66.00131588783219
567.5, 66.0190240859458
568, 66.02415406459517
568.5, 66.0104806009285
569, 65.98852923903347
569.5, 65.99936962740819
570, 66.03859143465638
570.5, 66.0628879563277
571, 66.07648822291355
571.5, 66.09987582994123
572, 66.105920640345
572.5, 66.0738141762769
573, 66.03655799810606
573.5, 66.01901239000622
574, 66.02078750187158
574.5, 66.0401977069838
575, 66.07676708428167
575.5, 66.1345822183073
576, 66.20645553924626
576.5, 66.22333161461225
577, 66.14457465465647
577.5, 66.04411226678647
578, 65.97629866185903
578.5, 65.9415746626724
579, 65.92900017948597
579.5, 65.92360141168784
580, 65.92713155102362
580.5, 65.93500580610963
581, 65.87947157542274
581.5, 65.73686736275278
582, 65.62792247463943
582.5, 65.60173724689557
583, 65.58322707294967
583.5, 65.54567399976997
584, 65.50743621974142
584.5, 65.47720426218547
585, 65.45229514422115
585.5, 65.4042613566825
586, 65.32000163496946
586.5, 65.23605694406683
587, 65.17074057333542
587.5, 65.10956923074056
588, 65.0413605655909
588.5, 64.95827202994657
589, 64.84552699815998
589.5, 64.70151699086833
590, 64.58867703033773
590.5, 64.54004223240582
591, 64.49111465081592
591.5, 64.40540978559059
592, 64.29761243740786
592.5, 64.17804458064465
593, 64.05043746210961
593.5, 63.91201391382352
594, 63.7668758485333
594.5, 63.654931176560936
595, 63.59079685686944
595.5, 63.52029296566895
596, 63.431815882716876
596.5, 63.371095290237434
597, 63.324714394122914
597.5, 63.23990089421585
598, 63.09773918897169
598.5, 62.914607360800275
599, 62.781883942703026
599.5, 62.72750311926655
600, 62.62328408098746
600.5, 62.4435850637462
601, 62.296577516153675
601.5, 62.21208865185347
602, 62.16088356468552
602.5, 62.10965973883656
603, 62.03308700254175
603.5, 61.93691764256532
604, 61.834714064695525
604.5, 61.74081265057344
605, 61.62766642978174
605.5, 61.431285694485055
606, 61.20677560905732
606.5, 61.063599513200906
607, 60.96418326148406
607.5, 60.838436743401104
608, 60.68934888107804
608.5, 60.535957135012744
609, 60.39951011258536
609.5, 60.30100497710697
610, 60.25282212007775
610.5, 60.17744821073235
611, 59.9804218288173
611.5, 59.78916400219851
612, 59.72460760231674
612.5, 59.6449453137953
613, 59.469654422352
613.5, 59.31069365424917
614, 59.218839326464085
614.5, 59.159518364792476
615, 59.064337773729164
615.5, 58.877324274837946
616, 58.70706292973005
616.5, 58.64410535677943
617, 58.562807023780444
617.5, 58.39117271376817
618, 58.21175551940626
618.5, 58.08296792845419
619, 58.020990098493705
619.5, 57.9996522205181
620, 57.971092187648665
620.5, 57.89541690878521
621, 57.7685551246512
621.5, 57.67869343685436
622, 57.65364262937756
622.5, 57.60353691571533
623, 57.5293999799903
623.5, 57.518298138930675
624, 57.57266733560022
624.5, 57.64345674343403
625, 57.66535126201131
625.5, 57.604201992688246
626, 57.52195797520499
626.5, 57.45712115723568
627, 57.38917139882878
627.5, 57.32123066863472
628, 57.27812266435965
628.5, 57.248960173116416
629, 57.207669409928
629.5, 57.14657504677013
630, 57.066048889957166
630.5, 56.97335829076542
631, 56.88590768706026
631.5, 56.83138217419669
632, 56.78460576570374
632.5, 56.68479384577515
633, 56.56045498644838
633.5, 56.468827028811376
634, 56.3931924582285
634.5, 56.31763400680219
635, 56.27811707308465
635.5, 56.28193682531112
636, 56.28527579532936
636.5, 56.24498723352322
637, 56.13347513163965
637.5, 56.01740043097923
638, 55.9803930662182
638.5, 55.987335435179006
639, 55.981142582233446
639.5, 55.92819815082801
640, 55.838384859860014
640.5, 55.772696843257854
641, 55.74758522996139
641.5, 55.74252465017353
642, 55.745472966028395
642.5, 55.74858073323343
643, 55.743355813860866
643.5, 55.71796133732065
644, 55.65429584293786
644.5, 55.56540626947018
645, 55.5016378455689
645.5, 55.45606815718572
646, 55.386665163374616
646.5, 55.32452054420964
647, 55.30884517378234
647.5, 55.28559259370341
648, 55.21741341446511
648.5, 55.14968071500096
649, 55.10229682984899
649.5, 55.052391044927006
650, 55.001870339828706
650.5, 54.96766535553144
651, 54.93326286858072
651.5, 54.880532521348
652, 54.837095658801076
652.5, 54.82060754205961
653, 54.80751695655002
653.5, 54.789306261434106
654, 54.77894888015328
654.5, 54.760437671784715
655, 54.70438885146363
655.5, 54.6310760866625
656, 54.57320151578635
656.5, 54.53719941463062
657, 54.51973343687015
657.5, 54.5095674924175
658, 54.49351865978966
658.5, 54.45825952551952
659, 54.402950633119005
659.5, 54.33586316785568
660, 54.270041127493926
660.5, 54.21639214027911
661, 54.172884456456586
661.5, 54.13770368872746
662, 54.114197810015135
662.5, 54.09880763057465
663, 54.08108891332391
663.5, 54.06480615235451
664, 54.060487769744554
664.5, 54.06382184877571
665, 54.06599132356088
665.5, 54.061154736807964
666, 54.04575311846933
666.5, 54.01937576235119
667, 53.984908368875224
667.5, 53.94837829197461
668, 53.91629503861902
668.5, 53.89069874880679
669, 53.84760895884611
669.5, 53.77495795102321
670, 53.72345030133408
670.5, 53.71154966776727
671, 53.683719099919486
671.5, 53.611830401257095
672, 53.50571439367286
672.5, 53.409053168335696
673, 53.371414117024
673.5, 53.373600586045775
674, 53.37882938216564
674.5, 53.365512101159176
675, 53.33060486136151
675.5, 53.295970859631645
676, 53.26373543772642
676.5, 53.21943297454777
677, 53.19231298945406
677.5, 53.223851319417605
678, 53.29169795355782
678.5, 53.36137217531558
679, 53.4204883313377
679.5, 53.45754752217774
680, 53.456455179381734
680.5, 53.3994673604456
681, 53.27713051503712
681.5, 53.16612812005891
682, 53.1582864081862
682.5, 53.19708454381173
683, 53.21448848675488
683.5, 53.229073657881536
684, 53.24912593990164
684.5, 53.24799112110731
685, 53.227321022756364
685.5, 53.21227498541559
686, 53.19382273132203
686.5, 53.15578412703632
687, 53.13130872188451
687.5, 53.12980418665614
688, 53.06744877177575
688.5, 52.93799455162238
689, 52.861442606614254
689.5, 52.85932116765323
690, 52.866970492118924
690.5, 52.8624079214428
691, 52.847267071697516
691.5, 52.82904844143263
692, 52.81287370707579
692.5, 52.79488491191536
693, 52.790036164355215
693.5, 52.83698990284681
694, 52.91043397498149
694.5, 52.94035650517805
695, 52.922572384464424
695.5, 52.885184192191105
696, 52.85956669230418
696.5, 52.860026157394174
697, 52.860618977694635
697.5, 52.8573308763466
698, 52.879739826738266
698.5, 52.91686996065227
699, 52.93010751071637
699.5, 52.92212680860353
700, 52.914331244788215
700.5, 52.927612559803954
701, 52.96441062882078
701.5, 52.987894859495256
702, 52.985240807829385
702.5, 52.97838730881603
703, 52.95946419180204
703.5, 52.90333433248049
704, 52.83070018884123
704.5, 52.779375523343475
705, 52.776818109532485
705.5, 52.81690291656227
706, 52.829952519865124
706.5, 52.79147115880085
707, 52.740901256478274
707.5, 52.71253391359919
708, 52.725615343311794
708.5, 52.74190313503818
709, 52.717271246787725
709.5, 52.670279039819036
710, 52.62129238411322
710.5, 52.56663370255025
711, 52.51465184036414
711.5, 52.48955521290719
712, 52.49789948003081
712.5, 52.53091022629977
713, 52.56288633424823
713.5, 52.57001880009063
714, 52.55710087316367
714.5, 52.52781564585667
715, 52.472793486524644
715.5, 52.40262993439708
716, 52.34978213078723
716.5, 52.32337031879152
717, 52.31313330100992
717.5, 52.28849255520099
718, 52.232610812771696
718.5, 52.19730859624325
719, 52.21330110450824
719.5, 52.24783373365075
720, 52.28096281098782
720.5, 52.31366286435621
721, 52.3473954132667
721.5, 52.37531130461281
722, 52.34496268424396
722.5, 52.22743610056323
723, 52.11637653691858
723.5, 52.067774699736745
724, 52.03201802427814
724.5, 51.996452942620955
725, 51.99352366082802
725.5, 52.01817942250015
726, 52.047055221641436
726.5, 52.086040897326924
727, 52.13293584557596
727.5, 52.132697289117644
728, 52.07554677666347
728.5, 52.04090786269658
729, 52.04804527665975
729.5, 52.052917392501485
730, 52.05099601834521
730.5, 52.05577205499079
731, 52.04879358872506
731.5, 52.01561774737596
732, 51.982247533280486
732.5, 51.965592609076644
733, 51.95712710570917
733.5, 51.95774579201771
734, 51.974166325104726
734.5, 51.96445039430209
735, 51.88364526618233
735.5, 51.80416735261286
736, 51.787625447035765
736.5, 51.770038745800264
737, 51.72847083046559
737.5, 51.73114714144941
738, 51.77310578547076
738.5, 51.78557619883182
739, 51.78052673438124
739.5, 51.802981699186454
740, 51.84843713478397
740.5, 51.89991882247301
741, 51.94585764216153
741.5, 51.967353068940525
742, 51.935643242278154
742.5, 51.86055750085205
743, 51.78327168070907
743.5, 51.7225967786857
744, 51.682937235563216
744.4999999999999, 51.65684862092102
744.9999999999999, 51.63770219683884
745.5, 51.628824723888606
746, 51.62951191569003
746.5, 51.63154384375638
747, 51.63107895903939
747.4999999999999, 51.628940303620325
747.9999999999999, 51.63052849605447
748.5, 51.637412097174824
749, 51.62581974732897
749.5, 51.5793830635296
750, 51.51479054434052
750.4999999999999, 51.447320731353805
750.9999999999999, 51.38423480720377
751.5, 51.336815078635865
752, 51.3158136796038
752.5, 51.300379371927626
753, 51.2664814358725
753.4999999999999, 51.23593210623576
753.9999999999999, 51.22241097233826
754.5, 51.195878331199864
755, 51.143816161080686
755.5, 51.08296185709181
756, 51.01477871220632
756.4999999999999, 50.93112329460217
756.9999999999999, 50.84889599962376
757.5, 50.79005293986716
758, 50.75323409805427
758.5, 50.73348770931383
759, 50.73033797909931
759.4999999999999, 50.74685649749523
759.9999999999999, 50.78840900758387
760.5, 50.841339898341644
761, 50.88169600490282
761.5, 50.91056031780346
762, 50.93407569283556
762.4999999999999, 50.938135134169045
762.9999999999999, 50.919601826036086
763.5, 50.90624386099998
764, 50.8934313481587
764.5, 50.83883242882395
765, 50.76761502376808
765.4999999999999, 50.73698025732969
765.9999999999999, 50.69626484505197
766.5, 50.59113610967584
767, 50.50623355699589
767.5, 50.50247190571214
768, 50.53482554765159
768.4999999999999, 50.55357200453794
768.9999999999999, 50.52255214848702
769.5, 50.4657857545052
770, 50.43707837127107
770.5, 50.42874452092998
771, 50.415437333141206
771.4999999999999, 50.392008381193044
771.9999999999999, 50.359183293254404
772.5, 50.32097498870424
773, 50.28686659788821
773.5, 50.26943420379323
774, 50.25280786414744
774.4999999999999, 50.20986615472269
774.9999999999999, 50.15496877772675
775.5, 50.10703380502105
776, 50.051297015910826
776.5, 49.98222509903263
777, 49.92198895857417
777.4999999999999, 49.874066709281266
777.9999999999999, 49.81999399643294
778.5, 49.74783177002853
779, 49.65689811330157
779.5, 49.58348855107857
780, 49.558684957529564
780.4999999999999, 49.558852550312125
780.9999999999999, 49.54877116292083
781.5, 49.49311162658681
782, 49.40300243476896
782.5, 49.330165017109906
783, 49.265241607395005
783.4999999999999, 49.175756172292175
783.9999999999999, 49.102462199685746
784.5, 49.08247467704573
785, 49.07213675062687
785.5, 49.0390536720689
786, 48.992993442509864
786.4999999999999, 48.94220011947086
786.9999999999999, 48.88986974913633
787.5, 48.84088328498915
788, 48.800989211427776
788.5, 48.774956023169544
789, 48.76790971682775
789.4999999999999, 48.78621959179332
789.9999999999999, 48.79873626722944
790.5, 48.72047871432561
791, 48.572478024619826
791.5, 48.46706732077522
792, 48.418874695626535
792.4999999999999, 48.3897675640882
792.9999999999999, 48.34938539253014
793.5, 48.28352830204662
794, 48.21369821998439
794.5, 48.14895163572378
794.9999999999999, 48.07119034666398
795.4999999999999, 47.96712662475639
795.9999999999999, 47.83579335935109
796.5, 47.729067764303316
797, 47.69652620148987
797.4999999999999, 47.65364139096272
797.9999999999999, 47.535265949185074
798.4999999999999, 47.420795136076556
798.9999999999999, 47.356365441858074
799.5, 47.308851041828426
800, 47.25816878346905
800.4999999999999, 47.2001447525586
800.9999999999999, 47.12779310993031
801.4999999999999, 47.03956751039037
801.9999999999999, 46.9647570140003
802.5, 46.92619461397021
803, 46.91086863427407
803.4999999999999, 46.89693038655045
803.9999999999999, 46.859572283099105
804.4999999999999, 46.80565544208436
805, 46.761702649544446
805.5, 46.70588257600985
806, 46.60905987014578
806.4999999999999, 46.50736944937858
806.9999999999999, 46.435777854181595
807.4999999999999, 46.38728892118754
808, 46.34035772346911
808.5, 46.26505297547064
809, 46.17826893015102
809.4999999999999, 46.12398434272491
809.9999999999999, 46.073918483013884
810.4999999999999, 45.98835529055504
811, 45.91208956798052
811.5, 45.87845820915344
812, 45.850144964206244
812.4999999999999, 45.7998297595892
812.9999999999999, 45.725648079989526
813.4999999999999, 45.639215701298696
814, 45.56018003576252
814.5, 45.502622515813584
815, 45.47523222018809
815.4999999999999, 45.475641922171114
815.9999999999999, 45.49353615041935
816.4999999999999, 45.507330803508474
817, 45.4920161959432
817.5, 45.42423455799319
818, 45.33528203051765
818.4999999999999, 45.28486802430967
818.9999999999999, 45.26241172578683
819.4999999999999, 45.234601138053804
820, 45.19104334090315
820.5, 45.13736403566784
821, 45.100217043035556
821.4999999999999, 45.08611379789857
821.9999999999999, 45.07578231831069
822.4999999999999, 45.05693540733449
823, 45.02534451444369
823.5, 44.991287757219595
823.9999999999999, 44.9685251763337
824.4999999999999, 44.96337938857718
824.9999999999999, 44.96779408420191
825.4999999999999, 44.9504376858286
826, 44.912861098957585
826.5, 44.893611378489105
826.9999999999999, 44.90053865306217
827.4999999999999, 44.91954691288643
827.9999999999999, 44.933163912672555
828.4999999999999, 44.93188550262004
829, 44.93571927580208
829.5, 44.95414179152283
829.9999999999999, 44.96682099068226
830.4999999999999, 44.965195364149764
830.9999999999999, 44.95747766902308
831.4999999999999, 44.96067807533178
832, 44.99036825755919
832.5, 45.025173943162365
832.9999999999999, 45.04274497426576
833.4999999999999, 45.05861293838245
833.9999999999999, 45.08951089337589
834.4999999999999, 45.14043290960351
835, 45.19298273962936
835.5, 45.21050113051036
835.9999999999999, 45.203626009317965
836.4999999999999, 45.207945781426105
836.9999999999999, 45.23741299859867
837.4999999999999, 45.28935192131236
838, 45.334258424502664
838.5, 45.363787685018
838.9999999999999, 45.41266787496938
839.4999999999999, 45.50057238407181
839.9999999999999, 45.62404211138257
840.4999999999999, 45.73677986164694
841, 45.78959129573152
841.5, 45.8432259111998
841.9999999999999, 45.95641798788224
842.4999999999999, 46.08164912415613
842.9999999999999, 46.1821909328704
843.4999999999999, 46.268583975936515
844, 46.35149839689876
844.5, 46.43859051824815
844.9999999999999, 46.54584510136446
845.4999999999999, 46.68332927397246
845.9999999999999, 46.80889550205981
846.4999999999999, 46.87710839364676
847, 46.87773225458695
847.5, 46.83726827198916
847.9999999999999, 46.82623401954975
848.4999999999999, 46.8500946910692
848.9999999999999, 46.86043480693176
849.4999999999999, 46.88230170873569
850, 46.96042803935909
850.5, 47.045405461082346
850.9999999999999, 47.101635241574016
851.4999999999999, 47.19947483434372
851.9999999999999, 47.3574371882899
852.4999999999999, 47.495900760591915
853, 47.58789485054488
853.5, 47.65797783345381
853.9999999999999, 47.72349874277956
854.4999999999999, 47.792961459504426
854.9999999999999, 47.8553625267988
855.4999999999999, 47.9042963825177
856, 47.957850081885645
856.5, 48.025314681322456
856.9999999999999, 48.099114963001604
857.4999999999999, 48.184243684390616
857.9999999999999, 48.29384273471915
858.4999999999999, 48.4143384376561
859, 48.52277749161272
859.5, 48.611615536685875
859.9999999999999, 48.68088624600094
860.4999999999999, 48.73890757261413
860.9999999999999, 48.8028730782926
861.4999999999999, 48.8984436029358
862, 49.021218077170474
862.5, 49.14448485300317
862.9999999999999, 49.25728140583033
863.4999999999999, 49.36380218363132
863.9999999999999, 49.49908826444227
864.4999999999999, 49.672660218376166
865, 49.82066715437125
865.5, 49.93086809558602
865.9999999999999, 50.067310916219114
866.4999999999999, 50.24314620754777
866.9999999999999, 50.42759794844753
867.4999999999999, 50.58074212299971
868, 50.68577324694803
868.5, 50.82876484111158
868.9999999999999, 51.05249301679885
869.4999999999999, 51.25549640853759
869.9999999999999, 51.39895117466935
870.4999999999999, 51.54271777539417
871, 51.716708635856726
871.5, 51.91664308407769
871.9999999999999, 52.08459938392053
872.4999999999999, 52.178665783842426
872.9999999999999, 52.29749842478742
873.4999999999999, 52.50086540239855
874, 52.7035413347531
874.5, 52.85136966787367
874.9999999999999, 52.95409360831953
875.4999999999999, 53.09682812565503
875.9999999999999, 53.37753945028267
876.4999999999999, 53.651442826993424
877, 53.762296601333986
877.5, 53.855765762489476
877.9999999999999, 54.06200865713325
878.4999999999999, 54.34943479650134
878.9999999999999, 54.64135822486796
879.4999999999999, 54.84113852239126
880, 54.974522134370496
880.5, 55.14292767555084
880.9999999999999, 55.403862359271045
881.4999999999999, 55.74821690496604
881.9999999999999, 56.003211815723354
882.4999999999999, 56.10508088674137
883, 56.2534813313203
883.5, 56.519547165558
883.9999999999999, 56.8065042029799
884.4999999999999, 57.066421070206765
884.9999999999999, 57.29596931495472
885.4999999999999, 57.53756761482745
886, 57.816976259423505
886.5, 58.054827486572876
886.9999999999999, 58.2063616697791
887.4999999999999, 58.32656283588438
887.9999999999999, 58.47645045940939
888.4999999999999, 58.70219294259869
889, 58.938165183138345
889.5, 59.093615850527755
889.9999999999999, 59.319538740324816
890.4999999999999, 59.76689476480825
890.9999999999999, 60.32943823059959
891.4999999999999, 60.84517668310741
892, 61.15303384425067
892.5, 61.39051670181377
892.9999999999999, 61.94066620116297
893.4999999999999, 62.62933384703245
893.9999999999999, 63.043562614672716
894.4999999999999, 63.279201357686226
895, 63.53690335688552
895.5, 63.827276864303414
895.9999999999999, 64.11801370524162
896.4999999999999, 64.3657489562894
896.9999999999999, 64.59337514605828
897.4999999999999, 64.8811112651198
898, 65.2367123229188
898.5, 65.61643209412543
898.9999999999999, 65.92907329368553
899.4999999999999, 66.128648934222
899.9999999999999, 66.33472903551734
900.4999999999999, 66.64357694893101
901, 67.06361970325574
901.5, 67.47242201025851
901.9999999999999, 67.67337798770802
902.4999999999999, 67.83277228903522
902.9999999999999, 68.21591599986868
903.4999999999999, 68.61452457057257
904, 68.8132005250663
904.5, 68.95539363417669
904.9999999999999, 69.16790713003765
905.4999999999999, 69.46029367018143
905.9999999999999, 69.76736431429555
906.4999999999999, 69.9858131747792
907, 70.18137225441147
907.4999999999999, 70.47260623154162
907.9999999999999, 70.81703181152834
908.4999999999999, 71.13640575197219
908.9999999999999, 71.38110199552288
909.4999999999999, 71.58317084137249
910, 71.8772322161446
910.4999999999999, 72.24497178709932
910.9999999999999, 72.5491796079421
911.4999999999999, 72.79799431796692
911.9999999999999, 73.06326842691706
912.4999999999999, 73.37371855900568
913, 73.7183697032107
913.4999999999999, 74.02091970510148
913.9999999999999, 74.26424123443742
914.4999999999999, 74.5237615667967
914.9999999999999, 74.83417156668936
915.4999999999999, 75.18415481301298
916, 75.50485700115702
916.4999999999999, 75.73832689148206
916.9999999999999, 75.98243393915031
917.4999999999999, 76.31347791284404
917.9999999999999, 76.66491889888903
918.4999999999999, 76.96984143458609
919, 77.19409432402267
919.4999999999999, 77.4066375887456
919.9999999999999, 77.72661069376453
920.4999999999999, 78.06230869725155
920.9999999999999, 78.28577407173117
921.4999999999999, 78.50458017221457
922, 78.80698946494014
922.4999999999999, 79.11073358208354
922.9999999999999, 79.34597919804781
923.4999999999999, 79.49474164207155
923.9999999999999, 79.64330446641348
924.4999999999999, 79.9209571199472
925, 80.22900391835663
925.4999999999999, 80.42779162417168
925.9999999999999, 80.59564861873572
926.4999999999999, 80.82018736221859
926.9999999999999, 81.09941883570433
927.4999999999999, 81.40488452337397
928, 81.68979828225422
928.4999999999999, 81.90888656715003
928.9999999999999, 82.04412068084658
929.4999999999999, 82.2471823446225
929.9999999999999, 82.64044602858012
930.4999999999999, 82.99106715043405
931, 83.16222861240131
931.4999999999999, 83.3653157397711
931.9999999999999, 83.66619518132505
932.4999999999999, 83.92307193176183
932.9999999999999, 84.12683582031485
933.4999999999999, 84.35352509644063
934, 84.59094209238967
934.4999999999999, 84.80174588400476
934.9999999999999, 84.983627020162
935.4999999999999, 85.15875735338692
935.9999999999999, 85.38064142891493
936.4999999999999, 85.67033969150762
937, 86.0033977551718
937.4999999999999, 86.29244033353376
937.9999999999999, 86.44787189193967
938.4999999999999, 86.60696417072052
938.9999999999999, 86.89972475725152
939.4999999999999, 87.15530156503107
940, 87.27881751500003
940.4999999999999, 87.42340431726046
940.9999999999999, 87.63563993099025
941.4999999999999, 87.82961771188933
941.9999999999999, 88.03342248733397
942.4999999999999, 88.32078575718556
943, 88.59210979102924
943.4999999999999, 88.74254743157121
943.9999999999999, 88.8446136578799
944.4999999999999, 88.96213929781831
944.9999999999999, 89.08328748186044
945.4999999999999, 89.19963412843683
946, 89.31777357781074
946.4999999999999, 89.48265149252113
946.9999999999999, 89.739376277999
947.4999999999999, 90.00984474159634
947.9999999999999, 90.20242928182553
948.4999999999999, 90.31095902492982
949, 90.3932063049081
949.4999999999999, 90.58011797191568
949.9999999999999, 90.83192561956757
950.4999999999999, 90.95926668177525
950.9999999999999, 91.02678722566296
951.4999999999999, 91.2034339085063
952, 91.41974241848462
952.4999999999999, 91.58385454417673
952.9999999999999, 91.76086528564528
953.4999999999999, 91.99527280089198
953.9999999999999, 92.25326485430921
954.4999999999999, 92.48640834429632
955, 92.64761951192074
955.4999999999999, 92.76975186363161
955.9999999999999, 92.92289365795763
956.4999999999999, 93.14313792632281
956.9999999999999, 93.41414529424225
957.4999999999999, 93.60835615032387
958, 93.69557575115113
958.4999999999999, 93.81801222496097
958.9999999999999, 93.99720150474938
959.4999999999999, 94.1416832915669
959.9999999999999, 94.24537950969311
960.4999999999999, 94.35260615832247
961, 94.52252386483201
961.4999999999999, 94.76753426911415
961.9999999999999, 94.96982382223494
962.4999999999999, 95.08051994500616
962.9999999999999, 95.17859459343772
963.4999999999999, 95.2626266070452
964, 95.26644053285857
964.4999999999999, 95.24187448732216
964.9999999999999, 95.27613792499835
965.4999999999999, 95.34282078439345
965.9999999999999, 95.43026953497187
966.4999999999999, 95.63939505944478
967, 95.94625549176453
967.4999999999999, 96.13974904419713
967.9999999999999, 96.23385431565242
968.4999999999999, 96.41435614388305
968.9999999999999, 96.64871095503887
969.4999999999999, 96.81886224728005
970, 96.90283445780135
970.4999999999999, 96.92074543065759
970.9999999999999, 96.93022170702635
971.4999999999999, 96.96431792563521
971.9999999999999, 97.0149611397796
972.4999999999999, 97.06545436248099
973, 97.10165611722735
973.4999999999999, 97.16352613351945
973.9999999999999, 97.28154602360175
974.4999999999999, 97.34645421620138
974.9999999999999, 97.34701397591046
975.4999999999999, 97.56476455691543
976, 97.99239109423701
976.4999999999999, 98.22157568538445
976.9999999999999, 98.22381242879933
977.4999999999999, 98.24557074599596
977.9999999999999, 98.27537125864535
978.4999999999999, 98.22844919422054
979, 98.18888086622849
979.4999999999999, 98.22446131905312
979.9999999999999, 98.28120494679077
980.4999999999999, 98.35459482293395
980.9999999999999, 98.51199813887509
981.4999999999999, 98.69211927410028
982, 98.76682164808915
982.4999999999999, 98.81857485716641
982.9999999999999, 98.96484296850886
983.4999999999999, 99.12222398324336
983.9999999999999, 99.21655034258852
984.4999999999999, 99.28727788821097
985, 99.34912697815889
985.4999999999999, 99.37301740045598
985.9999999999999, 99.36048300490155
986.4999999999999, 99.33647774166452
986.9999999999999, 99.32692037305608
987.4999999999999, 99.34839524374998
988, 99.38394188050111
988.4999999999999, 99.41451434719734
988.9999999999999, 99.43160593626479
989.4999999999999, 99.43076512438698
989.9999999999999, 99.41136294051242
990.4999999999999, 99.38005193281765
991, 99.34994152582192
991.4999999999999, 99.34472131183146
991.9999999999999, 99.3736462698296
992.4999999999999, 99.38443575424822
992.9999999999999, 99.35978785435861
993.4999999999999, 99.36962140783015
993.9999999999999, 99.41150101519558
994.4999999999999, 99.40297453566738
994.9999999999999, 99.37480054727493
995.4999999999999, 99.40834262873416
995.9999999999999, 99.43808272453121
996.4999999999999, 99.37453283179808
996.9999999999999, 99.2255982801024
997.4999999999999, 99.09182118910032
997.9999999999999, 99.19109156093613
998.4999999999999, 99.38743728342155
998.9999999999999, 99.2261533193743
999.4999999999999, 98.96969244584012
999.9999999999999, 99.16157895211688
1000.4999999999999, 99.38942106658584
1000.9999999999999, 99.18181982987673
1001.4999999999999, 98.9092953139589
1001.9999999999999, 98.89123662446639
1002.4999999999999, 99.07806054446905
1002.9999999999999, 99.28225288952619
1003.4999999999999, 99.24590566070017
1003.9999999999999, 99.03813512623408
1004.4999999999999, 98.88666342984848
1004.9999999999999, 98.82584665621428
1005.4999999999999, 98.81859922302826
1005.9999999999999, 98.81000990584536
1006.4999999999999, 98.77464397564938
1006.9999999999999, 98.74112616690554
1007.4999999999999, 98.74382860598097
1007.9999999999999, 98.81205197168312
1008.4999999999999, 98.91915022081834
1008.9999999999999, 98.9994695868723
1009.4999999999999, 98.94916599201322
1009.9999999999999, 98.73709124326304
1010.4999999999999, 98.56489551766958
1010.9999999999999, 98.52241061232708
1011.4999999999999, 98.46620996166727
1011.9999999999999, 98.37417842328422
1012.4999999999999, 98.33853188718112
1012.9999999999999, 98.29531439411511
1013.4999999999999, 98.14002449508575
1013.9999999999999, 97.99170024827842
1014.4999999999999, 97.95865634796762
1014.9999999999999, 97.94228032645879
1015.4999999999999, 97.88292919785377
1015.9999999999999, 97.82822863400095
1016.4999999999999, 97.7762368306122
1016.9999999999999, 97.67675042740957
1017.4999999999999, 97.51112884719646
1017.9999999999999, 97.29570756291926
1018.4999999999999, 97.12876700224938
1018.9999999999999, 97.07867132425443
1019.4999999999999, 97.07830110926177
1019.9999999999999, 97.03192018644201
1020.4999999999999, 96.84348689238723
1020.9999999999999, 96.60155799500002
1021.4999999999999, 96.50931069259978
1021.9999999999999, 96.419537143224
1022.4999999999999, 96.11557735602413
1022.9999999999999, 95.84406488494568
1023.4999999999999, 95.79895090909726
1023.9999999999999, 95.74288799158786
1024.5, 95.56176387442899
1025, 95.392881655672
1025.5, 95.24969550567823
1026, 95.0485033476187
1026.5, 94.8536125537054
1027, 94.75875299421351
1027.5, 94.68266566794829
1028, 94.55909507592882
1028.5, 94.46012842392514
1029, 94.3882790094739
1029.5, 94.23610353611228
1030, 94.02085596228486
1030.5, 93.85059830924881
1031, 93.7400141485477
1031.5, 93.64310517974033
1032, 93.44505556285273
1032.5, 93.12263810089284
1033, 92.88756503997968
1033.5, 92.8045226084036
1034, 92.72053523446007
1034.5, 92.61407087932169
1035, 92.55945074366386
1035.5, 92.5382948155544
1036, 92.49487426509465
1036.5, 92.38754851964595
1037, 92.20661724376248
1037.5, 92.00216942088706
1038, 91.81693203871117
1038.5, 91.66944128357909
1039, 91.49753057270712
1039.5, 91.21056305334498
1040, 90.90828193101233
1040.5, 90.7183590300919
1041, 90.58481302733927
1041.5, 90.4288241019315
1042, 90.21109449544403
1042.5, 89.95201929221724
1043, 89.73086884907528
1043.5, 89.55941262882199
1044, 89.40142666135695
1044.5, 89.22514846127224
1045, 89.01887007820035
1045.5, 88.83238160924648
1046, 88.69681705327794
1046.5, 88.58227507390353
1047, 88.46554882918936
1047.5, 88.33778765993056
1048, 88.17922860833887
1048.5, 87.97128279372349
1049, 87.74906957958262
1049.5, 87.561512521742
1050, 87.43605630621505
1050.5, 87.33882826318921
1051, 87.13551754572538
1051.5, 86.80120881388508
1052, 86.44055579924493
1052.5, 86.16373428682412
1053, 86.037391202796
1053.5, 85.88035818092658
1054, 85.54682661472714
1054.5, 85.27676281663229
1055, 85.19152189633627
1055.5, 85.07840958129935
1056, 84.89478808152994
1056.5, 84.7911496607821
1057, 84.73799145808384
1057.5, 84.61256628058368
1058, 84.40609748756548
1058.5, 84.14746307577813
1059, 83.86049401317638
1059.5, 83.58287018566439
1060, 83.37247758478014
1060.5, 83.18162499935045
1061, 82.87529421561605
1061.5, 82.50695705750587
1062, 82.21934853642153
1062.5, 82.04120798616171
1063, 81.93563595727642
1063.5, 81.78707162589257
1064, 81.55959110817552
1064.5, 81.36241112042913
1065, 81.1871822995024
1065.5, 80.91699571645209
1066, 80.57879286406344
1066.5, 80.27225969142256
1067, 80.0513518334544
1067.5, 79.91160306726475
1068, 79.73062303705034
1068.5, 79.45699601752348
1069, 79.17953817688354
1069.5, 78.98835674822251
1070, 78.93824205215004
1070.5, 78.85431398644354
1071, 78.53308733165903
1071.5, 78.20752997078222
1072, 78.09419179559819
1072.5, 78.03373359787965
1073, 77.91332777953313
1073.5, 77.77650449623172
1074, 77.643899878253
1074.5, 77.5050460786203
1075, 77.34768166167811
1075.5, 77.15642375375064
1076, 76.90364899300899
1076.5, 76.59396875714165
1077, 76.31877299975596
1077.5, 76.10828509943995
1078, 75.89079712370886
1078.5, 75.65190178898348
1079, 75.42918865702781
1079.5, 75.24227971101004
1080, 75.10149009702064
1080.5, 75.01769454231658
1081, 74.96738371839439
1081.5, 74.84751456487093
1082, 74.63687192203383
1082.5, 74.4333713242095
1083, 74.21609339917663
1083.5, 73.88888298267798
1084, 73.55835516317848
1084.5, 73.367982201115
1085, 73.22456860642475
1085.5, 73.0378111948292
1086, 72.85999529279019
1086.5, 72.72750645975594
1087, 72.62787116729473
1087.5, 72.50780255553315
1088, 72.3034587606553
1088.5, 72.08302635963875
1089, 71.94256130484145
1089.5, 71.85866825123605
1090, 71.75484353865835
1090.5, 71.50816925647985
1091, 71.17919488484418
1091.5, 71.04004248804237
1092, 71.01977220457388
1092.5, 70.8326268129456
1093, 70.5146692579298
1093.5, 70.21673101353187
1094, 70.00294804390009
1094.5, 69.8634414799485
1095, 69.68067408797131
1095.5, 69.43495946368675
1096, 69.23440335710475
1096.5, 69.12172947907132
1097, 69.08415539135709
1097.5, 69.0810445101899
1098, 69.05275891534635
1098.5, 68.91133290520557
1099, 68.65885456856881
1099.5, 68.48086542362024
1100, 68.38480523282253
1100.5, 68.16977701654253
1101, 67.88395679847169
1101.5, 67.7158505322906
1102, 67.63516300135703
1102.5, 67.5404452427833
1103, 67.37833199698895
1103.5, 67.16341270140347
1104, 67.01355487260088
1104.5, 66.89624618719253
1105, 66.62365915241651
1105.5, 66.26741145932439
1106, 66.02858320965584
1106.5, 65.85339421076912
1107, 65.64429321348965
1107.5, 65.46589644785337
1108, 65.36416255996164
1108.5, 65.29423247797183
1109, 65.24361799825948
1109.5, 65.2331321075126
1110, 65.1654090610181
1110.5, 64.91833539222782
1111, 64.64711105914762
1111.5, 64.50986106323904
1112, 64.37684990393453
1112.5, 64.15716139662882
1113, 63.92071882821354
1113.5, 63.72292202296427
1114, 63.58378556213612
1114.5, 63.475476649104685
1115, 63.35876188779682
1115.5, 63.279997454881816
1116, 63.270251056177464
1116.5, 63.23305831253842
1117, 63.10347935563047
1117.5, 62.908101006881886
1118, 62.70303794107967
1118.5, 62.55613707737263
1119, 62.451832288142384
1119.5, 62.33405117952505
1120, 62.1824198610793
1120.5, 62.013434642015135
1121, 61.91225373657823
1121.5, 61.854937739374435
1122, 61.638144791788676
1122.5, 61.29275580125169
1123, 61.05538494609603
1123.5, 60.920123896656854
1124, 60.771708616201046
1124.5, 60.62235834774307
1125, 60.5108204687814
1125.5, 60.442216420435535
1126, 60.39690802103609
1126.5, 60.327920605288185
1127, 60.22138036472672
1127.5, 60.09635428551698
1128, 59.984854086680386
1128.5, 59.903813543262004
1129, 59.772262995756634
1129.5, 59.5313100785164
1130, 59.24968154625608
1130.5, 59.006694911891564
1131, 58.86326362630728
1131.5, 58.79469853365859
1132, 58.71552485751885
1132.5, 58.631100906865825
1133, 58.573405180044965
1133.5, 58.48924568014613
1134, 58.34877578310064
1134.5, 58.23390391458492
1135, 58.16046965311751
1135.5, 58.035179591266356
1136, 57.856408889424564
1136.5, 57.69492488887839
1137, 57.54997310376484
1137.5, 57.40125631649076
1138, 57.29268281986149
1138.5, 57.22816645604569
1139, 57.08322617147002
1139.5, 56.84905874258036
1140, 56.68516307826733
1140.5, 56.60319550820632
1141, 56.50246988069353
1141.5, 56.37619128017123
1142, 56.26023695827353
1142.5, 56.185583693530674
1143, 56.173169056352734
1143.5, 56.223579162317606
1144, 56.29845786660363
1144.5, 56.31677605655228
1145, 56.24786054234525
1145.5, 56.10708401084807
1146, 55.95350982679081
1146.5, 55.83300503042623
1147, 55.671506975750354
1147.5, 55.440685910419006
1148, 55.26628782927547
1148.5, 55.192450410295045
1149, 55.14335445666911
1149.5, 55.09253355869889
1150, 55.04954259345281
1150.5, 54.99212704449652
1151, 54.88606285942782
1151.5, 54.702967914493
1152, 54.46874434512936
1152.5, 54.3117051014265
1153, 54.22821472512713
1153.5, 54.06105420516225
1154, 53.8486188226503
1154.5, 53.74402785090285
1155, 53.73358892984845
1155.5, 53.737457564169624
1156, 53.67830536450858
1156.5, 53.53873229276488
1157, 53.41352807703571
1157.5, 53.3364972369082
1158, 53.26135523112485
1158.5, 53.17470403512739
1159, 53.09059032696438
1159.5, 53.04086964662037
1160, 53.041703453935725
1160.5, 53.036427625454735
1161, 52.98747388597599
1161.5, 52.91982597567757
1162, 52.852750034937465
1162.5, 52.79065661586052
1163, 52.72181012716262
1163.5, 52.629338447211026
1164, 52.52299865046669
1164.5, 52.41939947037674
1165, 52.32632437853388
1165.5, 52.232690925487454
1166, 52.09945458464587
1166.5, 51.94254536609738
1167, 51.83061475894799
1167.5, 51.75824227981857
1168, 51.684391341239106
1168.5, 51.62679684284651
1169, 51.60001781144448
1169.5, 51.548982471178746
1170, 51.45812385233525
1170.5, 51.39686120286562
1171, 51.3537560087838
1171.5, 51.24180381923431
1172, 51.10024684576819
1172.5, 51.01917523803409
1173, 50.962147438002404
1173.5, 50.87859082427776
1174, 50.79589133200541
1174.5, 50.73089203076066
1175, 50.66154735347033
1175.5, 50.57585189409377
1176, 50.47594494744345
1176.5, 50.375938882325734
1177, 50.290726394915026
1177.5, 50.20755421410307
1178, 50.118292287325225
1178.5, 50.05053184183863
1179, 50.01740264595318
1179.5, 49.9996809386557
1180, 49.96538231602748
1180.5, 49.876258644305004
1181, 49.719357340412124
1181.5, 49.50925417903701
1182, 49.326792846900354
1182.5, 49.2166541645835
1183, 49.080453456701726
1183.5, 48.89892795982366
1184, 48.79745202818156
1184.5, 48.78089170669319
1185, 48.74912522173708
1185.5, 48.68971485651
1186, 48.63281456101947
1186.5, 48.59183101563783
1187, 48.555278429337605
1187.5, 48.46334506714137
1188, 48.319332695753204
1188.5, 48.221606571726774
1189, 48.183504290706885
1189.5, 48.14597767376048
1190, 48.088172037874955
1190.5, 48.015186241538125
1191, 47.9593432420023
1191.5, 47.94058478843418
1192, 47.93195572907889
1192.5, 47.88855399129038
1193, 47.75742565970144
1193.5, 47.59875093812648
1194, 47.544225437187606
1194.5, 47.57552287588476
1195, 47.61589248864415
1195.5, 47.63827188815849
1196, 47.63861859129206
1196.5, 47.63527718415469
1197, 47.62260238980563
1197.5, 47.56319672184255
1198, 47.47230357561543
1198.5, 47.40191824018051
1199, 47.36547791152282
1199.5, 47.3577641569973
1200, 47.3690318925244
1200.5, 47.37825407128062
1201, 47.34334007803492
1201.5, 47.255518818580676
1202, 47.150250710287395
1202.5, 47.0512989254583
1203, 46.970786984387274
1203.5, 46.91404345706919
1203.9999999999998, 46.87904958081591
1204.5, 46.846773587483426
1205, 46.800049428572265
1205.5, 46.73430501864907
1206, 46.66436341602149
1206.4999999999998, 46.62264682370949
1207, 46.59219200960512
1207.4999999999998, 46.53064800018146
1208, 46.46234666172253
1208.5, 46.42373142624711
1209, 46.3978142663195
1209.5, 46.355557382985424
1209.9999999999998, 46.26922174343909
1210.5, 46.16184182589979
1211, 46.10960673992077
1211.5, 46.12740341940907
1212, 46.18343852021399
1212.4999999999998, 46.225255124339306
1213, 46.21486801605585
1213.4999999999998, 46.18865497587538
1214, 46.16372019475202
1214.5, 46.093221758394904
1215, 45.98525068858896
1215.5, 45.91021806392508
1215.9999999999998, 45.86913103027058
1216.5, 45.82599121555458
1217, 45.80388046590406
1217.5, 45.823910546374755
1218, 45.83048252763886
1218.4999999999998, 45.79442041318404
1219, 45.76094299683416
1219.4999999999998, 45.747233935118466
1220, 45.73392963656468
1220.5, 45.715860651012115
1220.9999999999998, 45.69395551336715
1221.5, 45.647827812797466
1221.9999999999998, 45.565168236091885
1222.5, 45.48137849600191
1223, 45.42717460761987
1223.5, 45.408601134779104
1224, 45.412374311627865
1224.4999999999998, 45.41138619241459
1225, 45.41217161087925
1225.4999999999998, 45.432628919604035
1226, 45.442577611473396
1226.5, 45.420686571301694
1226.9999999999998, 45.41823369753329
1227.5, 45.455833102482124
1227.9999999999998, 45.48221649735256
1228.5, 45.460609422766204
1229, 45.381280784820454
1229.5, 45.29753873610736
1230, 45.27858053294718
1230.4999999999998, 45.295098369517994
1231, 45.30758801574278
1231.4999999999998, 45.33562122680261
1232, 45.375851009334276
1232.5, 45.37511247639588
1232.9999999999998, 45.3341085863685
1233.5, 45.30340794672597
1233.9999999999998, 45.293436381119655
1234.5, 45.29258549656101
1235, 45.29312125274584
1235.5, 45.28439787841566
1236, 45.24510070999024
1236.4999999999998, 45.17540250044598
1237, 45.109673237468634
1237.4999999999998, 45.062531630066665
1238, 45.02787908594114
1238.5, 44.99468816353332
1238.9999999999998, 44.95122692997416
1239.5, 44.89264476961351
1239.9999999999998, 44.82308659256304
1240.5, 44.76428402042517
1241, 44.730110291966085
1241.5, 44.71864607155802
1242, 44.721291776305456
1242.4999999999998, 44.72536040194625
1243, 44.72280291305822
1243.4999999999998, 44.71422789323178
1244, 44.72800216516092
1244.5, 44.795083429717046
1244.9999999999998, 44.93308014234037
1245.5, 45.110063230782764
1245.9999999999998, 45.23169100045649
1246.5, 45.26541759763941
1247, 45.2370306239781
1247.5, 45.20331069161489
1248, 45.214521537075946
1248.4999999999998, 45.23505267263155
1249, 45.22458566960534
1249.4999999999998, 45.18455094097014
1250, 45.13160317328859
1250.5, 45.09374543057818
1250.9999999999998, 45.08227530583193
1251.5, 45.09338296749024
1251.9999999999998, 45.112987352385574
1252.5, 45.13329064030162
1253, 45.18933530629787
1253.5, 45.26665056689519
1254, 45.22140154022229
1254.4999999999998, 45.050847078109456
1255, 44.94267243083039
1255.4999999999998, 44.91053379176914
1256, 44.849867412902356
1256.5, 44.81286636073344
1256.9999999999998, 44.88091341927761
1257.5, 44.98253695199067
1257.9999999999998, 45.03248599586078
1258.5, 44.99547078602434
1259, 44.901706275295936
1259.5, 44.8474698997189
1260, 44.84257116551489
1260.4999999999998, 44.83940064660323
1261, 44.84318750075172
1261.4999999999998, 44.872348735473004
1262, 44.91176895899384
1262.5, 44.94607295299342
1262.9999999999998, 44.974622285906435
1263.5, 44.9919215489307
1263.9999999999998, 44.98625127810574
1264.5, 44.965871006341494
1265, 44.952509596263596
1265.5, 44.96420040610174
1266, 45.00324016696169
1266.4999999999998, 45.02314624279072
1267, 45.00322552659916
1267.4999999999998, 44.991564708569626
1268, 44.99592049519617
1268.5, 44.974171492968466
1268.9999999999998, 44.93662485611719
1269.5, 44.92667700742557
1269.9999999999998, 44.967232724788936
1270.5, 45.04870851861119
1271, 45.08112391121563
1271.5, 45.01644643991781
1272, 44.914541799747184
1272.4999999999998, 44.830180393358454
1273, 44.796666535655504
1273.4999999999998, 44.80928497969205
1274, 44.84140980382286
1274.5, 44.87514830583626
1274.9999999999998, 44.904176768153086
1275.5, 44.947980398665884
1275.9999999999998, 45.00456508112024
1276.5, 45.026541764929
1277, 45.00382329094352
1277.5, 44.96824081798294
1278, 44.93583166331733
1278.4999999999998, 44.91198100255498
1279, 44.90264597344688
1279.4999999999998, 44.89928708326326
1280, 44.84990719389578
1280.5, 44.75508040311671
1280.9999999999998, 44.71432823039359
1281.5, 44.742505533532594
1281.9999999999998, 44.76918747453761
1282.5, 44.80660447307919
1283, 44.8958670531099
1283.5, 44.96653319024797
1284, 44.955697009814465
1284.4999999999998, 44.92629360979206
1285, 44.91452808214003
1285.4999999999998, 44.879214665018765
1286, 44.824240282363846
1286.5, 44.798758167212874
1286.9999999999998, 44.81070845724486
1287.5, 44.843364925871114
1287.9999999999998, 44.87622226320792
1288.5, 44.895106469923626
1289, 44.90673480859874
1289.5, 44.957549880250454
1290, 45.141125347737706
1290.4999999999998, 45.374666974575334
1291, 45.4403404012306
1291.4999999999998, 45.38610061276162
1292, 45.36964012235498
1292.5, 45.38559732462888
1292.9999999999998, 45.399073088976884
1293.5, 45.42506359330771
1293.9999999999998, 45.46252445214337
1294.5, 45.47681233990409
1295, 45.472587855832295
1295.5, 45.48558926522634
1296, 45.50318168123263
1296.4999999999998, 45.495482381525456
1297, 45.468391782335225
1297.4999999999998, 45.43505201227367
1298, 45.40120144246582
1298.5, 45.36814582145216
1298.9999999999998, 45.33290465052842
1299.5, 45.29952170950939
1299.9999999999998, 45.276904197700695
1300.5, 45.26345634147008
1301, 45.251252887635225
1301.5, 45.22749322319084
1302, 45.198951880649474
1302.4999999999998, 45.220669371314735
1303, 45.29515385711308
1303.4999999999998, 45.347082627863465
1304, 45.354866786675444
1304.5, 45.3429507225536
1304.9999999999998, 45.323441572865605
1305.5, 45.30306193938229
1305.9999999999998, 45.29242909762372
1306.5, 45.2939658233747
1307, 45.28953523760943
1307.4999999999998, 45.271746978491876
1308, 45.25083261011641
1308.5, 45.23510611017827
1309, 45.22962992560204
1309.5, 45.23318670308154
1310, 45.23891061505795
1310.5, 45.228625547332925
1311, 45.185908565837806
1311.5, 45.104706651855615
1312, 45.00042299622589
1312.5, 44.911763552011
1313, 44.851202280561765
1313.5, 44.810733563306876
1314, 44.78201340246035
1314.5, 44.76012406377746
1315, 44.75268541749667
1315.5, 44.76619296104449
1316, 44.79838658433455
1316.5, 44.83427984408273
1317, 44.84734424536835
1317.5, 44.843073840574306
1318, 44.84489900873479
1318.5, 44.84218335858486
1319, 44.82792618357289
1319.5, 44.85729203720873
1320, 44.94741900227372
1320.5, 45.01463050711225
1321, 45.02550317764911
1321.5, 45.016061566119745
1322, 44.99702009574271
1322.5, 44.96301361659828
1323, 44.93155123332891
1323.5, 44.92326383339798
1324, 44.93893842138004
1324.5, 44.97208262934905
1325, 45.01045980287661
1325.5, 45.04400167120828
1326, 45.06653335166747
1326.5, 45.081157034589076
1327, 45.096040172901375
1327.5, 45.11447485190849
1328, 45.14093202413292
1328.5, 45.189317678261666
1329, 45.24822997149987
1329.5, 45.25916539820113
1330, 45.217855017303215
1330.5, 45.17834046843534
1331, 45.14719131363107
1331.5, 45.10711056987521
1332, 45.08239528544367
1332.5, 45.09559655051271
1333, 45.11863206101985
1333.5, 45.133547109294774
1334, 45.15563328585331
1334.5, 45.17420458603179
1335, 45.15418280293287
1335.5, 45.115760048897535
1336, 45.099910191162024
1336.5, 45.07907438891342
1337, 45.02632796300679
1337.5, 44.984284544357145
1338, 44.9939667970831
1338.5, 45.069032557204046
1339, 45.142351249017594
1339.5, 45.089515944208095
1340, 44.97047047736681
1340.5, 44.922612573150985
1341, 44.9356766403248
1341.5, 44.95848121535253
1342, 44.9590348074858
1342.5, 44.937569436805724
1343, 44.9379669343108
1343.5, 44.95937977483408
1344, 44.95973202051262
1344.5, 44.934904101952164
1345, 44.9011008041577
1345.5, 44.86868580931975
1346, 44.85420843852168
1346.5, 44.894867502746166
1347, 44.985284340605496
1347.5, 45.052173263470976
1348, 45.059980701295466
1348.5, 45.01826397566953
1349, 44.992084735186104
1349.5, 45.047171803399685
1350, 45.12179482141995
1350.5, 45.14787651961278
1351, 45.13565079750793
1351.5, 45.10213290221166
1352, 45.056214406969815
1352.5, 45.00507080382547
1353, 44.954335926403715
1353.5, 44.904455994657106
1354, 44.85398330327752
1354.5, 44.8044115618208
1355, 44.755561319607864
1355.5, 44.70147138160657
1356, 44.64853740814171
1356.5, 44.62068896845868
1357, 44.62689604009874
1357.5, 44.66255606123432
1358, 44.72132960408695
1358.5, 44.79270128762386
1359, 44.851286925940585
1359.5, 44.88436332365711
1360, 44.916839293988154
1360.5, 44.93994404573907
1361, 44.898348133445786
1361.5, 44.823056841119204
1362, 44.80125365182205
1362.5, 44.81263818097293
1363, 44.807668760567
1363.5, 44.81858514838308
1364, 44.86942362128758
1364.5, 44.92125441820883
1365, 44.967018564424855
1365.5, 45.04667655609278
1366, 45.13268371971181
1366.5, 45.157044896669625
1367, 45.14284800243855
1367.5, 45.13950082807749
1368, 45.14375245439299
1368.5, 45.126039970774585
1369, 45.02988072324674
1369.5, 44.86885626372593
1370, 44.74384020214924
1370.5, 44.71558307997133
1371, 44.79751405086589
1371.5, 44.90524425041973
1372, 44.949358855501394
1372.5, 44.968475351961416
1373, 44.99307038447398
1373.5, 44.97929752871028
1374, 44.92314009003124
1374.5, 44.87501071408533
1375, 44.84648812147912
1375.5, 44.82338544695377
1376, 44.81264298761533
1376.5, 44.82432992653226
1377, 44.84960312534095
1377.5, 44.88131178100314
1378, 44.922877241775126
1378.5, 44.95871304900761
1379, 44.953575790976615
1379.5, 44.91023497192244
1380, 44.8626396464256
1380.5, 44.87694868323617
1381, 44.99073655423282
1381.5, 45.108003584187706
1382, 45.18115574370265
1382.5, 45.2993517406899
1383, 45.444849851348124
1383.5, 45.47978804995101
1384, 45.39765263183526
1384.5, 45.278666289567695
1385, 45.2000953059399
1385.5, 45.20618535005755
1386, 45.24222925309256
1386.5, 45.26075729778214
1387, 45.26158709153068
1387.5, 45.2436370581663
1388, 45.203261597973324
1388.5, 45.17335557456275
1389, 45.19552548468941
1389.5, 45.23621427039236
1390, 45.25490382297492
1390.5, 45.26801074882337
1391, 45.286667729724435
1391.5, 45.29426302905257
1392, 45.25850341666352
1392.5, 45.14499746364715
1393, 45.02881290734667
1393.5, 45.021659912738244
1394, 45.09229206442422
1394.5, 45.163175661580006
1395, 45.16027832292582
1395.5, 45.08280109415091
1396, 45.043835345235784
1396.5, 45.07167258626646
1397, 45.10844184470497
1397.5, 45.140466424700655
1398, 45.17662935943119
1398.5, 45.205862260465544
1399, 45.21354592715664
1399.5, 45.19294279730067
1400, 45.15560127814629
