302.5, 30.242019923842477
303, 30.226674503993507
303.5, 30.289058455792286
304, 30.279472622524338
304.5, 30.286512533143593
305, 30.327516249255766
305.5, 30.353331141712374
306, 30.36543038630346
306.5, 30.38332389925165
307, 30.39720625761825
307.5, 30.397797830348352
308, 30.39490639546905
308.5, 30.39507061430551
309, 30.396738121253478
309.5, 30.39642632799125
310, 30.391672563466315
310.5, 30.39569452913014
311, 30.42298993799858
311.5, 30.464641464608945
312, 30.503410300719935
312.5, 30.517410147778747
313, 30.513136881655825
313.5, 30.531217748906812
314, 30.569423206614644
314.5, 30.595583815315834
315, 30.606042232712866
315.5, 30.60838773733539
316, 30.60468864403262
316.5, 30.60111668289109
317, 30.61455280625171
317.5, 30.635258704020742
318, 30.623887683218072
318.5, 30.60480749671315
319, 30.617174042631817
319.5, 30.642287105020955
320, 30.673140549936008
320.5, 30.70838645824297
321, 30.745058922080517
321.5, 30.760885987624903
322, 30.760121806776297
322.5, 30.746546480636553
323, 30.750723990015388
323.5, 30.778888257846234
324, 30.815250891603952
324.5, 30.852893349765665
325, 30.88770449538849
325.5, 30.906005216621466
326, 30.90601449763338
326.5, 30.90607393167369
327, 30.906908263684954
327.5, 30.90661054814153
328, 30.903778824784965
328.5, 30.906925587741895
329, 30.92908352129035
329.5, 30.985551411267238
330, 31.06183822449971
330.5, 31.08989010239189
331, 31.06470816665673
331.5, 31.05068637007078
332, 31.055951673039246
332.5, 31.056025225450583
333, 31.057003231661056
333.5, 31.070928057047382
334, 31.093325023193557
334.5, 31.1237951542836
335, 31.17375887940213
335.5, 31.226827720500594
336, 31.241999008518462
336.5, 31.236336918543515
337, 31.251568784455017
337.5, 31.267081826028843
338, 31.25476800930184
338.5, 31.22876395554451
339, 31.209029181419837
339.5, 31.211135491852502
340, 31.23090181472989
340.5, 31.247414809229497
341, 31.264513249855668
341.5, 31.29599202273603
342, 31.330164178905733
342.5, 31.358509109633346
343, 31.39565669086072
343.5, 31.42820702007721
344, 31.464126850564753
344.5, 31.498441773812715
345, 31.542088156160048
345.5, 31.56630702259487
346, 31.568612728007878
346.5, 31.56752471564593
347, 31.579943707822494
347.5, 31.608172308959297
348, 31.643877826882132
348.5, 31.667240346479502
349, 31.681735267173778
349.5, 31.709834947910664
350, 31.745450332856507
350.5, 31.769744411475713
351, 31.777363853392643
351.5, 31.774060538267236
352, 31.78369396705125
352.5, 31.817480639568032
353, 31.862849345799134
353.5, 31.8952863899229
354, 31.887849918468277
354.5, 31.86774311211478
355, 31.877156095534502
355.5, 31.901019407119833
356, 31.918233983125546
356.5, 31.93317741319278
357, 31.95004439219892
357.5, 31.96725439524647
358, 31.983864543741703
358.5, 32.0000029867667
359, 32.01714126584733
359.5, 32.03576098331375
360, 32.04931771842264
360.5, 32.051804722954955
361, 32.04334555020307
361.5, 32.03952296324947
362, 32.07282634961172
362.5, 32.12824275503456
363, 32.158358512739184
363.5, 32.16770766722182
364, 32.180767349855415
364.5, 32.20281345822313
365, 32.23421711506242
365.5, 32.27547468849855
366, 32.32584513273012
366.5, 32.38224993476459
367, 32.431201195259774
367.5, 32.455476033636415
368, 32.468250098604045
368.5, 32.487719689708655
369, 32.49872074350242
369.5, 32.50411864600507
370, 32.54340193400792
370.5, 32.59018495548965
371, 32.63895688851021
371.5, 32.67454864693245
372, 32.67980569715367
372.5, 32.678827040118634
373, 32.711062222405516
373.5, 32.75882979378913
374, 32.806879658381405
374.5, 32.848316798347454
375, 32.85758777397609
375.5, 32.867720644931666
376, 32.88684880069927
376.5, 32.88893258148549
377, 32.888994190492426
377.5, 32.90690501488291
378, 32.91962606016523
378.5, 32.916171038356495
379, 32.92759228910512
379.5, 32.96381811831711
380, 33.005083260090316
380.5, 33.03585676474414
381, 33.049568441890486
381.5, 33.07084511186741
382, 33.120921088695766
382.5, 33.169010309896535
383, 33.19909307016337
383.5, 33.24269747916463
384, 33.296784316159105
384.5, 33.319785469731315
385, 33.334400517379734
385.5, 33.39249323290741
386, 33.46352195552035
386.5, 33.503574966986506
387, 33.524502684755646
387.5, 33.541581588451464
388, 33.55605018544844
388.5, 33.57235080729018
389, 33.59902260987096
389.5, 33.635073786001186
390, 33.6728730550258
390.5, 33.70142007149455
391, 33.71645564543603
391.5, 33.73783199018031
392, 33.77319287819955
392.5, 33.80160955994246
393, 33.81637379835824
393.5, 33.828083784065285
394, 33.84710811813005
394.5, 33.87965784704811
395, 33.912740657003496
395.5, 33.939535219574566
396, 33.989767644842146
396.5, 34.063437660907454
397, 34.10299107043784
397.5, 34.112929520120545
398, 34.15684142603959
398.5, 34.23360583447395
399, 34.30802654273916
399.5, 34.36629795216594
400, 34.40436374883845
400.5, 34.42597721728154
401, 34.44087846719813
401.5, 34.46542009348367
402, 34.500839494667346
402.5, 34.5350471858433
403, 34.56825664437034
403.5, 34.60464761155191
404, 34.633672318309394
404.5, 34.64927121630181
405, 34.669242628411965
405.5, 34.703100002141554
406, 34.74168947430314
406.5, 34.77461435545074
407, 34.7938582229001
407.5, 34.809815325407385
408, 34.83845565346225
408.5, 34.8772376424631
409, 34.9232102090897
409.5, 34.98579251461584
410, 35.05672115772671
410.5, 35.10166615134254
411, 35.131069569945836
411.5, 35.162688675735055
412, 35.19710113983815
412.5, 35.23356660417127
413, 35.271408132137594
413.5, 35.3281978247698
414, 35.4027987732934
414.5, 35.46967180737913
415, 35.54208257902981
415.5, 35.608921153860365
416, 35.689795460159075
416.5, 35.74119746368956
417, 35.78194779133737
417.5, 35.803903314087066
418, 35.81100341764353
418.5, 35.8590206554685
419, 35.95041133828711
419.5, 36.01099174681251
420, 36.036486458871664
420.5, 36.0758281131951
421, 36.13233945531597
421.5, 36.18843471154139
422, 36.22874579132701
422.5, 36.25594309029491
423, 36.310145493209944
423.5, 36.38423915099077
424, 36.40981945814851
424.5, 36.401565662891564
425, 36.43266175199727
425.5, 36.52377907275324
426, 36.58962813276776
426.5, 36.65679225244063
427, 36.711944702987815
427.5, 36.747071087448084
428, 36.7645298838276
428.5, 36.8352748490495
429, 36.927867186435954
429.5, 37.03218151025503
430, 37.12859532010754
430.5, 37.23706434754425
431, 37.28176758337888
431.5, 37.32219758370382
432, 37.4120235743913
432.5, 37.552554317619865
433, 37.68592465703
433.5, 37.775585437129806
434, 37.80869507512898
434.5, 37.81477503100781
435, 37.82915903445278
435.5, 37.84964471825241
436, 37.877591895195565
436.5, 37.93717881337911
437, 38.05557659462684
437.5, 38.252601212090774
438, 38.454289144656784
438.5, 38.54820141377217
439, 38.56580397803523
439.5, 38.57793133413875
440, 38.60412523390859
440.5, 38.640777206662406
441, 38.66228871004874
441.5, 38.675493769267305
442, 38.7210656618679
442.5, 38.7958576795442
443, 38.87032349626442
443.5, 38.92967075055458
444, 38.981150897972455
444.5, 39.0836083173172
445, 39.24408012102109
445.5, 39.3623308888815
446, 39.4028703109254
446.5, 39.409362653038066
447, 39.43098751639328
447.5, 39.51210332679623
448, 39.65528813396812
448.5, 39.75317295827623
449, 39.853361399381534
449.5, 39.94173989061843
450, 40.02537595687872
450.5, 40.0623091819042
451, 40.08195318865318
451.5, 40.12191301909913
452, 40.19787947221902
452.5, 40.31579987048925
453, 40.39814495932677
453.5, 40.48619376632457
454, 40.570834141713384
454.5, 40.674029264595305
455, 40.7494535287659
455.5, 40.76284780048995
456, 40.8091137658132
456.5, 40.986435717872226
457, 41.164132075916754
457.5, 41.21329243145379
458, 41.20627290841541
458.5, 41.23039616552647
459, 41.33883654232425
459.5, 41.500602331641105
460, 41.61984577993349
460.5, 41.68595813675183
461, 41.73338284335736
461.5, 41.788366776291205
462, 41.86694214958425
462.5, 41.96502561978506
463, 42.06813989745243
463.5, 42.15147171590958
464, 42.1960543402488
464.5, 42.19970649914016
465, 42.254066321340694
465.5, 42.34266711837629
466, 42.45309630750837
466.5, 42.562575048690356
467, 42.6670411496282
467.5, 42.7381731757058
468, 42.83454416121602
468.5, 42.97869314157029
469, 43.10049354832697
469.5, 43.18867732416039
470, 43.25989468521275
470.5, 43.32116538727501
471, 43.374198976306275
471.5, 43.41516948190064
472, 43.47360510443461
472.5, 43.56643074951749
473, 43.66240927856976
473.5, 43.77110382824974
474, 43.88045253458191
474.5, 44.06208022077941
475, 44.1635805842604
475.5, 44.19022667752686
476, 44.2415994774338
476.5, 44.34944240347348
477, 44.443025650783916
477.5, 44.502471604448004
478, 44.5538606100476
478.5, 44.63305078650972
479, 44.76271847628492
479.5, 44.89877988784121
480, 45.00294624592476
480.5, 45.08503346878715
481, 45.152134669980406
481.5, 45.20268487561634
482, 45.27322985987763
482.5, 45.34912597205039
483, 45.43229513718298
483.5, 45.52334522175796
484, 45.63251251190939
484.5, 45.77786581086911
485, 45.860231220733226
485.5, 45.88798939891927
486, 45.90632732501476
486.5, 45.922826357659495
487, 45.928232186530074
487.5, 45.98849770811113
488, 46.15460231154002
488.5, 46.31491964616446
489, 46.38666650021212
489.5, 46.41614714522169
490, 46.448043469265066
490.5, 46.50765053126231
491, 46.62150535218365
491.5, 46.803981939756994
492, 46.98310139054879
492.5, 47.08422198969127
493, 47.13746471260376
493.5, 47.2049871580502
494, 47.31689915057674
494.5, 47.42423321994437
495, 47.54180374720286
495.5, 47.652702057173734
496, 47.800817726028384
496.5, 47.87957377493005
497, 47.902337059396324
497.5, 47.90882189373241
498, 47.93554015664173
498.5, 48.0071969406209
499, 48.11309483405998
499.5, 48.20950053002224
500, 48.28808473819825
500.5, 48.360545429664796
501, 48.421421141212825
501.5, 48.468284403089214
502, 48.527190714831626
502.5, 48.63292961448926
503, 48.82247154428096
503.5, 49.050450682803216
504, 49.197949368957836
504.5, 49.25495840224603
505, 49.27088318970187
505.5, 49.2545723041082
506, 49.24223796640169
506.5, 49.35088074101215
507, 49.49291971382435
507.5, 49.660854362464036
508, 49.819621900271706
508.5, 49.99260634388168
509, 50.06595029703928
509.5, 50.08840439643652
510, 50.10054608273078
510.5, 50.125128378764344
511, 50.18146826497765
511.5, 50.25595344325512
512, 50.28901067954267
512.5, 50.33390398642516
513, 50.52826627186368
513.5, 50.77651403274343
514, 50.899955729364656
514.5, 50.94568046006596
515, 50.98890925611236
515.5, 50.99482666968253
516, 50.95593322682073
516.5, 50.93266805610629
517, 50.95632473505353
517.5, 51.024666591589984
518, 51.11538020062391
518.5, 51.197300853554616
519, 51.244090837534095
519.5, 51.25481175779254
520, 51.28882336880026
520.5, 51.361686432183795
521, 51.4151022525888
521.5, 51.461741250354585
522, 51.56491897326948
522.5, 51.65915026292791
523, 51.65324172841192
523.5, 51.63146016556367
524, 51.676164690559865
524.5, 51.74651530732113
525, 51.82509794060574
525.5, 51.949012287313224
526, 52.08748676886962
526.5, 52.15839088290996
527, 52.14232726661166
527.5, 52.06093865559473
528, 51.97946711726925
528.5, 51.94295052486762
529, 51.92331019346372
529.5, 51.918277876233354
530, 51.96927867627965
530.5, 52.042168793851324
531, 52.0539439630405
531.5, 52.02120761784215
532, 51.99655806045646
532.5, 51.99177253709666
533, 52.00599485246833
533.5, 52.032939944869696
534, 52.052963325991115
534.5, 52.03495117025795
535, 52.01702545008801
535.5, 52.07197592238315
536, 52.141786060795646
536.5, 52.141384475241686
537, 52.102470002541644
537.5, 52.06739449955251
538, 52.04132409783169
538.5, 52.02476032591281
539, 52.019440531481344
539.5, 52.042269870913174
540, 52.11076291264741
540.5, 52.17223981704769
541, 52.16904740203122
541.5, 52.13236042499987
542, 52.09794845346487
542.5, 52.069648197213056
543, 52.05248907055587
543.5, 52.057753732964024
544, 52.10008907837038
544.5, 52.18363191034367
545, 52.231198308421774
545.5, 52.17531490160516
546, 52.0946193393366
546.5, 52.05744470547333
547, 52.050504514962235
547.5, 52.067556726589004
548, 52.11899127903905
548.5, 52.19119492286719
549, 52.25551229040489
549.5, 52.29265491209329
550, 52.2962751161539
550.5, 52.290707643459946
551, 52.29187557191156
551.5, 52.288331944644476
552, 52.2708153088325
552.5, 52.235715073770386
553, 52.1798727807476
553.5, 52.10925441939302
554, 52.082447251640005
554.5, 52.13557497945359
555, 52.17416103815083
555.5, 52.150962276919266
556, 52.14579379568335
556.5, 52.169560978673324
557, 52.15518534598441
557.5, 52.11457993065579
558, 52.09689021286346
558.5, 52.07801724695093
559, 52.04193235267849
559.5, 52.07305354779422
560, 52.1971519208667
560.5, 52.311328809075725
561, 52.387663331029785
561.5, 52.47798837984006
562, 52.55746754405804
562.5, 52.57214004755709
563, 52.56148890799292
563.5, 52.57464570737319
564, 52.59948167303498
564.5, 52.61801920912956
565, 52.62076778167223
565.5, 52.60157622863788
566, 52.56035807737165
566.5, 52.53183430738281
567, 52.559387290306034
567.5, 52.63273068738575
568, 52.72193640062826
568.5, 52.78995228155791
569, 52.822563197873855
569.5, 52.842407361693624
570, 52.85896598678841
570.5, 52.86899386679225
571, 52.88990939406256
571.5, 52.93993935388524
572, 52.98707033019885
572.5, 53.012301169436896
573, 53.06891357704841
573.5, 53.14919594128253
574, 53.14329360589161
574.5, 53.060627263083646
575, 53.01171404160632
575.5, 53.01171049639133
576, 53.028411769123956
576.5, 53.04423582465395
577, 53.04825556607892
577.5, 53.03599750038563
578, 53.029150373627594
578.5, 53.080306881516954
579, 53.15398809994202
579.5, 53.15343124776465
580, 53.10363550502118
580.5, 53.07515152382685
581, 53.073451751754874
581.5, 53.08799398793749
582, 53.11226766643141
582.5, 53.13183557546587
583, 53.12311470324914
583.5, 53.103253654458136
584, 53.114308550521194
584.5, 53.13238566280626
585, 53.11355613552805
585.5, 53.060039124609254
586, 52.98165086004316
586.5, 52.87876512074038
587, 52.77335425063092
587.5, 52.713549326855954
588, 52.68798562479926
588.5, 52.645553306811536
589, 52.5915415518158
589.5, 52.551323405112825
590, 52.5281270857214
590.5, 52.504921155628516
591, 52.43301872046859
591.5, 52.28161099820194
592, 52.12907304144245
592.5, 52.00381075471652
593, 51.8820943024294
593.5, 51.777077931643305
594, 51.65387909371466
594.5, 51.58657529009956
595, 51.52107750621531
595.5, 51.44816420246359
596, 51.36450156460475
596.5, 51.269166735017336
597, 51.18879818852323
597.5, 51.16235607733237
598, 51.18131996424484
598.5, 51.194661433820436
599, 51.09659585036511
599.5, 50.96732131155934
600, 50.80553148634477
600.5, 50.6362592270719
601, 50.398584637032336
601.5, 50.208030749967335
602, 50.122008115092136
602.5, 50.09821039380567
603, 50.06798235620692
603.5, 49.953622728910105
604, 49.831698992668834
604.5, 49.68760183345177
605, 49.54308794872748
605.5, 49.34957147950066
606, 49.186424098661774
606.5, 49.05908415433939
607, 48.98492306538515
607.5, 48.96136765133409
608, 48.84917328380101
608.5, 48.602460402854874
609, 48.3923482426295
609.5, 48.30407521300598
610, 48.299213370452165
610.5, 48.25289653695348
611, 48.038011120636504
611.5, 47.800990218895244
612, 47.70889736819756
612.5, 47.692538356638295
613, 47.66562292792826
613.5, 47.59342920542349
614, 47.48699714938103
614.5, 47.39062971228082
615, 47.263627678298135
615.5, 47.04449381049673
616, 46.839407959040116
616.5, 46.74053421026186
617, 46.63202637640266
617.5, 46.44443885633599
618, 46.248768710928324
618.5, 46.102581527494834
619, 46.03226901839722
619.5, 46.01473338224333
620, 46.00418326355731
620.5, 45.98005424325098
621, 45.93454730906033
621.5, 45.8727013883807
622, 45.80441678466657
622.5, 45.74112419185667
623, 45.639888365635066
623.5, 45.51509124263742
624, 45.38939530797859
624.5, 45.26385417490619
625, 45.15058083153368
625.5, 45.062006719180836
626, 45.0548674215745
626.5, 45.07251588500857
627, 45.09433263933244
627.5, 45.11027066124196
628, 45.11721000374812
628.5, 45.11350423499242
629, 45.08606568215179
629.5, 44.96539514760186
630, 44.735111284557604
630.5, 44.55517428532969
631, 44.49586041791111
631.5, 44.45777200089538
632, 44.38529648023876
632.5, 44.27114705765237
633, 44.099350304462725
633.5, 43.8791481189327
634, 43.75477509372703
634.5, 43.78892745535525
635, 43.75658923244337
635.5, 43.58628774863675
636, 43.47241334923162
636.5, 43.44019771910964
637, 43.376662576191755
637.5, 43.31151096599769
638, 43.31171719701837
638.5, 43.30400352292369
639, 43.233544953417955
639.5, 43.174105832380704
640, 43.134624222136196
640.5, 43.06426550252684
641, 42.98658115000056
641.5, 42.90311976986917
642, 42.83054250995425
642.5, 42.754530166752815
643, 42.73986983359872
643.5, 42.74306040447069
644, 42.73202870378699
644.5, 42.6692222384198
645, 42.51439297867424
645.5, 42.32074980889571
646, 42.196859681102644
646.5, 42.138967903812684
647, 42.10205962933395
647.5, 42.07378981023654
648, 42.03544298769846
648.5, 41.93955339008725
649, 41.797085077246734
649.5, 41.690787046792614
650, 41.63593215233203
650.5, 41.59880295221565
651, 41.56802289757172
651.5, 41.53346274207864
652, 41.46679406286526
652.5, 41.40532874332044
653, 41.33429550383302
653.5, 41.262711990475964
654, 41.16377347996409
654.5, 41.07134585494426
655, 40.99312378677389
655.5, 40.9362331882465
656, 40.90575465803769
656.5, 40.86431002881975
657, 40.79442853356228
657.5, 40.734783293076845
658, 40.70387895146028
658.5, 40.68939091511083
659, 40.67185218228986
659.5, 40.631952608494686
660, 40.57383188464444
660.5, 40.51452093943789
661, 40.48377722545469
661.5, 40.4664528865936
662, 40.36336873348276
662.5, 40.19754173624171
663, 40.12096764431818
663.5, 40.12632674010849
664, 40.11376076829788
664.5, 40.06181564372296
665, 39.98119769709846
665.5, 39.89248988651849
666, 39.81958019562205
666.5, 39.78761226115889
667, 39.79282716089348
667.5, 39.80252826141969
668, 39.79841510000127
668.5, 39.77372544172959
669, 39.73229603370526
669.5, 39.6888385460345
670, 39.679245234829956
670.5, 39.68108064668947
671, 39.57171904307717
671.5, 39.36940927443387
672, 39.22953431953433
672.5, 39.16984524005867
673, 39.13233389642604
673.5, 39.10318048284399
674, 39.08346520726288
674.5, 39.07414731437646
675, 39.074032433128
675.5, 39.077558584856845
676, 39.06022238443441
676.5, 38.985645945955355
677, 38.874269445540754
677.5, 38.774078812641804
678, 38.70997864944325
678.5, 38.68825811008984
679, 38.6846499224369
679.5, 38.695403272529255
680, 38.75444647901831
680.5, 38.84487624691409
681, 38.90555652299961
681.5, 38.92546417918198
682, 38.919100612086375
682.5, 38.89024889436005
683, 38.849936176481606
683.5, 38.83626269047852
684, 38.85686735262964
684.5, 38.86909539671788
685, 38.8657311731159
685.5, 38.87217150396255
686, 38.89440390965155
686.5, 38.92251819466966
687, 38.92210966688883
687.5, 38.87426624163469
688, 38.81621223122726
688.5, 38.78056338298021
689, 38.779481261852744
689.5, 38.800779362266
690, 38.81480225769037
690.5, 38.80624187003135
691, 38.76858333499264
691.5, 38.701806461722825
692, 38.61577309281219
692.5, 38.539765580501644
693, 38.50296679803701
693.5, 38.527407769458414
694, 38.5851071095443
694.5, 38.61628128767488
695, 38.625259606259654
695.5, 38.639886202830354
696, 38.65901390128183
696.5, 38.676302116357014
697, 38.69093781218258
697.5, 38.70676430578899
698, 38.73000962724836
698.5, 38.72555804906528
699, 38.68352756019972
699.5, 38.62972619145467
700, 38.57314248356828
700.5, 38.52018370573249
701, 38.48376177342083
701.5, 38.46860186091942
702, 38.46452271109839
702.5, 38.51008186971137
703, 38.56303104978272
703.5, 38.5370635864211
704, 38.474200940402014
704.5, 38.4482874873557
705, 38.444438474763224
705.5, 38.4419686390033
706, 38.45134873517096
706.5, 38.4702553219661
707, 38.477817085263574
707.5, 38.47533883639695
708, 38.47723879324811
708.5, 38.4748271018929
709, 38.45188469282715
709.5, 38.39963095845266
710, 38.32776509288421
710.5, 38.2785515382603
711, 38.26545288233771
711.5, 38.26494826378885
712, 38.265054341225245
712.5, 38.26393308122477
713, 38.265168110063904
713.5, 38.27543544076959
714, 38.304832804230415
714.5, 38.34483103553417
715, 38.35117183252638
715.5, 38.31278788850374
716, 38.25919387269693
716.5, 38.21039901795087
717, 38.175350518836076
717.5, 38.14218777960385
718, 38.102442146524034
718.5, 38.08351536993334
719, 38.099720630953335
719.5, 38.12815771098045
720, 38.14513275487044
720.5, 38.1321456270776
721, 38.09083775111653
721.5, 38.03655522453868
722, 37.991817300037525
722.5, 37.97181633258107
723, 37.96138054331995
723.5, 37.945757886555484
724, 37.92190924577263
724.5, 37.90408937394503
725, 37.91963174111378
725.5, 37.96023288250593
726, 37.99909062096688
726.5, 38.02688599589021
727, 38.036921248746
727.5, 38.01275806669649
728, 37.959008166268056
728.5, 37.91665953507539
729, 37.88670137282552
729.5, 37.833887896807134
730, 37.78614437355658
730.5, 37.79217528205478
731, 37.81613056725756
731.5, 37.816887818774596
732, 37.81551551635533
732.5, 37.81956410360384
733, 37.79929675452634
733.5, 37.76175086022749
734, 37.74718509485807
734.5, 37.75376620744569
735, 37.75864465474876
735.5, 37.752782680512645
736, 37.735924984836764
736.5, 37.719622020889005
737, 37.70511317507333
737.5, 37.676091096092286
738, 37.640590377073295
738.5, 37.62667072548097
739, 37.633572358546594
739.5, 37.647665846265014
740, 37.667737680081146
740.5, 37.69728867337509
741, 37.742220715423024
741.5, 37.7952840118723
742, 37.83054558110733
742.5, 37.84317768590364
743, 37.846687541554715
743.5, 37.84466250117886
744, 37.83440269126268
744.4999999999999, 37.80876687959927
744.9999999999999, 37.77082349510303
745.5, 37.751108113597304
746, 37.754652343392415
746.5, 37.746849046234566
747, 37.72726202835121
747.4999999999999, 37.71964539815148
747.9999999999999, 37.695352901687684
748.5, 37.62808409795655
749, 37.609908851821686
749.5, 37.68689543325947
750, 37.72584969197026
750.4999999999999, 37.68171205119476
750.9999999999999, 37.65596077779239
751.5, 37.64391339298658
752, 37.564169333367445
752.5, 37.454429747118986
753, 37.38328271532623
753.4999999999999, 37.31894011379746
753.9999999999999, 37.2235449896364
754.5, 37.10350605993904
755, 36.99660872383561
755.5, 36.96653367542083
756, 36.97647525272931
756.4999999999999, 36.92927098535983
756.9999999999999, 36.85254885412709
757.5, 36.80981865164826
758, 36.78917655790107
758.5, 36.77119531971649
759, 36.75943472595664
759.4999999999999, 36.75933345774237
759.9999999999999, 36.7751598086177
760.5, 36.81356578735197
761, 36.87575500698604
761.5, 36.91347167951619
762, 36.884947832095435
762.4999999999999, 36.84820303748552
762.9999999999999, 36.857480867768786
763.5, 36.9111941554619
764, 36.96781838762187
764.5, 36.952596154435476
765, 36.86898560628982
765.4999999999999, 36.77012550556013
765.9999999999999, 36.66848809532307
766.5, 36.575948801165374
767, 36.560316608340095
767.5, 36.64492407767363
768, 36.743619679536046
768.4999999999999, 36.807719227405485
768.9999999999999, 36.846349633513
769.5, 36.87804184343647
770, 36.912333096830935
770.5, 36.87738586472345
771, 36.72480894524404
771.4999999999999, 36.587407607452924
771.9999999999999, 36.55244353718829
772.5, 36.552135063304036
773, 36.5349467982622
773.5, 36.488744160325
774, 36.437374960060914
774.4999999999999, 36.41623527953186
774.9999999999999, 36.40072765064118
775.5, 36.357305329830915
776, 36.293785202859645
776.5, 36.22534110109815
777, 36.16520005692789
777.4999999999999, 36.11647932896892
777.9999999999999, 36.07326416896443
778.5, 36.043972016660774
779, 36.04031468189652
779.5, 36.041860213596095
780, 36.02051976093138
780.4999999999999, 35.95928318305373
780.9999999999999, 35.869821792646405
781.5, 35.80788678334514
782, 35.79718718522609
782.5, 35.82185524145268
783, 35.833966022544345
783.4999999999999, 35.779626151283836
783.9999999999999, 35.66787771405235
784.5, 35.53784269359444
785, 35.454548084092664
785.5, 35.4401180384493
786, 35.438413534093016
786.4999999999999, 35.38490705318935
786.9999999999999, 35.29464173092697
787.5, 35.19847405133564
788, 35.098319115877615
788.5, 35.00252297626915
789, 34.90490810477448
789.4999999999999, 34.857631139998404
789.9999999999999, 34.82373916658443
790.5, 34.79843108471729
791, 34.782851646419545
791.5, 34.77981133958613
792, 34.78097397963502
792.4999999999999, 34.77277358609339
792.9999999999999, 34.74548312618282
793.5, 34.689332157012416
794, 34.591865310544165
794.5, 34.46883907717705
794.9999999999999, 34.37698194967602
795.4999999999999, 34.3350462576536
795.9999999999999, 34.32089289546714
796.5, 34.27443159465858
797, 34.145292398220334
797.4999999999999, 34.01382450797939
797.9999999999999, 33.95461496234438
798.4999999999999, 33.93369944862094
798.9999999999999, 33.91760922274304
799.5, 33.895724933486704
800, 33.82233577947055
800.4999999999999, 33.64092095949974
800.9999999999999, 33.46252437912071
801.4999999999999, 33.42994449187168
801.9999999999999, 33.46396862357702
802.5, 33.46010412565987
803, 33.39960700065431
803.4999999999999, 33.295872302566266
803.9999999999999, 33.18770149836834
804.4999999999999, 33.08946379396147
805, 32.99628179903013
805.5, 32.919487983444725
806, 32.874053304135
806.4999999999999, 32.85722942586138
806.9999999999999, 32.84925601648506
807.4999999999999, 32.80305822999405
808, 32.7139202928215
808.5, 32.63497925126728
809, 32.571950506067765
809.4999999999999, 32.49507994584857
809.9999999999999, 32.40780864056383
810.4999999999999, 32.32425081870829
811, 32.240063991861135
811.5, 32.15376888043103
812, 32.07972756323822
812.4999999999999, 32.015446107062175
812.9999999999999, 31.93668960833456
813.4999999999999, 31.851261276686145
814, 31.785016443717566
814.5, 31.71562348873195
815, 31.604760232122118
815.4999999999999, 31.455261452567925
815.9999999999999, 31.350328841175738
816.4999999999999, 31.243140067545795
817, 31.146856427447517
817.5, 31.04172277433109
818, 30.996934343606455
818.4999999999999, 31.01412564870536
818.9999999999999, 31.058100756954417
819.4999999999999, 31.09200308579149
820, 31.076264719071048
820.5, 31.005804034162395
821, 30.94436590684724
821.4999999999999, 30.915139860939263
821.9999999999999, 30.886549885408186
822.4999999999999, 30.85141198580213
823, 30.81586994281028
823.5, 30.751419460219083
823.9999999999999, 30.636390936632452
824.4999999999999, 30.51921476946879
824.9999999999999, 30.444745819247203
825.4999999999999, 30.421232696489994
826, 30.42648843860158
826.5, 30.41396329459097
826.9999999999999, 30.395797004762173
827.4999999999999, 30.411169282768896
827.9999999999999, 30.42540666037192
828.4999999999999, 30.39734203333731
829, 30.35512935136886
829.5, 30.322385757102268
829.9999999999999, 30.288954946366886
830.4999999999999, 30.25453557379724
830.9999999999999, 30.231783680662318
831.4999999999999, 30.21731697523279
832, 30.200025093560527
832.5, 30.184469347806584
832.9999999999999, 30.17959165702439
833.4999999999999, 30.190316157981655
833.9999999999999, 30.21004979978386
834.4999999999999, 30.214715193080735
835, 30.211665269211863
835.5, 30.23713840822954
835.9999999999999, 30.273275017233573
836.4999999999999, 30.279804876340222
836.9999999999999, 30.275809410555212
837.4999999999999, 30.289125778803836
838, 30.31346372811518
838.5, 30.344705876352663
838.9999999999999, 30.39202695754281
839.4999999999999, 30.44429185275456
839.9999999999999, 30.47277051883019
840.4999999999999, 30.484644198255097
841, 30.510100354504118
841.5, 30.589308248955916
841.9999999999999, 30.744810853643344
842.4999999999999, 30.90826783418916
842.9999999999999, 31.006311126930456
843.4999999999999, 31.09416509231147
844, 31.1625379792673
844.5, 31.220393719702514
844.9999999999999, 31.26178680799711
845.4999999999999, 31.367307991646
845.9999999999999, 31.491321732390134
846.4999999999999, 31.56188677554266
847, 31.55596129268072
847.5, 31.498003010914957
847.9999999999999, 31.469062098582228
848.4999999999999, 31.476708590159262
848.9999999999999, 31.465397992263036
849.4999999999999, 31.447174942640856
850, 31.463054378691226
850.5, 31.517221510044976
850.9999999999999, 31.58341396137196
851.4999999999999, 31.58655582490543
851.9999999999999, 31.52489917808147
852.4999999999999, 31.511368900655043
853, 31.575574721656437
853.5, 31.66558275050859
853.9999999999999, 31.716997228089667
854.4999999999999, 31.701445545871337
854.9999999999999, 31.759709977239936
855.4999999999999, 31.86438431145467
856, 31.996358021801896
856.5, 32.12313453553456
856.9999999999999, 32.2454950085159
857.4999999999999, 32.28581984981416
857.9999999999999, 32.29487966864795
858.4999999999999, 32.28845301316318
859, 32.26142647014032
859.5, 32.29666720781972
859.9999999999999, 32.364257572751
860.4999999999999, 32.449361221362636
860.9999999999999, 32.53075614298146
861.4999999999999, 32.60915903988126
862, 32.6427053639828
862.5, 32.68610742234827
862.9999999999999, 32.79764657616934
863.4999999999999, 32.9852424907958
863.9999999999999, 33.110697183093635
864.4999999999999, 33.093737020402756
865, 33.0655757696926
865.5, 33.102784715837075
865.9999999999999, 33.17691828447661
866.4999999999999, 33.304003455243986
866.9999999999999, 33.42540553022425
867.4999999999999, 33.54385076355054
868, 33.657020869090346
868.5, 33.759997429951085
868.9999999999999, 33.86937224369227
869.4999999999999, 34.022760116311076
869.9999999999999, 34.17912769945062
870.4999999999999, 34.35332332842269
871, 34.51548248703753
871.5, 34.71774399243503
871.9999999999999, 34.87323195470847
872.4999999999999, 34.96555363816478
872.9999999999999, 35.07209568327532
873.4999999999999, 35.19027853748658
874, 35.317508554862826
874.5, 35.450738665217
874.9999999999999, 35.586382254587704
875.4999999999999, 35.720821228288685
875.9999999999999, 35.95698867615289
876.4999999999999, 36.197792552579564
877, 36.319557433456445
877.5, 36.43881563318954
877.9999999999999, 36.553113923560986
878.4999999999999, 36.70488147692675
878.9999999999999, 36.871468974991195
879.4999999999999, 36.97266624619487
880, 37.09506988085673
880.5, 37.35135063368796
880.9999999999999, 37.58241690462818
881.4999999999999, 37.62538754066617
881.9999999999999, 37.653035032232935
882.4999999999999, 37.799871354458574
883, 37.99955798868728
883.5, 38.24758505641442
883.9999999999999, 38.48016116112577
884.4999999999999, 38.68184588713909
884.9999999999999, 38.8737783610824
885.4999999999999, 39.034144429357994
886, 39.183907839809486
886.5, 39.31529701457983
886.9999999999999, 39.4497612759171
887.4999999999999, 39.622165977705436
887.9999999999999, 39.82079986289802
888.4999999999999, 40.17960042405464
889, 40.54658595989388
889.5, 40.746299153192105
889.9999999999999, 40.85849754111322
890.4999999999999, 40.9899137158269
890.9999999999999, 41.1279133483952
891.4999999999999, 41.28624236154922
892, 41.55944855328981
892.5, 41.966942908056716
892.9999999999999, 42.441559472318005
893.4999999999999, 42.88416777737015
893.9999999999999, 43.075138712039156
894.4999999999999, 43.22284700588101
895, 43.36187255300973
895.5, 43.55683474626914
895.9999999999999, 43.85990801281564
896.4999999999999, 44.047433002651694
896.9999999999999, 44.162349667288076
897.4999999999999, 44.403947300469646
898, 44.75451075284093
898.5, 45.07822910372798
898.9999999999999, 45.278605605684234
899.4999999999999, 45.353618411842966
899.9999999999999, 45.524770445166055
900.4999999999999, 45.897587746415844
901, 46.221161777287186
901.5, 46.43347181936888
901.9999999999999, 46.625599753192354
902.4999999999999, 46.786207160203894
902.9999999999999, 47.019609231587395
903.4999999999999, 47.338484206563905
904, 47.614312587357816
904.5, 47.928893988348975
904.9999999999999, 48.234335739203765
905.4999999999999, 48.59156599773001
905.9999999999999, 48.85291669336158
906.4999999999999, 49.00930438070813
907, 49.132165768754966
907.4999999999999, 49.2618022497907
907.9999999999999, 49.44113064970797
908.4999999999999, 49.671636848943706
908.9999999999999, 49.85110303892546
909.4999999999999, 50.007566040396384
910, 50.36497185183406
910.4999999999999, 50.88450552498942
910.9999999999999, 51.16968704629647
911.4999999999999, 51.35788266912256
911.9999999999999, 51.516212613410644
912.4999999999999, 51.67541921518266
913, 51.94437931547335
913.4999999999999, 52.25587296617375
913.9999999999999, 52.51193966592317
914.4999999999999, 52.79314715752552
914.9999999999999, 53.073946478076195
915.4999999999999, 53.50737790511033
916, 53.84967898239248
916.4999999999999, 54.04223648205882
916.9999999999999, 54.225699807577314
917.4999999999999, 54.52145074352624
917.9999999999999, 54.83683974035787
918.4999999999999, 55.057212331544285
919, 55.281102098494564
919.4999999999999, 55.49473809170402
919.9999999999999, 55.83182810201397
920.4999999999999, 56.2265406317882
920.9999999999999, 56.47104529719464
921.4999999999999, 56.73345752844395
922, 56.989119810878435
922.4999999999999, 57.29302147472051
922.9999999999999, 57.58833461418218
923.4999999999999, 57.763439697648074
923.9999999999999, 57.884905802717974
924.4999999999999, 58.027301741308584
925, 58.21215173136167
925.4999999999999, 58.424837084481815
925.9999999999999, 58.60121603943426
926.4999999999999, 58.751559630457734
926.9999999999999, 59.06250490948505
927.4999999999999, 59.58257741201058
928, 59.98478948796304
928.4999999999999, 60.26865270845539
928.9999999999999, 60.525340302374275
929.4999999999999, 60.74411876756261
929.9999999999999, 61.02617393225384
930.4999999999999, 61.24537978942428
931, 61.40243365647649
931.4999999999999, 61.57577738845844
931.9999999999999, 61.75187847256789
932.4999999999999, 62.01544331249675
932.9999999999999, 62.26372040002812
933.4999999999999, 62.423530012554494
934, 62.57256737247522
934.4999999999999, 62.80328846918691
934.9999999999999, 63.091236186542915
935.4999999999999, 63.292417982909406
935.9999999999999, 63.512756386444416
936.4999999999999, 63.744841451801655
937, 64.13354381381134
937.4999999999999, 64.53306108511515
937.9999999999999, 64.77067537111122
938.4999999999999, 64.8813329626542
938.9999999999999, 64.94376004910225
939.4999999999999, 65.02267300919021
940, 65.15264313614654
940.4999999999999, 65.31990257945836
940.9999999999999, 65.5538715233491
941.4999999999999, 65.92342610268415
941.9999999999999, 66.35883867986715
942.4999999999999, 66.71233908704686
943, 66.89577224044467
943.4999999999999, 66.92045736092913
943.9999999999999, 67.03811293044072
944.4999999999999, 67.35451013301304
944.9999999999999, 67.64162012116417
945.4999999999999, 67.77618488117733
946, 67.78727810108703
946.4999999999999, 67.80905018782079
946.9999999999999, 68.00097544560882
947.4999999999999, 68.31889902879946
947.9999999999999, 68.51129469375232
948.4999999999999, 68.69926299556568
949, 68.86397080839755
949.4999999999999, 69.03269532672986
949.9999999999999, 69.14557364367855
950.4999999999999, 69.24351959824799
950.9999999999999, 69.36929472338154
951.4999999999999, 69.53264060450533
952, 69.79254277146708
952.4999999999999, 69.99496680641275
952.9999999999999, 70.2273241802822
953.4999999999999, 70.46954962593595
953.9999999999999, 70.81678084786705
954.4999999999999, 71.22597644159143
955, 71.47476383916846
955.4999999999999, 71.65940070423711
955.9999999999999, 71.82156434103723
956.4999999999999, 71.96245176724672
956.9999999999999, 72.08153446353535
957.4999999999999, 72.0697666288822
958, 72.06615201421428
958.4999999999999, 72.33898253230456
958.9999999999999, 72.88911092506711
959.4999999999999, 73.2653343753611
959.9999999999999, 73.53570358467255
960.4999999999999, 73.75587960744238
961, 73.91758703854677
961.4999999999999, 73.97377425953601
961.9999999999999, 73.93832541185978
962.4999999999999, 73.96629276708097
962.9999999999999, 74.08097318220999
963.4999999999999, 74.22260719847812
964, 74.28763116478991
964.4999999999999, 74.33398348979898
964.9999999999999, 74.47596544723818
965.4999999999999, 74.711279969674
965.9999999999999, 74.98142239667968
966.4999999999999, 75.1725040994086
967, 75.26211356739522
967.4999999999999, 75.36293215145021
967.9999999999999, 75.48611873687774
968.4999999999999, 75.56272047147502
968.9999999999999, 75.626874996729
969.4999999999999, 75.74429498953208
970, 75.89771834456026
970.4999999999999, 76.04433005856444
970.9999999999999, 76.13583607153583
971.4999999999999, 76.21797448180396
971.9999999999999, 76.36312356132649
972.4999999999999, 76.5205174569416
973, 76.69499902608771
973.4999999999999, 76.8593299329847
973.9999999999999, 77.08984365533395
974.4999999999999, 77.20619936293289
974.9999999999999, 77.25440088308264
975.4999999999999, 77.30607130178407
976, 77.37872316940413
976.4999999999999, 77.41901501688217
976.9999999999999, 77.42865977078397
977.4999999999999, 77.45295170681645
977.9999999999999, 77.52203863030408
978.4999999999999, 77.64151350852129
979, 77.74967054719414
979.4999999999999, 77.81244205577875
979.9999999999999, 77.88852617530893
980.4999999999999, 77.9799708049345
980.9999999999999, 78.0128674094813
981.4999999999999, 78.04442942494101
982, 78.2073465041833
982.4999999999999, 78.46939681200264
982.9999999999999, 78.72476843941554
983.4999999999999, 78.8557687154638
983.9999999999999, 78.83370790383408
984.4999999999999, 78.81625833760306
985, 78.903725646072
985.4999999999999, 79.09539117302113
985.9999999999999, 79.32132604891484
986.4999999999999, 79.48118379980497
986.9999999999999, 79.56589662337385
987.4999999999999, 79.60458374660294
988, 79.63050757391423
988.4999999999999, 79.6640706538982
988.9999999999999, 79.69881460602117
989.4999999999999, 79.73178676402205
989.9999999999999, 79.76549942090519
990.4999999999999, 79.77645256671357
991, 79.73483074698134
991.4999999999999, 79.68136389053868
991.9999999999999, 79.65572807419876
992.4999999999999, 79.60343718042958
992.9999999999999, 79.50897725363066
993.4999999999999, 79.46497535857777
993.9999999999999, 79.5071167594798
994.4999999999999, 79.59316215737046
994.9999999999999, 79.65236348338694
995.4999999999999, 79.62689372114171
995.9999999999999, 79.62841837747108
996.4999999999999, 79.75889021895043
996.9999999999999, 79.89133641307667
997.4999999999999, 79.92910790870854
997.9999999999999, 79.91199026710085
998.4999999999999, 79.87617970653973
998.9999999999999, 79.84001131937157
999.4999999999999, 79.8314992749209
999.9999999999999, 79.87031015801195
1000.4999999999999, 79.8928106938101
1000.9999999999999, 79.8452923611459
1001.4999999999999, 79.79243310435169
1001.9999999999999, 79.76619137718286
1002.4999999999999, 79.70567167044689
1002.9999999999999, 79.59815973133182
1003.4999999999999, 79.48830587570826
1003.9999999999999, 79.41679102308828
1004.4999999999999, 79.40339802054552
1004.9999999999999, 79.37672884015515
1005.4999999999999, 79.27844533132709
1005.9999999999999, 79.1758029579071
1006.4999999999999, 79.11111519780326
1006.9999999999999, 79.04942010532622
1007.4999999999999, 78.98065853684412
1007.9999999999999, 78.92173547688856
1008.4999999999999, 78.8502299964333
1008.9999999999999, 78.74348018279989
1009.4999999999999, 78.69366206467848
1009.9999999999999, 78.76183943277641
1010.4999999999999, 78.82281261724627
1010.9999999999999, 78.81511263908436
1011.4999999999999, 78.82305572648488
1011.9999999999999, 78.82784374366196
1012.4999999999999, 78.72269260158392
1012.9999999999999, 78.57883870114115
1013.4999999999999, 78.52653221837899
1013.9999999999999, 78.50732804848624
1014.4999999999999, 78.47522431737603
1014.9999999999999, 78.56614703621734
1015.4999999999999, 78.77657446762164
1015.9999999999999, 78.85898826362876
1016.4999999999999, 78.77832820424376
1016.9999999999999, 78.69196718316164
1017.4999999999999, 78.63489225902481
1017.9999999999999, 78.57722477244191
1018.4999999999999, 78.49775644690492
1018.9999999999999, 78.42582265023648
1019.4999999999999, 78.50577255466146
1019.9999999999999, 78.5919716842687
1020.4999999999999, 78.33391547104875
1020.9999999999999, 77.96939817544275
1021.4999999999999, 77.57984836176266
1021.9999999999999, 77.28704538509146
1022.4999999999999, 77.21655345171402
1022.9999999999999, 77.39065850596582
1023.4999999999999, 77.3857412760555
1023.9999999999999, 77.32076930175245
1024.5, 77.25320475585524
1025, 77.0555031817718
1025.5, 76.80623265527507
1026, 76.7280947060352
1026.5, 76.76959074631675
1027, 76.78770730314443
1027.5, 76.80691547785544
1028, 76.83466589717294
1028.5, 76.74078677223916
1029, 76.50802255487936
1029.5, 76.28928750477223
1030, 76.15605987279075
1030.5, 76.10426458822413
1031, 76.10944017875758
1031.5, 76.12527248245826
1032, 76.05178178969297
1032.5, 75.84085610123874
1033, 75.58763102727939
1033.5, 75.38240741953624
1034, 75.27782528097822
1034.5, 75.22312802446746
1035, 75.10515721419404
1035.5, 74.90389336624901
1036, 74.64974827233317
1036.5, 74.40943923538366
1037, 74.25088168456124
1037.5, 74.22424892628212
1038, 74.30373954460296
1038.5, 74.37703079150815
1039, 74.37690889985417
1039.5, 74.28654986960431
1040, 74.18479683165215
1040.5, 74.12651803151667
1041, 73.94020697351189
1041.5, 73.5867087621032
1042, 73.387638372743
1042.5, 73.41867069900303
1043, 73.42907784108824
1043.5, 73.31426495193891
1044, 73.09357855182203
1044.5, 72.85503055504908
1045, 72.67838614118966
1045.5, 72.52537194031304
1046, 72.35804790180039
1046.5, 72.1887648900601
1047, 72.05322204470923
1047.5, 72.00001995815714
1048, 71.9961062556075
1048.5, 71.94874155557834
1049, 71.73201337050493
1049.5, 71.30860005976704
1050, 70.96992093677343
1050.5, 70.89540149870794
1051, 70.93370138384134
1051.5, 70.9052967554868
1052, 70.66515253744102
1052.5, 70.36645702876628
1053, 70.28027067384028
1053.5, 70.27917855465125
1054, 70.16813089772194
1054.5, 69.98940132163597
1055, 69.8151510186124
1055.5, 69.68829318941576
1056, 69.64407811933748
1056.5, 69.68862546479558
1057, 69.57001960896181
1057.5, 69.30236482415683
1058, 68.97536435913129
1058.5, 68.6550742782419
1059, 68.38249407728183
1059.5, 68.31045778945938
1060, 68.33093235898264
1060.5, 68.26904049660632
1061, 68.16140096681056
1061.5, 68.06568329136053
1062, 68.01969630850505
1062.5, 67.92118571755758
1063, 67.69892704283251
1063.5, 67.4978078908481
1064, 67.36606797905536
1064.5, 67.21522021733193
1065, 67.05933706939874
1065.5, 66.86431082740702
1066, 66.63590085547813
1066.5, 66.15034641749942
1067, 65.77405788982315
1067.5, 65.63412051155332
1068, 65.45246476925598
1068.5, 65.13701258305534
1069, 64.97063508433257
1069.5, 64.98837238156695
1070, 64.9897067656322
1070.5, 64.93947651548575
1071, 64.88628691996736
1071.5, 64.83962395306798
1072, 64.79336476866274
1072.5, 64.73084227302911
1073, 64.59703192728867
1073.5, 64.2902605363638
1074, 63.845919231781686
1074.5, 63.56891830570595
1075, 63.367920415134115
1075.5, 63.19394171551604
1076, 63.034471318645664
1076.5, 62.86609780040632
1077, 62.77553268268825
1077.5, 62.72358908160437
1078, 62.707705543587444
1078.5, 62.635310472061214
1079, 62.37346824920038
1079.5, 62.087445078264906
1080, 62.01268667988328
1080.5, 62.06376558375206
1081, 62.10784652249507
1081.5, 62.10357580786674
1082, 61.99726356322765
1082.5, 61.71137502157075
1083, 61.33955075791581
1083.5, 61.085858750218286
1084, 60.94250347931167
1084.5, 60.81611560704076
1085, 60.67017108095735
1085.5, 60.49149866823971
1086, 60.28762230088997
1086.5, 60.11034383767426
1087, 60.052107056354885
1087.5, 60.0088472832467
1088, 59.7707398665806
1088.5, 59.46770985975408
1089, 59.30677829596639
1089.5, 59.20586203982528
1090, 59.08951732031287
1090.5, 59.04629045873152
1091, 59.09081628444061
1091.5, 59.12263902493108
1092, 59.091991726630866
1092.5, 58.98772236962731
1093, 58.771870508287336
1093.5, 58.429335357632446
1094, 58.07296588462738
1094.5, 57.80429362736619
1095, 57.639108276337616
1095.5, 57.547114882378764
1096, 57.46061297177149
1096.5, 57.3774710603388
1097, 57.33091583274084
1097.5, 57.27367855337785
1098, 57.151403554079806
1098.5, 57.00039934583971
1099, 56.86241427568423
1099.5, 56.74880345281914
1100, 56.621083802783446
1100.5, 56.400280055993775
1101, 56.16149811002463
1101.5, 56.05847985397148
1102, 56.07906783872181
1102.5, 56.13729369077083
1103, 56.11664239268247
1103.5, 55.99849779576385
1104, 55.95132537882464
1104.5, 55.89270117944018
1105, 55.48909835669622
1105.5, 54.953725340165356
1106, 54.76018161276094
1106.5, 54.786297187790396
1107, 54.76941763714751
1107.5, 54.70398807485676
1108, 54.642800761534055
1108.5, 54.64511605834173
1109, 54.62415729841693
1109.5, 54.36611085302049
1110, 53.9570090137744
1110.5, 53.633496693610994
1111, 53.416099970275816
1111.5, 53.26266596932519
1112, 53.173035028679756
1112.5, 53.117287653613914
1113, 53.00400305215913
1113.5, 52.825796048920154
1114, 52.663286930148594
1114.5, 52.56653113343545
1115, 52.551590786480595
1115.5, 52.56156505985117
1116, 52.52311875847254
1116.5, 52.386350738599525
1117, 52.1504119802125
1117.5, 51.888364243773985
1118, 51.673671451582265
1118.5, 51.56330009955979
1119, 51.5147193839663
1119.5, 51.44870398345272
1120, 51.384245574264
1120.5, 51.3577361380992
1121, 51.365204111274764
1121.5, 51.31531418723797
1122, 51.00478369750163
1122.5, 50.533187026787346
1123, 50.25020095079473
1123.5, 50.1358049695277
1124, 50.00965205081026
1124.5, 49.91031166427572
1125, 49.89270830577651
1125.5, 49.87846804898366
1126, 49.83682211317308
1126.5, 49.83404121301883
1127, 49.784845153210206
1127.5, 49.50216545488337
1128, 49.15046014927808
1128.5, 49.003157349025024
1129, 48.98658690659483
1129.5, 48.96432169068204
1130, 48.896899698682155
1130.5, 48.79174910413248
1131, 48.697559013797346
1131.5, 48.57982199719993
1132, 48.3485682430799
1132.5, 48.06490585270876
1133, 47.839696513443904
1133.5, 47.66924424064827
1134, 47.52862239111706
1134.5, 47.417812194383
1135, 47.3216703713305
1135.5, 47.19864919018172
1136, 47.00263035876409
1136.5, 46.7054932050131
1137, 46.43746812806152
1137.5, 46.34679420806815
1138, 46.343647374081776
1138.5, 46.326328441500365
1139, 46.30940239145614
1139.5, 46.28268907133213
1140, 46.18654155020442
1140.5, 46.041691586530845
1141, 45.92425182352782
1141.5, 45.83381781863828
1142, 45.73949258792311
1142.5, 45.629762506015695
1143, 45.50891660771967
1143.5, 45.40508507896761
1144, 45.338156926220236
1144.5, 45.3113716727451
1145, 45.29808339979627
1145.5, 45.251975226834624
1146, 45.14051842776387
1146.5, 44.94720504893951
1147, 44.72300658199661
1147.5, 44.58501241479623
1148, 44.44709877243894
1148.5, 44.31703044228048
1149, 44.141082210807305
1149.5, 44.011964556920724
1150, 43.99113204741734
1150.5, 43.96926331908704
1151, 43.83616052013518
1151.5, 43.66250468137316
1152, 43.532910493576
1152.5, 43.47575838331313
1153, 43.467057798627934
1153.5, 43.42949424031493
1154, 43.286860191231774
1154.5, 43.13133014369154
1155, 42.96568239280361
1155.5, 42.79584937907679
1156, 42.61228138692854
1156.5, 42.39850039746056
1157, 42.24008738944539
1157.5, 42.12514272039033
1158, 42.01160236922384
1158.5, 41.91135246666953
1159, 41.78585085756415
1159.5, 41.715604299700345
1160, 41.669423229037264
1160.5, 41.60955807932181
1161, 41.52375246493989
1161.5, 41.44359636206439
1162, 41.37914780175312
1162.5, 41.30884040607704
1163, 41.17328643976025
1163.5, 40.917995005231234
1164, 40.64930703966506
1164.5, 40.48711453767221
1165, 40.41249271586439
1165.5, 40.38075896341965
1166, 40.35107742981727
1166.5, 40.31555591069264
1167, 40.29480711687664
1167.5, 40.25529470272103
1168, 40.140967923162265
1168.5, 39.95660411913079
1169, 39.74183062784247
1169.5, 39.577109102742654
1170, 39.49494697589696
1170.5, 39.434691229769015
1171, 39.349427148427324
1171.5, 39.27000490485028
1172, 39.196159248492975
1172.5, 39.11679522128997
1173, 39.027986035701495
1173.5, 38.876838973852074
1174, 38.75175648866501
1174.5, 38.67468481095219
1175, 38.59236183604213
1175.5, 38.50197943857284
1176, 38.32107203542867
1176.5, 38.07411269625659
1177, 37.80937101513167
1177.5, 37.6171948307479
1178, 37.56273863499396
1178.5, 37.5847565199269
1179, 37.58515895071107
1179.5, 37.50202440502288
1180, 37.390372278330176
1180.5, 37.244184025606714
1181, 37.07376109509465
1181.5, 36.89089148488301
1182, 36.71441914258766
1182.5, 36.56527934558033
1183, 36.4420541265402
1183.5, 36.4017805018112
1184, 36.396198353248465
1184.5, 36.375390731915296
1185, 36.37275012741861
1185.5, 36.34551691702283
1186, 36.23327480879712
1186.5, 36.07683393822474
1187, 35.92544687473051
1187.5, 35.7779275870883
1188, 35.61507255304953
1188.5, 35.47070027606071
1189, 35.35468826774044
1189.5, 35.23349875172681
1190, 35.11409095728273
1190.5, 34.91135141647578
1191, 34.80066617314242
1191.5, 34.79884128323644
1192, 34.81050819421071
1192.5, 34.789472661141275
1193, 34.776041644318596
1193.5, 34.77975561148796
1194, 34.77740000615256
1194.5, 34.721634949425635
1195, 34.579792348552175
1195.5, 34.423361644035936
1196, 34.316183243898934
1196.5, 34.24485765549349
1197, 34.20849749183127
1197.5, 34.22832527790939
1198, 34.205810052383725
1198.5, 34.09776262604568
1199, 33.958366410472294
1199.5, 33.80701805180081
1200, 33.65158569135319
1200.5, 33.47862443921612
1201, 33.32083643225296
1201.5, 33.18992928223366
1202, 33.060971690150296
1202.5, 32.96134971990395
1203, 32.90907834088772
1203.5, 32.9496454224477
1203.9999999999998, 32.96862361701989
1204.5, 32.984768210224416
1205, 33.0124521943541
1205.5, 32.98718158624851
1206, 32.88166994412251
1206.4999999999998, 32.728046728745994
1207, 32.59989986220336
1207.4999999999998, 32.57547514174098
1208, 32.58791319725124
1208.5, 32.540702283264054
1209, 32.440497809074685
1209.5, 32.3295193737176
1209.9999999999998, 32.27312895236294
1210.5, 32.28073854903127
1211, 32.29654004977763
1211.5, 32.29107984613299
1212, 32.25650540821876
1212.4999999999998, 32.19357288568298
1213, 32.110177161428254
1213.4999999999998, 32.027530721187674
1214, 31.95958061556219
1214.5, 31.90139813144387
1215, 31.851457622876396
1215.5, 31.813472135189798
1215.9999999999998, 31.781657295250483
1216.5, 31.743249742589597
1217, 31.681556381693312
1217.5, 31.593213264193537
1218, 31.52195187507229
1218.4999999999998, 31.489630134582626
1219, 31.46238506696163
1219.4999999999998, 31.427270959410066
1220, 31.395793095238773
1220.5, 31.337676849328673
1220.9999999999998, 31.21284963691879
1221.5, 31.076128900281134
1221.9999999999998, 30.99330835541967
1222.5, 30.96130852672853
1223, 30.961408645437572
1223.5, 30.97141849171699
1224, 30.98785643852996
1224.4999999999998, 31.02317208985113
1225, 31.055152949864336
1225.4999999999998, 31.053727520491577
1226, 31.05927286410683
1226.5, 31.094617997077577
1226.9999999999998, 31.063260480377465
1227.5, 30.93689356846734
1227.9999999999998, 30.832437674316424
1228.5, 30.791975954601227
1229, 30.772016967447314
1229.5, 30.731476845245993
1230, 30.64706302498989
1230.4999999999998, 30.5692661592021
1231, 30.54516584514576
1231.4999999999998, 30.546876744619638
1232, 30.547473499070705
1232.5, 30.542021744098818
1232.9999999999998, 30.52405777278898
1233.5, 30.48928055627448
1233.9999999999998, 30.483437728415225
1234.5, 30.55214916489865
1235, 30.608307091161166
1235.5, 30.57120477961604
1236, 30.484648940086714
1236.4999999999998, 30.397942853777565
1237, 30.336678518576804
1237.4999999999998, 30.308350175159262
1238, 30.304746625808434
1238.5, 30.305880113860326
1238.9999999999998, 30.29216797735384
1239.5, 30.272945137908607
1239.9999999999998, 30.25787356719586
1240.5, 30.236500879877937
1241, 30.215466790955617
1241.5, 30.228442324393768
1242, 30.26745630479769
1242.4999999999998, 30.292249832590144
1243, 30.305104963553305
1243.4999999999998, 30.323538093917477
1244, 30.336730655805525
1244.5, 30.33612530536918
1244.9999999999998, 30.33706733183007
1245.5, 30.326891166386474
1245.9999999999998, 30.255787728926023
1246.5, 30.185464933846532
1247, 30.24563162339163
1247.5, 30.36415006821173
1248, 30.412310324267025
1248.4999999999998, 30.430736265708532
1249, 30.46820561085252
1249.4999999999998, 30.48965068375415
1250, 30.485606027531816
1250.5, 30.492920089443544
1250.9999999999998, 30.492655600615805
1251.5, 30.430640497076155
1251.9999999999998, 30.335692464990842
1252.5, 30.261024005346925
1253, 30.204912378290828
1253.5, 30.16372981818772
1254, 30.159293666785302
1254.4999999999998, 30.181449537423262
1255, 30.178802580476884
1255.4999999999998, 30.15738978665196
1256, 30.158728110106352
1256.5, 30.155034157253056
1256.9999999999998, 30.108144118817307
1257.5, 30.056364037957792
1257.9999999999998, 30.035688084598434
1258.5, 30.038594710272747
1259, 30.055969251562203
1259.5, 30.083631695261047
1260, 30.118767169749717
1260.4999999999998, 30.157721712083145
1261, 30.186005839196298
1261.4999999999998, 30.191022599905295
1262, 30.1834297046193
1262.5, 30.189204257596288
1262.9999999999998, 30.252321191747342
1263.5, 30.345992711448346
1263.9999999999998, 30.367502297537982
1264.5, 30.33781628575086
1265, 30.341177322065334
1265.5, 30.30054639357064
1266, 30.14123839510475
1266.4999999999998, 30.018687011116114
1267, 30.033814117182274
1267.4999999999998, 30.087388033887848
1268, 30.118551624803573
1268.5, 30.13580118665412
1268.9999999999998, 30.152387033613167
1269.5, 30.180154792804174
1269.9999999999998, 30.218131692957172
1270.5, 30.25730798028988
1271, 30.27806437294791
1271.5, 30.255460041462214
1272, 30.161302405623132
1272.4999999999998, 30.034790426127657
1273, 29.976327793830535
1273.4999999999998, 29.951759468036087
1274, 29.864137001457692
1274.5, 29.758000509899034
1274.9999999999998, 29.706502179594736
1275.5, 29.711097031083227
1275.9999999999998, 29.747836280604986
1276.5, 29.77555163708358
1277, 29.821583501078408
1277.5, 29.968896125350682
1278, 30.118121500259832
1278.4999999999998, 30.10545848932911
1279, 30.0305742131073
1279.4999999999998, 30.03077180910718
1280, 30.083604392894387
1280.5, 30.139854504523157
1280.9999999999998, 30.157302677566122
1281.5, 30.13434050832923
1281.9999999999998, 30.103623029824405
1282.5, 30.04392878848968
1283, 29.93058860796259
1283.5, 29.889552288743914
1284, 30.01438013799195
1284.4999999999998, 30.165827753136668
1285, 30.248445629581937
1285.4999999999998, 30.30382181292444
1286, 30.35387229425612
1286.5, 30.391368476264503
1286.9999999999998, 30.423190355059845
1287.5, 30.45992521739292
1287.9999999999998, 30.48828587301611
1288.5, 30.493773814263832
1289, 30.478947897273684
1289.5, 30.446788612144488
1290, 30.398042746819243
1290.4999999999998, 30.36448725029038
1291, 30.398446621481497
1291.4999999999998, 30.48077753488593
1292, 30.55971952325237
1292.5, 30.611128048830423
1292.9999999999998, 30.630113989627304
1293.5, 30.64008603877666
1293.9999999999998, 30.656845572688
1294.5, 30.677794651954272
1295, 30.694194775464695
1295.5, 30.695924402249062
1296, 30.695749699287518
1296.4999999999998, 30.70657758785785
1297, 30.69503511803562
1297.4999999999998, 30.68761272932595
1298, 30.67867351075043
1298.5, 30.668675488523093
1298.9999999999998, 30.65807668885799
1299.5, 30.64733513796915
1299.9999999999998, 30.636908862070612
1300.5, 30.62725588737642
1301, 30.61883424010061
1301.5, 30.612101946457244
1302, 30.607517032660326
1302.4999999999998, 30.608857487862224
1303, 30.6505593949761
1303.4999999999998, 30.6727398668625
1304, 30.666093395189947
1304.5, 30.677003244068644
1304.9999999999998, 30.695962268319036
1305.5, 30.697123120738866
1305.9999999999998, 30.697216700159558
1306.5, 30.695282816604404
1307, 30.627577289210763
1307.4999999999998, 30.51350858456847
1308, 30.483580790980113
1308.5, 30.535507016691227
1309, 30.570723233125904
1309.5, 30.575911269001793
1310, 30.57405374220575
1310.5, 30.577485933426004
1311, 30.574213852886544
1311.5, 30.507444822636586
1312, 30.395541406414594
1312.5, 30.348722782859426
1313, 30.34235139437814
1313.5, 30.26491254322376
1314, 30.121730619783065
1314.5, 29.975330768482678
1315, 29.91292142857516
1315.5, 29.96382329769564
1316, 30.02666163570214
1316.5, 30.02621773250513
1317, 29.943935374424072
1317.5, 29.83734242434673
1318, 29.79719533448825
1318.5, 29.79465559858292
1319, 29.780991423408494
1319.5, 29.809863787567522
1320, 29.920625087058525
1320.5, 30.078781414386043
1321, 30.233329838898513
1321.5, 30.328656904335276
1322, 30.363499621572913
1322.5, 30.370694137248393
1323, 30.365161875083288
1323.5, 30.352095820503393
1324, 30.328128171395477
1324.5, 30.294004911532
1325, 30.26173294066689
1325.5, 30.245105478960156
1326, 30.254314719823896
1326.5, 30.25066721032462
1327, 30.183985249424254
1327.5, 30.12369611578393
1328, 30.14508909230878
1328.5, 30.199852359957788
1329, 30.24753801652433
1329.5, 30.30568763168759
1330, 30.358900686842546
1330.5, 30.356285088312646
1331, 30.311093397705605
1331.5, 30.270634109779294
1332, 30.243550040935745
1332.5, 30.225130161388748
1333, 30.212146857116423
1333.5, 30.208625927867743
1334, 30.22964518177392
1334.5, 30.266447611440498
1335, 30.290371768286633
1335.5, 30.3287407806599
1336, 30.424627507153588
1336.5, 30.523799099723306
1337, 30.560276003236268
1337.5, 30.529902798733005
1338, 30.44719412109214
1338.5, 30.33984122285169
1339, 30.255908706161364
1339.5, 30.253151570676366
1340, 30.301762789211963
1340.5, 30.332925207180807
1341, 30.334459211876506
1341.5, 30.31688720494857
1342, 30.302852301383652
1342.5, 30.303339303178603
1343, 30.306086255803166
1343.5, 30.27025887586639
1344, 30.146621105880158
1344.5, 30.037508916248484
1345, 30.078429181835176
1345.5, 30.163080891118753
1346, 30.187112983923498
1346.5, 30.247250266775737
1347, 30.375607601649094
1347.5, 30.45964264708516
1348, 30.462839072601568
1348.5, 30.425355001539046
1349, 30.368822231761612
1349.5, 30.30759691004988
1350, 30.273530213085778
1350.5, 30.269778533148866
1351, 30.215011089995173
1351.5, 30.102445063827602
1352, 30.04728484443831
1352.5, 30.06116125489423
1353, 30.072277719719068
1353.5, 30.121854729021024
1354, 30.26621852710346
1354.5, 30.37354390816587
1355, 30.353574168276396
1355.5, 30.341243957018875
1356, 30.36057291428537
1356.5, 30.247514848250717
1357, 30.061146441825883
1357.5, 30.022523999527564
1358, 30.094079458639044
1358.5, 30.142102658431
1359, 30.156657509814835
1359.5, 30.165708766701925
1360, 30.207967739070142
1360.5, 30.280779690858466
1361, 30.327134475631496
1361.5, 30.335944887963365
1362, 30.333732521910562
1362.5, 30.33562701614538
1363, 30.343570530851323
1363.5, 30.329358302207666
1364, 30.287884244605948
1364.5, 30.280673743145925
1365, 30.320411284794574
1365.5, 30.349344316687777
1366, 30.36204886596468
1366.5, 30.390414185471244
1367, 30.4261982950198
1367.5, 30.4431130596966
1368, 30.414317378190475
1368.5, 30.342205866655178
1369, 30.2900643706447
1369.5, 30.278134102310844
1370, 30.2653760280258
1370.5, 30.225898475588764
1371, 30.154569265624673
1371.5, 30.094271884438584
1372, 30.080935398217633
1372.5, 30.053507192484773
1373, 29.98979098840961
1373.5, 29.98840787973205
1374, 30.06628834218523
1374.5, 30.131802748153206
1375, 30.15465415072103
1375.5, 30.153037738405658
1376, 30.1561644619878
1376.5, 30.185881862061308
1377, 30.224700283448186
1377.5, 30.257720579137427
1378, 30.291846569975917
1378.5, 30.341476682369006
1379, 30.42289085639149
1379.5, 30.507175944166818
1380, 30.54495458079805
1380.5, 30.545407891652843
1381, 30.532828004168763
1381.5, 30.50772134796776
1382, 30.47283526405991
1382.5, 30.443340378184146
1383, 30.41192083546835
1383.5, 30.350086784948715
1384, 30.281655777994573
1384.5, 30.25300607243132
1385, 30.24458805216878
1385.5, 30.226749349253225
1386, 30.2134039018233
1386.5, 30.21403680343971
1387, 30.216088871903935
1387.5, 30.231686244244003
1388, 30.295659309330347
1388.5, 30.386664559978897
1389, 30.455068944761294
1389.5, 30.48730936741154
1390, 30.482283516401722
1390.5, 30.43873383411632
1391, 30.369078339584718
1391.5, 30.309036582908305
1392, 30.2955028443633
1392.5, 30.353409606004433
1393, 30.39753419554036
1393.5, 30.317487634229764
1394, 30.20650679556995
1394.5, 30.182463228452406
1395, 30.241221063769785
1395.5, 30.334024518523577
1396, 30.37858447104722
1396.5, 30.368781660239904
1397, 30.36883440742504
1397.5, 30.39329723830093
1398, 30.427762796018158
1398.5, 30.459212682958565
1399, 30.478821273090418
1399.5, 30.487772423086383
1400, 30.488217377182224
