300, 36.5393993358744
301, 36.62718920125809
302, 36.6732347422925
303, 36.67726184075956
304, 36.77221537228184
305, 36.792909195237684
306, 36.83967512970667
307, 36.92562578108927
308, 37.00609227338644
309, 37.07149681394808
310, 37.16867224056575
311, 37.171985739664606
312, 37.22637865262379
313, 37.316393543841976
314, 37.387256305493175
315, 37.446108590696404
316, 37.5124385852548
317, 37.54552709276687
318, 37.644098833329714
319, 37.73371363679411
320, 37.8088627671655
321, 37.932342653272215
322, 37.96634316288113
323, 37.97306991946106
324, 38.019748988394895
325, 38.10998135722586
326, 38.17518705071164
327, 38.3168497800548
328, 38.38277320079069
329, 38.41294014219793
330, 38.41189610924553
331, 38.50412646872885
332, 38.5708957258093
333, 38.692511504272765
334, 38.68203523073113
335, 38.751098908591686
336, 38.892679221407334
337, 38.96019043639486
338, 39.03663920518468
339, 39.06278398611844
340, 39.15505934027516
341, 39.257865680935836
342, 39.36431502943782
343, 39.39646382573228
344, 39.5070367290435
345, 39.60482306266268
346, 39.678057072703645
347, 39.704487148734614
348, 39.72226312358473
349, 39.884357878841044
350, 39.96773453137392
351, 40.01095418353399
352, 40.01262640561094
353, 40.073868047688805
354, 40.199791832851034
355, 40.27717716807484
356, 40.2790870299828
357, 40.38297461037358
358, 40.50355222500394
359, 40.575409868576905
360, 40.6075842913348
361, 40.61006107307249
362, 40.74552871118985
363, 40.85184310223046
364, 40.92252772344178
365, 41.117538506751565
366, 41.12352825275919
367, 41.17068103068722
368, 41.260309316986486
369, 41.319828511855334
370, 41.42584781432291
371, 41.565844598526404
372, 41.72916616922715
373, 41.80350270951098
374, 41.83791775366144
375, 41.86943859615109
376, 41.92746514436757
377, 41.915406757915065
378, 42.09952561742121
379, 42.18200618985835
380, 42.3522086706631
381, 42.33128801280286
382, 42.443260749667715
383, 42.627019906917916
384, 42.67201045296534
385, 42.6919434034842
386, 42.80196848683443
387, 42.88298321996419
388, 42.942202949454206
389, 43.03765838084232
390, 43.13532337744672
391, 43.28774222661286
392, 43.32692344502948
393, 43.498433949931645
394, 43.59852139681134
395, 43.68799425127077
396, 43.86772985188751
397, 44.07854297297348
398, 44.164724207471075
399, 44.15621676219979
400, 44.28627850745459
401, 44.43259418706544
402, 44.5055791698379
403, 44.5419150548118
404, 44.60089757472649
405, 44.91546495367164
406, 44.96053717322437
407, 44.97140406185064
408, 45.11899001696999
409, 45.281080956856805
410, 45.37395839157194
411, 45.377051796376534
412, 45.52971546161079
413, 45.771845713534766
414, 45.83368449747083
415, 45.93526696573279
416, 46.13071481997958
417, 46.326604904554884
418, 46.43291299789923
419, 46.46644458589755
420, 46.59179982034027
421, 46.66514175635336
422, 46.81243375334124
423, 46.834163222430725
424, 47.000319451862076
425, 47.22272390154256
426, 47.42322463434541
427, 47.6466201156805
428, 47.859631756161974
429, 47.85743238121948
430, 48.0902422966914
431, 48.341404916692916
432, 48.524554784996035
433, 48.80085219086174
434, 49.03033979663914
435, 49.22104407231747
436, 49.303630863963456
437, 49.44698016314629
438, 49.632598068756316
439, 49.715484810799154
440, 49.90611716875094
441, 50.22514831432986
442, 50.298523323866696
443, 50.371645445533154
444, 50.60630919504194
445, 50.819400330285454
446, 50.981022259096584
447, 51.14161174893116
448, 51.302069919204854
449, 51.4957040213227
450, 51.63755320868103
451, 51.74134656169092
452, 51.996815930708344
453, 52.20054675482674
454, 52.42309158938284
455, 52.52785236938961
456, 52.7648139762631
457, 53.02545069480555
458, 53.21918695173969
459, 53.32861108487516
460, 53.49268124033668
461, 53.833721889490626
462, 53.93821889976571
463, 54.25315892234386
464, 54.37479914869306
465, 54.5001529375738
466, 54.553902964055055
467, 54.57580140536642
468, 54.73502761475708
469, 54.94983930804307
470, 55.01805247298295
471, 55.2781596922503
472, 55.49412774042356
473, 55.623507406422014
474, 55.74627717529162
475, 55.911726911825056
476, 56.07455992921158
477, 56.43674278354634
478, 56.75916318789011
479, 56.728459978137685
480, 56.77723027486062
481, 56.80398697605649
482, 56.90792467907715
483, 57.035167128424355
484, 57.03203622265146
485, 57.18446265437414
486, 57.45082537558365
487, 57.59179001151385
488, 57.61140669551425
489, 57.60381294080443
490, 57.65918957906306
491, 57.83375644505633
492, 58.08160138848041
493, 58.28812009585902
494, 58.40190878181955
495, 58.71805089808353
496, 58.69275411883659
497, 58.77611757102773
498, 58.831068272655344
499, 58.91815307817902
500, 58.97981951104289
501, 59.01337784311737
502, 59.02063239894435
503, 59.22699772846465
504, 59.23414406662079
505, 59.31014335976746
506, 59.40895148370808
507, 59.47046966142483
508, 59.391228316021405
509, 59.29630754454658
510, 59.387060987145524
511, 59.39691465000422
512, 59.333003440514545
513, 59.14328146411982
514, 58.923557752918725
515, 58.831949572334885
516, 58.74939727406566
517, 58.65601351854751
518, 58.52512086096797
519, 58.48380634715876
520, 58.36712272473049
521, 58.20714048795768
522, 58.106040759506214
523, 57.887065354354476
524, 57.619887700439335
525, 57.41777252690571
526, 57.37341718625503
527, 57.302947694673435
528, 57.104615933911894
529, 56.7245880444069
530, 56.48172773101527
531, 56.363451097216036
532, 56.244250613447974
533, 56.12796592687611
534, 55.94742925142243
535, 55.68808359203665
536, 55.61660663411663
537, 55.29570419481135
538, 55.109373769055345
539, 54.891930954530295
540, 54.79730481672925
541, 54.706853236049305
542, 54.60758461846858
543, 54.399568063712685
544, 54.332394765901725
545, 54.258843794552085
546, 54.07312903721883
547, 53.911090464537146
548, 53.69594851326698
549, 53.61372545532565
550, 53.58247331465694
551, 53.485584419937595
552, 53.32194358239846
553, 53.136326141051995
554, 52.95622049356327
555, 52.864950597771625
556, 52.75618402200275
557, 52.61108641285708
558, 52.56267382831519
559, 52.50519345785806
560, 52.46647436047169
561, 52.46870134723273
562, 52.501698272070776
563, 52.447627841215116
564, 52.43995437409174
565, 52.50240143979098
566, 52.46600202327415
567, 52.39766924177631
568, 52.35709432522897
569, 52.43242481069021
570, 52.49419734080124
571, 52.463882966655106
572, 52.40342465192895
573, 52.40901251714616
574, 52.445771086369746
575, 52.519481794308795
576, 52.537627973286135
577, 52.500778959182355
578, 52.55768499662556
579, 52.5916483741168
580, 52.61889346088637
581, 52.523393347821866
582, 52.49363310430911
583, 52.423056932436516
584, 52.43694074173658
585, 52.35181013587556
586, 52.172454868949586
587, 52.22047203916404
588, 52.1227872869804
589, 52.07658439611852
590, 52.058691549992176
591, 52.03487457898402
592, 51.88670529001551
593, 51.811151014788486
594, 51.77770594415519
595, 51.54799085412985
596, 51.333340947055646
597, 51.23048615321306
598, 51.18862359635061
599, 51.01474761357829
600, 50.892432131433885
601, 50.81530569379945
602, 50.65682555501701
603, 50.66660890445419
604, 50.568554953937614
605, 50.166014718745025
606, 49.756207229566265
607, 49.453787869923985
608, 49.348044885025836
609, 49.31977403614992
610, 49.247159310405635
611, 48.83417607353656
612, 48.80705245285986
613, 48.47804072411971
614, 47.94915432056946
615, 47.584428036026814
616, 47.300355385840845
617, 46.85384024160439
618, 46.16515347697963
619, 45.954916943221406
620, 46.08413388562609
621, 46.181084709271964
622, 46.33546489931052
623, 46.496384889199874
624, 46.590927285034766
625, 46.78576236626166
626, 47.02775451903532
627, 46.87925102022488
628, 46.57398506880109
629, 45.86569623983812
630, 45.40101507165796
631, 45.0869275584933
632, 45.05418604756607
633, 44.93533981506431
634, 44.65379149698499
635, 44.56176984253686
636, 44.6340370514397
637, 44.54336134150226
638, 44.572214392588506
639, 44.50631315599961
640, 44.52442806381902
641, 44.5672382740134
642, 44.423341256001706
643, 44.338867195501756
644, 44.22789227979546
645, 44.06397132425499
646, 43.98579069121702
647, 43.810964565312794
648, 43.64655889507452
649, 43.52572178722946
650, 43.276287906258965
651, 43.16772505089086
652, 43.010192633849414
653, 42.97366787395014
654, 42.81515021184588
655, 42.80928003677334
656, 42.7554049564128
657, 42.60348227390909
658, 42.6935524010572
659, 42.65113119026071
660, 42.49297616585901
661, 42.47128937103794
662, 42.43205960305436
663, 42.37795858178927
664, 42.39404953958291
665, 42.16922847299654
666, 41.96029185429786
667, 42.05230561713143
668, 42.12095503465541
669, 42.08765497340036
670, 41.60136815141277
671, 41.476047938787644
672, 41.442183663776824
673, 41.14338858062145
674, 40.895134242234185
675, 40.860260053000765
676, 40.691710741356324
677, 40.65117524659159
678, 40.90563606539685
679, 41.18188751121681
680, 41.29708988268901
681, 41.35706477550846
682, 41.70409222711386
683, 41.735291223707904
684, 41.568599968017345
685, 41.460172723445595
686, 41.39386489387232
687, 41.282353465617696
688, 41.239353323401424
689, 41.08033584108468
690, 40.9083672755051
691, 40.77721879451699
692, 40.862525629868415
693, 40.96860396956337
694, 40.94082419057066
695, 40.93803780500297
696, 40.97057739447387
697, 41.12700275085064
698, 41.14945771254733
699, 41.138223772188596
700, 41.07499457636474
701, 41.052291253179895
702, 41.08526259103761
703, 41.219345608335686
704, 41.27051591376737
705, 41.30731961091262
706, 41.318469930698065
707, 41.22772287563747
708, 41.1559102033642
709, 41.09545038261062
710, 40.99916458137328
711, 41.00015320755984
712, 41.0264787761942
713, 40.94852727862256
714, 40.93125669132943
715, 41.03727736332858
716, 40.887011026230596
717, 40.695538701230994
718, 40.676570357704946
719, 40.720981974210076
720, 40.70708240439221
721, 40.51156524737999
722, 40.37223536218884
723, 40.4112896043532
724, 40.572375378467534
725, 40.5773741824102
726, 40.579540282436405
727, 40.56650022688697
728, 40.53695989503175
729, 40.7615656836714
730, 40.82721458727861
731, 40.668940450741225
732, 40.66995144719837
733, 40.78009692919044
734, 40.87852534380444
735, 40.93395813251461
736, 40.94119764484057
737, 40.91266568848023
738, 40.949871347619016
739, 41.23302986944168
740, 41.26681058309446
741, 41.23686253139052
742, 41.144444449131136
743, 40.94655667597138
744, 40.98862439325577
745, 41.044543431614386
746, 41.06080261922413
747, 41.159016649443224
748, 41.185309846527076
749, 41.120751433487555
750, 41.11924253739116
751, 41.084063368098775
752, 40.85755754329829
753, 40.538230052740694
754, 40.247190444632274
755, 40.125556039949046
756, 40.16482083582531
757, 40.23356162664558
758, 40.333658665763515
759, 40.420347564937806
760, 40.32955161961202
761, 40.85674152712976
762, 41.433958003885024
763, 41.31542891730048
764, 41.37471646865899
765, 41.38659767878304
766, 41.43662518936245
767, 41.45792731403994
768, 41.32987354446059
769, 41.454637262098295
770, 41.56016685887599
771, 41.371884795116706
772, 41.34468596696742
773, 41.315171391220005
774, 41.486428243924095
775, 41.754662011508806
776, 41.7619500711799
777, 41.632649632120724
778, 41.42415862795602
779, 41.44647278543526
780, 41.579111932751736
781, 41.461243224539416
782, 41.49690425121771
783, 41.629059364236184
784, 41.50429886648367
785, 41.465050215126006
786, 41.36501620198469
787, 41.50784422732391
788, 41.610869817588785
789, 41.69996736477054
790, 41.68818351011011
791, 41.68093399549294
792, 41.73605398141048
793, 41.68077428489609
793.9999999999999, 41.53038169492586
795, 41.481573382999315
796, 41.433263322762
797, 41.19530874841496
798, 40.939500127878865
799, 41.29701024494314
800, 41.41362223573841
801, 41.3596246661282
801.9999999999999, 41.44616432988012
803, 41.46503222244708
804, 41.48738176129495
805, 41.63401319551342
806, 41.97764550779969
807, 42.08666172296544
808, 41.92546398800198
809, 41.84872644505104
810, 41.83312410848505
811, 41.85073602027949
812, 41.6024346776975
813, 41.53380467079209
814, 41.21548210074388
815, 40.82049750212318
816, 40.85021174664536
817, 40.81155627454391
818, 40.664221698221446
818.9999999999999, 40.58405004430681
820, 40.6773097284168
821, 40.837612847947575
822, 40.996088600428095
823, 41.002381979421344
824, 40.9526469149177
825, 40.84408192544232
826, 40.536406035170224
826.9999999999999, 40.275921471675964
828, 40.15371506578608
829, 40.11583830080215
830, 39.97877212482329
831, 39.91498401334298
832, 39.610095289114795
833, 39.137999069426215
834, 38.928798427087386
834.9999999999999, 39.146300929507085
836, 38.81780747190305
837, 38.64672767065303
838, 38.62051270877831
839, 38.736917282963695
840, 38.549618142846036
841, 38.06272229784602
842, 38.05671999518329
843, 37.93399499661956
843.9999999999999, 37.59929152503956
845, 37.478002498284106
846, 37.353380364071036
847, 37.266385092204445
848, 37.06244130802287
849, 37.023139337802206
850, 36.938195528721984
851, 36.667042536530005
851.9999999999999, 36.4947832228168
853, 36.37689694973156
854, 36.67061927853022
855, 36.27933138777149
856, 36.222286003820315
857, 36.252120760976624
858, 36.21368931531951
859, 36.21416806293513
859.9999999999999, 36.425961748936714
861, 36.254458937863504
862, 35.93224980410068
863, 36.105245522764235
864, 36.14557926573691
865, 36.19692889487489
866, 36.134734994033664
867, 36.44404743604801
867.9999999999999, 36.53584487194462
869, 36.523134469849104
870, 36.49285627300486
871, 36.55509016495939
872, 36.614680912719564
873, 36.615142601877075
874, 36.65152397363277
875, 36.678656069954215
876, 36.73330518546129
876.9999999999999, 36.913521372548814
878, 37.113783157209134
879, 37.171606655110985
880, 37.50900199603328
881, 37.68155209430145
882, 37.860225054333625
883, 37.94057624107249
884, 37.92766579239893
884.9999999999999, 38.08316973584683
886, 38.15005995489835
887, 38.186662710522654
888, 37.93773995597746
889, 37.94108108620389
890, 37.86133169880995
891, 37.73179021159378
892, 37.889880494706276
892.9999999999999, 38.00672462347159
894, 38.027852995328196
895, 38.068214939207095
896, 38.17833608081113
897, 38.273295954086386
898, 38.52872016957972
899, 38.79547619626928
900, 38.92559932051859
900.9999999999999, 38.92832201952532
902, 39.08960215883141
903, 39.43065600596299
904, 39.66571714350596
905, 39.90666451899796
906, 40.15807011940677
907, 40.54143449189472
908, 40.60079961862458
909, 40.58003665297161
909.9999999999999, 40.74891220821112
911, 41.11502931787978
912, 41.42005522419017
913, 41.50019794435582
914, 41.77435717759745
915, 41.81134452608886
916, 42.1033977783732
917, 42.6202583106473
917.9999999999999, 42.703188054023954
919, 42.967805319982425
920, 43.38407369820958
921, 43.306208741680074
922, 43.45474371494649
923, 43.460004622890686
924, 43.764443380026904
925, 44.21811405963443
925.9999999999999, 44.27267580035959
927, 44.13315120766812
928, 44.54817334253263
929, 44.87499304053274
930, 45.59314125278747
931, 45.65620232638112
932, 45.71123377344563
933, 45.70515993066365
933.9999999999999, 45.98405817011262
935, 46.515955250156175
936, 46.816212136898564
937, 47.03910942937113
938, 47.36964457754204
939, 47.66213714187575
940, 47.74364027299575
941, 47.94734539578405
942, 48.168700891326395
942.9999999999999, 48.12208480284655
944, 48.1302895067663
945, 48.74931886599945
946, 48.70315462453424
947, 48.730748699821575
948, 48.796024369274164
949, 48.70932743739212
950, 48.866138346655575
950.9999999999999, 49.23650214791359
952, 49.443129878409145
953, 49.62478486602864
954, 49.652057385181166
955, 50.399859660460265
956, 50.53944165494296
957, 51.05484650466486
958, 51.74903449650271
958.9999999999999, 51.68411148213782
960, 51.69431972054503
961, 51.687093410965126
962, 51.586468254446785
963, 51.76794009920955
964, 52.19701174317688
965, 52.33407981451743
966, 52.52418095245289
966.9999999999999, 52.436761997551976
968, 52.817901448034924
969, 53.217580592620315
970, 53.2618728208662
971, 53.26248624586872
972, 53.54584025306392
973, 53.618446112740685
974, 54.02488849299949
975, 54.072587958034994
975.9999999999999, 54.158739522142135
977, 54.49917779801141
978, 55.07202879035372
979, 55.11754134156022
980, 55.26326908693684
981, 55.31606263792467
982, 55.49677898916015
983, 55.609267502478055
983.9999999999999, 56.4581138997863
985, 56.669818038999516
986, 56.59534153125605
987, 56.408414320117735
988, 56.44409528102022
989, 56.676528846720885
990, 56.924410166337225
991, 57.1724434915757
991.9999999999999, 57.39634568371541
993, 57.498458204668594
994, 57.69601215030329
995, 57.5284052837954
996, 57.20860305643364
997, 57.334669376127344
998, 57.54595409333294
999, 57.683340989636385
999.9999999999999, 57.75632546874267
1001, 58.19011496244785
1002, 58.26786221949737
1003, 58.276223263856764
1004, 58.44000546317036
1005, 58.56289005411835
1006, 58.31888155835934
1007, 57.95881097079497
1008, 58.24258368657469
1008.9999999999999, 58.53660165147124
1010, 58.71216050608633
1011, 59.09339519227505
1012, 59.26082298943849
1013, 60.11338788563826
1014, 60.37219386924538
1015, 60.309272338025565
1016, 60.310234325829306
1016.9999999999999, 60.373872208669965
1018, 60.353780829474815
1019, 60.23576826263065
1020, 60.416456082427096
1021, 60.35721755690387
1022, 60.321251615699374
1023, 60.43863677213355
1024, 60.44536382498451
1025, 60.45971238003211
1026, 60.85581809739262
1027, 60.609331689923714
1028, 60.3393794495007
1029, 60.22189813208003
1030, 60.80753177661832
1031, 61.181862634417904
1032, 61.03275793728817
1033, 61.22927843816114
1034, 61.19639209026561
1035, 61.14677988957497
1036, 61.234476776425346
1037, 61.68178897505186
1038, 62.011067403003096
1039, 61.939577922106615
1040, 62.00468326599185
1041, 61.58128922008991
1042, 61.87389566399969
1043, 62.25913621733519
1044, 62.47143157372524
1045, 62.08554661578275
1046, 61.2024733866336
1047, 61.414601726320875
1048, 61.45737889803067
1049, 61.35037308886117
1050, 61.27650180468312
1051, 61.707952024170886
1052, 61.60173754264822
1053, 61.63333877033585
1054, 61.932472587935294
1055, 62.32646532886483
1056, 62.59670143478904
1057, 62.624869683950294
1058, 62.61420187671393
1059, 62.29379080952315
1060, 61.9936800703048
1061, 62.05728036803004
1062, 62.12985263524111
1063, 62.017996788894976
1064, 61.499993132933604
1065, 61.5518212788612
1066, 61.362617217736634
1067, 61.06037775558057
1068, 60.859090571792414
1069, 60.97787173832154
1070, 61.20870298654381
1071, 61.840176539258046
1072, 62.03537869593621
1073, 62.03773909600322
1074, 62.17540056787452
1075, 61.991681547983795
1076, 62.04843965518127
1077, 61.892040197322544
1078, 61.671959129900586
1079, 61.13257852211855
1080, 61.12131172687081
1081, 61.074304607279075
1082, 61.25994208401125
1083, 61.35474335782033
1084, 62.23282082413909
1085, 62.647383767432245
1086, 62.46472177934651
1087, 62.34800636907229
1088, 62.547541892318264
1089, 62.59342283517183
1090, 62.554003217885295
1091, 62.27802442115617
1092, 62.04721584247134
1093, 61.597818314781634
1094, 61.85014483348919
1095, 61.8780893400891
1096, 61.891992948436545
1097, 61.7008065204499
1098, 62.176923192365095
1099, 62.51959812719974
1100, 61.709946079847676
1101, 61.77646240109838
1102, 61.79445281296259
1103, 61.817320015313165
1104, 61.50938877010513
1105, 61.23022571626686
1106, 61.09628883710191
1107, 60.87546514039233
1108, 60.897166733554926
1109, 61.18950541616094
1110, 61.30156298807749
1111, 61.28436522503887
1112, 61.28736320009369
1113, 61.49134644801871
1114, 62.62154956498079
1115, 62.94920380868973
1116, 63.00684104352928
1117, 62.5154576592242
1118, 62.44047946732472
1119, 62.47406259243474
1120, 62.46497110829232
1121, 61.95045605901578
1122, 61.00865341065556
1123, 60.89290712857447
1124, 60.68602776678952
1125, 60.75607941365023
1126, 60.70900234537649
1127, 60.06107381326777
1128, 59.529993676357925
1129, 59.514548576947604
1130, 59.10478362701127
1131, 58.87053411019695
1132, 58.40016517414386
1133, 57.96816256385372
1134, 58.22096900723826
1135, 58.23761626503213
1136, 58.17072230774437
1137, 57.982671823277656
1138, 57.97474646065336
1139, 57.8202592869042
1140, 57.80884660069795
1141, 57.4104242760248
1142, 57.029162522960966
1143, 56.13400307820794
1144, 55.863424351338416
1145, 55.91717959798766
1146, 55.81561817461855
1147, 55.55961286836099
1148, 54.96364389067848
1149, 55.377555272756354
1150, 55.23164292113132
1151, 55.13999842437183
1152, 55.14469929440818
1153, 55.30461027577601
1154, 55.41141367664715
1155, 55.21642956436564
1156, 54.670763143753675
1157, 54.51258188159904
1158, 54.76646702778659
1159, 54.55264702986755
1160, 54.27707935584488
1161, 54.023931052473856
1162, 53.79501128777046
1163, 53.73099948051059
1164, 53.747519936082334
1165, 53.59366401313741
1166, 53.28955324794345
1167, 53.53183353031187
1168, 52.63297954577502
1169, 52.34744855336595
1170, 52.309637598639426
1171, 52.384630227570575
1172, 52.32831256632054
1173, 52.2050110838384
1174, 52.08220585990441
1175, 52.16583073497111
1176, 51.90934980787758
1177, 51.05478075411368
1178, 51.3382376070988
1179, 51.70545913507004
1180, 51.873622048876186
1181, 51.91957141745192
1182, 51.59513724841177
1183, 51.14759260838985
1184, 50.34534726905608
1185, 49.44935828980843
1186, 49.327385035274126
1187, 47.00992182915196
1188, 46.302479846711975
1189, 46.471472469260924
1190, 46.67248917702665
1191, 47.62000206228875
1192, 47.78118503479044
1193, 48.02674645963233
1194, 49.22117258126513
1195, 49.629381856241125
1196, 49.49019052311037
1197, 49.083628502491315
1198, 48.63220694370402
1199, 48.46935531561097
1200, 47.188260138521414
1201, 45.72552912031926
1202, 44.364495105965254
1203, 44.197618331767245
1204, 44.27359274513005
1205, 44.59359095175456
1206, 44.75549284773377
1207, 45.7512744565242
1208, 45.657043864633664
1209, 45.67961738937348
1210, 45.46686540215686
1211, 44.76776314170884
1212, 44.77068536583302
1213, 45.1263019548511
1214, 45.340883857031045
1215, 45.27849879299709
1216, 44.668951367501776
1217, 44.4722678551928
1218, 44.380049816158966
1219, 44.34490897655
1220, 43.96201597816092
1221, 43.192330789653774
1222, 42.591890507564955
1223, 43.03823586322509
1224, 43.14979493132648
1225, 43.166331350387075
1226, 43.10704498512404
1227, 42.653427349283035
1228, 42.41626822078741
1229, 42.54486488430226
1230, 42.937243302728625
1231, 42.74916481427064
1232, 42.0947490393753
1233, 42.1607874460922
1234, 42.280235127190366
1235, 41.57461737890208
1236, 40.759315114865586
1237, 40.77585491446406
1238, 40.409843428969914
1239, 39.099682667970555
1246, 38.47834135567676
1247, 38.82341852823744
1248, 39.12794099706807
1249, 39.31224114542306
1250, 39.3114678011701
1251, 39.00243705570915
1252, 38.87398399302539
1253, 38.5097825136078
1254, 38.743358564385346
1255, 38.529861587470265
1256, 37.97390798819541
1257, 38.02212565631138
1258, 38.24672268015313
1259, 38.405316891218
1260, 38.65747426273099
1261, 38.78315193880627
1262, 38.314460311789006
1263, 38.56172720506056
1264, 38.150643314025515
1265, 38.18360012116679
1266, 38.388957356955444
1267, 38.73656363410952
1268, 38.58685508185766
1269, 38.13602979620278
1270, 38.26000760835767
1271, 38.21789507063638
1272, 38.3843576707691
1273, 37.96716495542487
1274, 37.71381336907147
1275, 37.793045224923496
1276, 37.318546093150374
1277, 36.98186138124405
1278, 37.48811842716719
1279, 37.726485152976316
1280, 37.675735891670364
1281, 36.682527795095446
1282, 36.38352143034639
1283, 36.31667057077023
1284, 36.395418804006
1285, 36.55773432398194
1286, 36.87559182909475
1287, 37.451908850747635
1288, 37.5954936517968
1289, 37.60951141727612
1290, 37.5757374656516
1291, 37.62084105305179
1292, 37.64669978173953
1293, 37.51003118208388
1294, 37.88332246530942
1295, 37.874531204567546
1296, 37.934284392921036
1297, 37.85945888828931
1298, 37.84653815221039
1299, 37.831714642317586
1300, 37.87442508645346
1301, 37.96648174549097
1302, 37.9966224445591
1303, 38.058708104338294
1304, 38.048582180283304
1305, 38.009493163884684
1306, 38.05869594200125
1307, 38.09467306589521
1308, 38.084626542222544
1309, 37.87509088476243
1310, 38.11100627456602
1311, 38.0826420248297
1312, 38.081911075369796
1313, 37.60134039768466
1314, 36.38124291088235
1315, 36.239500800851914
1316, 35.819718752785604
1317, 35.572525628990675
1317.9999999999998, 35.56798450994357
1319, 35.612823487772815
1320, 35.6719390561848
1321, 36.40218022282883
1322, 36.58234552971643
1323, 36.67412505779304
1324, 36.604294612835766
1325, 36.64294534793644
1326, 36.72980360079069
1326.9999999999998, 36.55117924038734
1328, 36.51619091177047
1329, 36.72571475803312
1330, 37.126107870957895
1331, 37.03229656787279
1332, 37.0473342201347
1333, 37.304881877428166
1333.9999999999998, 37.447831622770664
1335, 36.70279927430813
1336, 36.56318606846035
1337, 36.90961077174445
1338, 36.97044646617086
1339, 36.229575399421904
1340, 36.56941431548577
1341, 36.41578499042075
1342, 36.191744749064725
1342.9999999999998, 36.102136488745444
1344, 36.1057228719128
1345, 36.19023158506741
1346, 36.434051780296016
1347, 36.54441089389814
1348, 36.64079524322078
1349, 37.044468968819
1350, 36.84622882285781
1351, 36.725598170678865
1352, 35.94294378728412
1353, 35.93590185410497
1354, 35.83090253105172
1355, 35.40357003883878
1356, 35.44535301563144
1357, 35.48157365233806
1358, 35.55944531663931
1358.9999999999998, 35.44334710315994
1360, 35.42112617947893
1361, 35.3624596631702
1362, 35.92667740871731
1363, 36.19944391898805
1364, 36.47714008837149
1365, 36.3594148387312
1366, 36.905238826645416
1367, 36.943001636705965
1367.9999999999998, 36.913268776696135
1369, 36.30804448471561
1370, 35.79615164777344
1371, 35.58979168536966
1372, 35.33426812593797
1373, 35.29090994212976
1374, 35.202525300466135
1375, 35.18310551207588
1376, 35.35089220018638
1377, 35.42034498619566
1378, 35.66521113144694
1379, 35.7437323344695
1380, 35.92077323184883
1381, 36.64721375899493
1382, 36.82352817119298
1383, 36.913729805446366
1383.9999999999998, 36.7219612079064
1385, 35.88901419963878
1386, 36.38056360504869
1387, 36.56277673836208
1388, 36.30567400207728
1389, 35.96939311043727
1390, 35.71748654841106
1391, 36.66857941434297
1392, 37.00446807510121
1392.9999999999998, 37.002315374985585
1394, 37.101109989419776
1395, 36.49487703457362
1396, 37.016268770409596
1397, 37.05532546020681
1398, 37.46232008953667
1399, 37.44621541487164
1399.9999999999998, 37.45455345761209
1240.0216389484067, 39.89395378284269
1242.2358404471202, 39.53862436461416
1245.5571426951901, 39.46755848096846
1314.1973891553018, 37.051318437014494
1319.732892902085, 37.12238432066019
1326.3754973982248, 37.12238432066019
