301.5, 26.26923639635899
302, 26.214263615482736
302.5, 26.166144438695426
303, 26.132722957885065
303.5, 26.15243671668398
304, 26.176738319209107
304.5, 26.204338026257915
305, 26.233946098627882
305.5, 26.26427279711649
306, 26.294028382521205
306.5, 26.321923115639493
307, 26.34666725726882
307.5, 26.36697106820668
308, 26.383606397595457
308.5, 26.40008402603503
309, 26.424048878191314
309.5, 26.456158079765885
310, 26.49320765294486
310.5, 26.533426857173907
311, 26.57504495189862
311.5, 26.616291196564617
312, 26.655394850617526
312.5, 26.690585173502996
313, 26.72009142466665
313.5, 26.744813865812375
314, 26.77282416759151
314.5, 26.804277407282683
315, 26.838780464018598
315.5, 26.875940216931895
316, 26.915363545155245
316.5, 26.95665732782136
317, 26.999428444062843
317.5, 27.04328377301242
318, 27.087830193802716
318.5, 27.132674585566434
319, 27.1774238274362
319.5, 27.22168479854473
320, 27.265064378024647
320.5, 27.307169445008654
321, 27.347606878629378
321.5, 27.38598355801956
322, 27.421906362311788
322.5, 27.454982170638786
323, 27.484817862133184
323.5, 27.51102031592768
324, 27.527442171280995
324.5, 27.54359184089145
325, 27.55971859232514
325.5, 27.577351610374663
326, 27.60412189433984
326.5, 27.634466889598514
327, 27.667993440936044
327.5, 27.704308393137623
328, 27.743018590988626
328.5, 27.783730879274273
329, 27.826052102779855
329.5, 27.869589106290704
330, 27.913948734592054
330.5, 27.95873783246921
331, 28.003563244707436
331.5, 28.04803181609205
332, 28.09175039140831
332.5, 28.1343258154415
333, 28.175364932976905
333.5, 28.214474588799817
334, 28.251261627695513
334.5, 28.285332894449283
335, 28.316295233846404
335.5, 28.34375549067218
336, 28.35746733937941
336.5, 28.353908860999084
337, 28.37040832304362
337.5, 28.398811079353408
338, 28.431939450803128
338.5, 28.468183581668626
339, 28.50593361622579
339.5, 28.543579698750463
340, 28.57951197351852
340.5, 28.612120584805808
341, 28.639795676888184
341.5, 28.66821149736103
342, 28.71741587067953
342.5, 28.77721983706266
343, 28.840170009344376
343.5, 28.898813000358658
344, 28.945695422939437
344.5, 28.989886923695934
345, 29.05241799777741
345.5, 29.116731660144183
346, 29.16419057691428
346.5, 29.164320651469154
347, 29.16849725411248
347.5, 29.206138105585225
348, 29.252783145064598
348.5, 29.295855198489463
349, 29.329246803335167
349.5, 29.378621556021102
350, 29.43493179446635
350.5, 29.483091133594854
351, 29.507123104613726
351.5, 29.52952221070379
352, 29.555596124114857
352.5, 29.584413372880988
353, 29.615042485036298
353.5, 29.646551988614817
354, 29.678010411650675
354.5, 29.708486282177915
355, 29.73704812823067
355.5, 29.76276447784298
356, 29.784703859048932
356.5, 29.80827206865756
357, 29.849743902236796
357.5, 29.896653639048083
358, 29.936423524156098
358.5, 29.94577926826743
359, 29.946336836601702
359.5, 29.972659074096654
360, 30.011668054883117
360.5, 30.056017532659297
361, 30.10476423725879
361.5, 30.156964898515227
362, 30.2116762462622
362.5, 30.26795501033331
363, 30.324857920562195
363.5, 30.38144170678241
364, 30.43676309882764
364.5, 30.489878826531424
365, 30.539845619727373
365.5, 30.585720208249143
366, 30.6265593219303
366.5, 30.66141969060446
367, 30.69092845964005
367.5, 30.725203855976332
368, 30.76413104105866
368.5, 30.806884153989373
369, 30.852637333870845
369.5, 30.90056471980536
370, 30.94984045089531
370.5, 30.99963866624296
371, 31.04913350495069
371.5, 31.097499106120864
372, 31.14390960885575
372.5, 31.187539152257727
373, 31.227561875429117
373.5, 31.263151917472257
374, 31.293483417489483
374.5, 31.32543226307837
375, 31.36417948487771
375.5, 31.40355639420244
376, 31.437569565257988
376.5, 31.464664175872727
377, 31.484456511509023
377.5, 31.5236567539594
378, 31.570527861314744
378.5, 31.612477988480123
379, 31.626868228809855
379.5, 31.62815627328483
380, 31.650701815355617
380.5, 31.695297576428175
381, 31.74769782642825
381.5, 31.805326870040233
382, 31.86560901194852
382.5, 31.925968556837574
383, 31.98382980939175
383.5, 32.03661707429555
384, 32.08175465623329
384.5, 32.121062046356045
385, 32.18440493024747
385.5, 32.25943977609754
386, 32.326043542319525
386.5, 32.347014523420256
387, 32.37056694625514
387.5, 32.41514300299389
388, 32.48598229008002
388.5, 32.52131272898987
389, 32.555501730783874
389.5, 32.59471767513091
390, 32.637903170982696
390.5, 32.68400082729099
391, 32.73195325300743
391.5, 32.78070305708377
392, 32.829192848471706
392.5, 32.87636523612295
393, 32.92116282898921
393.5, 32.96252823602222
394, 32.99940406617365
394.5, 33.03073292839525
395, 33.08221684562339
395.5, 33.15830261882975
396, 33.24731953512469
396.5, 33.34492192408956
397, 33.446764115305854
397.5, 33.54850043835492
398, 33.645785222818205
398.5, 33.73427279827713
399, 33.80961749431309
399.5, 33.848085183881
400, 33.849708657542166
400.5, 33.849657143720606
401, 33.853623050584005
401.5, 33.86265109799744
402, 33.877589143696895
402.5, 33.90791263338487
403, 33.952767511845764
403.5, 34.0039593722376
404, 34.060387532301604
404.5, 34.120951309778945
405, 34.18455002241083
405.5, 34.2500829879385
406, 34.31644952410309
406.5, 34.38254894864585
407, 34.44728057930796
407.5, 34.50954373383061
408, 34.568237729955
408.5, 34.62226188542235
409, 34.670515517973854
409.5, 34.71189794535067
410, 34.76094079199946
410.5, 34.832255165281424
411, 34.905865436856544
411.5, 34.96117037576225
412, 34.97726554346501
412.5, 34.99823067272507
413, 35.0577083783602
413.5, 35.13085725702271
414, 35.21381191232912
414.5, 35.30270694789611
415, 35.393676967340326
415.5, 35.48285657427837
416, 35.566380372326904
416.5, 35.64038296510253
417, 35.70099895622191
417.5, 35.7247120852596
418, 35.767171734723206
418.5, 35.816362803899494
419, 35.8641616409019
419.5, 35.908987593129496
420, 35.93423626337538
420.5, 36.032618034344
421, 36.153990513975344
421.5, 36.26564198411475
422, 36.31184371054026
422.5, 36.30665953610489
423, 36.34611130727009
423.5, 36.41988067056623
424, 36.50722998126047
424.5, 36.60381511934572
425, 36.70529196481493
425.5, 36.807316397661005
426, 36.90554429787687
426.5, 36.99563154545545
427, 37.07323402038968
427.5, 37.134500193880456
428, 37.19521413815632
428.5, 37.26404104362069
429, 37.34008914618875
429.5, 37.42246668177568
430, 37.51028188629662
430.5, 37.60264299566675
431, 37.698658245801234
431.5, 37.797435872615246
432, 37.89808411202395
432.5, 37.999711199942496
433, 38.10142537228609
433.5, 38.202334864969856
434, 38.301547913909
434.5, 38.398172755018656
435, 38.49131762421402
435.5, 38.58009075741023
436, 38.66360039052249
436.5, 38.740954759465936
437, 38.811262100155744
437.5, 38.87363064850708
438, 38.93412614054594
438.5, 39.01156157266322
439, 39.10282503442099
439.5, 39.2034094533163
440, 39.3088077568461
440.5, 39.414512872507416
441, 39.51601772779722
441.5, 39.608815250212544
442, 39.68839836725035
442.5, 39.74213507740775
443, 39.776400372415
443.5, 39.82136685818081
444, 39.91092745424691
444.5, 40.014190909422396
445, 40.10348811959487
445.5, 40.1704228288449
446, 40.24933938783549
446.5, 40.33974957546043
447, 40.439690253118
447.5, 40.547198282206466
448, 40.660310524124085
448.5, 40.777063840269136
449, 40.89549509203988
449.5, 41.01364114083457
450, 41.129538848051475
450.5, 41.24122507508888
451, 41.346736683345014
451.5, 41.444110534218176
452, 41.53138348910661
452.5, 41.6065924094086
453, 41.65798459127931
453.5, 41.68374411581785
454, 41.73120982669678
454.5, 41.80288478286625
455, 41.87624412539154
455.5, 41.93218714597223
456, 42.00161416813136
456.5, 42.08460095238623
457, 42.17868261448383
457.5, 42.28139427017121
458, 42.39027103519535
458.5, 42.50284802530326
459, 42.61666035624195
459.5, 42.729243143758445
460, 42.83813150359974
460.5, 42.94086055151284
461, 43.03496540324478
461.5, 43.11798117454255
462, 43.187442981153154
462.5, 43.23599152866921
463, 43.285331686661436
463.5, 43.35611031907303
464, 43.44364629146446
464.5, 43.54328134948692
465, 43.650357238791614
465.5, 43.76021570502974
466, 43.86819849385244
466.5, 43.96964735091096
467, 44.059904021856475
467.5, 44.134310252340164
468, 44.16319397037508
468.5, 44.19729210372686
469, 44.23954633065274
469.5, 44.30658638847884
470, 44.37945469373838
470.5, 44.45870144590494
471, 44.54694592281877
471.5, 44.65855001557378
472, 44.76321047525176
472.5, 44.82830953292606
473, 44.875936889669596
473.5, 44.926861228973955
474, 44.99424329291175
474.5, 45.0691026426138
475, 45.13147372284922
475.5, 45.155577667914784
476, 45.22763033350945
476.5, 45.3195443575637
477, 45.42015667651293
477.5, 45.52015767114396
478, 45.5546984770657
478.5, 45.5813946824312
479, 45.60394034423275
479.5, 45.65390209698851
480, 45.715598114475085
480.5, 45.78430840211955
481, 45.85531296534903
481.5, 45.923891809590586
482, 45.98532494027133
482.5, 46.03489236281837
483, 46.056730820749266
483.5, 46.07912812894123
484, 46.103633050195214
484.5, 46.21907433000363
485, 46.33695461898306
485.5, 46.45666169414179
486, 46.542101635582256
486.5, 46.55974500761891
487, 46.57513698461864
487.5, 46.59694276890562
488, 46.63775938328715
488.5, 46.68455217062504
489, 46.725017970430834
489.5, 46.791921480419134
490, 46.85480900613114
490.5, 46.9238825976241
491, 46.97084870797538
491.5, 47.01994156817573
492, 47.05204278201336
492.5, 47.08227040849788
493, 47.1057899966213
493.5, 47.179603774754455
494, 47.27280270715359
494.5, 47.37346292280804
495, 47.46966055070719
495.5, 47.549471719840376
496, 47.56582295033826
496.5, 47.55085457354507
497, 47.56177359416841
497.5, 47.58992505811821
498, 47.62287241235288
498.5, 47.659006853256535
499, 47.69671957721331
499.5, 47.73440178060726
500, 47.77044465982254
500.5, 47.80323941124325
501, 47.83117723125349
501.5, 47.84563164992729
502, 47.85150865030677
502.5, 47.8695324418626
503, 47.8840706372262
503.5, 47.90200561828619
504, 47.921130070509506
504.5, 47.947608604354784
505, 47.994144082783635
505.5, 48.05327677035543
506, 48.099638318334854
506.5, 48.1478323667306
507, 48.1899107011983
507.5, 48.2235962864764
508, 48.24097654073042
508.5, 48.249700844172814
509, 48.24066508198399
509.5, 48.22825005926997
510, 48.20131565309864
510.5, 48.16714900639288
511, 48.11337226544797
511.5, 48.066429284111976
512, 48.001906177316734
512.5, 47.903995891946145
513, 47.80267746588171
513.5, 47.726098775644665
514, 47.72599587581399
514.5, 47.72020806226864
515, 47.66044405876191
515.5, 47.585880501495616
516, 47.51667015317185
516.5, 47.474079079786044
517, 47.443577238635704
517.5, 47.403222854636695
518, 47.346858367349796
518.5, 47.280054101170286
519, 47.21100125405369
519.5, 47.14789102395551
520, 47.09891460883127
520.5, 47.007140146997195
521, 46.94350282241974
521.5, 46.880972354010076
522, 46.820661064349004
522.5, 46.76488808568194
523, 46.66735802010349
523.5, 46.598741610002506
524, 46.535367633041844
524.5, 46.503577685104204
525, 46.47057242444764
525.5, 46.41078851776298
526, 46.34538979220503
526.5, 46.2919285696426
527, 46.20997208431576
527.5, 46.09222162400557
528, 45.95557526299693
528.5, 45.809781677867655
529, 45.664589545195504
529.5, 45.529747541558294
530, 45.4150043435338
530.5, 45.350421026086714
531, 45.330619395922284
531.5, 45.3033520244403
532, 45.27560723369508
532.5, 45.230470393089114
533, 45.19378164066861
533.5, 45.14991157645169
534, 45.11948709478112
534.5, 45.085285854557526
535, 45.05516634630262
535.5, 44.95001527502706
536, 44.80943742984052
536.5, 44.65315461275415
537, 44.49976426039733
537.5, 44.36786380939938
538, 44.29196197251737
538.5, 44.25167333988356
539, 44.204747458549804
539.5, 44.1637480010209
540, 44.11392132869797
540.5, 44.03663099469844
541, 43.94547180017255
541.5, 43.84495091361171
542, 43.739575503507346
542.5, 43.633852738350875
543, 43.53228978663368
543.5, 43.43939381684719
544, 43.35967199748283
544.5, 43.31238239265602
545, 43.29903626721127
545.5, 43.244949676532535
546, 43.200318230844175
546.5, 43.13692055982588
547, 43.09851890524792
547.5, 43.063084214013855
548, 43.04001150360199
548.5, 43.01369265511229
549, 43.009979046529615
549.5, 42.91389235904478
550, 42.7687713032339
550.5, 42.62383701239581
551, 42.51665913829806
551.5, 42.43376712678225
552, 42.389776164320864
552.5, 42.369630238851286
553, 42.36312164755526
553.5, 42.30572648560144
554, 42.2400322411178
554.5, 42.18362422690324
555, 42.122992382078316
555.5, 42.02681333522761
556, 41.92467192570398
556.5, 41.84423176972563
557, 41.83917970064369
557.5, 41.83893298804054
558, 41.84032631981977
558.5, 41.857400956362525
559, 41.870560678459086
559.5, 41.87937446266077
560, 41.879410851869025
560.5, 41.861309997230826
561, 41.85085885804469
561.5, 41.8418020298815
562, 41.83446805024222
562.5, 41.82565059094738
563, 41.81288525480321
563.5, 41.893514810378505
564, 42.03014809899674
564.5, 42.18531714385652
565, 42.34037772295956
565.5, 42.4766856143076
566, 42.56212064647589
566.5, 42.53851479516364
567, 42.502729043840155
567.5, 42.472143351272614
568, 42.42691202267805
568.5, 42.40195124702065
569, 42.384204237379144
569.5, 42.37873404013083
570, 42.35054252307653
570.5, 42.29976043373288
571, 42.24037554164462
571.5, 42.17528443774896
572, 42.107383712983115
572.5, 42.039569958284304
573, 41.974739764589756
573.5, 41.9157897228367
574, 41.865616423962344
574.5, 41.84562057113749
575, 41.85987005706369
575.5, 41.876667759526015
576, 41.89694927982641
576.5, 41.9211355292224
577, 41.946257959049916
577.5, 41.96934802064494
578, 41.98743716534339
578.5, 42.003508580928404
579, 42.004315270466556
579.5, 42.00434785946692
580, 42.00437721333346
580.5, 42.00544111403687
581, 42.014174962681196
581.5, 42.01726717289359
582, 42.00815439162908
582.5, 41.98650468175067
583, 41.932330132293835
583.5, 41.88875402975684
584, 41.835331451743194
584.5, 41.81900294287736
585, 41.81013651284425
585.5, 41.802630403109234
586, 41.79432538116004
586.5, 41.786200901087895
587, 41.77998837014194
587.5, 41.7968834723584
588, 41.81460702449602
588.5, 41.82996212260183
589, 41.787072912076674
589.5, 41.73395122868034
590, 41.677293342038745
590.5, 41.62379552177779
591, 41.580154037523386
591.5, 41.53942274581395
592, 41.48119149458126
592.5, 41.41358898567864
593, 41.344829145710804
593.5, 41.28312590128246
594, 41.23658081602644
594.5, 41.174431089590236
595, 41.12264409871744
595.5, 41.0735781812271
596, 40.98452363515801
596.5, 40.91153934104709
597, 40.811836849302665
597.5, 40.75976634455775
598, 40.72362107603295
598.5, 40.67524033106848
599, 40.60447542748848
599.5, 40.53490683608957
600, 40.44910629398572
600.5, 40.41479869403149
601, 40.38242347454041
601.5, 40.36221445728306
602, 40.273299717544006
602.5, 40.15861810805179
603, 40.03307085398053
603.5, 39.911559180504284
604, 39.80898431279715
604.5, 39.74614682899493
605, 39.69476087496893
605.5, 39.624534933901586
606, 39.503903081422294
606.5, 39.37326245265204
607, 39.267902500190154
607.5, 39.22832682994664
608, 39.20587004989616
608.5, 39.17819271243081
609, 39.06165098173162
609.5, 38.9573718766971
610, 38.83528484065206
610.5, 38.73826140963074
611, 38.63008181246773
611.5, 38.51544535235696
612, 38.30735187086164
612.5, 38.176950356824364
613, 38.05254589712141
613.5, 38.00087615661108
614, 37.89150936930724
614.5, 37.70480470453581
615, 37.511298903634845
615.5, 37.363816711901414
616, 37.188185597370925
616.5, 36.957811912318746
617, 36.735580230869445
617.5, 36.610747240953344
618, 36.587608306854435
618.5, 36.54241032480114
619, 36.49855419592354
619.5, 36.42608601231271
620, 36.38503261895039
620.5, 36.34977137523933
621, 36.3266580099025
621.5, 36.3004838874794
622, 36.2714368400987
622.5, 36.2383324964982
623, 36.2145934837129
623.5, 36.191409206720024
624, 36.17420166065496
624.5, 36.15984131770533
625, 36.14211939105407
625.5, 36.12137545451601
626, 36.07031739231478
626.5, 35.963339463832284
627, 35.84131108950329
627.5, 35.736961316126184
628, 35.71022719907447
628.5, 35.71142529211842
629, 35.65851914259966
629.5, 35.568796970386984
630, 35.47720705545112
630.5, 35.40475460572712
631, 35.231756084414954
631.5, 35.00946199344672
632, 34.79826326350488
632.5, 34.68300588864953
633, 34.64846224900741
633.5, 34.61105430134754
634, 34.55512281905901
634.5, 34.48758681260419
635, 34.41348056352538
635.5, 34.33783835336476
636, 34.26569446366456
636.5, 34.20208317596706
637, 34.15203877181446
637.5, 34.14993631979789
638, 34.13350464920312
638.5, 34.11927131795258
639, 34.110643951351534
639.5, 34.10508024022428
640, 34.10506289883952
640.5, 34.09996440516565
641, 34.07290854722574
641.5, 34.022710771850996
642, 33.9664902643013
642.5, 33.91928215158309
643, 33.90970698698386
643.5, 33.84222690395701
644, 33.74956496102388
644.5, 33.628553695919635
645, 33.50245544035758
645.5, 33.44291911229864
646, 33.39448908534362
646.5, 33.357772753050824
647, 33.29818198907273
647.5, 33.224390240370425
648, 33.1420607201281
648.5, 33.05685664152995
649, 32.97444121776019
649.5, 32.900477662003
650, 32.84062918744257
650.5, 32.82899506688773
651, 32.828044799820944
651.5, 32.791357110899156
652, 32.73734229557567
652.5, 32.67512529374241
653, 32.6091193563079
653.5, 32.54373773418085
654, 32.48339367826982
654.5, 32.432500439483476
655, 32.37227988960511
655.5, 32.29937602621645
656, 32.244949073038214
656.5, 32.21861391959942
657, 32.20116748833394
657.5, 32.18156121019082
658, 32.15548715264282
658.5, 32.13282168854295
659, 32.1081687002914
659.5, 32.05361776499399
660, 31.999087026798534
660.5, 31.947618338062583
661, 31.91121673870525
661.5, 31.902384460627417
662, 31.897476569116535
662.5, 31.897436562771944
663, 31.891208014941157
663.5, 31.873368803939087
664, 31.83113740249908
664.5, 31.75997738809997
665, 31.713537100834714
665.5, 31.66168387174966
666, 31.657380654522612
666.5, 31.657190965688457
667, 31.65461704700634
667.5, 31.596780535397926
668, 31.522644022860888
668.5, 31.45233408191939
669, 31.39704271487743
669.5, 31.32190150931372
670, 31.23106882535936
670.5, 31.12921576414172
671, 31.02101342678813
671.5, 30.91113291442599
672, 30.804245328182617
672.5, 30.70502176918538
673, 30.61813333856165
673.5, 30.54825113743874
674, 30.499277368401977
674.5, 30.40001690540626
675, 30.31197155102697
675.5, 30.2254289971481
676, 30.172478570492956
676.5, 30.18156870571579
677, 30.20438666218392
677.5, 30.267505221984877
678, 30.31825892969276
678.5, 30.38092144858045
679, 30.41928862026822
679.5, 30.47522792789313
680, 30.561286781010836
680.5, 30.66191548745327
681, 30.769867242142027
681.5, 30.877895239998637
682, 30.978752675944705
682.5, 31.065192744901765
683, 31.135781623360728
683.5, 31.232705561378168
684, 31.273118536972788
684.5, 31.193957338507502
685, 31.097703321334805
685.5, 30.991578178788984
686, 30.882803604204355
686.5, 30.77860129091519
687, 30.68619293225578
687.5, 30.61280022156039
688, 30.591622388621374
688.5, 30.59119307632102
689, 30.590079145605216
689.5, 30.57316046305013
690, 30.558471282201225
690.5, 30.540913646649727
691, 30.535278000659687
691.5, 30.553350114375263
692, 30.567424591460508
692.5, 30.58571470869144
693, 30.57818815765536
693.5, 30.551172303430548
694, 30.535066995334404
694.5, 30.517631958189597
695, 30.529276350044583
695.5, 30.545648028222374
696, 30.545716134762714
696.5, 30.54648116664022
697, 30.555089936162176
697.5, 30.56516096214368
698, 30.591761894480697
698.5, 30.60590357971934
699, 30.60595872029475
699.5, 30.612389316290518
700, 30.630270159648006
700.5, 30.668206568888422
701, 30.730359213721954
701.5, 30.769602853170028
702, 30.81269107867226
702.5, 30.829874848747792
703, 30.846195694302708
703.5, 30.830095258056247
704, 30.81459663715745
704.5, 30.797170145433526
705, 30.779702617269663
705.5, 30.743937089147806
706, 30.715821046725182
706.5, 30.679533705872615
707, 30.66558730958502
707.5, 30.665854502882183
708, 30.665980227806315
708.5, 30.66598984392232
709, 30.653985016067026
709.5, 30.63704060845498
710, 30.61499613884422
710.5, 30.590086124731585
711, 30.548450207250326
711.5, 30.51221754522875
712, 30.477511276934862
712.5, 30.455864751870735
713, 30.455859352743715
713.5, 30.45593449917125
714, 30.456093937361004
714.5, 30.44394381414277
715, 30.41686428473554
715.5, 30.37030144420426
716, 30.299951102462998
716.5, 30.247092488580577
717, 30.18811539473495
717.5, 30.163418254980456
718, 30.140037419296817
718.5, 30.13147302107852
719, 30.126512949992375
719.5, 30.13530620505493
720, 30.142402735789773
720.5, 30.15140586453343
721, 30.155341618288787
721.5, 30.155306954471186
722, 30.15973322458484
722.5, 30.16873705394326
723, 30.21826152399612
723.5, 30.296702388306215
724, 30.363782542353917
724.5, 30.438701895790558
725, 30.44821090703573
725.5, 30.455809078547475
726, 30.4558788926376
726.5, 30.455759901585765
727, 30.455686628041065
727.5, 30.449120178213178
728, 30.422051732707132
728.5, 30.414013676072813
729, 30.42299782814149
729.5, 30.43012910589313
730, 30.43898611819843
730.5, 30.4129425359707
731, 30.369773149654804
731.5, 30.34555286539488
732, 30.320870234947833
732.5, 30.312404740276634
733, 30.307459084955696
733.5, 30.333124802080064
734, 30.355004724147932
734.5, 30.381594577737204
735, 30.39071771830649
735.5, 30.37257290902612
736, 30.351772442286688
736.5, 30.315521580546545
737, 30.305351945378106
737.5, 30.305678607220884
738, 30.363794761207572
738.5, 30.449284610087943
739, 30.525434034852495
739.5, 30.605781724383533
740, 30.581575148832812
740.5, 30.551995088625247
741, 30.489249326679214
741.5, 30.512387384398707
742, 30.5404279945364
742.5, 30.56588589118934
743, 30.5831094036745
743.5, 30.59103296505519
744, 30.590956410851533
744.5, 30.579883311165986
745, 30.566549463925014
745.5, 30.54887295885881
746, 30.530386398367085
746.5, 30.51612116639653
747, 30.5314788357839
747.5, 30.556364778352332
748, 30.57489488162895
748.5, 30.566077840558762
749, 30.547744980131483
749.5, 30.50511130617943
750, 30.466103684539775
750.5, 30.418418005155687
751, 30.368030000409988
751.5, 30.320915402685415
752, 30.283049944364734
752.5, 30.275764210714414
753, 30.275140969656462
753.5, 30.210108801505285
754, 30.110298118271842
754.5, 30.010504266190566
755, 29.938914520495203
755.5, 29.87187082579993
756, 29.788037767024065
756.5, 29.71006159312826
757, 29.669408277025056
757.5, 29.647200747445396
758, 29.68267047449112
758.5, 29.77526480899607
759, 29.886111430712617
759.5, 30.007023017359202
760, 30.129812246654225
760.5, 30.246291796316157
761, 30.348274344063398
761.5, 30.426338922091176
762, 30.47344969247534
762.5, 30.516252536988546
763, 30.555163909811753
763.5, 30.617166520167103
764, 30.66451792343696
764.5, 30.71881056482546
765, 30.747577722727485
765.5, 30.76579993940281
766, 30.771381550555034
766.5, 30.77121263627525
767, 30.771174991202585
767.5, 30.771161512766724
768, 30.777960410919874
768.5, 30.78611945443174
769, 30.785915437896833
769.5, 30.787510074523937
770, 30.804673975802245
770.5, 30.817632351072035
771, 30.82636093590277
771.5, 30.813717752403463
772, 30.75025676784101
772.5, 30.708249994618853
773, 30.662733071522112
773.5, 30.673943538779397
774, 30.718760327383876
774.5, 30.761333981785114
775, 30.812573265814947
775.5, 30.885863371720674
776, 30.9671770446118
776.5, 31.033718129938336
777, 31.08726578643929
777.5, 31.09585284603142
778, 31.103199210361083
778.5, 31.11205649922735
779, 31.105959315585608
779.5, 31.0699774893597
780, 31.03714682039154
780.5, 30.992287223330194
781, 30.981637639489875
781.5, 30.981496144921763
782, 31.005945135189748
782.5, 31.03966848645264
783, 31.070540961587923
783.5, 31.101837815039246
784, 31.110479499411497
784.5, 31.11654196839369
785, 31.116533147488113
785.5, 31.11650837044195
786, 31.11640738353627
786.5, 31.102197769010203
787, 31.057076973952334
787.5, 31.020980159223242
788, 30.976395228200474
788.5, 31.00809622672395
789, 31.077953893682093
789.5, 31.143591759086704
790, 31.2189492408898
790.5, 31.228999395979272
791, 31.236720112243333
791.5, 31.236767187094202
792, 31.235497098976808
792.5, 31.226678218391157
793, 31.219571833099067
793.5, 31.21053348784325
793.9999999999999, 31.203713550580474
794.5, 31.194757894046163
795, 31.178570490248873
795.5, 31.15175334798805
796, 31.092256889244524
796.5, 31.005435483756074
797, 30.93046031613582
797.5, 30.84778284078446
798, 30.83128991540221
798.4999999999999, 30.813943194208235
799, 30.779780558812874
799.5, 30.754816173065777
800, 30.745952812045886
800.5, 30.73883152014845
801, 30.72981655316174
801.5, 30.73245388878354
801.9999999999999, 30.750312993584416
802.5, 30.787910164762124
803, 30.850152859182586
803.5, 30.883815667123827
804, 30.918374533172567
804.5, 30.948765057113675
805, 30.981346039682393
805.5, 30.997359904804853
806, 31.012233071752036
806.4999999999999, 31.0209799617694
807, 31.02952346813251
807.5, 31.047198581013532
808, 31.04102267875942
808.5, 30.986479668809096
809, 30.920133118382466
809.5, 30.802644369854278
810, 30.736258979448976
810.5, 30.67539461312178
811, 30.606569031516315
811.5, 30.52147643233721
812, 30.389029485015357
812.5, 30.243836781034986
813, 30.14328578573928
813.5, 30.05924682065057
814, 29.998385155960676
814.4999999999999, 29.940845066351272
815, 29.842182015278823
815.5, 29.773326470333245
816, 29.70076032953574
816.5, 29.655855220932423
817, 29.62332128085218
817.5, 29.576457060555867
818, 29.521480107400563
818.5, 29.46509276522424
818.9999999999999, 29.413997377864888
819.5, 29.37489628916049
820, 29.420435254947122
820.5, 29.44560383904792
821, 29.462443988403535
821.5, 29.444880954556282
822, 29.42561320363164
822.5, 29.406777757328555
823, 29.414951212561718
823.5, 29.42432647408151
824, 29.432410868670758
824.5, 29.378206268240575
825, 29.256532421878163
825.5, 29.12628607743119
826, 29.022635133230125
826.5, 29.057582537754712
826.9999999999999, 29.074795756860624
827.5, 29.08747220552023
828, 29.053340201388522
828.5, 29.005486221255424
829, 28.837627281472862
829.5, 28.700722845303602
830, 28.52009448684109
830.5, 28.431167892705602
831, 28.394603879471205
831.4999999999999, 28.38206139540057
832, 28.31986177392318
832.5, 28.188748912291885
833, 28.049474995199375
833.5, 27.93972106533994
834, 27.97720866183053
834.5, 28.024980938761246
834.9999999999999, 28.069356774644774
835.5, 28.086730301419408
836, 28.094467844508557
836.5, 28.06928566186835
837, 28.0058122311857
837.5, 27.930768395856944
838, 27.864276307433272
838.5, 27.85214288028652
839, 27.86253418376853
839.4999999999999, 27.87134976587862
840, 27.913018606931516
840.5, 27.973038034200627
841, 28.02635308998444
841.5, 28.083074769163645
842, 28.11486934592105
842.5, 28.14700847738233
843, 28.190285513267355
843.5, 28.219678880538197
843.9999999999999, 28.22861337517105
844.5, 28.23713070023055
845, 28.196581785671924
845.5, 28.091230175982673
846, 27.964691345769097
846.5, 27.83261680946228
847, 27.71065808149325
847.4999999999999, 27.61446667629305
848, 27.528742667671395
848.5, 27.413335350506628
849, 27.28277777041643
849.5, 27.152739600666877
850, 27.038890514524013
850.5, 26.960509362856016
851, 26.906268220646353
851.5, 26.879400387382134
851.9999999999999, 26.87519427805033
852.5, 26.852222801219455
853, 26.768375897522702
853.5, 26.674613231397274
854, 26.596143665470805
854.5, 26.581480831693938
855, 26.580382402162883
855.5, 26.526424370704873
856, 26.44567966305945
856.5, 26.35253986181226
857, 26.253609501285283
857.5, 26.155493115800553
858, 26.064795239679995
858.5, 25.988120407245646
859, 25.945735260756265
859.5, 25.90888823541661
859.9999999999999, 25.827813554947056
860.5, 25.745439598043447
861, 25.629382411229997
861.5, 25.579027713938345
862, 25.535078383862725
862.5, 25.536718156247176
863, 25.544800522099322
863.5, 25.567453064792588
864, 25.59296659273997
864.4999999999999, 25.644015552257585
865, 25.68521395437962
865.5, 25.720485975453755
866, 25.740186048808056
866.5, 25.740281462680784
867, 25.75281866935633
867.5, 25.788775553389783
867.9999999999999, 25.83582863054309
868.5, 25.907015452217152
869, 25.93683987785748
869.5, 25.962989788043075
870, 25.96546464697451
870.5, 25.96550559981131
871, 25.98099006546225
871.5, 25.99814332670215
872, 26.032556430006537
872.4999999999999, 26.061465600673102
873, 26.097077900955284
873.5, 26.125395277190165
874, 26.161733210515735
874.5, 26.19664063042059
875, 26.251063377042996
875.5, 26.261847170221927
876, 26.252443112577822
876.5, 26.227691295671818
876.9999999999999, 26.193407653912942
877.5, 26.191062358114863
878, 26.289335528964784
878.5, 26.426737863075402
879, 26.56130891742626
879.5, 26.659391365435496
880, 26.78217298442074
880.4999999999999, 26.93181303876024
881, 27.068062548100954
881.5, 27.127748992571014
882, 27.155848468814384
882.5, 27.201020267123624
883, 27.275221579912966
883.5, 27.390167285728708
884, 27.460964184872182
884.5, 27.53777231002644
884.9999999999999, 27.463486137805518
885.5, 27.37460469920839
886, 27.274351044903895
886.5, 27.198109185280074
887, 27.207061171031953
887.5, 27.221318994129447
888, 27.266270838283532
888.4999999999999, 27.298347766103205
889, 27.334644355810084
889.5, 27.35166295024716
890, 27.36040340808431
890.5, 27.398044391903227
891, 27.459427822149152
891.5, 27.562136742109118
892, 27.615246432662047
892.5, 27.676315049363353
892.9999999999999, 27.746909160782153
893.5, 27.823637590661974
894, 27.903109162746404
894.5, 27.981932700779055
895, 28.0567170285035
895.5, 28.12407096966332
896, 28.180603348002123
896.5, 28.234648909367436
897, 28.29753590867523
897.4999999999999, 28.36899935525696
898, 28.463750138563952
898.5, 28.594384181941308
899, 28.687189019723974
899.5, 28.7865707628726
900, 28.887344526963872
900.5, 28.994642221406423
900.9999999999999, 29.165381126485514
901.5, 29.298748760967044
902, 29.39598282600403
902.5, 29.465861104954513
903, 29.536637313623856
903.5, 29.67647771361277
904, 29.83602788405338
904.5, 29.972539234943028
905, 30.018764272402066
905.4999999999999, 30.02591362071503
906, 30.034523418920514
906.5, 30.048918571566517
907, 30.065227970291048
907.5, 30.10054760261785
908, 30.230488999637956
908.5, 30.397179713606477
909, 30.555460092244843
909.5, 30.634948356833263
909.9999999999999, 30.643634007231498
910.5, 30.67104441369615
911, 30.733241865657376
911.5, 30.86858710247725
912, 30.978522448877072
912.5, 31.110338433756766
913, 31.213433320241805
913.4999999999999, 31.333243356598516
914, 31.419138360217033
914.5, 31.50721267550699
915, 31.520019901919397
915.5, 31.738936620571423
916, 32.017414738639644
916.5, 32.27998253233896
917, 32.411915087321574
917.5, 32.49746842456844
917.9999999999999, 32.74986103652995
918.5, 33.08333564239216
919, 33.317220737192
919.5, 33.46781859276042
920, 33.64494649739066
920.5, 33.82687132715944
921, 33.991859958143635
921.4999999999999, 34.11817926642004
922, 34.11912839360143
922.5, 34.0857582357894
923, 34.05397261495189
923.5, 34.001596134026386
924, 33.96619953106514
924.5, 33.94820770212657
925, 33.9374705987358
925.5, 33.976340464705686
925.9999999999999, 34.07737651823433
926.5, 34.18980078509453
927, 34.28342831161312
927.5, 34.30043599712026
928, 34.40971252946892
928.5, 34.55070475839476
929, 34.893075509083275
929.5, 35.24422041530869
930, 35.499973478932134
930.4999999999999, 35.69224590631697
931, 35.77138960098081
931.5, 35.83174862604167
932, 35.89495827378134
932.5, 35.93111373753655
933, 35.958171331178306
933.5, 35.993192751085175
933.9999999999999, 36.04671747731601
934.5, 36.0734864915494
935, 36.09967442619114
935.5, 36.115990591883445
936, 36.132183034806985
936.5, 36.25605540929645
937, 36.382047238721924
937.5, 36.51921701805939
938, 36.619692902638434
938.4999999999999, 36.66410150580446
939, 36.7067330389992
939.5, 36.779268984801575
940, 36.84093533082223
940.5, 36.93118105470954
941, 37.02271269440375
941.5, 37.146681506486374
942, 37.21928191433385
942.5, 37.29710066644076
942.9999999999999, 37.303903348802734
943.5, 37.30382633889386
944, 37.40738311462009
944.5, 37.51033327972673
945, 37.64026649331166
945.5, 37.747702969664196
946, 37.88157388552075
946.4999999999999, 37.979698663975064
947, 38.08851338508651
947.5, 38.12248178818026
948, 38.10471409630584
948.5, 38.080658536439984
949, 38.045360464992775
949.5, 38.06367410888255
950, 38.09752868710634
950.5, 38.14767290519658
950.9999999999999, 38.20727614638597
951.5, 38.3565402431544
952, 38.4927361961948
952.5, 38.666555927495985
953, 38.814287481420294
953.5, 39.011925504746095
954, 39.18752307183969
954.4999999999999, 39.45915470264118
955, 39.60990882988292
955.5, 39.725097662381394
956, 39.8014695498063
956.5, 39.88975333157231
957, 39.98205019945863
957.5, 40.091718800981006
958, 40.14832446982691
958.5, 40.2032065405221
958.9999999999999, 40.22824136440845
959.5, 40.34996221283488
960, 40.50573231783257
960.5, 40.675412212502714
961, 40.83886242994659
961.5, 40.975943503265455
962, 41.05100636077901
962.5, 41.07775532713472
963, 41.08650481073585
963.4999999999999, 41.10422152137774
964, 41.13036049283214
964.5, 41.210674968798465
965, 41.31041569695737
965.5, 41.389318838813004
966, 41.46711400149932
966.5, 41.52268993763232
966.9999999999999, 41.657464445970795
967.5, 41.82529274161879
968, 41.98082591554899
968.5, 42.060958936133005
969, 42.107710936856265
969.5, 42.18899843622041
970, 42.254585126543056
970.5, 42.33441058748111
971, 42.38254767813652
971.4999999999999, 42.43469429717815
972, 42.48656361406775
972.5, 42.54416590992375
973, 42.568267666653746
973.5, 42.591352633286746
974, 42.60889315786415
974.5, 42.635898588386475
975, 42.73394905261819
975.5, 42.83534089614288
975.9999999999999, 43.02582150616353
976.5, 43.184728123734885
977, 43.41088053609295
977.5, 43.56564602300051
978, 43.732662826889765
978.5, 43.78370075763101
979, 43.818586046634174
979.4999999999999, 43.80051506829534
980, 43.776417213249125
980.5, 43.773460199088156
981, 43.796936756964136
981.5, 44.03026688470634
982, 44.230021533565
982.5, 44.4976890215279
983, 44.64176729513988
983.5, 44.67795199073716
983.9999999999999, 44.715088922981174
984.5, 44.769102550327894
985, 44.82089129784723
985.5, 44.89182552716697
986, 44.91472535786488
986.5, 44.93177865435722
987, 45.00344294281045
987.4999999999999, 45.08506175473055
988, 45.18512156382991
988.4999999999999, 45.267690147524895
989, 45.31123384726921
989.5, 45.35275188333601
990, 45.4245951036236
990.5, 45.47478049028202
991, 45.528986492986895
991.5, 45.57256245666964
991.9999999999999, 45.62620080305315
992.5, 45.633498586293605
993, 45.62482434273843
993.5, 45.65540118776285
994, 45.69694069810972
994.5, 45.86115912442128
995, 46.03361805004738
995.5, 46.14427716658389
996, 46.23520470086988
996.4999999999999, 46.32293121896937
997, 46.390421790469844
997.5, 46.46248123725577
998, 46.49727309243628
998.5, 46.5063143851467
999, 46.52228321375985
999.5, 46.54915756524216
999.9999999999999, 46.58652163471825
1000.5, 46.638868762515536
1001, 46.683772957884095
1001.5, 46.73356891218873
1002, 46.78794877312271
1002.5, 46.84351861970925
1003, 46.90324067208578
1003.5, 46.94761624689854
1004, 46.96525841576263
1004.4999999999999, 46.97737491687257
1005, 46.98643490871255
1005.5, 46.993428694218714
1006, 47.00250447304994
1006.5, 47.006299350313306
1007, 47.07380504761511
1007.5, 47.21387908272613
1008, 47.362361288344914
1008.5, 47.479038871843905
1008.9999999999999, 47.45604351140604
1009.5, 47.43290104207964
1010, 47.40488684173451
1010.5, 47.32757830534694
1011, 47.25045737600488
1011.5, 47.23998997917494
1012, 47.62209244750875
1012.4999999999999, 48.072370719926575
1013, 48.47021624678407
1013.5, 48.594726822393035
1014, 48.597211362677356
1014.5, 48.59716234196203
1015, 48.614612965784055
1015.5, 48.64022465264964
1016, 48.67750270863199
1016.5, 48.718083097438026
1016.9999999999999, 48.838665878011454
1017.5, 48.9559488770764
1018, 49.094828160464324
1018.5, 49.187448376067834
1019, 49.214178116974814
1019.5, 49.220037416131376
1020, 49.19315869887962
1020.4999999999999, 49.16379789883244
1021, 49.11882249415443
1021.4999999999999, 49.08662109372243
1022, 49.102941936379146
1022.5, 49.14765830055942
1023, 49.200003627291224
1023.5, 49.25622431323776
1024, 49.31256675506221
1024.5, 49.36527734942778
1025, 49.410602492997675
1025.5, 49.41182489294393
1026, 49.308875024540114
1026.5, 49.26423338063793
1027, 49.276556872045475
1027.5, 49.384499615308286
1028, 49.49187317087117
1028.5, 49.64412379207274
1029, 49.72397708987781
1029.5, 49.80331175941038
1030, 49.85125242255358
1030.5, 49.90161878517127
1031, 49.955225920200625
1031.5, 50.01172879064905
1032, 50.07934985297064
1032.5, 50.129870549865586
1033, 50.13839192957318
1033.5, 50.12720939407123
1034, 50.05495134420604
1034.5, 49.992763090407855
1035, 49.901708255297486
1035.5, 49.893792319175766
1036, 49.93946778689902
1036.5, 50.045087494369525
1037, 50.20182716332351
1037.5, 50.24447150468493
1038, 50.27826729488942
1038.5, 50.21650642634753
1039, 50.159731703046155
1039.5, 50.17654865116581
1040, 50.20631086336005
1040.5, 50.321350756626664
1041, 50.39524165544605
1041.5, 50.440452727188585
1042, 50.44958788342819
1042.5, 50.42273268888042
1043, 50.3827803825284
1043.5, 50.32053607017887
1044, 50.29829297890671
1044.5, 50.2807549526976
1045, 50.33384878507994
1045.5, 50.39885016456266
1046, 50.45544728214641
1046.5, 50.50323407664153
1047, 50.4862492986119
1047.5, 50.462125527633454
1048, 50.390921175054096
1048.5, 50.349530672124146
1049, 50.33156264302895
1049.5, 50.36970809065857
1050, 50.48701826453905
1050.5, 50.56759185324096
1051, 50.65523651012013
1051.5, 50.651542866186126
1052, 50.62625264701252
1052.5, 50.57971579028636
1053, 50.63754129401161
1053.5, 50.71561320940312
1054, 50.80502144257908
1054.5, 50.89945592423582
1055, 50.99260658506964
1055.5, 51.07816335577682
1056, 51.149816167053714
1056.5, 51.180050677912675
1057, 51.142138725775396
1057.5, 51.05179650334637
1058, 50.98099602742235
1058.5, 50.89254827106324
1059, 50.88006107995201
1059.5, 50.87978988877797
1060, 50.873199590124024
1060.5, 50.86305428590129
1061, 50.80459572000677
1061.5, 50.7515626772697
1062, 50.681598094537016
1062.5, 50.62424770308075
1063, 50.55221828950573
1063.5, 50.49923704388119
1064, 50.43577580515462
1064.5, 50.40121229575756
1065, 50.374713241117774
1065.5, 50.32253895524029
1066, 50.24372040253049
1066.5, 50.189575923866734
1067, 50.13098066889028
1067.5, 50.09182205545683
1068, 50.05133051181783
1068.5, 50.000517203827485
1069, 49.963811064956666
1069.5, 49.96392588387607
1070, 49.97033574840052
1070.5, 49.99787184498771
1071, 50.08912261659209
1071.5, 50.323905191359316
1072, 50.51289832921445
1072.5, 50.74378888727035
1073, 50.79976645211396
1073.5, 50.81778787483455
1074, 50.83307246959339
1074.5, 50.849450851218926
1075, 50.90379917832737
1075.5, 50.958937325480015
1076, 51.01886241669689
1076.5, 51.05843069905874
1077, 51.04938125138356
1077.5, 51.02851841444701
1078, 50.964996788207564
1078.5, 50.89666693606628
1079, 50.77907616196426
1079.5, 50.70263070461386
1080, 50.623490371668865
1080.5, 50.60972714207276
1081, 50.60948830802556
1081.5, 50.609375117521964
1082, 50.60945473746103
1082.5, 50.585484625994134
1083, 50.55968429744426
1083.5, 50.530946847542474
1084, 50.6150103230864
1084.5, 50.71782710491702
1085, 50.81174327993807
1085.5, 50.863540686670284
1086, 50.90820319888836
1086.5, 50.98043000821962
1087, 51.02907811557762
1087.5, 51.08158322339142
1088, 51.03010783127252
1088.5, 50.945399576925155
1089, 50.80560331822403
1089.5, 50.65303651979808
1090, 50.56888534633295
1090.5, 50.50004208747516
1091, 50.456839687617524
1091.5, 50.4328108123698
1092, 50.45052639156587
1092.5, 50.43531942564529
1093, 50.354738935414815
1093.5, 50.25008507810152
1094, 50.07932846089129
1094.5, 50.02950501799889
1095, 50.01139884143117
1095.5, 50.040016371187086
1096, 50.081848234060566
1096.5, 50.171443103017225
1097, 50.266755758446976
1097.5, 50.34262973690274
1098, 50.39587950019986
1098.5, 50.3694963340782
1099, 50.34832157655793
1099.5, 50.321357979542775
1100, 50.31243812975815
1100.5, 50.321711292968835
1101, 50.303701711605456
1101.5, 50.25866193583012
1102, 50.21214063000579
1102.5, 50.150988181730014
1103, 50.03427397186245
1103.5, 49.89299361606828
1104, 49.7513964050258
1104.5, 49.61783297367725
1105, 49.61691781631832
1105.5, 49.63324738871963
1106, 49.73917127731904
1106.5, 49.8155610510618
1107, 49.88769767219098
1107.5, 49.89922643840718
1108, 49.84496871673486
1108.5, 49.82370203084843
1109, 49.81524185591125
1109.5, 49.85767277501805
1110, 49.926851540325266
1110.5, 50.000339025649524
1111, 50.08267759351865
1111.5, 50.0923543673152
1112, 50.09413446951143
1112.5, 50.025678009924206
1113, 49.963089532954655
1113.5, 49.86541150695696
1114, 49.79952515200337
1114.5, 49.745230388163385
1115, 49.73702750199944
1115.5, 49.77299309440316
1116, 49.80671981787231
1116.5, 49.850898125785086
1117, 49.852534807966784
1117.5, 49.84417095589062
1118, 49.80177852937495
1118.5, 49.75333305088358
1119, 49.71315300399748
1119.5, 49.675790907835534
1120, 49.64911086494522
1120.5, 49.5975643940834
1121, 49.401001891244356
1121.5, 49.266713353475375
1122, 49.139157748465294
1122.5, 49.12043573316487
1123, 49.19367290841669
1123.5, 49.202625049111134
1124, 49.185183671030956
1124.5, 49.0927164913666
1125, 48.9654322600615
1125.5, 48.78254653472034
1126, 48.6206385277525
1126.5, 48.40927044029892
1127, 48.204387798448955
1127.5, 48.04453185875773
1128, 47.86200152290247
1128.5, 47.790289298368386
1129, 47.759496600138924
1129.5, 47.76884600675819
1130, 47.74360435138786
1130.5, 47.680363298429434
1131, 47.579994199099154
1131.5, 47.43051644183672
1132, 47.31115234916233
1132.5, 47.176422320138535
1133, 47.11932699034722
1133.5, 47.06325863832559
1134, 47.01258273703142
1134.5, 46.97626275717514
1135, 46.984530272562445
1135.5, 46.947482267948274
1136, 46.75798174468112
1136.5, 46.5995873177117
1137, 46.37262549236921
1137.5, 46.28407006567682
1138, 46.259061560801875
1138.5, 46.23312194905601
1139, 46.198214692667214
1139.5, 46.13841007674794
1140, 46.0285782876727
1140.5, 45.873171476630986
1141, 45.69863922799011
1141.5, 45.52586250029308
1142, 45.37572225208294
1142.5, 45.29890859431668
1143, 45.310438606380345
1143.5, 45.31947238711496
1144, 45.32321995597368
1144.5, 45.32323708684871
1145, 45.32304306354143
1145.5, 45.32303947502264
1146, 45.26720140358615
1146.5, 45.18102919674913
1147, 45.017693484493684
1147.5, 44.829486712830125
1148, 44.72547463644525
1148.5, 44.627489389023175
1149, 44.56660775760611
1149.5, 44.51112797306731
1150, 44.41326976800052
1150.5, 44.34523701706876
1151, 44.281675215781945
1151.5, 44.23354123664216
1152, 44.17045691350878
1152.5, 44.09100360905416
1153, 43.9760355399309
1153.5, 43.96321269476043
1154, 43.97119837359415
1154.5, 44.07690937262943
1155, 44.197202333693596
1155.5, 44.23768727160068
1156, 44.27175272688618
1156.5, 44.23009641868796
1157, 43.94618030059662
1157.5, 43.600142615376654
1158, 43.285054427301134
1158.5, 43.16092772099262
1159, 43.228064357583584
1159.5, 43.390806911563885
1160, 43.522944538811686
1160.5, 43.691240523365025
1161, 43.72185067767628
1161.5, 43.7308427305211
1162, 43.73248036862829
1162.5, 43.52021910433872
1163, 43.23515013565706
1163.5, 42.9583684400717
1164, 42.75379265127495
1164.5, 42.534138522112436
1165, 42.3365165408222
1165.5, 42.22291487792805
1166, 42.15073533911015
1166.5, 42.07173564446528
1167, 41.95518398366172
1167.5, 41.83228127153578
1168, 41.665359412096905
1168.5, 41.58099785589426
1169, 41.497056581143674
1169.5, 41.367791464142094
1170, 41.23273815911943
1170.5, 41.10537907028704
1171, 41.00066080611279
1171.5, 40.90383803298365
1172, 40.81916825854234
1172.5, 40.6929050981732
1173, 40.6229291477616
1173.5, 40.57759756181552
1174, 40.54090849044016
1174.5, 40.49643943432348
1175, 40.43934322367129
1175.5, 40.36094761360978
1176, 40.3196856871193
1176.5, 40.2782411157659
1177, 40.22388921340956
1177.5, 40.16789265117378
1178, 40.09959634772897
1178.5, 40.0522032075326
1179, 40.0522851870471
1179.5, 40.056612191401655
1180, 40.07467865471271
1180.5, 40.08102572803267
1181, 40.07344136014024
1181.5, 39.89303485705064
1182, 39.544969808161795
1182.5, 39.02174582955287
1183, 38.723983884032585
1183.5, 38.40191930285669
1184, 38.02759743357985
1184.5, 37.62781996703479
1185, 37.229388594054235
1185.5, 36.85910500547093
1186, 36.543770892117585
1186.5, 36.36396582954259
1187, 36.30526688101281
1187.5, 36.223635235681144
1188, 36.171404230747456
1188.5, 36.11692540713929
1189, 36.10642057924794
1189.5, 36.115825164285724
1190, 36.123249443203974
1190.5, 36.131826017185034
1191, 36.130200017157904
1191.5, 36.134452847418515
1192, 36.3072645791481
1192.5, 36.466946487728755
1193, 36.665799836872715
1193.5, 36.797964799974174
1194, 36.824938205601
1194.5, 36.85440244568325
1195, 36.90879069367399
1195.5, 36.93261694125238
1196, 36.94115545034395
1196.5, 36.88405088572201
1197, 36.778279086749315
1197.5, 36.65659188706606
1198, 36.52108521186809
1198.5, 36.333150167645016
1199, 36.12111775914606
1199.5, 35.91064208974832
1200, 35.72737726282902
1200.5, 35.42111333090122
1201, 34.589968770986744
1201.5, 34.04183354146713
1202, 33.793961216155225
1202.5, 33.80197624940082
1203, 33.828952292331536
1203.5, 33.8828899182534
1204, 33.90486933468041
1204.5, 33.922571427894866
1205, 33.892854784844985
1205.5, 33.85124255871628
1206, 33.82681700164753
1206.5, 33.80583633541244
1207, 33.83113285798697
1207.5, 33.86173682866752
1208, 33.94984585203842
1208.5, 34.01456492938058
1209, 34.0776900913357
1209.5, 34.09879143918248
1210, 34.080919662522916
1210.5, 34.05772933320935
1211, 34.02204393603729
1211.5, 34.00389997715712
1212, 33.98657655865995
1212.5, 33.891496195346846
1213, 33.77671999211641
1213.5, 33.56562344634963
1214, 33.35671696149171
1214.5, 33.176264271114675
1215, 33.031477101781945
1215.5, 32.91433157252753
1216, 32.76142812300287
1216.5, 32.572282053066715
1217, 32.37075697535781
1217.5, 32.18071650251491
1218, 32.026024247176736
1218.5, 31.972099876924588
1219, 31.972060330935463
1219.5, 31.972332880310418
1220, 31.83392321611005
1220.5, 31.672392602054714
1221, 31.381944028232652
1221.5, 31.12512684685109
1222, 31.06345737398331
1222.5, 31.043972119046344
1223, 31.142200634113166
1223.5, 31.216826436713063
1224, 31.307510843972082
1224.5, 31.33951098834912
1225, 31.331336768671562
1225.5, 31.207737243847916
1226, 30.98629070450083
1226.5, 30.85702216920656
1227, 30.720227513094827
1227.5, 30.634195532593537
1228, 30.544344865314315
1228.5, 30.45284646827703
1229, 30.38081693645414
1229.5, 30.380852541526977
1230, 30.375310339679118
1230.5, 30.34827922036159
1231, 30.31400927394988
1231.5, 30.24185106549737
1232, 30.183694396453532
1232.5, 30.1120544217749
1233, 30.05048709245584
1233.5, 29.971107249860353
1234, 29.905001885399898
1234.5, 29.828825799373305
1235, 29.798820443577426
1235.5, 29.45917317554236
1236, 29.05187228180162
1236.5, 28.588919429180862
1237, 28.082514154584516
1237.5, 27.54485599491713
1238, 26.988144487083133
1238.5, 26.424579167987062
1239, 25.866359574533405
1239.5, 25.325685243626637
1240, 24.814755712171248
1240.5, 24.345770517071728
1241, 23.930929195232622
1241.5, 23.58243128355835
1242, 23.54877634270119
1242.5, 23.550819519738013
1243, 23.787143530682698
1243.5, 24.070231671156023
1244, 24.391635852499192
1244.5, 24.742907986053396
1245, 25.11559998315981
1245.5, 25.501263755159627
1246, 25.891451213394035
1246.5, 26.27771426920421
1247, 26.651604833931373
1247.5, 27.00467481891667
1248, 27.32847613550132
1248.5, 27.614560695026483
1249, 27.854480408833396
1249.5, 27.88717732330008
1250, 27.880049185844086
1250.5, 27.869634523725253
1251, 27.807247487977747
1251.5, 27.519480660725762
1252, 27.16465562217232
1252.5, 26.83841322140387
1253, 26.690085426123645
1253.5, 26.657834718564715
1254, 26.621665818306553
1254.5, 26.59705425851199
1255, 26.570693320792927
1255.5, 26.549109071353257
1256, 26.523267640595023
1256.5, 26.52827465335318
1257, 26.536247103409792
1257.5, 26.560074617794058
1258, 26.5851728427466
1258.5, 26.62857406646539
1259, 26.66770229205835
1259.5, 26.730473126658865
1260, 26.799420659379862
1260.5, 26.934371948360806
1261, 27.05443681237503
1261.5, 27.21615243874399
1262, 27.27030620250501
1262.5, 27.29738613436892
1263, 27.139527437119654
1263.5, 26.910738820481484
1264, 26.703010059390436
1264.5, 26.49066032616669
1265, 26.480455580721653
1265.5, 26.491111078366444
1266, 26.630865757898874
1266.5, 26.763410170887994
1267, 26.99655850254672
1267.5, 27.112557861594226
1268, 27.131787717242673
1268.5, 27.07845467917572
1269, 26.94308256908863
1269.5, 26.88163202990927
1270, 26.82856527100388
1270.5, 26.78401763793292
1271, 26.733614329175225
1271.5, 26.671901454440672
1272, 26.611100370870773
1272.5, 26.610502120966842
1273, 26.612327903786422
1273.5, 26.620909251059473
1274, 26.611957085535863
1274.5, 26.54867943392938
1275, 26.47893468076643
1275.5, 26.35195772639753
1276, 26.297040311154433
1276.5, 26.27120622795583
1277, 26.303091638445494
1277.5, 26.364040431133233
1278, 26.383242869472625
1278.5, 26.40048238030306
1279, 26.24916033404024
1279.5, 26.089216716013127
1280, 25.89309615828344
1280.5, 25.743979670689967
1281, 25.66447931669923
1281.5, 25.604685574628164
1282, 25.541385345148896
1282.5, 25.508579314275124
1283, 25.490299342120196
1283.5, 25.489229434698956
1284, 25.49833700463124
1284.5, 25.5389990315487
1285, 25.59942626363329
1285.5, 25.666178832170345
1286, 25.739554137524777
1286.5, 25.889909622355276
1287, 26.03514694355181
1287.5, 26.155929448698657
1288, 26.237063756280065
1288.5, 26.2459678317842
1289, 26.263541740256386
1289.5, 26.328995202108175
1290, 26.473760458817623
1290.5, 26.64822531797465
1291, 26.830727085328277
1291.5, 26.999603066627458
1292, 27.133190567621227
1292.5, 27.27397420686836
1293, 27.335964027328686
1293.5, 27.392401900565318
1294, 27.423771088338015
1294.5, 27.460466148471056
1295, 27.547171834508546
1295.5, 27.613929165775787
1296, 27.676435316297415
1296.5, 27.704955972758
1297, 27.696249132647054
1297.5, 27.673664722743297
1298, 27.628520985287167
1298.5, 27.583325863435448
1299, 27.521404760498882
1299.5, 27.45796299441463
1300, 27.381586306203673
1300.5, 27.355090497475032
1301, 27.333093353557004
1301.5, 27.37434754700365
1302, 27.410998522410765
1302.5, 27.44565964000752
1303, 27.45778716429244
1303.5, 27.412841197904612
1304, 27.380708041602702
1304.5, 27.344254901317584
1305, 27.339752841872027
1305.4999999999998, 27.35809658104162
1306, 27.40815865986525
1306.5, 27.487140820078068
1307, 27.50943568081341
1307.5, 27.526604733926717
1308, 27.467299551046324
1308.5, 27.40631483069255
1309, 27.38906053746682
1309.5, 27.381774555995378
1310, 27.416778132394086
1310.5, 27.426710177809156
1311, 27.38157319461007
1311.5, 27.317317835876935
1312, 27.122908706134268
1312.5, 26.821063253896654
1313, 26.462855517222934
1313.5, 26.09231148933641
1314, 25.75345716346041
1314.4999999999998, 25.490318532818236
1315, 24.855298912760844
1315.5, 24.52282088278035
1316, 24.21546804217023
1316.5, 24.10194602356721
1317, 23.998977792874783
1317.5, 23.804395294579933
1317.9999999999998, 23.68697887791423
1318.5, 23.64168646950492
1319, 23.639201772892108
1319.5, 23.77291233900924
1320, 24.037230305129157
1320.5, 24.32699058739189
1321, 24.564384984012264
1321.4999999999998, 24.79164364696919
1322, 25.114804302911466
1322.5, 25.444492048651597
1323, 25.681834609325463
1323.5, 25.747174280676916
1324, 25.83325563903317
1324.5, 25.897841249562077
1325, 25.942234731490174
1325.5, 25.957830017654217
1326, 25.930620488092472
1326.5, 25.901947538466672
1326.9999999999998, 25.856265047156043
1327.5, 25.906047062340107
1328, 26.021838169386697
1328.5, 26.139930005069573
1329, 26.28543565414212
1329.5, 26.30236010578571
1330, 26.311007982012356
1330.4999999999998, 26.319008795504118
1331, 26.31740829880789
1331.5, 26.23043374056998
1332, 26.148363375133982
1332.5, 26.00517241173543
1333, 25.92494692536171
1333.5, 25.88839368956674
1333.9999999999998, 25.882539730015353
1334.5, 25.900882181281233
1335, 25.910297967988626
1335.5, 25.919168590113387
1336, 25.92019504944581
1336.5, 25.920383255705588
1337, 25.855965932968388
1337.5, 25.78175047459179
1338, 25.664315026338798
1338.5, 25.561960305194674
1339, 25.448406974917944
1339.5, 25.36475013975624
1340, 25.29289780164173
1340.5, 25.2675693952945
1341, 25.293654404868647
1341.5, 25.38985309360845
1342, 25.57862422684694
1342.5, 25.707416249528535
1342.9999999999998, 25.85679407216128
1343.5, 25.862104638849715
1344, 25.8459280226963
1344.5, 25.838704682138015
1345, 25.82715462289518
1345.5, 25.759575103989135
1346, 25.70077064345628
1346.4999999999998, 25.630578857585107
1347, 25.600934245147116
1347.5, 25.646071021519674
1348, 25.68089861628951
1348.5, 25.726407773728425
1349, 25.73222698269204
1349.5, 25.713902820907265
1350, 25.693941155093654
1350.5, 25.66785999660776
1351, 25.651714445633473
1351.5, 25.63539048343685
1352, 25.55661101907495
1352.5, 25.485139704142227
1353, 25.49282985920169
1353.5, 25.490043648034828
1354, 25.42737418865856
1354.5, 25.329307483714715
1355, 25.0756234653267
1355.4999999999998, 24.884434208612205
1356, 24.63969008874048
1356.5, 24.520810217017683
1357, 24.433950283643412
1357.5, 24.441518877004356
1358, 24.47576409412784
1358.5, 24.430269514819173
1358.9999999999998, 24.373692179678244
1359.5, 24.311246914502277
1360, 24.592790574328234
1360.5, 24.954251789389417
1361, 25.297263214953816
1361.5, 25.462692189704768
1362, 25.44462987758547
1362.5, 25.408263187372356
1363, 25.367189563816396
1363.5, 25.298015094874344
1364, 25.29376725764982
1364.5, 25.321006523593695
1365, 25.376586565572268
1365.5, 25.450037968660027
1366, 25.51849210915144
1366.5, 25.590668806800508
1367, 25.624228925328453
1367.5, 25.644760044353475
1367.9999999999998, 25.592681156301822
1368.5, 25.560141799455963
1369, 25.56010927615894
1369.5, 25.556613703257668
1370, 25.54074682461527
1370.5, 25.36755564148072
1371, 24.988667825252108
1371.4999999999998, 24.710223800383858
1372, 24.37480719405842
1372.5, 24.155446957989327
1373, 23.919412047166972
1373.5, 23.569279588886587
1374, 23.21480212856585
1374.5, 23.161952093251628
1375, 23.159256042573986
1375.5, 23.422164783781582
1376, 23.614512971415152
1376.5, 23.785452501061087
1377, 23.85879928459414
1377.5, 24.03583215638824
1378, 24.46614654609374
1378.5, 24.94379532137529
1379, 25.34053202692735
1379.5, 25.43437089507566
1380, 25.517642029516267
1380.4999999999998, 25.617075001924718
1381, 25.787807537235153
1381.5, 25.95236585752218
1382, 25.979030505677542
1382.5, 25.988042661601526
1383, 25.935232697381565
1383.5, 25.91211022065204
1383.9999999999998, 25.939147550284915
1384.5, 25.950576224700228
1385, 25.950741719161442
1385.5, 25.937462061481426
1386, 25.91061151321557
1386.5, 25.888914913060404
1387, 25.8629125337106
1387.4999999999998, 25.820310311219316
1388, 25.770957754932624
1388.5, 25.769331498810715
1389, 25.77622179611585
1389.5, 25.86166222527322
1390, 25.928813357871107
1390.5, 25.981836205364814
1391, 25.993530543650706
1391.5, 25.93001834843487
1392, 25.859572760222306
1392.5, 25.74097656394622
1392.9999999999998, 25.809631286109266
1393.5, 26.00656366333375
1394, 26.183367370472013
1394.5, 26.39854995956655
1395, 26.40102863953686
1395.5, 26.385664453172467
1396, 26.281464510060843
1396.4999999999998, 26.17955106068179
1397, 26.05812013890842
1397.5, 25.967744282064643
1398, 25.896249561105066
1398.5, 25.8449622254728
1399, 25.79049723000479
1399.5, 25.770765337042604
1399.9999999999998, 25.83651841809794
