298, 14.813736064114778
298.5, 14.831339825613014
299, 14.84937988973843
299.5, 14.876310708926198
300, 14.902639479544519
300.5, 14.937854141194421
301, 14.96743378301447
301.5, 15.001103500872688
302, 15.024521231200808
302.5, 15.048665839140611
303, 15.07402233591759
303.5, 15.094898921021539
304, 15.112472038766725
304.5, 15.128806216254958
305, 15.155908491481455
305.5, 15.182609711074022
306, 15.227782933897885
306.5, 15.264189607056053
307, 15.308719353352146
307.5, 15.339086485100054
308, 15.374071706679501
308.5, 15.403965596661507
309, 15.437217782461161
309.5, 15.460578473053715
310, 15.485603376460062
310.5, 15.528213582518873
311, 15.564624595508647
311.5, 15.608815509640081
312, 15.642174901568183
312.5, 15.678409234603194
313, 15.709362614121929
313.5, 15.754601997527402
314, 15.786689333597948
314.5, 15.822043006648784
315, 15.861843518962601
315.5, 15.913766234805294
316, 15.959075917747839
316.5, 16.008292370303636
317, 16.039915374583344
317.5, 16.07216323562288
318, 16.115253596178064
318.5, 16.151249721953064
319, 16.195732978824694
319.5, 16.228681230255503
320, 16.26497248807354
320.5, 16.289211304437714
321, 16.316313523425123
321.5, 16.343050356440514
322, 16.378352429990244
322.5, 16.407406132229042
323, 16.441703385685315
323.5, 16.479352609049187
324, 16.5197155780658
324.5, 16.568108159245654
325, 16.612962716496597
325.5, 16.647864686175282
326, 16.67617963324041
326.5, 16.711964174759927
327, 16.737337120085016
327.5, 16.764398935197562
328, 16.786254307573586
328.5, 16.813178183801753
329, 16.839198210252718
329.5, 16.874597576084327
330, 16.910039917814217
330.5, 16.95244430638968
331, 16.990506556561826
331.5, 17.031059464154808
332, 17.072988450607653
332.5, 17.10890588042139
333, 17.143789164930894
333.5, 17.17255809244692
334, 17.208537186537768
334.5, 17.236320656169653
335, 17.272401103775607
335.5, 17.30559927707924
336, 17.35035947633898
336.5, 17.385819292703474
337, 17.429797697593955
337.5, 17.454370366822786
338, 17.479528833849145
338.5, 17.524968608115856
339, 17.572515312818226
339.5, 17.614983314632468
340, 17.650256948088497
340.5, 17.68545399478799
341, 17.716067511238393
341.5, 17.761197043961218
342, 17.792870196019507
342.5, 17.829049044777733
343, 17.858284126555702
343.5, 17.89386802989192
344, 17.933175002121573
344.5, 17.985440869551198
345, 18.036965235894243
345.5, 18.09491386580345
346, 18.14222102466931
346.5, 18.188570532084782
347, 18.222952581787467
347.5, 18.25039224837971
348, 18.277036789852332
348.5, 18.30510947860202
349, 18.359443310766864
349.5, 18.400999616949903
350, 18.45529327682506
350.5, 18.494655190763396
351, 18.538799324397104
351.5, 18.580362610155873
352, 18.632199872667215
352.5, 18.67087823621371
353, 18.71173137359189
353.5, 18.751401209635517
354, 18.790605040424367
354.5, 18.833791768793304
355, 18.866648876600024
355.5, 18.893413008918856
356, 18.917115897367808
356.5, 18.953425539939673
357, 18.981080800518896
357.5, 19.017228493930318
358, 19.046630464223895
358.5, 19.08178134011159
359, 19.12253952966357
359.5, 19.17383371928905
360, 19.21213358244104
360.5, 19.253093970143354
361, 19.294713112156785
361.5, 19.332679113465275
362, 19.384679322660517
362.5, 19.428010808088956
363, 19.48178998854651
363.5, 19.523658594312153
364, 19.57779054336089
364.5, 19.62142258086469
365, 19.67520275405566
365.5, 19.71266451968259
366, 19.7568908578843
366.5, 19.799821878318497
367, 19.850584202913254
367.5, 19.889201603244487
368, 19.929666517735924
368.5, 19.971804343637558
369, 20.01052053189963
369.5, 20.071679003451067
370, 20.11808323035416
370.5, 20.163131877310647
371, 20.200771596569197
371.5, 20.25497421295202
372, 20.298627319316495
372.5, 20.35218412926099
373, 20.38453483095776
373.5, 20.41967144175578
374, 20.462184746269983
374.5, 20.51228912222477
375, 20.558831285402746
375.5, 20.60628955495764
376, 20.648895808471465
376.5, 20.6851868097486
377, 20.729218968449203
377.5, 20.76277936289509
378, 20.79895659864222
378.5, 20.829713751707146
379, 20.87486911790522
379.5, 20.915700315909632
380, 20.969078403835525
380.5, 21.006695602764154
381, 21.050210993595016
381.5, 21.101072591171146
382, 21.158771289102447
382.5, 21.213927095931496
383, 21.267946657313573
383.5, 21.31105123107973
384, 21.34826894752571
384.5, 21.40148919702135
385, 21.441706195647456
385.5, 21.487036404178014
386, 21.521547390985788
386.5, 21.56668611234892
387, 21.612500576985326
387.5, 21.67449373506092
388, 21.72510537882178
388.5, 21.785439380850264
389, 21.84554359061491
389.5, 21.91061548489533
390, 21.96657203995015
390.5, 22.01971112387173
391, 22.06317723520469
391.5, 22.100301049862807
392, 22.153869982602956
392.5, 22.196224516831748
393, 22.2507569670623
393.5, 22.299151197719198
394, 22.371335655358024
394.5, 22.439758005849015
395, 22.52767656042451
395.5, 22.594644186337774
396, 22.671466250416813
396.5, 22.739666233458692
397, 22.81287582561575
397.5, 22.87965419586925
398, 22.93713068242282
398.5, 22.989192214598916
399, 23.030772150166428
399.5, 23.0756444395371
400, 23.110469403134744
400.5, 23.155544283277806
401, 23.195959088736245
401.5, 23.249785984902132
402, 23.312136530286324
402.5, 23.40030110779307
403, 23.467822196115435
403.5, 23.543878730038273
404, 23.576391729914505
404.5, 23.609170943798546
405, 23.651316994520485
405.5, 23.68910142889777
406, 23.741644058710307
406.5, 23.78265401547722
407, 23.82772526758778
407.5, 23.86232225822063
408, 23.907368476164706
408.5, 23.956418076513245
409, 24.027988356039344
409.5, 24.09547618024513
410, 24.183011996880197
410.5, 24.25113771757252
411, 24.326192391274958
411.5, 24.388342766262284
412, 24.45320410960285
412.5, 24.53834729241666
413, 24.611143344339183
413.5, 24.699370878380407
414, 24.766275901361126
414.5, 24.838671704822886
415, 24.897267400137167
415.5, 24.978639721826568
416, 25.044363974425053
416.5, 25.124203219749774
417, 25.18878491027894
417.5, 25.26691393385498
418, 25.341424208740506
418.5, 25.423668708639937
419, 25.48697833487215
419.5, 25.549398509396156
420, 25.609703277082914
420.5, 25.658595647345052
421, 25.711944056536012
421.5, 25.7568596475177
422, 25.820412724550778
422.5, 25.882372492286265
423, 25.981856793179546
423.5, 26.048417828789724
424, 26.11870453194075
424.5, 26.182323997999077
425, 26.259633359350843
425.5, 26.35609584248121
426, 26.46132220218969
426.5, 26.565020250891877
427, 26.668174429546283
427.5, 26.79830067856132
428, 26.902360208028966
428.5, 27.01850915691375
429, 27.101723413987912
429.5, 27.191640797536877
430, 27.279510427065517
430.5, 27.405483437667243
431, 27.49460730791749
431.5, 27.601113266266907
432, 27.689179208592307
432.5, 27.791263719202846
433, 27.896912944757304
433.5, 28.00967582951351
434, 28.09380576300636
434.5, 28.16998675611967
435, 28.28312354423045
435.5, 28.37303404353341
436, 28.471808734168135
436.5, 28.540172448044302
437, 28.61233986923895
437.5, 28.678630921599876
438, 28.768235402378906
438.5, 28.834089704175213
439, 28.913397625911784
439.5, 28.980058178255092
440, 29.055746199938355
440.5, 29.132269350613527
441, 29.212628349422573
441.5, 29.297310414735904
442, 29.372596039352686
442.5, 29.4779192932659
443, 29.561679731260142
443.5, 29.660910547644164
444, 29.734083002550292
444.5, 29.82426541512666
445, 29.918424227287815
445.5, 30.0523984697991
446, 30.154164267650515
446.5, 30.276579168613978
447, 30.355430080748945
447.5, 30.43850141937689
448, 30.554391931207476
448.5, 30.673448125416087
449, 30.801577744591697
449.5, 30.905224977818563
450, 31.00250927112566
450.5, 31.08297034855434
451, 31.191558879104704
451.5, 31.268162735134865
452, 31.358506171916815
452.5, 31.44506853983779
453, 31.560472162366437
453.5, 31.648370083622098
454, 31.752389203369248
454.5, 31.816166899935126
455, 31.881783084599448
455.5, 31.960832213209372
456, 32.038669538903164
456.5, 32.11647919802195
457, 32.185377835402136
457.5, 32.29225400699926
458, 32.38189874179085
458.5, 32.50893427682668
459, 32.60564763578759
459.5, 32.73213175346055
460, 32.84411923266323
460.5, 32.9851606290234
461, 33.06639800447833
461.5, 33.152362519444026
462, 33.21492703566122
462.5, 33.279621787487315
463, 33.36036648916074
463.5, 33.43451248278501
464, 33.48699648251667
464.5, 33.534327664635
465, 33.61494080030985
465.5, 33.68306823210911
466, 33.78247020196835
466.5, 33.8471200502282
467, 33.909667428823084
467.5, 33.96859757194666
468, 34.04824713949769
468.5, 34.12654008197633
469, 34.21979304519243
469.5, 34.31793015476268
470, 34.422986120567856
470.5, 34.52357403201668
471, 34.60531635136573
471.5, 34.648738332937086
472, 34.67566348080051
472.5, 34.67575469629007
473, 34.68672500283367
473.5, 34.72255201732082
474, 34.77208267427511
474.5, 34.85290748902406
475, 34.94250300188516
475.5, 35.06545952074822
476, 35.18179838403657
476.5, 35.31603703268361
477, 35.39474134837937
477.5, 35.476434845828095
478, 35.586427022720386
478.5, 35.67817912396474
479, 35.76598317118538
479.5, 35.82727529528353
480, 35.8725486168279
480.5, 35.92245500067945
481, 36.012889628478774
481.5, 36.0771708798074
482, 36.14817478947447
482.5, 36.21064579665958
483, 36.28909492062142
483.5, 36.36302549020715
484, 36.44589494925912
484.5, 36.486379665029325
485, 36.52305651423131
485.5, 36.523326063393505
486, 36.52026349278913
486.5, 36.502635260744526
487, 36.49751937902449
487.5, 36.515663864234256
488, 36.53900357883343
488.5, 36.584095483577784
489, 36.62974488397809
489.5, 36.69182914179473
490, 36.7479678271375
490.5, 36.8170483863568
491, 36.891341743228296
491.5, 36.97294405632995
492, 37.04460208413266
492.5, 37.11363596874718
493, 37.17425920905039
493.5, 37.222732299538706
494, 37.276175702319584
494.5, 37.31365904163169
495, 37.349994977889416
495.5, 37.37769963111274
496, 37.413847461593555
496.5, 37.44322890194633
497, 37.47838050702619
497.5, 37.51330915315123
498, 37.55605639583221
498.5, 37.59387456707433
499, 37.63460271723711
499.5, 37.66791321374181
500, 37.695914969770826
500.5, 37.71322354052052
501, 37.72773728744568
501.5, 37.7457073519645
502, 37.76490644238819
502.5, 37.80097417603875
503, 37.83000523950657
503.5, 37.865850328843464
504, 37.88418864765068
504.5, 37.90193407695375
505, 37.89835733431969
505.5, 37.88996618005726
506, 37.88900246740543
506.5, 37.89069466941332
507, 37.93241181256799
507.5, 37.97161850131723
508, 38.03272719351952
508.5, 38.07530986721582
509, 38.10227609193007
509.5, 38.11485464567792
510, 38.115041684870924
510.5, 38.10263029510048
511, 38.075611803645444
511.5, 38.03870540738243
512, 37.98612185234277
512.5, 37.9478142340189
513, 37.90602710529618
513.5, 37.85272754792065
514, 37.79534848253327
514.5, 37.71049578289971
515, 37.637413490886125
515.5, 37.54926996143287
516, 37.47591431534329
516.5, 37.37654894701508
517, 37.30923962289105
517.5, 37.23668651874997
518, 37.19572457022333
518.5, 37.160514269321666
519, 37.13196390227548
519.5, 37.09718138657756
520, 37.053812848913005
520.5, 37.004393530628924
521, 36.94958364715431
521.5, 36.89427556257168
522, 36.83405352392853
522.5, 36.77949755066305
523, 36.69070011803555
523.5, 36.61528067986978
524, 36.50656684141324
524.5, 36.433199674635944
525, 36.351668053134475
525.5, 36.29952527959372
526, 36.24679278915917
526.5, 36.19215559012346
527, 36.123288290463734
527.5, 36.04182905519191
528, 35.95239676685593
528.5, 35.88063351251054
529, 35.81099221481314
529.5, 35.74148888104479
530, 35.67818442521704
530.5, 35.5710401142439
531, 35.486432548530416
531.5, 35.37744541305857
532, 35.298137116202994
532.5, 35.198825724499386
533, 35.103471384980466
533.5, 34.98037699744182
534, 34.88434032968733
534.5, 34.773334640867375
535, 34.70260101168044
535.5, 34.6299752221839
536, 34.58790991420085
536.5, 34.55210828718609
537, 34.51729541357935
537.5, 34.48318813543912
538, 34.42032635356644
538.5, 34.36623877397858
539, 34.28502633234967
539.5, 34.21949187146244
540, 34.13887047455968
540.5, 34.05531532895546
541, 33.94068665401129
541.5, 33.844800927895776
542, 33.73505156336374
542.5, 33.664834893654245
543, 33.591019757955195
543.5, 33.49001284975603
544, 33.40277020348984
544.5, 33.30646281657798
545, 33.23149544155453
545.5, 33.15026130440842
546, 33.073067806953745
546.5, 32.94645243376286
547, 32.857231552543
547.5, 32.75940194197679
548, 32.72299231566737
548.5, 32.696537052434394
549, 32.6611118157376
549.5, 32.61961192217183
550, 32.543250337307285
550.5, 32.4631746908083
551, 32.36951423560531
551.5, 32.293199486579155
552, 32.222665274117674
552.5, 32.1721186341607
553, 32.12690899169401
553.5, 32.098430403926145
554, 32.0712721134922
554.5, 32.04931057182833
555, 32.02269863121238
555.5, 31.99574483560113
556, 31.961022342554628
556.5, 31.94427716076048
557, 31.927748661884493
557.5, 31.92000205308355
558, 31.910683173426463
558.5, 31.88491188130554
559, 31.860313431774728
559.5, 31.815794605933945
560, 31.77334744334675
560.5, 31.70080536362744
561, 31.645127225559563
561.5, 31.5725987411802
562, 31.542059961141163
562.5, 31.524935554779773
563, 31.527843336351935
563.5, 31.53636410494265
564, 31.54403802160165
564.5, 31.5521250064146
565, 31.576054297104193
565.5, 31.600253731150644
566, 31.634837740557998
566.5, 31.657088984892766
567, 31.657020403317986
567.5, 31.64960109856638
568, 31.622651097153252
568.5, 31.597117739837444
569, 31.56113765191661
569.5, 31.537819875513577
570, 31.511167470339274
570.5, 31.513164948363553
571, 31.521527211407104
571.5, 31.543478384593442
572, 31.56727701135719
572.5, 31.57570668665069
573, 31.579305766656518
573.5, 31.55315099427112
574, 31.531671966906572
574.5, 31.50477702351614
575, 31.491871684477218
575.5, 31.49162582755629
576, 31.50764585737201
576.5, 31.543721424475905
577, 31.57213749128941
577.5, 31.60739342886572
578, 31.61814641144612
578.5, 31.62674108273869
579, 31.59764925085355
579.5, 31.566072972570026
580, 31.540694765427475
580.5, 31.522081890814988
581, 31.52213001275905
581.5, 31.524086333438362
582, 31.533163469919316
582.5, 31.548880679101245
583, 31.58495622244004
583.5, 31.618190995157434
584, 31.662779172031875
584.5, 31.661285568140443
585, 31.644041203211984
585.5, 31.590181710662335
586, 31.523847945007105
586.5, 31.484389462976168
587, 31.443991313731175
587.5, 31.39275600431789
588, 31.349209300092923
588.5, 31.296194041970537
589, 31.25792338843668
589.5, 31.22166362632821
590, 31.18757578339823
590.5, 31.13334686431388
591, 31.089558756856718
591.5, 31.036411237143554
592, 31.004371034290187
592.5, 30.969672485980425
593, 30.939465989874137
593.5, 30.90664395379177
594, 30.890944713442423
594.5, 30.873665373439607
595, 30.83914329523965
595.5, 30.80439569938109
596, 30.733027351177867
596.5, 30.662064568243466
597, 30.535091247810982
597.5, 30.44493282300226
598, 30.336335814768802
598.5, 30.262521237876797
599, 30.18355342564176
599.5, 30.124374006778325
600, 30.055619860762405
600.5, 30.0505475094252
601, 30.05031128994061
601.5, 30.051211236707815
602, 30.04390417855356
602.5, 29.974562679348324
603, 29.91191324110443
603.5, 29.81343942842595
604, 29.736856678573957
604.5, 29.63789223969772
605, 29.542565966437934
605.5, 29.407731363662734
606, 29.316355053058388
606.5, 29.210018759031684
607, 29.109707019961604
607.5, 28.990954330938138
608, 28.891504808128303
608.5, 28.786044722575326
609, 28.676785065118025
609.5, 28.57627011768959
610, 28.41921190434465
610.5, 28.291804940710705
611, 28.138838347106613
611.5, 28.0149060595064
612, 27.84324890521775
612.5, 27.709060442034954
613, 27.54828484001507
613.5, 27.43585410506354
614, 27.303931763407405
614.5, 27.16731142807737
615, 27.00813033386072
615.5, 26.85339793217628
616, 26.696362779488737
616.5, 26.58554608652105
617, 26.492516888953034
617.5, 26.38700095037653
618, 26.30338676419977
618.5, 26.204096911966985
619, 26.13665943838062
619.5, 26.064197283201494
620, 26.01441332897886
620.5, 25.96120624169785
621, 25.91835507016708
621.5, 25.866055249110403
622, 25.807995176997935
622.5, 25.741764679055194
623, 25.701722110051875
623.5, 25.664490414745302
624, 25.65568701375281
624.5, 25.650121935690805
625, 25.650027939161262
625.5, 25.64094922149465
626, 25.604669348154346
626.5, 25.564423987763476
627, 25.492331532298792
627.5, 25.411097801517485
628, 25.295696646465643
628.5, 25.196263236882928
629, 25.07532953591692
629.5, 24.962232134715563
630, 24.839899322199102
630.5, 24.69678810927374
631, 24.558077285201747
631.5, 24.428117524549606
632, 24.317917194223554
632.5, 24.166394170142325
633, 24.051336940626356
633.5, 23.9152356032115
634, 23.835423607144804
634.5, 23.762918301272094
635, 23.718521528364334
635.5, 23.67484300150356
636, 23.650288929547685
636.5, 23.624587396538445
637, 23.59520973387184
637.5, 23.562109610729934
638, 23.51241715292869
638.5, 23.468445142104613
639, 23.42515370337408
639.5, 23.390688487420405
640, 23.354811851889508
640.5, 23.32435606858428
641, 23.2793678557603
641.5, 23.23518778812584
642, 23.17229534526699
642.5, 23.117898188587844
643, 23.04719195583273
643.5, 22.994396947069973
644, 22.9351239371543
644.5, 22.88939399797087
645, 22.83913115104056
645.5, 22.746965311964303
646, 22.665633380219788
646.5, 22.569591103628326
647, 22.50007872548038
647.5, 22.445891616983232
648, 22.38409665580167
648.5, 22.266616155334816
649, 22.18042735372171
649.5, 22.08240716625673
650, 22.040487770540622
650.5, 22.005215558973404
651, 21.97546544407912
651.5, 21.941986490288386
652, 21.92617375498422
652.5, 21.909121754267858
653, 21.875090805628986
653.5, 21.839955166021028
654, 21.760638757067582
654.5, 21.698729065882873
655, 21.626488372861715
655.5, 21.58323831019989
656, 21.547012776516112
656.5, 21.51763574530989
657, 21.48209820742136
657.5, 21.420990633104083
658, 21.334117713026657
658.5, 21.272358014190303
659, 21.206156881784963
659.5, 21.190468707096414
660, 21.169863758060643
660.5, 21.092915443448902
661, 21.024677838449094
661.5, 20.92717501521463
662, 20.860837354308856
662.5, 20.806531229495363
663, 20.787602009578535
663.5, 20.796354753303888
664, 20.826588078406203
664.5, 20.880003294088453
665, 20.911829002404957
665.5, 20.946521891746926
666, 20.894142459284723
666.5, 20.829576354057096
667, 20.726183968013117
667.5, 20.62298434921547
668, 20.492956064465034
668.5, 20.3793592299851
669, 20.2098706351767
669.5, 20.0935310987483
670, 19.984509127939447
670.5, 19.91186030979378
671, 19.83047050059551
671.5, 19.769157168011645
672, 19.699065981532954
672.5, 19.640815173120416
673, 19.572565410681847
673.5, 19.512136489323566
674, 19.446630430146442
674.5, 19.37156404207066
675, 19.30310539167091
675.5, 19.207778939910625
676, 19.144236738155882
676.5, 19.12642232448482
677, 19.130694953524795
677.5, 19.175366703596183
678, 19.239431706951507
678.5, 19.347414818592085
679, 19.45238286402487
679.5, 19.59350527410905
680, 19.686933510531546
680.5, 19.788275706038974
681, 19.88079336738072
681.5, 19.975598261094945
682, 20.034943642708242
682.5, 20.080585299087375
683, 20.097938054865295
683.5, 20.10259536519058
684, 20.075449496030416
684.5, 20.03727964717038
685, 19.955965694435193
685.5, 19.89465898387617
686, 19.823402801051344
686.5, 19.766414875051964
687, 19.696387922486366
687.5, 19.617405409094943
688, 19.525822225671504
688.5, 19.447140374015873
689, 19.37121451123106
689.5, 19.345276873891436
690, 19.330229358420212
690.5, 19.347863701780284
691, 19.357693932661647
691.5, 19.3577033967195
692, 19.357509668118055
692.5, 19.357345259866534
693, 19.375152176883233
693.5, 19.41096185169178
694, 19.461791045696685
694.5, 19.531103577751665
695, 19.611388416421292
695.5, 19.701845967275432
696, 19.750574122120767
696.5, 19.791685200293287
697, 19.766301290233557
697.5, 19.73967481202625
698, 19.686382225435295
698.5, 19.64872936961943
699, 19.61251481853205
699.5, 19.601080421485634
700, 19.60980328641149
700.5, 19.649777395555333
701, 19.720915948032058
701.5, 19.784587880541608
702, 19.862030183406333
702.5, 19.888667964162508
703, 19.913227320262422
703.5, 19.84884108448273
704, 19.787650841881486
704.5, 19.72704705832902
705, 19.691508260903845
705.5, 19.7093746864241
706, 19.72080429269856
706.5, 19.730003821018883
707, 19.725916461677684
707.5, 19.70774942038676
708, 19.68874790434215
708.5, 19.662158471286745
709, 19.640136256793227
709.5, 19.6146278074021
710, 19.584669247361532
710.5, 19.55243376602155
711, 19.527205757479877
711.5, 19.504239631923426
712, 19.469406899064964
712.5, 19.440663789898778
713, 19.404783892352683
713.5, 19.38512205899464
714, 19.376057728782428
714.5, 19.368712457430675
715, 19.35976261151299
715.5, 19.347590973158944
716, 19.33001221317366
716.5, 19.30261262089624
717, 19.269107114650282
717.5, 19.208783326358827
718, 19.1454661557851
718.5, 19.09476179071919
719, 19.05970400038713
719.5, 19.077371274236242
720, 19.095436520489528
720.5, 19.13142328401031
721, 19.144403800439306
721.5, 19.1354294208341
722, 19.128290780011127
722.5, 19.119394191639017
723, 19.133556185350344
723.5, 19.159623519303153
724, 19.214569059252995
724.5, 19.280856821153293
725, 19.34376458147956
725.5, 19.404418067811164
726, 19.43023620106949
726.5, 19.44391083127597
727, 19.417299505892004
727.5, 19.39171475500015
728, 19.346495217959358
728.5, 19.317774847221287
729, 19.290302086934304
729.5, 19.304316188976998
730, 19.349264724595017
730.5, 19.396362211222097
731, 19.45703344780037
731.5, 19.45590316544542
732, 19.447927132530253
732.5, 19.447538652944004
733, 19.449740828386155
733.5, 19.475463838045144
734, 19.497272019318842
734.5, 19.523932723392917
735, 19.54032437521164
735.5, 19.549416771451533
736, 19.556492334854056
736.5, 19.565595259954563
737, 19.563446378322908
737.5, 19.554471836004396
738, 19.541513228023206
738.5, 19.524299679270072
739, 19.55125684713103
739.5, 19.583498466127736
740, 19.6559885602839
740.5, 19.724909742840566
741, 19.794233389104207
741.5, 19.829771397666292
742, 19.78500280202178
742.5, 19.749857644349092
743, 19.704193839441544
743.5, 19.70628774381386
744, 19.75183579276343
744.5, 19.792332072762918
745, 19.845450866491817
745.5, 19.883274742833038
746, 19.925878739566315
746.5, 19.89975608615258
747, 19.867288698728515
747.5, 19.825558544031423
748, 19.793316143178956
748.5, 19.793336552763265
749, 19.791369708665513
749.5, 19.782355197909908
750, 19.772578756977893
750.5, 19.754474086288283
751, 19.74394640648059
751.5, 19.735070234841558
752, 19.71264549070297
752.5, 19.677569761677958
753, 19.63514307797928
753.5, 19.58499499112264
754, 19.501691749644777
754.5, 19.41371055932302
755, 19.320624059337064
755.5, 19.250491604369785
756, 19.233010828980284
756.5, 19.222628295463068
757, 19.222617267188767
757.5, 19.222302082481804
758, 19.222078364949382
758.5, 19.243784554314672
759, 19.288663076879402
759.5, 19.362023057335193
760, 19.46649839888815
760.5, 19.5432388459828
761, 19.626157668099296
761.5, 19.67408020502053
762, 19.719874144917213
762.5, 19.745728220477133
763, 19.764513158235786
763.5, 19.773389626492104
764, 19.782827940392252
764.5, 19.801009818971792
765, 19.827523878755173
765.5, 19.8815691316735
766, 19.943568774432606
766.5, 20.032348891318847
767, 20.093169193378174
767.5, 20.162407954720152
768, 20.18888632491482
768.5, 20.213601746282876
769, 20.213546743576813
769.5, 20.214437844044184
770, 20.223173877045284
770.5, 20.237921739155396
771, 20.291426825754286
771.5, 20.333671202304217
772, 20.388086226831447
772.5, 20.415896304071367
773, 20.434098749335504
773.5, 20.43918180205972
774, 20.439011802973795
774.5, 20.42141298244887
775, 20.395803446581624
775.5, 20.386982025313472
776, 20.378932545855648
776.5, 20.378715740294012
777, 20.375573474066172
777.5, 20.34088877678795
778, 20.31380232832052
778.5, 20.28697189091443
779, 20.27369757636157
779.5, 20.273440778956967
780, 20.289076613330693
780.5, 20.32523431121011
781, 20.373232371559737
781.5, 20.443879170541223
782, 20.478101630180433
782.5, 20.51221528137279
783, 20.478104351378875
783.5, 20.43728002414487
784, 20.3788819144102
784.5, 20.339089551492265
785, 20.382962981890373
785.5, 20.4222786541619
786, 20.485167589787494
786.5, 20.513644935080166
787, 20.51348451466545
787.5, 20.534293315116884
788, 20.579301436850415
788.5, 20.62002877595134
789, 20.672703595934223
789.5, 20.672716478202332
790, 20.66456388401808
790.5, 20.65661688695583
791, 20.64961274351704
791.5, 20.6578011874697
792, 20.658243047006266
792.5, 20.614066616351224
793, 20.572290960851817
793.5, 20.500051107972226
793.9999999999999, 20.45404271459674
794.5, 20.408959008339266
795, 20.35486425046595
795.5, 20.27460154637886
796, 20.19386159880071
796.5, 20.089492594798955
797, 20.02633187302412
797.5, 19.959726088657703
798, 20.05857853356453
798.4999999999999, 20.163950025742665
799, 20.317756108296805
799.5, 20.422312724041817
800, 20.41344153350849
800.5, 20.413736376274798
801, 20.431935540097
801.5, 20.462577791964634
801.9999999999999, 20.526039787111742
802.5, 20.544916956870907
803, 20.54432674798514
803.5, 20.53851869462906
804, 20.529883209063158
804.5, 20.54298440566876
805, 20.55912806929136
805.5, 20.583609313677
806, 20.602868314107695
806.4999999999999, 20.585565730219272
807, 20.558428279262415
807.5, 20.469128779728408
808, 20.398777738547523
808.5, 20.308031296951413
809, 20.259370972298356
809.5, 20.222877476078736
810, 20.23701647831254
810.5, 20.2816922847844
811, 20.300350954416814
811.5, 20.31763890850185
812, 20.270154147906666
812.5, 20.212145225247752
813, 20.112471367990608
813.5, 20.023049347700677
814, 19.918808922007543
814.4999999999999, 19.83221448235048
815, 19.72436096619103
815.5, 19.621762123170257
816, 19.450117741863977
816.5, 19.327960642218045
817, 19.193962061778564
817.5, 19.12802892776547
818, 19.06603834645567
818.5, 19.0453083203508
818.9999999999999, 19.028217659185955
819.5, 19.042301902879004
820, 19.057140829751404
820.5, 19.048795513110875
821, 19.036004646137755
821.5, 18.983395476195554
822, 18.940594958448173
822.5, 18.886624040461598
823, 18.861998464048725
823.5, 18.861633524791273
824, 18.886777498275706
824.5, 18.94074279679161
825, 18.999076359875502
825.5, 19.077917413809487
826, 19.061014734735068
826.5, 19.028326633352904
826.9999999999999, 18.90765776062578
827.5, 18.776749542147087
828, 18.58113570893316
828.5, 18.417192443452635
829, 18.240924075700264
829.5, 18.124289416714106
830, 18.05179812178268
830.5, 17.987126552193757
831, 17.88794119801888
831.4999999999999, 17.781095144993472
832, 17.629821593698566
832.5, 17.5243565191233
833, 17.402637642875078
833.5, 17.364118782387038
834, 17.33083999668588
834.5, 17.33080770320234
834.9999999999999, 17.328591494601
835.5, 17.3029881943625
836, 17.283955760869475
836.5, 17.275167429348258
837, 17.277437085328287
837.5, 17.30453316005284
838, 17.308450749170717
838.5, 17.29041635444466
839, 17.280606465247445
839.4999999999999, 17.271866249290866
840, 17.293547965847353
840.5, 17.327691661504844
841, 17.41380904862808
841.5, 17.510786934080315
842, 17.591823378681084
842.5, 17.661188852616718
843, 17.661756930450025
843.5, 17.66564273231866
843.9999999999999, 17.692495072007972
844.5, 17.716492367730368
845, 17.753246727765514
845.5, 17.736634889903584
846, 17.663906881024843
846.5, 17.544689060878397
847, 17.35872170389497
847.4999999999999, 17.198804460091978
848, 17.011649281247983
848.5, 16.85150697820302
849, 16.681232567212405
849.5, 16.522048246476118
850, 16.382792253304643
850.5, 16.22624888158525
851, 16.107517398972362
851.5, 15.999885053868638
851.9999999999999, 15.943584011869916
852.5, 15.925462292905735
853, 15.906613155398176
853.5, 15.879678067822567
854, 15.828114584772607
854.5, 15.748992814574265
855, 15.682332027100827
855.5, 15.606685142230262
856, 15.522791901017541
856.5, 15.434464697668076
857, 15.34153308227647
857.5, 15.267612359342522
858, 15.223990210883656
858.5, 15.206083347300819
859, 15.242147092750912
859.5, 15.270565209975587
859.9999999999999, 15.30741763111007
860.5, 15.272631865611586
861, 15.173497095085892
861.5, 15.062755389492409
862, 14.914350944927662
862.5, 14.793851062294792
863, 14.660830463184169
863.5, 14.580458824437798
864, 14.507247101615718
864.4999999999999, 14.515343255052429
865, 14.536329008071775
865.5, 14.63391706586998
866, 14.733900092467124
866.5, 14.923888932002185
867, 15.057188565293998
867.5, 15.21145113102233
867.9999999999999, 15.281690272088866
868.5, 15.324981979583029
869, 15.316208839313134
869.5, 15.290409157502651
870, 15.281439261946005
870.5, 15.273033558495186
871, 15.313145435503017
871.5, 15.346294685154248
872, 15.320654574509078
872.4999999999999, 15.288241900398887
873, 15.199289756715359
873.5, 15.138433531264411
874, 15.084043975063523
874.5, 15.062248685405109
875, 15.061829974813563
875.5, 15.109121654265735
876, 15.198011719083226
876.5, 15.282295192508727
876.9999999999999, 15.38522101881783
877.5, 15.442036065833022
878, 15.49876060812636
878.5, 15.579111687654276
879, 15.656839653690668
879.5, 15.743884772396015
880, 15.815128832625177
880.4999999999999, 15.9046597108362
881, 15.974596137604223
881.5, 16.064890621474518
882, 16.129917478028844
882.5, 16.20154713879333
883, 16.252936726973076
883.5, 16.314958847837886
884, 16.348137627907278
884.5, 16.382240003728114
884.9999999999999, 16.37814590810639
885.5, 16.366804862076236
886, 16.26735909430552
886.5, 16.18826404959833
887, 16.179929900259594
887.5, 16.19258290847482
888, 16.282069712931175
888.4999999999999, 16.29040829021268
889, 16.182575641177436
889.5, 16.071303165062076
890, 15.91005748997982
890.5, 15.848427218798989
891, 15.80418293226461
891.5, 15.73549511117993
892, 15.651747753515863
892.5, 15.595170841208244
892.9999999999999, 15.54593404807251
893.5, 15.612809343741858
894, 15.677132434923791
894.5, 15.78271764777621
895, 15.868338485658455
895.5, 15.976794944992776
896, 16.072194418743422
896.5, 16.216894889540043
897, 16.324737746587772
897.4999999999999, 16.44907142372267
898, 16.495430090278944
898.5, 16.530571917465068
899, 16.554077010991506
899.5, 16.57891672318044
900, 16.609270208181044
900.5, 16.645307100770097
900.9999999999999, 16.739350063539845
901.5, 16.82864229998222
902, 16.988035170794504
902.5, 17.104354971394386
903, 17.222126595470257
903.5, 17.305714685195596
904, 17.405179310293946
904.5, 17.490144685753037
905, 17.596355864142566
905.4999999999999, 17.660511296364163
906, 17.72967136944449
906.5, 17.82458171526983
907, 17.930469948100694
907.5, 18.050267944967203
908, 18.162359312999158
908.5, 18.23232975952027
909, 18.31001048263319
909.5, 18.50621997681101
909.9999999999999, 18.66367145718705
910.5, 18.872276180982368
911, 18.982967313750862
911.5, 19.064538211195156
912, 19.130735539209823
912.5, 19.20981916313184
913, 19.263573323203374
913.4999999999999, 19.323454360123677
914, 19.39682637743593
914.5, 19.479157659927267
915, 19.58691990343486
915.5, 19.680589104782044
916, 19.758792265236835
916.5, 19.839226229634903
917, 20.00075480190435
917.5, 20.147127206231772
917.9999999999999, 20.38157053549655
918.5, 20.574463986743893
919, 20.816534702556254
919.5, 20.997188501188802
920, 21.21826826123224
920.5, 21.353367166584547
921, 21.497527530005684
921.4999999999999, 21.577273301306874
922, 21.657275474006482
922.5, 21.716462297222066
923, 21.76762599795694
923.5, 21.828939924713595
924, 21.886758432207515
924.5, 21.985872620644273
925, 22.071063231005866
925.5, 22.19777691109816
925.9999999999999, 22.279044267917257
926.5, 22.359008880358886
927, 22.42791734125099
927.5, 22.51563873374326
928, 22.5773779520828
928.5, 22.644234506478227
929, 22.728039130078102
929.5, 22.818335074572076
930, 22.95397259265647
930.4999999999999, 23.065032328430362
931, 23.161923642114843
931.5, 23.238350517379615
932, 23.328768377354592
932.5, 23.401247319188926
933, 23.50074353982862
933.5, 23.576634535417426
933.9999999999999, 23.665371058275497
934.5, 23.73142376994194
935, 23.80978747784576
935.5, 23.85086657170642
936, 23.892301265536616
936.5, 23.907267374908898
937, 23.929812262070755
937.5, 24.032562603468577
938, 24.132203982230934
938.4999999999999, 24.318469319012365
939, 24.45323423277202
939.5, 24.589154285200095
940, 24.67336685909774
940.5, 24.754839989279773
941, 24.820789047357877
941.5, 24.900260169202085
942, 24.959662166961778
942.5, 25.02858236770976
942.9999999999999, 25.11706342373506
943.5, 25.214484536497494
944, 25.31852225545383
944.5, 25.416837596933064
945, 25.49509243828517
945.5, 25.56061329550721
946, 25.64983995150135
946.4999999999999, 25.712808584425744
947, 25.77640703264349
947.5, 25.821107160098634
948, 25.87521748934877
948.5, 25.938797866082723
949, 26.026861944703512
949.5, 26.117397198591576
950, 26.228343979059105
950.5, 26.26428626496748
950.9999999999999, 26.29554503822459
951.5, 26.271403997693156
952, 26.25539093209416
952.5, 26.29934209321671
953, 26.363111447149294
953.5, 26.551542141867344
954, 26.692541417191322
954.4999999999999, 26.864393281121806
955, 26.978889979997177
955.5, 27.09486754705128
956, 27.181466330195505
956.5, 27.28739995961962
957, 27.345298173478227
957.5, 27.40435236609474
958, 27.50895226036627
958.5, 27.62158534458655
958.9999999999999, 27.739889186851585
959.5, 27.84665745578903
960, 28.004409769104996
960.5, 28.133196072844925
961, 28.295425740978743
961.5, 28.414841735896076
962, 28.559627917138215
962.5, 28.66338070258999
963, 28.779005772885284
963.4999999999999, 28.79283666626759
964, 28.775737234376535
964.5, 28.735344502309943
965, 28.685292824033112
965.5, 28.7051650372849
966, 28.735306641853256
966.5, 28.862455303914118
966.9999999999999, 28.973716094694666
967.5, 29.11494496665884
968, 29.224483475159246
968.5, 29.351112732102933
969, 29.442277933656896
969.5, 29.551068373826467
970, 29.612165998413175
970.5, 29.664895191213276
971, 29.713284838975937
971.4999999999999, 29.773992103803394
972, 29.840168557593685
972.5, 29.914104775946242
973, 29.97734199309008
973.5, 30.03971923754854
974, 30.10012580077843
974.5, 30.15328413431618
975, 30.233557682744404
975.5, 30.323239494585437
975.9999999999999, 30.50455560173367
976.5, 30.63955760476388
977, 30.81141233488985
977.5, 30.94116613678932
978, 31.09087885107334
978.5, 31.17914934735191
979, 31.27401161543645
979.4999999999999, 31.288659805947958
980, 31.29701562220626
980.5, 31.385152064920348
981, 31.471522587761257
981.5, 31.575584292635725
982, 31.65337222733565
982.5, 31.71604677066361
983, 31.77516835923325
983.5, 31.874274845204937
983.9999999999999, 31.954154159430033
984.5, 32.05290561948942
985, 32.11596684394944
985.5, 32.18699073193311
986, 32.25188772199297
986.5, 32.32829087966597
987, 32.45350569278227
987.4999999999999, 32.59096444239084
988, 32.71664750263187
988.4999999999999, 32.825519513329795
989, 32.93898007506937
989.5, 33.05223893581669
990, 33.26764535973582
990.5, 33.402404130853526
991, 33.511588827076054
991.5, 33.54687726382943
991.9999999999999, 33.53699522371875
992.5, 33.539392656121976
993, 33.548176596731196
993.5, 33.52428455795783
994, 33.49081738578188
994.5, 33.451526868823066
995, 33.416052803910134
995.5, 33.466096486390086
996, 33.51535508826478
996.4999999999999, 33.6031061119771
997, 33.668567614421534
997.5, 33.73184097316479
998, 33.7950959495458
998.5, 33.90337244413557
999, 34.00365183725553
999.5, 34.13746730109193
999.9999999999999, 34.2659037166261
1000.5, 34.43175451210135
1001, 34.612690261729824
1001.5, 34.82030468575175
1002, 34.94143523885498
1002.5, 35.04924417637835
1003, 35.007688562619805
1003.5, 34.96320196802597
1004, 34.874602035675395
1004.4999999999999, 34.79258933299633
1005, 34.65681157560212
1005.5, 34.55188759365468
1006, 34.4154991352725
1006.5, 34.39137721139298
1007, 34.428373532835664
1007.5, 34.49122643479697
1008, 34.57757881369555
1008.5, 34.707474462526974
1008.9999999999999, 34.85452021832771
1009.5, 35.037162047201974
1010, 35.211071529394445
1010.5, 35.33234466613179
1011, 35.427655781548154
1011.5, 35.525540374119444
1012, 35.598606588762664
1012.4999999999999, 35.680368499571244
1013, 35.755786463257394
1013.5, 35.87297041456587
1014, 36.006220302861095
1014.5, 36.19174603710445
1015, 36.36739379962654
1015.5, 36.581711039422224
1016, 36.744652134641385
1016.5, 36.91386777081917
1016.9999999999999, 36.98692174049385
1017.5, 37.04813684288525
1018, 37.03994747970963
1018.5, 37.03523317154096
1019, 37.04425276372824
1019.5, 37.0590100438154
1020, 37.095165728041714
1020.4999999999999, 37.1165704953394
1021, 37.134397034855816
1021.4999999999999, 37.16306763348565
1022, 37.20725461709137
1022.5, 37.26222286899153
1023, 37.329967429128004
1023.5, 37.40487001552974
1024, 37.4868097070935
1024.5, 37.59562571433266
1025, 37.68976754696485
1025.5, 37.78541795873926
1026, 37.84230414383248
1026.5, 37.83324654047018
1027, 37.81453657573491
1027.5, 37.768602618737475
1028, 37.79751545018834
1028.5, 37.896980077416785
1029, 37.9652250357587
1029.5, 38.04445172904497
1030, 38.06063213559901
1030.5, 38.069347155828964
1031, 38.04048016565939
1031.5, 38.006740458085154
1032, 37.939318512702364
1032.5, 37.887359362024256
1033, 37.86995847436805
1033.5, 37.86787948820324
1034, 37.90403680438313
1034.5, 37.94064938298896
1035, 38.00385334514686
1035.5, 38.059276360228004
1036, 38.13051078219029
1036.5, 38.20904944125738
1037, 38.31361582762458
1037.5, 38.37057586652711
1038, 38.428813951860846
1038.5, 38.42950146021234
1039, 38.43220369550345
1039.5, 38.46632649978135
1040, 38.499580522239
1040.5, 38.561764278581414
1041, 38.624945017726034
1041.5, 38.74268316937241
1042, 38.83277409315472
1042.5, 38.950439328700526
1043, 39.03195677467617
1043.5, 39.12014028770451
1044, 39.214362332641045
1044.5, 39.335298463542564
1045, 39.386887343709375
1045.5, 39.43605848385761
1046, 39.492397978148915
1046.5, 39.541702205389
1047, 39.54188195422369
1047.5, 39.5306519042926
1048, 39.46798921746887
1048.5, 39.39392590338327
1049, 39.239613103029996
1049.5, 39.11437818235505
1050, 38.94229811611984
1050.5, 38.870177406425285
1051, 38.82745201171582
1051.5, 38.8445403008944
1052, 38.878361367920164
1052.5, 38.97787706514182
1053, 39.09252395239039
1053.5, 39.225441142527636
1054, 39.34366642225868
1054.5, 39.47351080153744
1055, 39.57172952342422
1055.5, 39.652461463530805
1056, 39.72082690254377
1056.5, 39.82027990005476
1057, 39.88452347355263
1057.5, 39.94694586567632
1058, 39.962000596906584
1058.5, 39.96210548499903
1059, 40.03541253127399
1059.5, 40.1367254074188
1060, 40.16540523523089
1060.5, 40.18365149662342
1061, 40.058882984815234
1061.5, 39.94685606608355
1062, 39.815742592218555
1062.5, 39.71199988347128
1063, 39.59503960795564
1063.5, 39.52200583248074
1064, 39.4589745992291
1064.5, 39.38300934617655
1065, 39.26651831730827
1065.5, 39.16373628724225
1066, 39.03212846357402
1066.5, 38.97183717468731
1067, 38.912861275959514
1067.5, 38.9474235553685
1068, 38.99101971751275
1068.5, 39.10082998970229
1069, 39.18683944555553
1069.5, 39.230884731453706
1070, 39.26882169955449
1070.5, 39.323089704776685
1071, 39.37046751918269
1071.5, 39.442522381900204
1072, 39.52729611025489
1072.5, 39.65212776427556
1073, 39.79034233557921
1073.5, 39.97293735175287
1074, 40.07086351785107
1074.5, 40.17035535669453
1075, 40.179914238619475
1075.5, 40.18614138071651
1076, 40.16914289085849
1076.5, 40.15441269000742
1077, 40.13658948338471
1077.5, 40.11547155216413
1078, 40.070162850697216
1078.5, 40.035241219460204
1079, 39.98981820082775
1079.5, 39.98111432941292
1080, 39.990444507792546
1080.5, 40.054552738747425
1081, 40.14912207085603
1081.5, 40.212018380693905
1082, 40.27723286694924
1082.5, 40.31600960619558
1083, 40.36264703964275
1083.5, 40.483454731241686
1084, 40.57812266146479
1084.5, 40.66720917720891
1085, 40.71509670898544
1085.5, 40.72421928598524
1086, 40.72136447978945
1086.5, 40.703628545598086
1087, 40.64043389303595
1087.5, 40.53428181486869
1088, 40.452670507940056
1088.5, 40.3587185672695
1089, 40.31896163160307
1089.5, 40.274921107139384
1090, 40.12582593114524
1090.5, 39.98948845162648
1091, 39.815954012243516
1091.5, 39.687585494147086
1092, 39.58902670706324
1092.5, 39.53591965405552
1093, 39.51733321782839
1093.5, 39.534262529700555
1094, 39.58853413542114
1094.5, 39.60636903571421
1095, 39.615311970889685
1095.5, 39.62894216925079
1096, 39.64576359968484
1096.5, 39.66804742084841
1097, 39.69335708535575
1097.5, 39.74382730087782
1098, 39.79015013226915
1098.5, 39.86013750232774
1099, 39.90755182263455
1099.5, 39.93443850074315
1100, 39.929650877980116
1100.5, 39.87587257293489
1101, 39.8027643775061
1101.5, 39.686308295367525
1102, 39.56223060949648
1102.5, 39.39597536726309
1103, 39.299741215247955
1103.5, 39.19923767395441
1104, 39.226006166870604
1104.5, 39.260114170237586
1105, 39.33648381599501
1105.5, 39.39980800743735
1106, 39.46135884385681
1106.5, 39.48966462463342
1107, 39.4625589301457
1107.5, 39.438421581356565
1108, 39.40197663434218
1108.5, 39.40411334478532
1109, 39.43130220895545
1109.5, 39.52984966251923
1110, 39.67705640608152
1110.5, 39.79147760023942
1111, 39.91514924098658
1111.5, 39.92526562966397
1112, 39.927203662944926
1112.5, 39.85886212073143
1113, 39.80193688044875
1113.5, 39.739971922679516
1114, 39.71638536226442
1114.5, 39.75255261973046
1115, 39.77365929456778
1115.5, 39.79193978350458
1116, 39.78324154557478
1116.5, 39.75636351947956
1117, 39.73453429500584
1117.5, 39.708729604054604
1118, 39.692855792646235
1118.5, 39.67661953015498
1119, 39.678365674619265
1119.5, 39.665172941178156
1120, 39.535360360162414
1120.5, 39.414198410896866
1121, 39.20866437550673
1121.5, 39.06291162741928
1122, 38.909331992727985
1122.5, 38.80467907884648
1123, 38.697317160174094
1123.5, 38.64668126900145
1124, 38.6021686957204
1124.5, 38.57127047665272
1125, 38.53732837495857
1125.5, 38.45820263223085
1126, 38.36677631310698
1126.5, 38.208438066140666
1127, 38.06726632876096
1127.5, 37.90185298363333
1128, 37.76693693671777
1128.5, 37.60525904639876
1129, 37.49063756786872
1129.5, 37.3639576452192
1130, 37.27800365661311
1130.5, 37.1888238364834
1131, 37.097966340501614
1131.5, 36.97476661420472
1132, 36.877666678898095
1132.5, 36.76810003200993
1133, 36.75666244018662
1133.5, 36.74654314630935
1134, 36.704113731226364
1134.5, 36.65202931090704
1135, 36.48507410256071
1135.5, 36.34765705877423
1136, 36.16739284244329
1136.5, 36.06026178086469
1137, 35.97806329385986
1137.5, 35.97612006657546
1138, 36.030709993791376
1138.5, 36.062971185938466
1139, 36.09815864952523
1139.5, 35.99782135569849
1140, 35.86564654828459
1140.5, 35.71712114821409
1141, 35.57150139431084
1141.5, 35.48519721235982
1142, 35.406061967736434
1142.5, 35.26454740565387
1143, 35.15544378408987
1143.5, 35.028796481117396
1144, 34.9520046348035
1144.5, 34.88034880591647
1145, 34.73183441524293
1145.5, 34.48220819889647
1146, 34.27525963752619
1146.5, 34.02389259380047
1147, 33.9604397495234
1147.5, 33.91033593972048
1148, 33.9495368155534
1148.5, 33.98696542793087
1149, 34.012554405731166
1149.5, 34.01212406488723
1150, 33.90531508554659
1150.5, 33.82824150263461
1151, 33.746864152018276
1151.5, 33.75219356744395
1152, 33.85106817254368
1152.5, 33.96397286080054
1153, 34.12307859585992
1153.5, 34.07363833308756
1154, 33.96314152150019
1154.5, 33.807691549238015
1155, 33.63871995337182
1155.5, 33.52569903671656
1156, 33.42311996836203
1156.5, 33.362536532608175
1157, 33.3544113424837
1157.5, 33.51530159721071
1158, 33.607661183092105
1158.5, 33.653629940920865
1159, 33.64011087305367
1159.5, 33.56742927203743
1160, 33.49587281750601
1160.5, 33.39854701701894
1161, 33.311578635006256
1161.5, 33.20984976614369
1162, 33.10574824795084
1162.5, 32.98764725826284
1163, 32.745470281837285
1163.5, 32.5303496542672
1164, 32.27757204636282
1164.5, 32.08958792960249
1165, 31.92772183812977
1165.5, 31.8157623520586
1166, 31.697805419671013
1166.5, 31.639959896392455
1167, 31.604918061247645
1167.5, 31.617710400048892
1168, 31.65269655853639
1168.5, 31.663179937013012
1169, 31.67182071921998
1169.5, 31.61515808488201
1170, 31.541587112239483
1170.5, 31.297132824957743
1171, 31.08817330133205
1171.5, 30.868718238094488
1172, 30.72713756418608
1172.5, 30.663890396363982
1173, 30.624196220066437
1173.5, 30.588120992144425
1174, 30.545817524716966
1174.5, 30.483319439375833
1175, 30.401240195372893
1175.5, 30.287964278280924
1176, 30.25646315595256
1176.5, 30.231113195384154
1177, 30.284285554089948
1177.5, 30.33941923908243
1178, 30.399144771108666
1178.5, 30.43651053747182
1179, 30.409519814598298
1179.5, 30.354509413898697
1180, 30.191499102736273
1180.5, 30.06136045481358
1181, 29.880988123368553
1181.5, 29.67973286206103
1182, 29.395750666442368
1182.5, 29.086642370417877
1183, 28.689411768292317
1183.5, 28.470233248666418
1184, 28.249375953125366
1184.5, 28.030124086885778
1185, 27.78938824517317
1185.5, 27.31518251250229
1186, 26.929259590429353
1186.5, 26.501616174035107
1187, 26.201977126380825
1187.5, 25.911322767929562
1188, 25.701529019797178
1188.5, 25.4474803469504
1189, 25.3956863700098
1189.5, 25.43361603559555
1190, 25.545485768501962
1190.5, 25.69920276308534
1191, 25.76383247664394
1191.5, 25.832591291113204
1192, 26.022449595095537
1192.5, 26.191511977125217
1193, 26.355894506940174
1193.5, 26.476258577506343
1194, 26.556952188738308
1194.5, 26.620044140456358
1195, 26.701364856594324
1195.5, 26.758768211377458
1196, 26.821285275034228
1196.5, 26.801153636694096
1197, 26.739739547251062
1197.5, 26.547153654648426
1198, 26.294221541759896
1198.5, 26.008791420844318
1199, 25.697041357214474
1199.5, 25.26065028950012
1200, 24.886123191014818
1200.5, 24.510499850124262
1201, 24.22661909547169
1201.5, 23.956485808621835
1202, 23.76080618679869
1202.5, 23.53380320756247
1203, 23.438527558908675
1203.5, 23.404394048282086
1204, 23.36102331415414
1204.5, 23.29976532950721
1205, 23.196589198586707
1205.5, 23.07151313060112
1206, 22.94679005322601
1206.5, 22.824078707835028
1207, 22.772665707084556
1207.5, 22.745290964986978
1208, 22.807320572087676
1208.5, 22.877994107042767
1209, 23.031660814415247
1209.5, 23.155999331504674
1210, 23.328165481389277
1210.5, 23.427011186001863
1211, 23.515070206326868
1211.5, 23.47222200839701
1212, 23.37716478827491
1212.5, 23.241193036686767
1213, 23.084923446144074
1213.5, 22.881826298010722
1214, 22.67532989144449
1214.5, 22.43521862685715
1215, 22.252178791972597
1215.5, 22.127940810584107
1216, 22.026143161170012
1216.5, 21.890250787651013
1217, 21.803067616776858
1217.5, 21.712676154867353
1218, 21.625502658018178
1218.5, 21.510468607831896
1219, 21.405267333227286
1219.5, 21.275998265148615
1220, 21.19620892278151
1220.5, 21.114899007932706
1221, 20.99605637266336
1221.5, 20.873147742606946
1222, 20.68309106716484
1222.5, 20.543914313408976
1223, 20.455106136450866
1223.5, 20.4372132429054
1224, 20.536729147253894
1224.5, 20.564045738126367
1225, 20.537551003572304
1225.5, 20.452307386811228
1226, 20.31084131353809
1226.5, 20.13453505682442
1227, 19.91308488094792
1227.5, 19.707261633490873
1228, 19.491601976423738
1228.5, 19.42299683093286
1229, 19.363969182502586
1229.5, 19.277168549125847
1230, 19.212271967378285
1230.5, 19.158790477392472
1231, 19.165252216992613
1231.5, 19.273431861531336
1232, 19.356206664023205
1232.5, 19.454551254531395
1233, 19.45227976920424
1233.5, 19.408609641623357
1234, 19.315166624129887
1234.5, 19.198021559156047
1235, 18.83589193794134
1235.5, 18.442105489379003
1236, 18.028650782124544
1236.5, 17.678732015280033
1237, 17.32783154875264
1237.5, 17.008105701633355
1238, 16.4943428196445
1238.5, 16.107338508943997
1239, 15.619172692050228
1239.5, 15.230036041468807
1240, 14.757664612839065
1240.5, 14.453764958515805
1241, 14.111946229707286
1241.5, 13.853532994332909
1242, 13.56979500323422
1242.5, 13.450387431601186
1243, 13.367698311838438
1243.5, 13.705633178957115
1244, 14.019336002263614
1244.5, 14.504478409100386
1245, 14.84201305204769
1245.5, 15.114118642582241
1246, 15.416344584039365
1246.5, 15.958619973449629
1247, 16.382130671551465
1247.5, 16.887370802088526
1248, 17.010483069252103
1248.5, 17.055372167869024
1249, 17.012432036272997
1249.5, 16.955670544412897
1250, 16.775907105911955
1250.5, 16.594403967091935
1251, 16.387509658561
1251.5, 16.20355301701683
1252, 15.919252916539122
1252.5, 15.714367887204446
1253, 15.505985018046431
1253.5, 15.410274912011175
1254, 15.373799957797914
1254.5, 15.344369320790534
1255, 15.309107298919798
1255.5, 15.314626731187104
1256, 15.331655514657143
1256.5, 15.346891498629887
1257, 15.363087535908676
1257.5, 15.37694788718531
1258, 15.40918191110525
1258.5, 15.590829423490845
1259, 15.748662587381233
1259.5, 15.971758632434302
1260, 16.0939928218433
1260.5, 16.13090086413318
1261, 16.118421227432265
1261.5, 16.054749985675755
1262, 15.952290728544412
1262.5, 15.792883268859242
1263, 15.697309165927678
1263.5, 15.594795604609445
1264, 15.623620368839
1264.5, 15.665138970584707
1265, 15.74837500529327
1265.5, 15.821831594515103
1266, 15.900058059412942
1266.5, 15.955703323200524
1267, 15.991285595476441
1267.5, 15.970047866022554
1268, 15.843932438740595
1268.5, 15.734533339115643
1269, 15.591335184874495
1269.5, 15.55371312303943
1270, 15.544530445405599
1270.5, 15.543092103971759
1271, 15.54321307388038
1271.5, 15.485210508821012
1272, 15.418189312194428
1272.5, 15.291773388094612
1273, 15.182525380279216
1273.5, 15.05972959592387
1274, 14.969758244591162
1274.5, 14.8887762915367
1275, 14.864902774394864
1275.5, 14.902112092549743
1276, 14.947610981530204
1276.5, 15.017333223179378
1277, 15.037395757831803
1277.5, 15.047210238281735
1278, 15.00894565958383
1278.5, 14.959069674502999
1279, 14.899296960772332
1279.5, 14.838281280625381
1280, 14.774306321640395
1280.5, 14.724409681725419
1281, 14.688074185261371
1281.5, 14.687368710255356
1282, 14.768291709397573
1282.5, 14.781814075675527
1283, 14.724475367019977
1283.5, 14.642636390124508
1284, 14.515784944314731
1284.5, 14.426171610408645
1285, 14.321910321907396
1285.5, 14.400743133109984
1286, 14.506062339017262
1286.5, 14.725664239688228
1287, 14.952766822375409
1287.5, 15.28034788141855
1288, 15.558216046198794
1288.5, 15.922521710110658
1289, 16.132446371672017
1289.5, 16.205213850895504
1290, 16.238202209328875
1290.5, 16.247836042171073
1291, 16.184063098861415
1291.5, 16.05955448190727
1292, 15.923057739945278
1292.5, 15.751558529977586
1293, 15.689956950543035
1293.5, 15.633258927336755
1294, 15.617663140722172
1294.5, 15.599261246235955
1295, 15.556166934726676
1295.5, 15.538535064679778
1296, 15.592540931138387
1296.5, 15.667583169081922
1297, 15.838628438312128
1297.5, 15.988080106368457
1298, 16.185616727575535
1298.5, 16.316245760400676
1299, 16.46693913068252
1299.5, 16.513038282837044
1300, 16.5474216450245
1300.5, 16.54226763424677
1301, 16.534001394531003
1301.5, 16.51732531387107
1302, 16.503392641805505
1302.5, 16.49443757372002
1303, 16.470548966154638
1303.5, 16.380511753792064
1304, 16.29910954882392
1304.5, 16.171871040937134
1305, 16.135531123717556
1305.4999999999998, 16.15462468889683
1306, 16.220793237329545
1306.5, 16.325951083020698
1307, 16.47838871734477
1307.5, 16.662332729531116
1308, 16.88726884852818
1308.5, 17.10535949370734
1309, 17.098552248249035
1309.5, 17.065785020408526
1310, 16.880993716289026
1310.5, 16.73961774408751
1311, 16.585804689539657
1311.5, 16.429018697635584
1312, 16.158259648561327
1312.5, 15.909202747610834
1313, 15.57960768972093
1313.5, 15.282850724941298
1314, 14.90810487827197
1314.4999999999998, 14.624877583021458
1315, 14.318627805294128
1315.5, 14.012506838430227
1316, 13.710558674711635
1316.5, 13.47031249213451
1317, 13.294033779591771
1317.5, 13.214456555993081
1317.9999999999998, 13.159430016590932
1318.5, 13.114429991344977
1319, 13.139781598165683
1319.5, 13.265177521407125
1320, 13.478513944443876
1320.5, 13.819800607112683
1321, 14.126185630927012
1321.4999999999998, 14.5031930893729
1322, 14.713816746286085
1322.5, 14.926674497524687
1323, 15.111461865236592
1323.5, 15.278817025118542
1324, 15.334299670463935
1324.5, 15.350348045515005
1325, 15.240805517072246
1325.5, 15.159658031842653
1326, 15.067292549103499
1326.5, 15.013505560361324
1326.9999999999998, 14.96531202720189
1327.5, 14.940277888811707
1328, 14.918934711570387
1328.5, 14.985780219049374
1329, 15.087350077730164
1329.5, 15.213289850809005
1330, 15.348426082530821
1330.4999999999998, 15.374303838937749
1331, 15.383708390808195
1331.5, 15.288115779302373
1332, 15.20403489135579
1332.5, 15.078902380182654
1333, 15.02840692729282
1333.5, 15.06402930541772
1333.9999999999998, 15.112296163481219
1334.5, 15.193284893974521
1335, 15.231938520303814
1335.5, 15.267523968954862
1336, 15.168205148903041
1336.5, 15.025153015621314
1337, 14.850139251036424
1337.5, 14.670420249317601
1338, 14.61867647973709
1338.5, 14.583270864691883
1339, 14.592254651594374
1339.5, 14.612447806722557
1340, 14.684198742488377
1340.5, 14.699912571839349
1341, 14.64596558267607
1341.5, 14.594392144659665
1342, 14.522875783527255
1342.5, 14.52300458192056
1342.9999999999998, 14.549003463747681
1343.5, 14.60333189625841
1344, 14.669915664673084
1344.5, 14.770114556707313
1345, 14.869767653891287
1345.5, 14.91290242087834
1346, 14.94846636090675
1346.4999999999998, 14.99238827920395
1347, 15.015161888008748
1347.5, 15.005738572544885
1348, 14.931346193996305
1348.5, 14.723635628826159
1349, 14.56078361242831
1349.5, 14.365505824299646
1350, 14.306105298446397
1350.5, 14.270668056042112
1351, 14.353355010358882
1351.5, 14.460074904099656
1352, 14.5485998113285
1352.5, 14.624169291910292
1353, 14.573140524133635
1353.5, 14.50380771625646
1354, 14.290805378368688
1354.5, 14.130306142214692
1355, 13.9489568950152
1355.4999999999998, 13.810080066096177
1356, 13.62902817995193
1356.5, 13.510838106532617
1357, 13.387717780856562
1357.5, 13.429262999242383
1358, 13.523150859480324
1358.5, 13.723897455201296
1358.9999999999998, 13.951154477690764
1359.5, 14.119178411656733
1360, 14.277679867048548
1360.5, 14.399180641416237
1361, 14.484552854173472
1361.5, 14.528876215227996
1362, 14.529062863132793
1362.5, 14.447615323373242
1363, 14.426373006065063
1363.5, 14.452626388452884
1364, 14.586291164645289
1364.5, 14.816378788845597
1365, 15.005790831674801
1365.5, 15.227947828277735
1366, 15.235950090377344
1366.5, 15.226682374456672
1367, 15.152094709197286
1367.5, 15.078595926335225
1367.9999999999998, 14.939604020237084
1368.5, 14.831334355732466
1369, 14.723421166817872
1369.5, 14.615634993545271
1370, 14.426274798811193
1370.5, 14.26589946448182
1371, 14.059885196796884
1371.4999999999998, 13.962084260324843
1372, 13.873527199513418
1372.5, 13.818215615775173
1373, 13.759045819945001
1373.5, 13.727641353488352
1374, 13.693776632028147
1374.5, 13.626666734092012
1375, 13.571888641668068
1375.5, 13.537332371282758
1376, 13.543843754343612
1376.5, 13.670243089037626
1377, 13.8024807358819
1377.5, 14.037757247405665
1378, 14.188954075109336
1378.5, 14.33977250003693
1379, 14.382059302311816
1379.5, 14.399883013622471
1380, 14.46014062139335
1380.4999999999998, 14.534794975654933
1381, 14.63686643532806
1381.5, 14.73047790386967
1382, 14.68901172739369
1382.5, 14.6485443281654
1383, 14.586720036311064
1383.5, 14.537134332564676
1383.9999999999998, 14.474149332862211
1384.5, 14.48432500233281
1385, 14.592077262612051
1385.5, 14.732408841989496
1386, 14.946219481912976
1386.5, 15.025172203265754
1387, 15.08650526138311
1387.4999999999998, 15.058533380391822
1388, 15.018166635543878
1388.5, 14.867480094137392
1389, 14.731690714758642
1389.5, 14.731055962398713
1390, 14.756844625502282
1390.5, 14.908250083914055
1391, 15.049469329620493
1391.5, 15.285073597617142
1392, 15.429273206965817
1392.5, 15.565759147751166
1392.9999999999998, 15.577787626228528
1393.5, 15.523070303506643
1394, 15.542270518933265
1394.5, 15.584922795964843
1395, 15.62958862581823
1395.5, 15.678163737885072
1396, 15.598956229532746
1396.4999999999998, 15.511818010228836
1397, 15.33007476157485
1397.5, 15.190448364727843
1398, 15.065333797525966
1398.5, 14.976051902688326
1399, 14.884168983204788
1399.5, 14.921508640812874
1399.9999999999998, 15.094079023054988
