305, 58.648684294858654
306, 58.624771587662124
307, 58.62590347586022
308, 58.65031694962584
309, 58.69219983259567
310, 58.745739948406424
311, 58.80512512069482
312, 58.86454317309753
313, 58.91818192925128
314, 59.000195221535634
315, 59.05165183792191
316, 59.10638546163535
317, 59.14064140160452
318, 59.179719346720425
319, 59.223814372952546
320, 59.2712229940788
321, 59.320241723877025
322, 59.36916707612515
323, 59.41629556460105
324, 59.462796329301675
325, 59.50841425973408
326, 59.552292564283476
327, 59.59714984330988
328, 59.6457046971733
329, 59.700675726233776
330, 59.7647815308513
331, 59.809834597549546
332, 59.856267648327616
333, 59.90582842682201
334, 59.958008449516754
335, 60.01229923289585
336, 60.06819229344328
337, 60.1251791476431
338, 60.1827513119793
339, 60.2404003029359
340, 60.297617636996904
341, 60.353894830646325
342, 60.42741855569794
343, 60.50642789686962
344, 60.58309303510953
345, 60.65816237990666
346, 60.732384340750045
347, 60.80650732712867
348, 60.88127974853151
349, 60.9542691214153
350, 61.01614069199746
351, 61.077702440480905
352, 61.13764059200361
353, 61.19464137170353
354, 61.24739100471863
355, 61.29457571618686
356, 61.334881731246156
357, 61.366995275034476
358, 61.38960257268979
359, 61.37885426707795
360, 61.42238225305008
361, 61.47081380284162
362, 61.532436429504386
363, 61.60439527084268
364, 61.683835464660795
365, 61.76790214876301
366, 61.853740460953595
367, 61.95970046207403
368, 62.085785354185944
369, 62.19595422761301
370, 62.28393241037511
371, 62.343445230492144
372, 62.3484616018816
373, 62.382732675208544
374, 62.440576681902904
375, 62.49932602189929
376, 62.53692083767149
377, 62.57163833182519
378, 62.655739430966925
379, 62.76476049056258
380, 62.8781090466519
381, 62.97519263527461
382, 63.05238786397428
383, 63.02369921650951
384, 63.11572610395834
385, 63.21277046724617
386, 63.29535927228677
387, 63.38621427381011
388, 63.48459185376624
389, 63.5884329023373
390, 63.68860995760247
391, 63.773631768815505
392, 63.84828303835547
393, 63.91157115064886
394, 63.941210374572364
395, 64.00923698022034
396, 64.14139945942645
397, 64.30330003136399
398, 64.46641109556255
399, 64.60220505155182
400, 64.6831497578065
401, 64.60344845724512
402, 64.71966292199157
403, 64.82618766275073
404, 64.92154458757588
405, 65.02676718778976
406, 65.1361254667329
407, 65.24388942774581
408, 65.34432907416898
409, 65.4317144093429
410, 65.53338539791305
411, 65.62022645445944
412, 65.70934598007338
413, 65.82195226490734
414, 65.91646162145709
415, 66.02798181474122
416, 66.15218251682998
417, 66.28473339979357
418, 66.42130413570233
419, 66.55756439662642
420, 66.6927877467298
421, 66.85530476251029
422, 67.00249610158292
423, 67.13433553707009
424, 67.25079684209418
425, 67.35185378977758
426, 67.50537067543638
427, 67.67087719957725
428, 67.79266352778167
429, 67.93692387646655
430, 68.17402664210893
431, 68.34489528964713
432, 68.49241721472684
433, 68.65145411507265
434, 68.81628570871803
435, 68.98119171369645
436, 69.14045184804138
437, 69.28834582978637
438, 69.52075350865942
439, 69.77779335325208
440, 69.73951267524737
441, 69.9070930065787
442, 70.11208687913567
443, 70.3578016306939
444, 70.60660379695815
445, 70.82085991363331
446, 71.02520474232821
447, 71.14793571096226
448, 71.30513671218446
449, 71.465210756038
450, 71.66224091833783
451, 71.87073816187892
452, 72.06521344945634
453, 72.24792344281997
454, 72.40538801286823
455, 72.5546840516146
456, 72.73928181695884
457, 72.92749977984117
458, 73.12811523144488
459, 73.312179482642
460, 73.45074384430454
461, 73.51568805743743
462, 73.71266184784709
463, 74.01398068540509
464, 74.18530388238598
465, 74.3650600305219
466, 74.58668797581069
467, 74.77672407546955
468, 74.98475027164078
469, 75.19135676890163
470, 75.37713377182934
471, 75.60925182824734
472, 75.70315602748892
473, 75.62219238377759
474, 75.83445023945056
475, 75.97926559767865
476, 76.14956023116703
477, 76.33573606408065
478, 76.52819502058443
479, 76.71733902484328
480, 76.89357000102216
481, 77.10453805833285
482, 77.35612695863047
483, 77.46824734225618
484, 77.49530628988971
485, 77.55831280488457
486, 77.6621445064904
487, 77.76723971692127
488, 77.89000020102468
489, 78.03720951078525
490, 78.2036905942779
491, 78.38553808572803
492, 78.51561266702986
493, 78.63952032943303
494, 78.76652172573978
495, 78.91482835212157
496, 79.10911350572108
497, 79.26790704630834
498, 79.33335852950577
499, 79.35560564194311
500, 79.4666878070755
501, 79.57268989849237
502, 79.57758428255684
503, 79.6615298156382
504, 79.79905338670915
505, 79.91794718718569
506, 79.95331903798125
507, 80.03138981756166
508, 80.11155852460494
509, 80.06947468945853
510, 80.06565780726297
511, 79.98864124886825
512, 79.9496239703706
513, 79.94774853124999
514, 79.767721222073
515, 79.57277750350177
516, 79.57289436003975
517, 79.46557026345555
518, 79.34140382574682
519, 79.24027136015013
520, 79.13072102440687
521, 78.98516939375926
522, 78.81283822223645
523, 78.64422502817698
524, 78.4829023579986
525, 78.43322289672747
526, 78.20948384521458
527, 77.84621992227662
528, 77.66722580811518
529, 77.47139463751883
530, 77.26733938406402
531, 77.06367302132723
532, 76.86900852288494
533, 76.69195886231365
534, 76.54113701318983
535, 76.29690858809454
536, 76.16462252049124
537, 76.03552639880365
538, 75.88001114784066
539, 75.70340724552192
540, 75.54764052632042
541, 75.42859146559998
542, 75.33373034614264
543, 75.13069776729327
544, 74.88018790514025
545, 74.64997307993849
546, 74.45671280931111
547, 74.27992498198317
548, 74.15966812742222
549, 74.04885833532083
550, 73.93389717431033
551, 73.8142430118924
552, 73.69223625965535
553, 73.58516411991047
554, 73.47973662183436
555, 73.38089038627685
556, 73.2935620340877
557, 73.22268818611678
558, 73.12884499329803
559, 73.11962359599764
560, 73.1049939467348
561, 73.09999607571042
562, 73.16004895657902
563, 73.13938910737168
564, 73.13559458622109
565, 73.16900550337152
566, 73.29786586319791
567, 73.34245308345659
568, 73.26640867745506
569, 73.22505957426432
570, 73.21012772706077
571, 73.2277308238811
572, 73.31751309483184
573, 73.30022814233075
574, 73.24776631971883
575, 73.14319455841435
576, 73.20817619164988
577, 73.22700840168362
578, 73.25416201542374
579, 73.28581469718773
580, 73.41144307065798
581, 73.39594682406562
582, 73.30251050358686
583, 73.23217919990472
584, 73.15090485622609
585, 73.19698555757304
586, 73.13578741933645
587, 73.04228885918974
588, 72.93258730404489
589, 72.8307277661737
590, 72.72118935379244
591, 72.80321099973003
592, 72.61392839352872
593, 72.39623340943363
594, 72.15850564338969
595, 71.94305672658133
596, 71.75008263816284
597, 71.5923865921951
598, 71.41471946535795
599, 71.25714283408604
600, 71.08799158264328
601, 70.92868808918915
602, 70.80065473188304
603, 70.70037613256207
604, 70.5688300875864
605, 70.5839243935501
606, 70.31000779677845
607, 70.11465305075379
608, 69.88525658135033
609, 69.63412013393253
610, 69.37354545386488
611, 69.11583428651178
612, 68.87328837723776
613, 68.56080482098827
614, 68.16396876397347
615, 67.85789142254838
616, 67.62533822314674
617, 67.46774312958063
618, 67.30489828129535
619, 67.14537549874798
620, 66.99774660239561
621, 66.87058341269534
622, 66.77245775010422
623, 66.77162265971509
624, 66.76419448135675
625, 66.69786165761947
626, 66.61019558169305
627, 66.5023519268314
628, 66.37548636628847
629, 66.23075457331825
630, 66.06931222117466
631, 65.90456884872984
632, 65.74169126823281
633, 65.57666732967596
634, 65.41561526106537
635, 65.26465329040717
636, 65.12989964570747
637, 65.01747255497234
638, 64.91548706624874
639, 64.9813152363036
640, 64.96003810536077
641, 64.9712437924608
642, 64.8826270209017
643, 64.8743273388229
644, 64.8018186586568
645, 64.65637378250247
646, 64.47869105318782
647, 64.3005512282887
648, 64.15373506538084
649, 64.03927157913192
650, 63.95018702886598
651, 63.82847704233073
652, 63.824764278785025
653, 63.724230997550784
654, 63.58598818553598
655, 63.45817191869527
656, 63.532557002648545
657, 63.47599898418753
658, 63.261779115492104
659, 63.112176416966534
660, 63.142779289808864
661, 63.11647392396405
662, 63.091367010214476
663, 63.19459071596019
664, 63.26152246772899
665, 63.171109868095215
666, 63.082873355103835
667, 62.95727002136646
668, 62.80469385304555
669, 62.65436304956798
670, 62.5384280525133
671, 62.57202392150795
672, 62.48539679995328
673, 62.16062215621974
674, 61.94627770525049
675, 61.87497956135971
676, 61.69463850413303
677, 61.539069872169655
678, 61.82609461927643
679, 62.11019824654532
680, 62.39976254801599
681, 62.622514187491554
682, 62.64430920330751
683, 62.67116051886896
684, 62.69428129621459
685, 62.52143487353696
686, 62.37638494848439
687, 62.43839424944807
688, 62.37362630667112
689, 62.264766751245375
690, 62.22815045137519
691, 62.220789601184435
692, 62.189899437331306
693, 62.17241485160361
694, 62.257447668375974
695, 62.20559475432191
696, 62.20275593106081
697, 62.208012573635365
698, 62.29768878030505
699, 62.3575586243523
700, 62.41958183077041
701, 62.595102936815245
702, 62.64331799824454
703, 62.50969537853151
704, 62.37925261698329
705, 62.40528794403998
706, 62.39057533261527
707, 62.30313364372155
708, 62.227537433349404
709, 62.17521736862032
710, 62.231646016018544
711, 62.26386947493247
712, 62.256748714666195
713, 62.16337332456059
714, 62.11348240970972
715, 62.05867776425296
716, 62.0137998868416
717, 61.953259554885165
718, 61.876095931320215
719, 61.88094842459911
720, 61.84005423912744
721, 61.98933172930536
722, 62.30773169249018
723, 62.76143788835798
724, 63.15032869273525
725, 63.07072316722581
726, 62.66570996325764
727, 62.30585549202644
728, 62.20285234152045
729, 62.13302002269536
730, 62.08873407614935
731, 62.062370042480566
732, 62.03061862107338
733, 62.016875838276796
734, 62.058401241517515
735, 62.13064969785728
736, 62.25684251370839
737, 62.3716873763382
738, 62.387882835402586
739, 62.38177505742313
740, 62.443377493506745
741, 62.37554549618946
742, 62.35959417080848
743, 62.427975192666956
744, 62.500501032741596
745, 62.58781526029131
746, 62.567799450227035
747, 62.527639555191705
748, 62.53376664364705
749, 62.54597910919634
750, 62.59235189251093
751, 62.45328300580982
752, 62.20931618385331
753, 62.003145207304165
754, 61.82079546773818
755, 61.67371334383086
756, 61.70201231759767
757, 61.790795144971206
758, 61.890830158537
759, 61.981188720432776
760, 62.0681040690763
761, 62.14391512580517
762, 62.29660799424002
763, 62.34677188634133
764, 62.443745179626
765, 62.546444742801874
766, 62.59353225550921
767, 62.61942668915798
768, 62.65263315366089
769, 62.65220430809739
770, 62.692146513037684
771, 62.81874270696744
772, 62.954099894570206
773, 63.015866763416014
774, 62.866594796980166
775, 62.929175157711335
776, 63.04169199560865
777, 63.07028734712582
778, 63.03086876829144
779, 62.97094792623812
780, 63.050168641117914
781, 62.900642163256755
782, 62.71184836850785
783, 62.56439906856041
784, 62.630957275592834
785, 62.651835610385604
786, 62.735083289631426
787, 62.88799511609701
788, 63.013133724326245
789, 63.05927046673295
790, 63.106970172593144
791, 63.12390021571261
792, 63.10345416502636
793, 63.21337267981851
793.9999999999999, 63.08513641222388
795, 62.86676918357588
796, 62.75633015018658
797, 62.705044860547076
798, 62.68297659179982
799, 62.64756611065137
800, 62.55401138850131
801, 62.52990880716894
801.9999999999999, 62.54955641693385
803, 62.60191244186514
804, 62.70054726389224
805, 62.86774387064767
806, 63.10392105170066
807, 63.011562042659925
808, 62.791505082363045
809, 62.677932613763915
810, 62.66374740283943
811, 62.618070398379444
812, 62.54572763990714
813, 62.32991683264919
814, 62.069932576178815
815, 61.825622593973875
816, 61.62524385969356
817, 61.78440957526142
818, 61.730515171685106
818.9999999999999, 61.669454116609984
820, 61.61507800921272
821, 61.61640599220992
822, 61.6094127770404
823, 61.44521608574701
824, 61.31626090552736
825, 61.24640054934082
826, 61.267123394197284
826.9999999999999, 61.23990563258612
828, 60.905547633218575
829, 60.86747387424531
830, 60.715638169257566
831, 60.51531987867728
832, 60.31773235685077
833, 60.09783410083776
834, 60.2023310383528
834.9999999999999, 60.041968887300584
836, 59.736740320999594
837, 59.54619941469876
838, 59.5915967196878
839, 59.57353218000468
840, 59.58409352290536
841, 59.63212048853308
842, 59.2726199428964
843, 58.883213413419284
843.9999999999999, 58.850107086118406
845, 58.874554994455394
846, 58.84113190281219
847, 58.706229714473466
848, 58.71887219169617
849, 58.58886400286292
850, 58.386706165542094
851, 58.17517435626791
851.9999999999999, 58.007405095132654
853, 58.306984750776124
854, 58.58145852799913
855, 58.412580171550964
856, 58.20863075612393
857, 58.17930684161937
858, 58.212110389925336
859, 58.19803888971005
859.9999999999999, 58.23199528149616
861, 58.36109153700701
862, 58.423117637011515
863, 58.44050383607829
864, 58.52095509803114
865, 58.60614575693808
866, 58.64836080327117
867, 58.62464049826659
867.9999999999999, 58.763077966482236
869, 58.89205603093535
870, 58.84341350086953
871, 58.7767502007654
872, 58.792476342509914
873, 59.02588588608743
874, 59.24714751696393
875, 59.27262957994263
899, 60.89874772473692
900, 61.15969051093334
900.9999999999999, 61.269639028730474
902, 61.31177228619182
903, 61.53287237408636
904, 61.87889948523286
905, 62.33064859721637
906, 62.763927843315386
907, 63.02491287171305
908, 63.026468444747664
909, 63.128814336360364
909.9999999999999, 63.26513168856819
911, 63.46964698484476
912, 63.791682092389735
913, 64.12589987191754
914, 64.48242383766686
915, 64.82954173381097
916, 65.11586804294063
917, 65.2935311625319
917.9999999999999, 65.27505109738065
919, 65.44643272351266
920, 65.86899970788784
921, 66.37501588251313
922, 66.82888862801178
923, 67.15342639167912
924, 67.04134362080366
925, 67.17022874738257
925.9999999999999, 67.13782266891518
927, 67.43829720321851
928, 67.78841330211968
929, 68.09269302289306
930, 68.53774511346384
931, 69.05953178058999
932, 69.35863964814243
933, 69.50634263629915
933.9999999999999, 69.84881611589479
935, 70.27888778574413
936, 70.71484886162614
937, 71.0749905593197
938, 71.28732870450281
939, 71.43310908237787
940, 71.89185364432177
941, 71.9458281695315
942, 71.93337643522132
942.9999999999999, 72.42659350807254
944, 72.84229567618797
945, 72.8946026100615
946, 72.89840448264974
947, 72.93786328433484
948, 73.01026472861636
949, 73.34963972938336
950, 73.7154204097649
950.9999999999999, 73.6278173360098
952, 73.90693443123047
953, 74.05505185276351
954, 74.54596305652686
955, 75.2587836782701
956, 75.6754536883147
957, 75.91670197340935
958, 76.04881726951382
958.9999999999999, 76.18494638933524
960, 76.56285117956739
961, 76.66430527399243
962, 76.58738675609295
963, 76.74023163974638
964, 77.1449126204476
965, 77.56000066217547
966, 77.78118554572555
966.9999999999999, 77.9537566584588
968, 78.36266915819415
969, 78.50018072626158
970, 78.5854985912096
971, 78.67010854563809
972, 79.09368409081533
973, 79.4820129632837
974, 79.56304487929515
975, 80.16041932497804
975.9999999999999, 80.1915096361927
977, 80.30368853649712
978, 80.41828611803261
979, 80.62794345776457
980, 80.9603722711538
981, 81.25406820532635
982, 81.38467103151172
983, 81.36986868361187
983.9999999999999, 81.6271687328107
985, 81.97483586923842
986, 82.3835367426555
987, 82.94215479110798
988, 83.30525997027146
989, 83.24385247977231
990, 83.22556386635563
991, 83.25106168611944
991.9999999999999, 83.44812626049796
993, 83.73206932830743
994, 83.86916915307937
995, 83.90738774648948
996, 84.05788095210984
997, 84.15522406998947
998, 84.29575024948981
999, 84.49514097126456
999.9999999999999, 84.7003086665879
1001, 84.87278106496927
1002, 85.00100602805757
1003, 85.05077136775157
1004, 84.82774175033016
1005, 84.83652151592239
1006, 84.74713760308893
1007, 84.84058526841031
1008, 85.04902743727985
1008.9999999999999, 85.30516550158667
1010, 85.56456828347947
1011, 85.78280460510696
1012, 85.95057815236527
1013, 85.91446748043535
1014, 86.00184019096632
1015, 86.269094955731
1016, 86.49850811536902
1016.9999999999999, 86.40659791697689
1018, 86.45619162107596
1019, 86.66650193377876
1020, 86.89445803427759
1021, 86.91903212772704
1022, 86.86215377707921
1023, 86.76124974239897
1024, 86.76917724279461
1025, 86.80996344291984
1026, 86.79368649818099
1027, 86.87253594918961
1028, 87.08590492628454
1029, 87.02248496324314
1030, 87.06617151807531
1031, 87.07221646270136
1032, 87.01936410022891
1033, 87.21464570376713
1034, 87.40832704410195
1035, 87.22559802995472
1036, 86.97688908577837
1037, 86.81615847180723
1038, 86.91508349206168
1039, 87.18384159501235
1040, 87.24594496983671
1041, 87.17658695195674
1042, 87.23896967903184
1043, 87.24701871107224
1044, 87.04518476832556
1045, 87.21725570592723
1046, 87.19094322097806
1047, 87.08834683790847
1048, 86.87537981914727
1049, 86.65371614049944
1050, 86.65087805814497
1051, 86.85774004203846
1052, 87.02190134392659
1053, 87.0649308504428
1054, 87.03407238084122
1055, 86.87795859621285
1056, 86.65162720125323
1057, 86.84256306870043
1058, 86.63269710505229
1059, 86.55699008275306
1060, 86.59168062585796
1061, 86.66389140567522
1062, 86.90199084519826
1063, 86.54315998818136
1064, 86.0392848029262
1065, 85.71729032811575
1066, 85.87473307966965
1067, 85.70579080370625
1068, 85.56619681621764
1069, 85.57396184456904
1070, 85.56345353166313
1071, 85.64334848729803
1072, 85.85794586670215
1073, 85.74484270622223
1074, 85.60295801443625
1075, 85.60080294425708
1076, 85.56123497677186
1077, 85.39615695900953
1078, 85.23212235559096
1079, 85.10382214376078
1080, 85.14512612760274
1081, 85.2665900909528
1082, 85.35744153970026
1083, 85.46536694909268
1084, 85.5025654656227
1085, 85.43362424806455
1086, 85.18371499863012
1087, 84.95785580740964
1088, 84.8835989818698
1089, 84.84951440217381
1090, 84.87991642992208
1091, 84.9703650681078
1092, 85.20429750246076
1093, 84.653365590648
1094, 84.04518658415576
1095, 84.09019315364502
1096, 84.10225080810628
1097, 84.08583998403653
1098, 84.16158292577157
1099, 84.09168321132371
1100, 83.94454647472773
1101, 83.89343952403247
1102, 83.78039914278325
1103, 83.79356649602383
1104, 83.82793811475524
1105, 83.62794787326682
1106, 83.34524447624422
1107, 83.2208071280176
1108, 83.22352634544661
1109, 83.1915045568202
1110, 83.3004736791746
1111, 83.54899613847306
1112, 83.61249062320293
1113, 83.57746700900921
1114, 83.45704332934952
1115, 83.33193118987032
1116, 83.28897200416368
1117, 83.29045614577807
1118, 83.2021528548394
1119, 83.04294568105504
1120, 83.03072355137971
1121, 82.9392090049577
1122, 82.51290779867486
1123, 82.21409287584682
1124, 82.24683531983915
1125, 82.0258820365365
1126, 81.58917576515309
1127, 81.0533646379211
1128, 80.86275370266168
1129, 80.61079223979151
1130, 80.19350630330231
1131, 80.04131874756959
1132, 80.00380365731394
1133, 80.13530798920546
1134, 79.7219724321211
1135, 79.25481661834672
1136, 79.00665924261499
1137, 78.6671258254865
1138, 78.44116934762748
1139, 78.56747026413758
1140, 78.62093808992306
1141, 78.70701168116497
1142, 78.13413445998607
1143, 77.77121801752298
1144, 77.98264362632786
1145, 77.91525773861916
1146, 77.88494627190501
1147, 77.33666115962988
1148, 76.84938011665538
1149, 77.00963922293191
1150, 76.58786314791475
1151, 76.3161425960836
1152, 76.13513221380967
1153, 76.36234920384751
1154, 76.5148431515723
1155, 76.42407106526854
1156, 76.42296335307586
1157, 76.00661440405815
1158, 75.62344184951797
1159, 75.56944460283592
1160, 75.59171421859507
1161, 75.62997300670276
1162, 75.5695856955588
1163, 75.49486561030801
1164, 75.1066142076019
1165, 74.30875126580979
1166, 73.65058689425989
1167, 73.79833506629299
1168, 73.88218852927511
1169, 73.74079307318082
1170, 73.50324545872071
1171, 73.41349857650152
1172, 73.29813276384664
1173, 73.00833611916829
1174, 73.05502153757229
1175, 72.5941091236845
1176, 72.04431795976373
1177, 71.87551874815499
1178, 71.91042218893898
1179, 71.99732134019519
1180, 71.90619623775191
1181, 71.733405398816
1182, 71.81739215789992
1183, 71.41601164758688
1184, 70.88307327492296
1185, 70.25813214556194
1186, 69.67121401075855
1187, 69.05856579887899
1188, 68.76497815661025
1189, 68.44357222595848
1190, 68.62689764350287
1191, 68.89675000460619
1192, 68.96309110875521
1193, 69.04364619383409
1194, 68.8947533351095
1195, 69.09153696461159
1196, 69.53289659915322
1197, 69.4285505208793
1198, 68.97514706125901
1199, 68.37299476697831
1200, 67.58343257066052
1201, 66.8903082353825
1202, 66.71904811816448
1203, 66.53004410210468
1204, 66.15148855459555
1205, 65.78050860844252
1206, 65.9893185433622
1207, 66.35389653987873
1208, 66.07830453161394
1209, 65.75128933359655
1210, 65.72664140193761
1211, 65.59146452902912
1212, 65.66004768672323
1213, 65.74650586171842
1214, 65.6055945879574
1215, 65.56273272021997
1216, 65.25379474400611
1217, 65.29590606278883
1218, 64.94988859815578
1219, 64.54451024421748
1220, 64.11096339151706
1221, 63.73070900363761
1222, 63.49820583736689
1223, 63.412786755510346
1224, 63.350680380607926
1225, 63.26919416755564
1226, 63.04302643812615
1227, 62.84305202554548
1228, 62.83847926833293
1229, 62.81458178982091
1230, 62.81356576159169
1231, 62.87671946100927
1232, 62.61458827348055
1233, 61.764255141054164
1234, 61.69131153878838
1235, 61.71910069211738
1236, 61.72123863411855
1237, 60.97980828026383
1238, 60.05862654945313
1239, 59.25619495351164
1240, 58.89147875478307
1241, 58.863047949137915
1242, 58.95042189883974
1243, 59.123462776205805
1244, 59.3520327535534
1245, 59.60599400319977
1246, 59.855208697462224
1247, 60.069539008658005
1248, 60.27914202218695
1249, 60.27793812920744
1250, 60.218498531491164
1251, 59.9199916800206
1252, 59.45771949159705
1253, 58.98547794821444
1254, 58.82993387605352
1255, 58.77912889169188
1256, 58.70703149258355
1257, 59.05350584761209
1258, 59.50185308086661
1259, 59.56660309783613
1260, 59.41951460618845
1261, 59.56259190925325
1262, 59.77533440782018
1263, 59.91896880362315
1264, 59.774620647874585
1265, 59.52297741098396
1266, 59.460491401908726
1267, 59.376990684387636
1268, 59.41523513339464
1269, 59.408486403927995
1270, 59.48977564282748
1271, 59.56373727239078
1272, 59.4867779835442
1273, 59.36487380505688
1274, 59.26497565830805
1275, 59.06478228369582
1276, 58.59355520833245
1277, 58.67109058202376
1278, 58.89052145642773
1279, 58.92818392048449
1280, 58.82963487368344
1281, 58.70847108438811
1282, 58.74067869397981
1283, 58.8007463777197
1284, 58.600919826985475
1285, 58.47695750768989
1286, 58.49485700297292
1287, 58.51721794068844
1288, 58.67592570570953
1289, 59.09576515694671
1290, 59.480384594647994
1291, 59.43704275472312
1292, 59.13388210226057
1293, 58.90164717650161
1294, 58.93079690544056
1295, 58.84844335364394
1296, 58.735166286891705
1297, 58.915469167398584
1298, 58.84879636790341
1299, 58.771274331982475
1300, 58.62447242286208
1301, 58.55833285223845
1302, 58.58947468404775
1303, 58.801686757644234
1304, 59.27179274554614
1305, 59.641835843661944
1306, 59.56678551979751
1307, 59.44310905107588
1308, 59.31953321272611
1309, 59.13030750378187
1310, 59.16922995031805
1311, 59.128525045603965
1312, 58.80619286066435
1313, 58.392428485715655
1314, 57.95259952732454
1315, 57.59691812162611
1316, 57.40557020193008
1317, 57.32083828002133
1317.9999999999998, 57.29833615330497
1319, 57.32129875445101
1320, 57.26703306078429
1321, 57.75370503008768
1322, 57.731532531372544
1323, 57.823160132600876
1324, 58.09669324540664
1325, 58.52438267405271
1326, 58.64937086124023
1326.9999999999998, 58.73917008065364
1328, 58.65491215725446
1329, 58.674052988249066
1330, 58.455833965961226
1331, 57.935274587882205
1332, 57.60029841036165
1333, 58.022705197216254
1333.9999999999998, 58.443517729276564
1335, 58.80343285291207
1336, 58.84568777090223
1337, 58.549945793951714
1338, 58.34893669505177
1339, 58.42527090046449
1340, 58.33566820907316
1341, 58.318738750558616
1342, 58.242250606594475
1342.9999999999998, 57.90643115617786
1344, 57.92803528370244
1345, 58.153080032686006
1346, 58.53023972645397
1347, 58.45134281351816
1348, 58.30004149832122
1349, 58.2675020389
1350, 58.34660935867822
1351, 58.390739911378745
1352, 58.2333419671407
1353, 57.95656831314182
1354, 58.02281922434244
1355, 57.908049395265444
1356, 57.506035691682285
1357, 57.18745207956354
1358, 57.29564648381155
1358.9999999999998, 57.213284940445085
1360, 57.78898744962446
1361, 58.60905795706764
1362, 58.906172259341005
1363, 58.69767539814906
1364, 58.661121593495764
1365, 58.68302438994774
1366, 58.720787337397475
1367, 58.53163824462161
1367.9999999999998, 58.602944827759515
1369, 58.87068081976087
1370, 58.39934732668541
1371, 57.896666835509315
1372, 57.59184415859604
1373, 57.488598010114444
1374, 57.25942504267227
1375, 57.286086965791746
1376, 57.389587146307775
1377, 57.360166182421715
1378, 57.806244683469174
1379, 58.3652793124247
1380, 58.68973230453699
1381, 58.68977395208127
1382, 58.67332158817441
1383, 58.324588442681225
1383.9999999999998, 57.932414297319355
1385, 58.03801854407559
1386, 58.37573999078667
1387, 58.60326931914413
1388, 58.47821992980156
1389, 58.24415811327371
1390, 58.35654282957575
1391, 58.634491685894155
1392, 58.68367959691257
1392.9999999999998, 58.72286339863141
1394, 58.838725554691955
1395, 58.77998688268879
1396, 58.70935759860649
1397, 58.255288551685815
1398, 58.01131216400332
1399, 58.05596648093438
1399.9999999999998, 58.166205112849106
885.7493991542814, 59.93453297093145
890.177802151708, 60.14773062186856
896.8204066478479, 60.43199415645138
881.3209961568549, 59.65026943634862
880.2138954074983, 59.43707178541151
889.0707014023513, 59.86346708728574
894.6062051491346, 60.50306004009709
