298.5, 3.964961281660891
299, 3.968587996003791
299.5, 3.9776270365468633
300, 3.99485236388162
300.5, 4.021226458261751
301, 4.049612700530119
301.5, 4.083272887300424
302, 4.099247482856967
302.5, 4.115806909945945
303, 4.141172109849464
303.5, 4.165348772438719
304, 4.209198695447199
304.5, 4.240918399562233
305, 4.2679731207364995
305.5, 4.285838905885328
306, 4.303885249140777
306.5, 4.322790062504964
307, 4.34959425605112
307.5, 4.386889773525041
308, 4.4392533249953345
308.5, 4.484061305857097
309, 4.533948263408419
309.5, 4.565635586325143
310, 4.5969103048990405
310.5, 4.6226262934044655
311, 4.644277459954026
311.5, 4.670856605829201
312, 4.696612052860672
312.5, 4.741917447838503
313, 4.786139830190734
313.5, 4.858518461539276
314, 4.90791671259511
314.5, 4.960904188185921
315, 4.987366833576715
315.5, 5.013421100466601
316, 5.042875050401477
316.5, 5.075622694758664
317, 5.107239478987694
317.5, 5.138694760940794
318, 5.17324025985026
318.5, 5.203421725998496
319, 5.247954488493804
319.5, 5.285690599238379
320, 5.340099704571529
320.5, 5.374872383622076
321, 5.411093903285206
321.5, 5.435768467775176
322, 5.462088540417213
322.5, 5.495425192510353
323, 5.538245161711657
323.5, 5.583456160415864
324, 5.631817766361706
324.5, 5.663858902035443
325, 5.695048109574685
325.5, 5.729858378777109
326, 5.758352420499648
326.5, 5.7941360989811415
327, 5.819414457701001
327.5, 5.846361233716564
328, 5.875876773087342
328.5, 5.920875512520979
329, 5.956244142040418
329.5, 6.000520727084435
330, 6.0493459757167045
330.5, 6.1087109021725325
331, 6.155284133973737
331.5, 6.202760959801736
332, 6.2198956935769445
332.5, 6.234244981236515
333, 6.25174518087438
333.5, 6.269820223185377
334, 6.305856609223696
334.5, 6.341946363706839
335, 6.4050903768289515
335.5, 6.4600294575411965
336, 6.531589662044993
336.5, 6.573025284187082
337, 6.617078096679023
337.5, 6.641692495638111
338, 6.666831852235234
338.5, 6.719558918847966
339, 6.775549308075242
339.5, 6.834909155788395
340, 6.8848575323645775
340.5, 6.93756741246581
341, 6.97633301614367
341.5, 7.012444024674778
342, 7.037069246156548
342.5, 7.064073942436082
343, 7.098878246448606
343.5, 7.152481791904734
344, 7.190100174435244
344.5, 7.233733279196159
345, 7.271207971938537
345.5, 7.31262904871646
346, 7.343963775094437
346.5, 7.376319847290688
347, 7.419161821510443
347.5, 7.457993821814398
348, 7.5199634163036535
348.5, 7.565138710296679
349, 7.610481571372858
349.5, 7.651589956464534
350, 7.714859111539198
350.5, 7.765971666350666
351, 7.827891943481916
351.5, 7.8614960142461
352, 7.896143676257722
352.5, 7.926490726665008
353, 7.959149770647954
353.5, 7.990885199345769
354, 8.02225055968671
354.5, 8.056816651060146
355, 8.084000157155359
355.5, 8.11076629041085
356, 8.134460626040706
356.5, 8.17078649290994
357, 8.20189223535455
357.5, 8.247059852623835
358, 8.283788943795642
358.5, 8.327729279283332
359, 8.375755023302446
359.5, 8.435604281113825
360, 8.481657509539772
360.5, 8.530413973000648
361, 8.563878513422267
361.5, 8.593403670267406
362, 8.62809047668567
362.5, 8.65869030841877
363, 8.703527757732644
363.5, 8.741066366239892
364, 8.79524321302597
364.5, 8.834998140996817
365, 8.879756803758497
365.5, 8.919971763113168
366, 8.972985882835246
366.5, 9.029385449162419
367, 9.097043179361904
367.5, 9.150933719952562
368, 9.207569495669844
368.5, 9.266509289399238
369, 9.318945400738528
369.5, 9.388836747945291
370, 9.442419412855017
370.5, 9.496432208681512
371, 9.53535191408865
371.5, 9.580543140798838
372, 9.616980693943901
372.5, 9.661617023001938
373, 9.69716802416346
373.5, 9.74103770572927
374, 9.784582962327718
374.5, 9.834738208097335
375, 9.873494293725685
375.5, 9.914474672044221
376, 9.973816377889477
376.5, 10.022610015850532
377, 10.066554371671927
377.5, 10.09390613584253
378, 10.103039171816576
378.5, 10.122161296409601
379, 10.167231463495881
379.5, 10.212387732460229
380, 10.274730197022791
380.5, 10.319516298058915
381, 10.371744491736166
381.5, 10.423498713084925
382, 10.481226688651034
382.5, 10.536494711651201
383, 10.589853666118657
383.5, 10.624402261234692
384, 10.652989034755507
384.5, 10.688555125456176
385, 10.723818192017319
385.5, 10.787233293579163
386, 10.832418180094948
386.5, 10.886720871294685
387, 10.926113070266538
387.5, 10.970185594903441
388, 11.023277637286782
388.5, 11.092150624509173
389, 11.159849024174974
389.5, 11.233056038473762
390, 11.296752163231588
390.5, 11.35935301279497
391, 11.428662162559036
391.5, 11.484335970893937
392, 11.546806984961322
392.5, 11.593718832824564
393, 11.648228733897511
393.5, 11.689622968212916
394, 11.743773592157154
394.5, 11.797526811196846
395, 11.867897163564365
395.5, 11.920295675109273
396, 11.980053368019938
396.5, 12.03280473241513
397, 12.090386963211358
397.5, 12.165228010099938
398, 12.230420841321191
398.5, 12.291166799968153
399, 12.339968799571281
399.5, 12.393836619287356
400, 12.43830790295948
400.5, 12.501425322464357
401, 12.556285204608074
401.5, 12.627996636233718
402, 12.679621020846895
402.5, 12.74142465246402
403, 12.793151698847055
403.5, 12.852193956416471
404, 12.913207952533114
404.5, 12.977293522749576
405, 13.036420926198588
405.5, 13.086633574336233
406, 13.139237922258388
406.5, 13.186105426609714
407, 13.258190310965134
407.5, 13.310948929194566
408, 13.374323415048735
408.5, 13.417028805486794
409, 13.461470274640874
409.5, 13.512650596492264
410, 13.582643287599922
410.5, 13.635869329504416
411, 13.694235416557405
411.5, 13.748270209003493
412, 13.805666658098474
412.5, 13.890710814811271
413, 13.962417619301576
413.5, 14.041911256903802
414, 14.110297312032529
414.5, 14.209790363699241
415, 14.286051273207917
415.5, 14.38556471934686
416, 14.46150338305705
416.5, 14.550133008792926
417, 14.627215825506568
417.5, 14.722737663923382
418, 14.778940723793326
418.5, 14.836593076520217
419, 14.89962592665833
419.5, 14.96195402239654
420, 15.02220214006374
420.5, 15.068326689804152
421, 15.103988172591514
421.5, 15.144178435574275
422, 15.225790212945512
422.5, 15.291450012161036
423, 15.381908159636396
423.5, 15.445869063785125
424, 15.516238875571503
424.5, 15.585521128011138
425, 15.671458601084282
425.5, 15.747767415144352
426, 15.828794849593976
426.5, 15.916418796530493
427, 16.00481237971057
427.5, 16.12623218852319
428, 16.22485981209398
428.5, 16.34107748690279
429, 16.432000788717204
429.5, 16.549163125768686
430, 16.643688061410472
430.5, 16.760422088858476
431, 16.847109491470107
431.5, 16.953593949376838
432, 17.035590048366714
432.5, 17.129242817857886
433, 17.205759225632903
433.5, 17.286870374401843
434, 17.362243576821513
434.5, 17.427761017393905
435, 17.497388275269827
435.5, 17.555037618977295
436, 17.627001027002365
436.5, 17.69363195828892
437, 17.80194381149684
437.5, 17.889192161399265
438, 17.99654303842952
438.5, 18.07148866289012
439, 18.15961673688993
439.5, 18.246069048773705
440, 18.34701259946054
440.5, 18.41704669781882
441, 18.490321233077196
441.5, 18.583279844270834
442, 18.664984728852843
442.5, 18.7702240867538
443, 18.848089737881352
443.5, 18.920383284488096
444, 18.990682126807783
444.5, 19.108090787693612
445, 19.206936905490366
445.5, 19.331684247166024
446, 19.399955932355468
446.5, 19.46997037630848
447, 19.56881528194161
447.5, 19.684947698734433
448, 19.78733403173267
448.5, 19.88607829754494
449, 19.92951207873169
449.5, 19.971274126713382
450, 20.059808523611977
450.5, 20.137321403250112
451, 20.25487729876656
451.5, 20.325636826524928
452, 20.388870646016542
452.5, 20.458171357980262
453, 20.55594146501005
453.5, 20.662752904145975
454, 20.80126241949614
454.5, 20.895266673575208
455, 20.993655566653516
455.5, 21.10432986963322
456, 21.213589688166692
456.5, 21.32572303235048
457, 21.413213819180584
457.5, 21.493343781313257
458, 21.55950021587246
458.5, 21.650244069926202
459, 21.719419048755782
459.5, 21.809809788892778
460, 21.88313997900603
460.5, 21.971174785352048
461, 22.043682228406894
461.5, 22.1294537245807
462, 22.206031958523923
462.5, 22.286810382680173
463, 22.383493923727542
463.5, 22.47410142635286
464, 22.55256641653729
464.5, 22.616425384955264
465, 22.696993714621655
465.5, 22.759950116163893
466, 22.84122218836191
466.5, 22.899039443480376
467, 22.961722397932235
467.5, 23.020712662424117
468, 23.10036771959264
468.5, 23.172508808567684
469, 23.257373251397865
469.5, 23.319117994279978
470, 23.384362784125543
470.5, 23.459777795275514
471, 23.525249397482
471.5, 23.594898112733517
472, 23.64321967388294
472.5, 23.67023673716264
473, 23.69399166788172
473.5, 23.730112078368464
474, 23.759223686287754
474.5, 23.79497228558978
475, 23.823415466458854
475.5, 23.858563440924954
476, 23.9072261075774
476.5, 23.965800310474364
477, 24.034807155103138
477.5, 24.105958694037696
478, 24.16541848963692
478.5, 24.212947740415373
479, 24.248159320295997
479.5, 24.280900320360033
480, 24.33513435733083
480.5, 24.38573660623223
481, 24.467068550140624
481.5, 24.53264248936115
482, 24.612691307041274
482.5, 24.66624256415001
483, 24.727357675065335
483.5, 24.766682873821694
484, 24.808182612544613
484.5, 24.83175655210229
485, 24.856826206395624
485.5, 24.89955013344408
486, 24.935880725403194
486.5, 24.980175395098442
487, 25.015673809685964
487.5, 25.06097002694186
488, 25.095769248435715
488.5, 25.141094331111347
489, 25.16412908707177
489.5, 25.181567874607907
490, 25.223988761895768
490.5, 25.28430672552858
491, 25.357767091016512
491.5, 25.43939293622573
492, 25.494777532597638
492.5, 25.551311514386768
493, 25.62898874115254
493.5, 25.690632259258194
494, 25.752872828255178
494.5, 25.785126920798135
495, 25.785202604666807
495.5, 25.78858375143504
496, 25.7975144328162
496.5, 25.81916216926841
497, 25.854585953548607
497.5, 25.871988787985984
498, 25.889170782723312
498.5, 25.896996699694995
499, 25.90580073608352
499.5, 25.93884556316067
500, 25.970483391440865
500.5, 26.02241679834742
501, 26.060643845533917
501.5, 26.087514385199825
502, 26.10588650428629
502.5, 26.123941677957802
503, 26.138489964663222
503.5, 26.15641183287991
504, 26.16561357095732
504.5, 26.174478612526997
505, 26.18187669763006
505.5, 26.19032121314862
506, 26.20495147003311
506.5, 26.22177680276303
507, 26.255214244984046
507.5, 26.2828596743216
508, 26.30037902173025
508.5, 26.318556398435632
509, 26.35457396602922
509.5, 26.382819205000573
510, 26.41940865960963
510.5, 26.411328451458985
511, 26.3660150866243
511.5, 26.325054602810724
512, 26.272402622466956
512.5, 26.246801669392198
513, 26.221696654872915
513.5, 26.17619362201698
514, 26.12782882352279
514.5, 26.068323325409082
515, 26.01611617386874
515.5, 25.945640404632442
516, 25.89075889718083
516.5, 25.827541270582685
517, 25.78838126951348
517.5, 25.752339555264527
518, 25.70564058515056
518.5, 25.634260669059202
519, 25.582390180193414
519.5, 25.521401200019966
520, 25.501743358076368
520.5, 25.48523563962374
521, 25.423323498263656
521.5, 25.35961563313043
522, 25.282445209344928
522.5, 25.221481907126545
523, 25.168201866091238
523.5, 25.12100678730404
524, 25.048535785363583
524.5, 24.999694845576514
525, 24.945376021269183
525.5, 24.90601327446086
526, 24.861941766801905
526.5, 24.820182766329495
527, 24.768502038187464
527.5, 24.715922733288195
528, 24.659070379829473
528.5, 24.587590071584856
529, 24.51560212152839
529.5, 24.4203616666657
530, 24.34151342757525
530.5, 24.243348316067596
531, 24.17074420876324
531.5, 24.088972261542864
532, 24.026557341915634
532.5, 23.94519145738178
533, 23.888785831593395
533.5, 23.82754850654834
534, 23.782485858527693
534.5, 23.731299627144608
535, 23.671660190590018
535.5, 23.606907703649767
536, 23.556658359404537
536.5, 23.5123863186152
537, 23.460192398268518
537.5, 23.411700505467365
538, 23.330930930500998
538.5, 23.268153285396593
539, 23.186809855448644
539.5, 23.12915945014342
540, 23.066591528536293
540.5, 22.99723509937934
541, 22.90026324359158
541.5, 22.812991898188912
542, 22.711690848645176
542.5, 22.65597836003704
543, 22.599784364414603
543.5, 22.549089924641265
544, 22.506228226634775
544.5, 22.462432407657758
545, 22.426563640417356
545.5, 22.381414014505566
546, 22.3351563422828
546.5, 22.25391195620803
547, 22.18422848768418
547.5, 22.09499145399313
548, 22.034272062957996
548.5, 21.964147276927704
549, 21.917381895960943
549.5, 21.86728127159597
550, 21.83606496891572
550.5, 21.80250233292456
551, 21.742865625679343
551.5, 21.685699798127374
552, 21.57978426512186
552.5, 21.498817913942247
553, 21.40843875913751
553.5, 21.35455399358146
554, 21.309183676452108
554.5, 21.281450340169982
555, 21.255002993722613
555.5, 21.233524123356773
556, 21.207491377033847
556.5, 21.178171346447712
557, 21.145314342591604
557.5, 21.11380689462048
558, 21.082269595102716
558.5, 21.04776950814899
559, 21.016190328415746
559.5, 20.962878605291394
560, 20.922811696507452
560.5, 20.87748567711752
561, 20.84942300528924
561.5, 20.822200296614795
562, 20.80957328803504
562.5, 20.800925485326545
563, 20.80516888190725
563.5, 20.813742284500066
564, 20.80748405613957
564.5, 20.799434129062845
565, 20.79912439453028
565.5, 20.80169678237597
566, 20.827579817528132
566.5, 20.847637540453917
567, 20.865407734812607
567.5, 20.866931260945606
568, 20.840060695908292
568.5, 20.810704398815332
569, 20.765648835926456
569.5, 20.71600836119042
570, 20.64510622134297
570.5, 20.592640805915266
571, 20.532918869305163
571.5, 20.536200011109926
572, 20.544633011163228
572.5, 20.56952524185469
573, 20.591013490053683
573.5, 20.608466652176574
574, 20.62647905420181
574.5, 20.66243950813248
575, 20.693192506835075
575.5, 20.738543471479773
576, 20.758724183572184
576.5, 20.767347361656775
577, 20.738977684926482
577.5, 20.68629569677931
578, 20.64203909529654
578.5, 20.59147787499255
579, 20.581802393154717
579.5, 20.57446971328301
580, 20.582919039209713
580.5, 20.595799051693973
581, 20.648454113297035
581.5, 20.68720963400922
582, 20.72321060934847
582.5, 20.736221371936338
583, 20.727202034353766
583.5, 20.724236451621366
584, 20.72431196811978
584.5, 20.724346116811518
585, 20.72434660350565
585.5, 20.724348765304015
586, 20.72434700997718
586.5, 20.724788813753435
587, 20.722470110025313
587.5, 20.688481907828958
588, 20.65661561020474
588.5, 20.603591118778738
589, 20.565383213186593
589.5, 20.52915977694346
590, 20.501414581917473
590.5, 20.465242282385518
591, 20.43598370916881
591.5, 20.40055169845371
592, 20.366253197714897
592.5, 20.32297255107558
593, 20.285133338872
593.5, 20.24419618028415
594, 20.19681450538117
594.5, 20.149680515971937
595, 20.09795318091807
595.5, 20.057732133043444
596, 20.0220342933995
596.5, 19.98406917585214
597, 19.91153131247121
597.5, 19.86285680834807
598, 19.808495427483365
598.5, 19.77846410765767
599, 19.752334687038143
599.5, 19.678427575984927
600, 19.575784475323772
600.5, 19.470024994822424
601, 19.357164602900895
601.5, 19.26929774050234
602, 19.18090348804037
602.5, 19.059356049783545
603, 18.96927088778257
603.5, 18.89787274988703
604, 18.86776115869749
604.5, 18.88592777788503
605, 18.884795201996894
605.5, 18.86652982822703
606, 18.813393455737014
606.5, 18.725026700539075
607, 18.645518397351182
607.5, 18.55220929641193
608, 18.4690959066875
608.5, 18.378051428951835
609, 18.23589296458701
609.5, 18.11002138300941
610, 17.96184051501801
610.5, 17.84885219454739
611, 17.740816182633807
611.5, 17.646440279929266
612, 17.50231508999741
612.5, 17.357434167865236
613, 17.151393669554366
613.5, 17.013559006422412
614, 16.855158500668182
614.5, 16.740350497518207
615, 16.614565060389324
615.5, 16.46880396971187
616, 16.318500148567182
616.5, 16.191056303032838
617, 16.08758547427685
617.5, 15.999509943697689
618, 15.915724583830936
618.5, 15.771230777305732
619, 15.656826229349747
619.5, 15.502734631235228
620, 15.417591882355012
620.5, 15.34715237329209
621, 15.306434556410338
621.5, 15.262732344051841
622, 15.245074719805302
622.5, 15.228292164273569
623, 15.258485838793703
623.5, 15.290592398843415
624, 15.333039071217755
624.5, 15.353567123815154
625, 15.291378270766984
625.5, 15.230680152209644
626, 15.12202269334017
626.5, 15.042591313589796
627, 14.943329830664013
627.5, 14.835618310287032
628, 14.684755879621704
628.5, 14.579082604444565
629, 14.457955081363593
629.5, 14.392511456288105
630, 14.32721099937767
630.5, 14.208210007285885
631, 14.091590633559989
631.5, 13.970555716361758
632, 13.876292459938512
632.5, 13.787120176717252
633, 13.713951729250638
633.5, 13.61413182420631
634, 13.548537057396686
634.5, 13.476250824055853
635, 13.407891741255796
635.5, 13.319838671212253
636, 13.24134415161808
636.5, 13.147214386790893
637, 13.091724912690012
637.5, 13.034905259217595
638, 13.001367272217038
638.5, 12.972766267255807
639, 12.94677833478167
639.5, 12.925048069386875
640, 12.898070075837623
640.5, 12.866595207488288
641, 12.803424691547093
641.5, 12.756555898540299
642, 12.702870665785156
642.5, 12.685080275366587
643, 12.676135283336635
643.5, 12.650284586491324
644, 12.616596843336183
644.5, 12.557646673458137
645, 12.491707287033762
645.5, 12.39104195101531
646, 12.30245680885308
646.5, 12.197672048997902
647, 12.121033226181481
647.5, 12.057943189364138
648, 12.003551800337064
648.5, 11.922302143695362
649, 11.852693571893937
649.5, 11.763361939529304
650, 11.707765053592013
650.5, 11.646268640976814
651, 11.594059438256338
651.5, 11.53562920480428
652, 11.451691172241254
652.5, 11.363415748498369
653, 11.261510836071906
653.5, 11.178747176912424
654, 11.10827255300812
654.5, 11.051156736238937
655, 10.97884469320455
655.5, 10.923257932210333
656, 10.850832832434122
656.5, 10.801176991508669
657, 10.748042029114913
657.5, 10.705103924422133
658, 10.652921132937081
658.5, 10.59455487897803
659, 10.528595423947806
659.5, 10.473187918772197
660, 10.419820276265952
660.5, 10.385295775301813
661, 10.358087332658002
661.5, 10.331467743818521
662, 10.310166764336472
662.5, 10.282954012861865
663, 10.258902949181078
663.5, 10.222751518392784
664, 10.19343973347182
664.5, 10.158116295482984
665, 10.117870008675283
665.5, 10.066219064914307
666, 10.013771149956895
666.5, 9.95679245204768
667, 9.924866002191152
667.5, 9.894290588707364
668, 9.868012913162616
668.5, 9.834269974316726
669, 9.735998582597531
669.5, 9.653453429677441
670, 9.535352668106611
670.5, 9.438753593995912
671, 9.303414780215974
671.5, 9.168977634801706
672, 8.993077127712468
672.5, 8.847395150789438
673, 8.676675725895436
673.5, 8.566688583055381
674, 8.45391927181771
674.5, 8.394853146549337
675, 8.34375816885128
675.5, 8.283302995447656
676, 8.2555330668131
676.5, 8.309517135691138
677, 8.369825038586626
677.5, 8.487088447369302
678, 8.581613700093087
678.5, 8.698044287636094
679, 8.799909704675429
679.5, 8.9322355716032
680, 9.036812670688533
680.5, 9.154956873305252
681, 9.256066788923391
681.5, 9.357034550029638
682, 9.382850036707396
682.5, 9.392500340132031
683, 9.322298693689234
683.5, 9.263343753504103
684, 9.182299049482111
684.5, 9.131584900617042
685, 9.086534058584704
685.5, 9.033219167758404
686, 8.952662964254046
686.5, 8.878122740181226
687, 8.781798602425354
687.5, 8.738501872569572
688, 8.696558373834378
688.5, 8.695250680953421
689, 8.695643582386424
689.5, 8.70410072832182
690, 8.711441917310808
690.5, 8.720195585594567
691, 8.720841807410139
691.5, 8.702726821365601
692, 8.682343793280637
692.5, 8.645954950857103
693, 8.643433699517445
693.5, 8.661664494157009
694, 8.698067346932177
694.5, 8.75008523102646
695, 8.77517922911423
695.5, 8.799979876334845
696, 8.808042521111204
696.5, 8.815978439266004
697, 8.82456262919699
697.5, 8.830363384971477
698, 8.830384748067345
698.5, 8.832822696750426
699, 8.841970019225542
699.5, 8.86546041698142
700, 8.919556570628188
700.5, 8.972643609182668
701, 9.043364254329674
701.5, 9.061000453401178
702, 9.069871735749132
702.5, 9.035711057693945
703, 8.995404439338245
703.5, 8.931240270225402
704, 8.869803648327064
704.5, 8.809061260902169
705, 8.765576784788493
705.5, 8.738800442784296
706, 8.722638045491223
706.5, 8.713428263233538
707, 8.717497890713858
707.5, 8.735665298322616
708, 8.754666736186508
708.5, 8.78125622749306
709, 8.803207521951293
709.5, 8.828762795678642
710, 8.838225755931617
710.5, 8.8442556793606
711, 8.786393623995494
711.5, 8.73388068180013
712, 8.673075895949168
712.5, 8.631708848814696
713, 8.613876933635453
713.5, 8.619177044658528
714, 8.664459444622238
714.5, 8.684501201186691
715, 8.693116489611853
715.5, 8.654601447637063
716, 8.584368246120619
716.5, 8.512788453519889
717, 8.42867043962194
717.5, 8.380156369758026
718, 8.33559990171932
718.5, 8.360105231275853
719, 8.376457124169747
719.5, 8.349998363246002
720, 8.322738350998861
720.5, 8.268689346146843
721, 8.238836470491364
721.5, 8.22065692914272
722, 8.210269250295553
722.5, 8.201443108640603
723, 8.19441675014896
723.5, 8.185651622133435
724, 8.197813573230619
724.5, 8.214223266267055
725, 8.267784299607243
725.5, 8.323247227904005
726, 8.382958262733382
726.5, 8.427324916751246
727, 8.44484163767008
727.5, 8.445925919664433
728, 8.409712263771553
728.5, 8.375473072323445
729, 8.321048947451402
729.5, 8.29973707908188
730, 8.291291901174432
730.5, 8.300852646291403
731, 8.318121264794883
731.5, 8.319713605343495
732, 8.319773107031295
732.5, 8.319771947316667
733, 8.319783660491339
733.5, 8.31986742270152
734, 8.32420906238734
734.5, 8.350900228859715
735, 8.369595988944454
735.5, 8.387686791626464
736, 8.387639824118082
736.5, 8.369469357498247
737, 8.37857194032054
737.5, 8.405406651616175
738, 8.444628077686602
738.5, 8.496048200329994
739, 8.520843848297616
739.5, 8.545090420788384
740, 8.553058494921771
740.5, 8.560933940982409
741, 8.56985729270879
741.5, 8.590204185117713
742, 8.670975580867577
742.5, 8.756911670717258
743, 8.919259758400642
743.5, 9.042076900494493
744, 9.185395640486874
744.5, 9.225033091286463
745, 9.234285643167453
745.5, 9.187209400323383
746, 9.119611213850348
746.5, 9.051137696913756
747, 8.979430013177122
747.5, 8.937258513366828
748, 8.905494145422196
748.5, 8.905355460245048
749, 8.892323601038811
749.5, 8.829327777630255
750, 8.775182141550772
750.5, 8.693907771923492
751, 8.628403788390244
751.5, 8.547975022002447
752, 8.48421432818077
752.5, 8.405064861588116
753, 8.363379168923018
753.5, 8.321437598609037
754, 8.246602997873453
754.5, 8.163403651482625
755, 8.019872666372564
755.5, 7.903084769358983
756, 7.815426334136035
756.5, 7.764419789360886
757, 7.764505868794657
757.5, 7.784863505870291
758, 7.8476546811678105
758.5, 7.9376603927707805
759, 8.080698901788878
759.5, 8.254093779017055
760, 8.489318524837202
760.5, 8.639039150674918
761, 8.796720634084934
761.5, 8.884303061823886
762, 8.970454100215164
762.5, 9.0476759475401
763, 9.109923688805225
763.5, 9.171982452792207
764, 9.226162922355002
764.5, 9.307578961217573
765, 9.35067027068871
765.5, 9.378003894452192
766, 9.386313607010493
766.5, 9.386060921292042
767, 9.36918516136457
767.5, 9.34331783869078
768, 9.334308379886863
768.5, 9.326006290816181
769, 9.342269730763718
769.5, 9.354712160197849
770, 9.337543418146254
770.5, 9.31836328132519
771, 9.273824480051204
771.5, 9.24354092485109
772, 9.21634763627793
772.5, 9.209132143322762
773, 9.21797934891579
773.5, 9.244608618475738
774, 9.288879719367046
774.5, 9.37219921132585
775, 9.483205683283444
775.5, 9.568724111339407
776, 9.656228409833318
776.5, 9.64072087884395
777, 9.62130063850178
777.5, 9.569393919285744
778, 9.534634926445776
778.5, 9.525754061818049
779, 9.52917567591804
779.5, 9.55619999903736
780, 9.577960493064836
780.5, 9.604852725089458
781, 9.626033708309166
781.5, 9.652553986903968
782, 9.674560829921901
782.5, 9.70001127866459
783, 9.694304386326223
783.5, 9.685653997684781
784, 9.66068896161525
784.5, 9.642387694117232
785, 9.651166146130848
785.5, 9.658238248028326
786, 9.667222640303478
786.5, 9.671228937109206
787, 9.67114273822807
787.5, 9.679411649267635
788, 9.697410244354515
788.5, 9.706389907324251
789, 9.715236299745996
789.5, 9.684398997735343
790, 9.642806189733903
790.5, 9.596307230124964
791, 9.549916001608281
791.5, 9.524402677229475
792, 9.512194186219801
792.5, 9.55623077415298
793, 9.585318715740797
793.5, 9.603260034810418
793.9999999999999, 9.592519366141659
794.5, 9.538250254804012
795, 9.507724622662721
795.5, 9.481318099971148
796, 9.470779304269016
796.5, 9.462028805406831
797, 9.454445889012504
797.5, 9.446243996883894
798, 9.42305769935723
798.4999999999999, 9.398739597856576
799, 9.364377815600818
799.5, 9.33278215320668
800, 9.279720153349558
800.5, 9.255786671978996
801, 9.274003115263199
801.5, 9.314654429570467
801.9999999999999, 9.405335859871485
802.5, 9.427689241498385
803, 9.417930618483126
803.5, 9.40488240644109
804, 9.387573118789902
804.5, 9.420632941110938
805, 9.461052963364892
805.5, 9.509094130084534
806, 9.554305634732756
806.4999999999999, 9.588916523110527
807, 9.608027751681988
807.5, 9.590070366715139
808, 9.565957001466302
808.5, 9.51145845754479
809, 9.462928264347696
809.5, 9.39066134979167
810, 9.336867558812514
810.5, 9.275533723706701
811, 9.25426125421717
811.5, 9.237027193171414
812, 9.237506740120978
812.5, 9.233918020208478
813, 9.109837691524689
813.5, 8.988651058841427
814, 8.771593933850951
814.4999999999999, 8.605484066121306
815, 8.452872237732421
815.5, 8.331336283447499
816, 8.168650840923206
816.5, 8.0537117370135
817, 7.928681077825132
817.5, 7.879787899196501
818, 7.844220882455801
818.5, 7.845685023884087
818.9999999999999, 7.85386533013714
819.5, 7.904519020403001
820, 7.963064789185083
820.5, 8.072280809497741
821, 8.167114435110335
821.5, 8.272062999622747
822, 8.344263967031353
822.5, 8.389064778631493
823, 8.3807511608222
823.5, 8.290799903418389
824, 8.197300461174919
824.5, 8.063196356976746
825, 7.992715835906921
825.5, 7.922538355694115
826, 7.824160592009207
826.5, 7.707700754881287
826.9999999999999, 7.598288406845327
827.5, 7.48999569045138
828, 7.421476007009474
828.5, 7.3700578642612555
829, 7.3436206735898395
829.5, 7.324210490599896
830, 7.305929058025569
830.5, 7.261155853835078
831, 7.1529906264661065
831.4999999999999, 7.0433301957481405
832, 6.8921330428719045
832.5, 6.775561979192432
833, 6.636612827246552
833.5, 6.536149515235721
834, 6.429077141516004
834.5, 6.365592329378103
834.9999999999999, 6.302402257543093
835.5, 6.233531555758688
836, 6.177372331387886
836.5, 6.1151516774121575
837, 6.065582774971375
837.5, 6.002117932747737
838, 5.9596308033936936
838.5, 5.913990160539456
839, 5.933542414442513
839.4999999999999, 5.996280519348062
840, 6.0873718667787955
840.5, 6.207593295123559
841, 6.293481114590477
841.5, 6.382690014300181
842, 6.455056864182424
842.5, 6.521821453337694
843, 6.5653681876653565
843.5, 6.595898783541514
843.9999999999999, 6.613764192269187
844.5, 6.626087077068647
845, 6.636114667412045
845.5, 6.578942028028763
846, 6.434106974053151
846.5, 6.30175836955452
847, 6.124408016204413
847.4999999999999, 6.031419783721702
848, 5.937744749881077
848.5, 5.783177272817426
849, 5.613233158202959
849.5, 5.454141578809882
850, 5.31753403211485
850.5, 5.186873431458935
851, 5.071690180401575
851.5, 4.90108561731293
851.9999999999999, 4.784789908000121
852.5, 4.666855425549642
853, 4.608295408941672
853.5, 4.573161191421278
854, 4.540019759849969
854.5, 4.496042616956359
855, 4.4277800399786
855.5, 4.343829969003252
856, 4.2667185684569375
856.5, 4.187208853004407
857, 4.119423663200919
857.5, 4.064360329306112
858, 4.020510172159803
858.5, 3.9866547782222597
859, 3.950480091189263
859.5, 3.910992899537135
859.9999999999999, 3.8388176035356025
860.5, 3.7720122836156804
861, 3.682802849018941
861.5, 3.606085417737603
862, 3.5100039432994237
862.5, 3.4214657724737805
863, 3.3216275084786133
863.5, 3.3034935545879165
864, 3.2902106368210298
864.4999999999999, 3.3154685294934723
865, 3.335190819481639
865.5, 3.3441487243399166
866, 3.362324958367509
866.5, 3.4166162122258896
867, 3.4584412391132133
867.5, 3.5129344149797106
867.9999999999999, 3.529772773564332
868.5, 3.5292769984859547
869, 3.5124906010318284
869.5, 3.4865622293605867
870, 3.4775155350935734
870.5, 3.469163322905871
871, 3.4927834997812823
871.5, 3.5154910412354354
872, 3.5326976636899587
872.4999999999999, 3.5411556136453015
873, 3.523317361110003
873.5, 3.506927755182545
874, 3.479839866137553
874.5, 3.485870663957016
875, 3.5307095248036404
875.5, 3.6003388401774714
876, 3.7065833531123644
876.5, 3.7762992357229166
876.9999999999999, 3.8536195277238363
877.5, 3.8943680506096996
878, 3.934775271076731
878.5, 3.957793013827242
879, 3.9894287761166822
879.5, 4.093525491793585
880, 4.183112180901105
880.4999999999999, 4.308436437085106
881, 4.404038523751325
881.5, 4.521801823569234
882, 4.581581605710994
882.5, 4.616788814374672
883, 4.596208630157264
883.5, 4.543271497187959
884, 4.5538076161930405
884.5, 4.578954785992693
884.9999999999999, 4.622369109586799
885.5, 4.673389234419545
886, 4.790034560704754
886.5, 4.888271857380545
887, 4.957649187632711
887.5, 4.989436588971131
888, 4.935470883251469
888.4999999999999, 4.8911534639530885
889, 4.827882495127028
889.5, 4.780987204144935
890, 4.727439420408501
890.5, 4.679957825722369
891, 4.6183980272810885
891.5, 4.610813010449505
892, 4.610468646559511
892.5, 4.662389100031774
892.9999999999999, 4.717827810619411
893.5, 4.76902701115128
894, 4.82056725293819
894.5, 4.9349706378802125
895, 5.027596339838027
895.5, 5.144967008700576
896, 5.228926708094917
896.5, 5.328235152231144
897, 5.425677431253618
897.4999999999999, 5.559385795083969
898, 5.639918603876609
898.5, 5.727237891314019
899, 5.802464013378511
899.5, 5.8850644249151145
900, 6.01703721398593
900.5, 6.150904360432122
900.9999999999999, 6.2880394672082645
901.5, 6.399607601715999
902, 6.514632398437001
902.5, 6.593365428416988
903, 6.65671306303301
903.5, 6.68543489497354
904, 6.694272701051219
904.5, 6.73813739094625
905, 6.818398912817187
905.4999999999999, 6.8948532502222974
906, 6.989763618605764
906.5, 7.114136409555755
907, 7.252738926337983
907.5, 7.373398540895252
908, 7.480088588365078
908.5, 7.489826141853811
909, 7.513698600594239
909.5, 7.629657072189076
909.9999999999999, 7.723616657879461
910.5, 7.850578941573318
911, 7.91567200021008
911.5, 7.960711481780606
912, 8.045438037703619
912.5, 8.17812514330852
913, 8.281553213427031
913.4999999999999, 8.401328283830196
914, 8.5064382012646
914.5, 8.621987260451277
915, 8.779453482401834
915.5, 8.917082289233193
916, 9.038582373652417
916.5, 9.153433970526478
917, 9.350737143696435
917.5, 9.514729255386754
917.9999999999999, 9.749438993141354
918.5, 9.92676038441023
919, 10.13269160653438
919.5, 10.280018886223644
920, 10.4569227321103
920.5, 10.555353209405467
921, 10.657095190905281
921.4999999999999, 10.74837237968461
922, 10.846748828066623
922.5, 10.980870621607693
923, 11.090874588686773
923.5, 11.160365766974564
924, 11.189495053370038
924.5, 11.126493835253484
925, 11.077639803747559
925.5, 11.013942733055217
925.9999999999999, 11.000275153974115
926.5, 11.018818010546326
927, 11.054189613314307
927.5, 11.106687187834424
928, 11.18969176765279
928.5, 11.289723069042097
929, 11.411735699874086
929.5, 11.542956122244917
930, 11.738040562568216
930.4999999999999, 11.901379270755967
931, 12.068683608005031
931.5, 12.193750672411682
932, 12.320423508196995
932.5, 12.433300407636466
933, 12.605335063964858
933.5, 12.71336103125303
933.9999999999999, 12.81938525571205
934.5, 12.910478038434235
935, 13.023553869079777
935.5, 13.11457383049627
936, 13.213696437803264
936.5, 13.269398191211181
937, 13.32417233003956
937.5, 13.375622722421
938, 13.41064351781715
938.4999999999999, 13.410598585474347
939, 13.408479624277732
939.5, 13.399525375286643
940, 13.41228578128856
940.5, 13.457363917910186
941, 13.498524615873777
941.5, 13.551593111912993
942, 13.600694665874826
942.5, 13.660956719687064
942.9999999999999, 13.734949388216933
943.5, 13.816116929282913
944, 13.911082805367357
944.5, 14.009808059980614
945, 14.165354082247077
945.5, 14.283744788096456
946, 14.381822013485944
946.4999999999999, 14.444426539010749
947, 14.489868979845781
947.5, 14.517265337803295
948, 14.544289689069345
948.5, 14.58605873024186
949, 14.647774187446416
949.5, 14.775828937337465
950, 14.946162556167565
950.5, 15.056115858838083
950.9999999999999, 15.168853738334448
951.5, 15.228109809664346
952, 15.284388842971666
952.5, 15.397334870097751
953, 15.487395865721396
953.5, 15.586020957710275
954, 15.648932969051828
954.4999999999999, 15.70271294284295
955, 15.778198338761385
955.5, 15.904140580950639
956, 16.01329680068254
956.5, 16.15446442798445
957, 16.235634133607306
957.5, 16.32007452327393
958, 16.426063723628516
958.5, 16.538000866914928
958.9999999999999, 16.639379295686837
959.5, 16.724052373396006
960, 16.80291444920617
960.5, 16.869347561622575
961, 16.95943604811879
961.5, 17.02051512743705
962, 17.084108856550927
962.5, 17.10996404590506
963, 17.11841723290334
963.4999999999999, 17.120202289228317
964, 17.120182152202062
964.5, 17.152608590998483
965, 17.19394251333162
965.5, 17.292832630259824
966, 17.39724430083332
966.5, 17.52495129782909
966.9999999999999, 17.629199227644364
967.5, 17.726403158165198
968, 17.813408596114698
968.5, 17.949106991610066
969, 18.056513181647432
969.5, 18.201473022574973
970, 18.28721169604387
970.5, 18.366464757839537
971, 18.409151087778724
971.4999999999999, 18.45251762255573
972, 18.570746976857748
972.5, 18.71003540045811
973, 18.86847161828065
973.5, 19.01897358336096
974, 19.105802945954025
974.5, 19.182391568658247
975, 19.30671390958453
975.5, 19.391458892629075
975.9999999999999, 19.463898472657647
976.5, 19.48537200925827
977, 19.46715251937131
977.5, 19.49471439610184
978, 19.557195441282275
978.5, 19.61369936567911
979, 19.682533535515645
979.4999999999999, 19.701906395086652
980, 19.718273576382444
980.5, 19.757445006835937
981, 19.803324882565704
981.5, 19.91579041488285
982, 20.0044876406847
982.5, 20.093827716051678
983, 20.15567946225073
983.5, 20.218090466861327
983.9999999999999, 20.314629034017685
984.5, 20.486076566471326
985, 20.648877437117633
985.5, 20.8705299866824
986, 20.981669581138917
986.5, 21.092779919890475
987, 21.113791188272813
987.4999999999999, 21.12985650932545
988, 21.130400468226085
988.4999999999999, 21.141064036669576
989, 21.24598485055654
989.5, 21.353589675498142
990, 21.56916137788197
990.5, 21.725834145963702
991, 21.907225860393226
991.5, 21.996226052047888
991.9999999999999, 22.048796293356133
992.5, 22.000045260207187
993, 21.89474979395581
993.5, 21.850044727840697
994, 21.80757007156123
994.5, 21.856760668972598
995, 21.91435457546619
995.5, 22.00718094434555
996, 22.089077070635327
996.4999999999999, 22.194366304239068
997, 22.274143059007258
997.5, 22.35536923439156
998, 22.41817758845508
998.5, 22.49977004303129
999, 22.54407066808953
999.5, 22.579295982877568
999.9999999999999, 22.597219590244833
1000.5, 22.614678760705075
1001, 22.67520703823854
1001.5, 22.749728698612714
1002, 22.819890385115855
1002.5, 22.891389654021665
1003, 22.968330351584996
1003.5, 23.03221261654815
1004, 23.102824820476272
1004.4999999999999, 23.146556594366018
1005, 23.164844187139195
1005.5, 23.204097977401673
1006, 23.29433179070051
1006.5, 23.376145524046834
1007, 23.482592157214867
1007.5, 23.524383419771056
1008, 23.559304503740563
1008.5, 23.549185231831046
1008.9999999999999, 23.532813349090176
1009.5, 23.570978251776154
1010, 23.616801710482605
1010.5, 23.737227152360006
1011, 23.842939085510935
1011.5, 23.9942798432391
1012, 24.111935576735874
1012.4999999999999, 24.257005790431236
1013, 24.337048838255527
1013.5, 24.400440169480873
1014, 24.456605254113086
1014.5, 24.52710398915042
1015, 24.579398776775093
1015.5, 24.63941782503494
1016, 24.707327974327796
1016.5, 24.780183910259836
1016.9999999999999, 24.93276127479274
1017.5, 25.082128482281433
1018, 25.264758810925272
1018.5, 25.409525628821513
1019, 25.570473396386305
1019.5, 25.67107753778818
1020, 25.744011672936622
1020.4999999999999, 25.75626523363158
1021, 25.71958232330597
1021.4999999999999, 25.710485694612004
1022, 25.710352944152845
1022.5, 25.752664597417393
1023, 25.811896177594818
1023.5, 25.84385579936952
1024, 25.876060908217013
1024.5, 25.90130556954861
1025, 25.922353264766627
1025.5, 25.939743762667916
1026, 25.950460496224707
1026.5, 25.950504419510523
1027, 25.955913682804933
1027.5, 25.973750266217706
1028, 26.004760878966138
1028.5, 26.058706392259325
1029, 26.14240844379981
1029.5, 26.265246241546137
1030, 26.39453444375573
1030.5, 26.545205622099317
1031, 26.72201331972238
1031.5, 26.902397574797305
1032, 27.02979355899157
1032.5, 27.118147458872187
1033, 27.091561149818205
1033.5, 27.064466197508295
1034, 27.01043935840906
1034.5, 26.99249865579975
1035, 27.010115923364495
1035.5, 27.059227131245336
1036, 27.14880439507742
1036.5, 27.247284961746274
1037, 27.37796447773549
1037.5, 27.470601678136703
1038, 27.570131948974975
1038.5, 27.61804967341135
1039, 27.665737691652097
1039.5, 27.716978320036986
1040, 27.751139046213837
1040.5, 27.74217627287159
1041, 27.728490478520044
1041.5, 27.692338936013527
1042, 27.677032868720246
1042.5, 27.676597666968348
1043, 27.72221837572451
1043.5, 27.81149068901628
1044, 27.917386814896034
1044.5, 28.055529617579666
1045, 28.135784404150996
1045.5, 28.217694920497934
1046, 28.257813241459587
1046.5, 28.294776097771333
1047, 28.312156913137315
1047.5, 28.32165910628214
1048, 28.312597943834348
1048.5, 28.290781992435058
1049, 28.22730312448013
1049.5, 28.185455299866717
1050, 28.14002834545566
1050.5, 28.137039644574685
1051, 28.155209267267793
1051.5, 28.21695738608686
1052, 28.302217771502484
1052.5, 28.39925783665649
1053, 28.50413862102782
1053.5, 28.55485839142787
1054, 28.60197462102468
1054.5, 28.688699000283364
1055, 28.760789418277284
1055.5, 28.850308376282385
1056, 28.90416489620796
1056.5, 28.940151797670637
1057, 28.981049772028115
1057.5, 29.043992242627397
1058, 29.088415131986523
1058.5, 29.14152199819928
1059, 29.13058452421872
1059.5, 29.10550421629965
1060, 29.067850755947404
1060.5, 29.028543787216776
1061, 29.01148262158688
1061.5, 28.998068567708117
1062, 28.98930531164845
1062.5, 28.980168630735875
1063, 28.962058966959717
1063.5, 28.934002479827996
1064, 28.870860818661413
1064.5, 28.81585993318778
1065, 28.744387637040262
1065.5, 28.702943185852163
1066, 28.659026570852603
1066.5, 28.60268100783553
1067, 28.535894647072112
1067.5, 28.481639576565456
1068, 28.42469196255753
1068.5, 28.348367219881155
1069, 28.28750983802223
1069.5, 28.244043249474885
1070, 28.256715045461377
1070.5, 28.41938886710939
1071, 28.556382251740274
1071.5, 28.755515035562738
1072, 28.889738696210685
1072.5, 29.031357697945012
1073, 29.129173114268212
1073.5, 29.242460484213808
1074, 29.260672177902933
1074.5, 29.26923092747586
1075, 29.29210922680221
1075.5, 29.318370895370037
1076, 29.377936243452154
1076.5, 29.412428588572197
1077, 29.36778983205231
1077.5, 29.311716376564647
1078, 29.18475360120243
1078.5, 29.067420187962895
1079, 28.88618193931252
1079.5, 28.80476743742105
1080, 28.75295978363961
1080.5, 28.795250471590194
1081, 28.872401197372838
1081.5, 28.947895788201265
1082, 29.028999768145667
1082.5, 29.156926538836217
1083, 29.27938499957122
1083.5, 29.39232634067139
1084, 29.48962647104355
1084.5, 29.632390608225364
1085, 29.732425907311864
1085.5, 29.832145267270064
1086, 29.852298374606562
1086.5, 29.80752042703682
1087, 29.751642079751235
1087.5, 29.672323065141
1088, 29.630489637528356
1088.5, 29.58765428839581
1089, 29.584481806257827
1089.5, 29.58527703246871
1090, 29.618258719566597
1090.5, 29.64740135217467
1091, 29.67321296475106
1091.5, 29.67916478577277
1092, 29.62535772841879
1092.5, 29.58862971003518
1093, 29.552012523615332
1093.5, 29.558595588341902
1094, 29.604018943437808
1094.5, 29.649731099486402
1095, 29.711442792063806
1095.5, 29.769308261039825
1096, 29.83676615918023
1096.5, 29.89071118630956
1097, 29.94752533190068
1097.5, 30.014808631897893
1098, 30.067265918890897
1098.5, 30.084407653263966
1099, 30.073561573021905
1099.5, 29.97449577996059
1100, 29.906646320993303
1100.5, 29.83396518207317
1101, 29.805188550721752
1101.5, 29.796837743002214
1102, 29.83700926824183
1102.5, 29.90685901676396
1103, 29.940220737623562
1103.5, 29.97408305557009
1104, 29.85544477153971
1104.5, 29.72370074058479
1105, 29.511279402421962
1105.5, 29.33873169401106
1106, 29.188915151379533
1106.5, 29.08953145251381
1107, 29.026569318236668
1107.5, 29.04926785116423
1108, 29.193333178626105
1108.5, 29.34082373435602
1109, 29.545386828403736
1109.5, 29.677665346564382
1110, 29.82539602035223
1110.5, 29.93992511836521
1111, 30.063577569685975
1111.5, 30.080929447397466
1112, 30.09424435469262
1112.5, 30.07728671595318
1113, 30.063963423903843
1113.5, 30.055217438882963
1114, 30.06212863160735
1114.5, 30.107167243913267
1115, 30.088366604935572
1115.5, 29.989313876208897
1116, 29.890492897505837
1116.5, 29.757885783614952
1117, 29.723695607226375
1117.5, 29.70624821096328
1118, 29.642266071105055
1118.5, 29.56957729264508
1119, 29.513868318804185
1119.5, 29.457453183964248
1120, 29.37924858134737
1120.5, 29.308455835166782
1121, 29.19225521123643
1121.5, 29.106490094047643
1122, 29.007324370623948
1122.5, 28.927345558406728
1123, 28.82859854082325
1123.5, 28.7654990424643
1124, 28.694486329111953
1124.5, 28.61788544656457
1125, 28.52433750599377
1125.5, 28.46843662633718
1126, 28.41327689600479
1126.5, 28.411841281387467
1127, 28.388150969807498
1127.5, 28.15262195002292
1128, 27.94826915982813
1128.5, 27.652019615716952
1129, 27.461202824305346
1129.5, 27.290041061013184
1130, 27.107478027504158
1130.5, 26.838388587156857
1131, 26.68646547498497
1131.5, 26.527528287658356
1132, 26.50677923790319
1132.5, 26.50619408043937
1133, 26.529181306005853
1133.5, 26.54930865461236
1134, 26.49843023297413
1134.5, 26.424512114658413
1135, 26.134665644516488
1135.5, 25.907584899123606
1136, 25.646358599612412
1136.5, 25.517917246514386
1137, 25.48063743318029
1137.5, 25.52368249920204
1138, 25.640792437152243
1138.5, 25.781317922156035
1139, 25.97350275517914
1139.5, 25.99436403332912
1140, 25.995438759278443
1140.5, 25.85051166116233
1141, 25.70301671564698
1141.5, 25.582717458332553
1142, 25.471660586073057
1142.5, 25.276939410904973
1143, 25.114295701689485
1143.5, 24.888261330921665
1144, 24.76574158168279
1144.5, 24.683955605696013
1145, 24.635993715559394
1145.5, 24.592049794275468
1146, 24.572907615598297
1146.5, 24.555501476977284
1147, 24.54680413676924
1147.5, 24.538889624837353
1148, 24.436685514466845
1148.5, 24.334883919098488
1149, 24.22285670042838
1149.5, 24.139702938941426
1150, 24.08632086266627
1150.5, 24.046252452009327
1151, 24.00099401260198
1151.5, 23.992996464640385
1152, 24.019663147342783
1152.5, 24.08879422663982
1153, 24.20409753066832
1153.5, 24.263332394124205
1154, 24.32381161041684
1154.5, 24.2365880615678
1155, 24.13196596761874
1155.5, 23.938635877112034
1156, 23.755000709253352
1156.5, 23.572185462901544
1157, 23.43119633352633
1157.5, 23.288196499646347
1158, 23.20707816740692
1158.5, 23.170656588211457
1159, 23.156580629582294
1159.5, 23.156793875987177
1160, 23.108168088335105
1160.5, 23.019898706280273
1161, 22.904080412921275
1161.5, 22.760032873865484
1162, 22.65169174457432
1162.5, 22.539037259250676
1163, 22.446240343811056
1163.5, 22.359820576620365
1164, 22.2114403044215
1164.5, 22.0913816887536
1165, 21.94763513139621
1165.5, 21.863845165994007
1166, 21.80916695731804
1166.5, 21.793900399600986
1167, 21.8033563378375
1167.5, 21.810558208984673
1168, 21.819401481613554
1168.5, 21.78248285684164
1169, 21.732490120797195
1169.5, 21.650356023216588
1170, 21.55726152325748
1170.5, 21.371264488052375
1171, 21.206429845772192
1171.5, 20.986824519995196
1172, 20.83714539233604
1172.5, 20.737692763681878
1173, 20.655319929549734
1173.5, 20.53798207619407
1174, 20.42592777077337
1174.5, 20.27443581507555
1175, 20.1635006556547
1175.5, 20.032690756207018
1176, 19.913581925556613
1176.5, 19.781201796162776
1177, 19.662444388223165
1177.5, 19.55048239651279
1178, 19.515819823689966
1178.5, 19.50369511312033
1179, 19.574583488514065
1179.5, 19.62640552962985
1180, 19.680466217106
1180.5, 19.66501292983527
1181, 19.55752639148433
1181.5, 19.37861733836256
1182, 19.093957867019313
1182.5, 18.801089407688877
1183, 18.4298770899087
1183.5, 18.13119561407234
1184, 17.812645539337495
1184.5, 17.568643880187068
1185, 17.309651877454613
1185.5, 16.8695946689473
1186, 16.508596190735275
1186.5, 16.09023661188054
1187, 15.837406358214565
1187.5, 15.701115744814075
1188, 15.637914749599929
1188.5, 15.610386971295554
1189, 15.621920716218398
1189.5, 15.657672080843739
1190, 15.72223754072246
1190.5, 15.80754537664609
1191, 15.904715604042138
1191.5, 16.009366618174113
1192, 16.051533877556963
1192.5, 16.08212070513929
1193, 16.06457203728897
1193.5, 16.041809520026916
1194, 15.979092266366791
1194.5, 15.93488177906211
1195, 15.888911553999293
1195.5, 15.911031205130726
1196, 16.001676845123157
1196.5, 16.047862137322255
1197, 16.092277275259647
1197.5, 16.018276779232025
1198, 15.909289350731228
1198.5, 15.629917769862487
1199, 15.32250643253606
1199.5, 14.97772479001624
1200, 14.682023633959446
1200.5, 14.375709667602479
1201, 14.10383012503165
1201.5, 13.689926549065149
1202, 13.420414473981523
1202.5, 13.166088955462172
1203, 13.053176094732848
1203.5, 13.00132408230337
1204, 13.016491539536744
1204.5, 13.060064643325845
1205, 13.116299704529027
1205.5, 13.183116071268259
1206, 13.223302929656512
1206.5, 13.260308455813274
1207, 13.252236452620764
1207.5, 13.244411000016356
1208, 13.235747030303088
1208.5, 13.241161165082275
1209, 13.286182032489052
1209.5, 13.296600211890464
1210, 13.269882494098596
1210.5, 13.217565501308101
1211, 13.128199337493555
1211.5, 13.088703070488492
1212, 13.053844526037068
1212.5, 12.963781378697107
1213, 12.857013943730465
1213.5, 12.701157498231495
1214, 12.541335546538207
1214.5, 12.343720895948636
1215, 12.170922050540455
1215.5, 11.92276089791416
1216, 11.76149444550957
1216.5, 11.652746589172153
1217, 11.599024663555227
1217.5, 11.571754056497639
1218, 11.549688912929028
1218.5, 11.523203585321866
1219, 11.50687801739575
1219.5, 11.489803545250965
1220, 11.377703494059233
1220.5, 11.248362331109874
1221, 11.031982953210814
1221.5, 10.828713738828256
1222, 10.672412037215821
1222.5, 10.556941147092104
1223, 10.467671128363975
1223.5, 10.399432635826798
1224, 10.317617865556144
1224.5, 10.244851896584208
1225, 10.136524250839429
1225.5, 10.04363435470222
1226, 9.929506315084296
1226.5, 9.864525608911265
1227, 9.796093455517848
1227.5, 9.764789129699608
1228, 9.729410031155652
1228.5, 9.604710483089036
1229, 9.477901128021415
1229.5, 9.199907455109397
1230, 8.983687138113453
1230.5, 8.768540963698428
1231, 8.638427173586578
1231.5, 8.547730189688565
1232, 8.49469868179898
1232.5, 8.450326553268965
1233, 8.45004159827505
1233.5, 8.467531312344278
1234, 8.469129955589295
1234.5, 8.469742859736229
1235, 8.251990762247075
1235.5, 8.008810317177705
1236, 7.70531432171687
1236.5, 7.43976441354873
1237, 7.115308580179843
1237.5, 6.834883634765859
1238, 6.42938000977324
1238.5, 6.140822900502229
1239, 5.806910545954253
1239.5, 5.482917964375545
1240, 5.036245831366486
1240.5, 4.603640654414804
1241, 4.499137792689353
1241.5, 4.488390402248982
1242, 4.47553075346471
1242.5, 4.461515784783458
1243, 4.447302434652087
1243.5, 4.433847641517559
1244, 4.422108343826736
1244.5, 4.501232621372893
1245, 4.786522802750582
1245.5, 4.95825420785917
1246, 5.0598816156424675
1246.5, 5.149022376937779
1247, 5.3772752958170855
1247.5, 5.779200887850237
1248, 6.031160764128316
1248.5, 6.309560156851532
1249, 6.356232378895768
1249.5, 6.382110925137042
1250, 6.291525479783473
1250.5, 6.180445950590482
1251, 5.871710209006949
1251.5, 5.607786586940449
1252, 5.27042435745885
1252.5, 5.048931941429416
1253, 4.8857707703968885
1253.5, 4.81473556711218
1254, 4.796556952533635
1254.5, 4.758454351021896
1255, 4.696313448919398
1255.5, 4.685893539365878
1256, 4.685604582672056
1256.5, 4.734186087837628
1257, 4.790673113088175
1257.5, 4.806315724058706
1258, 4.823770275418482
1258.5, 4.8582372469720525
1259, 4.875759216767733
1259.5, 4.848924448343652
1260, 4.827621312314136
1260.5, 4.799993669612107
1261, 4.816034419521813
1261.5, 4.87952768437782
1262, 4.910060636835766
1262.5, 4.936757975434432
1263, 4.970891575327514
1263.5, 5.01329716567777
1264, 5.079720737859191
1264.5, 5.152497197813275
1265, 5.219472800755369
1265.5, 5.275674510458742
1266, 5.318707604423366
1266.5, 5.322392592958707
1267, 5.20560842017116
1267.5, 5.1173078315687235
1268, 5.008037403325744
1268.5, 4.989200345506873
1269, 5.035182119001561
1269.5, 5.096537958518084
1270, 5.184478481045886
1270.5, 5.264574966439639
1271, 5.357174891304581
1271.5, 5.384555187532328
1272, 5.402900709569977
1272.5, 5.310578153610919
1273, 5.2179780395001245
1273.5, 5.033635261995457
1274, 4.893817916443666
1274.5, 4.74957336115196
1275, 4.662771383024705
1275.5, 4.590939303090522
1276, 4.477015490076155
1276.5, 4.28901437285694
1277, 4.117769945237669
1277.5, 3.899374219717714
1278, 3.777163099831995
1278.5, 3.652572523982201
1279, 3.458897031865135
1279.5, 3.2641630687625423
1280, 3.1018198896524467
1280.5, 2.990136551402557
1281, 2.9991276359421875
1281.5, 3.010247920216912
1282, 3.0374298338905987
1282.5, 3.064067743117846
1283, 3.1089402556290366
1283.5, 3.1815531637246863
1284, 3.2973435434528255
1284.5, 3.418507136652835
1285, 3.574396176719432
1285.5, 3.6155761697147852
1286, 3.648958068215535
1286.5, 3.616154774146736
1287, 3.5954745541646105
1287.5, 3.6813870093154435
1288, 3.7734066294366357
1288.5, 3.978257568614481
1289, 4.143021315114467
1289.5, 4.360754254200046
1290, 4.509768358888451
1290.5, 4.681590227283621
1291, 4.820723623295976
1291.5, 4.987964514104746
1292, 5.050028424751005
1292.5, 5.101967012204213
1293, 5.077798260615211
1293.5, 5.045990466137738
1294, 5.054039325989095
1294.5, 5.062599174924088
1295, 5.0799667047175205
1295.5, 5.094426323947957
1296, 5.112660205241383
1296.5, 5.165240848151797
1297, 5.318349326580844
1297.5, 5.4452111906405065
1298, 5.606619523883182
1298.5, 5.626438967098409
1299, 5.591567713445087
1299.5, 5.538166599453135
1300, 5.4703465494694825
1300.5, 5.444960004082077
1301, 5.4211263246019
1301.5, 5.412672271069084
1302, 5.4093214928465585
1302.5, 5.4356444526241035
1303, 5.464478448300852
1303.5, 5.527392826276284
1304, 5.584234591126844
1304.5, 5.605452918966478
1305, 5.575274861171479
1305.4999999999998, 5.538998868480391
1306, 5.501174042924987
1306.5, 5.466349486536913
1307, 5.4390743013479295
1307.5, 5.4078085465705215
1308, 5.406303265409818
1308.5, 5.4067038744425275
1309, 5.415056700133292
1309.5, 5.420123321394968
1310, 5.41100648374514
1310.5, 5.379206127298318
1311, 5.261712180407358
1311.5, 5.151483485998028
1312, 4.971411298883325
1312.5, 4.760765150364861
1313, 4.448336089687984
1313.5, 4.192477449925988
1314, 3.878599786947376
1314.4999999999998, 3.660707089474869
1315, 3.429140882571076
1315.5, 3.100560400885854
1316, 2.780202608630148
1316.5, 2.582404307108888
1317, 2.445688522480822
1317.5, 2.4459471846946883
1317.9999999999998, 2.5092135739425885
1318.5, 2.5842400987146448
1319, 2.6509083242765854
1319.5, 2.6809373744015232
1320, 2.715399897207263
1320.5, 2.768863556221035
1321, 2.907664009640783
1321.4999999999998, 3.105928742217955
1322, 3.2532746649288526
1322.5, 3.408195243611459
1323, 3.6216782079577143
1323.5, 3.838503704924193
1324, 4.1315569991377
1324.5, 4.335120785151247
1325, 4.397287109868742
1325.5, 4.424929118555653
1326, 4.406736060246871
1326.5, 4.369115477428537
1326.9999999999998, 4.28805230891399
1327.5, 4.19864271602863
1328, 4.075126469868991
1328.5, 4.126182948442576
1329, 4.227892246499977
1329.5, 4.4043394304123495
1330, 4.59565043658381
1330.4999999999998, 4.605872797848562
1331, 4.602785210089877
1331.5, 4.5247099721250095
1332, 4.463315585795186
1332.5, 4.400528476566677
1333, 4.348381388239645
1333.5, 4.275478302743053
1333.9999999999998, 4.268503123362393
1334.5, 4.314345946273207
1335, 4.453145307437168
1335.5, 4.682563058694697
1336, 4.726596339784464
1336.5, 4.744499733840726
1337, 4.637361894599806
1337.5, 4.515932193647515
1338, 4.372692594264123
1338.5, 4.238708951107995
1339, 4.011635401541781
1339.5, 3.85397949082234
1340, 3.7550856345798564
1340.5, 3.7096044878494183
1341, 3.7094159954900334
1341.5, 3.71343002235848
1342, 3.7224420355401833
1342.5, 3.7398758873179645
1342.9999999999998, 3.7661651156412574
1343.5, 3.769228810279884
1344, 3.769402652836959
1344.5, 3.738740217195229
1345, 3.7104579012865315
1345.5, 3.7356573543338243
1346, 3.765183293791509
1346.4999999999998, 3.8444507408737536
1347, 3.8999299468256368
1347.5, 3.944941690844516
1348, 3.945646040823007
1348.5, 3.8913342584389596
1349, 3.8697505666794427
1349.5, 3.861277863288052
1350, 3.8975698426986867
1350.5, 3.9583128622650037
1351, 3.970786859582276
1351.5, 3.9794910653964735
1352, 3.895794215445889
1352.5, 3.801884985084783
1353, 3.6132596456209285
1353.5, 3.442798363508004
1354, 3.176742607132013
1354.5, 2.989902606971455
1355, 2.817865051752591
1355.4999999999998, 2.7420708037422656
1356, 2.7236790498512278
1356.5, 2.7134716959687637
1357, 2.7047331336429608
1357.5, 2.7090795148798037
1358, 2.717549855954175
1358.5, 2.7734767079303424
1358.9999999999998, 2.838267713517311
1359.5, 2.909112901966779
1360, 2.9861221317425475
1360.5, 3.1332032672891046
1361, 3.2601320731423726
1361.5, 3.4387005247038047
1362, 3.574691778568095
1362.5, 3.7381824779333925
1363, 3.852479063213579
1363.5, 3.9881779609266346
1364, 4.074253943503692
1364.5, 4.161493425974172
1365, 4.263802346486997
1365.5, 4.391651514360973
1366, 4.471983753713985
1366.5, 4.549364824550636
1367, 4.483805600791371
1367.5, 4.40983944390905
1367.9999999999998, 4.2100755485317904
1368.5, 4.0602947165623675
1369, 3.934485499264383
1369.5, 3.820670921997035
1370, 3.6402525812409294
1370.5, 3.490887972019621
1371, 3.302800005216696
1371.4999999999998, 3.169052007199653
1372, 3.010220376627913
1372.5, 2.834133380669442
1373, 2.6233344581439297
1373.5, 2.5104576672507335
1374, 2.4020155545341026
1374.5, 2.3843850072366735
1375, 2.3792926073248424
1375.5, 2.4322472807386504
1376, 2.4984274653292005
1376.5, 2.6606228650055215
1377, 2.778771837478274
1377.5, 2.922648528523041
1378, 3.1068334487583655
1378.5, 3.393371697823511
1379, 3.6997662785502143
1379.5, 4.1110718346529325
1380, 4.2745080909756155
1380.4999999999998, 4.425493988675754
1381, 4.48424836710727
1381.5, 4.531586285279843
1382, 4.45571046445626
1382.5, 4.380298554369773
1383, 4.238989561235201
1383.5, 4.1274224036131955
1383.9999999999998, 3.9917032451957084
1384.5, 3.886988374667908
1385, 3.750812234174674
1385.5, 3.6991394692161492
1386, 3.6824688529378165
1386.5, 3.7178968259246403
1387, 3.778448201534175
1387.4999999999998, 3.810732263818565
1388, 3.844036854169957
1388.5, 3.7652948254153102
1389, 3.6940232391273184
1389.5, 3.6937509584692094
1390, 3.710313894252465
1390.5, 3.8085958821981336
1391, 3.9312373124721773
1391.5, 4.203187283835888
1392, 4.402006784233976
1392.5, 4.6470164367208895
1392.9999999999998, 4.723073387693688
1393.5, 4.729662827218121
1394, 4.69033353438418
1394.5, 4.630288664310299
1395, 4.618831563194362
1395.5, 4.610545582755961
1396, 4.650711459808434
1396.4999999999998, 4.689537845332495
1397, 4.733008028522761
1397.5, 4.7702462157602525
1398, 4.823770123988496
1398.5, 4.850639348365334
1399, 4.850814903227388
1399.5, 4.843343058570198
1399.9999999999998, 4.825256893850607
