298, 47.55611025130381
299, 47.52193580756438
300, 47.49697078425473
301, 47.51229725956916
302, 47.550075543178345
303, 47.60294247340226
304, 47.667860132364936
305, 47.74006955767137
306, 47.81328879964634
307, 47.87773388307069
308, 47.92313043043584
309, 47.92406463112246
310, 47.980068110076004
311, 48.08196365663353
312, 48.10455569272671
313, 48.16449558892248
314, 48.23135574246514
315, 48.186872567937684
316, 48.17146477987913
317, 48.23557051044691
318, 48.31725083605204
319, 48.39827700242498
320, 48.46113472483252
321, 48.49870761784822
322, 48.4954619390653
323, 48.48268472583963
324, 48.509424453562865
325, 48.5467727288069
326, 48.58546339076951
327, 48.650978716824014
328, 48.68361559433061
329, 48.972406677385656
330, 49.07450799351843
331, 49.12605586153243
332, 49.16670209007021
333, 49.21321798928113
334, 49.2528528679056
335, 49.21089665837969
336, 49.183669395690615
337, 49.298257805213616
338, 49.3759812114615
339, 49.267994538355616
340, 49.33564240822813
341, 49.58263156170472
342, 49.733349169839435
343, 49.74124638093774
344, 49.69020503262432
345, 49.614400236991195
346, 49.86078398452913
347, 50.00933818651466
348, 50.10876465332739
349, 50.13992995424422
350, 50.10970459203743
351, 50.149481514184096
352, 50.33292068542979
353, 50.29517488399275
354, 50.36623180147286
355, 50.507558697236234
356, 50.529140652087605
357, 50.46698171080318
358, 50.401277728635165
359, 50.43747303312862
360, 50.51791158050202
361, 50.58380350836706
362, 50.78486193199279
363, 50.85276203301275
364, 50.71831889933963
365, 50.91013423620184
366, 51.07971123071314
367, 51.229114019522896
368, 51.24130661782738
369, 51.436545021807085
370, 51.53120723397572
371, 51.48822964002837
372, 51.581825955646664
373, 51.600147433775895
374, 51.571656326032596
375, 51.540312637843755
376, 51.61585974128061
377, 51.8605489843305
378, 51.90618391031548
379, 51.95856486648548
380, 52.09776554494435
381, 52.146392308496075
382, 52.040087044727564
383, 52.11938255250359
384, 52.15224725367829
385, 52.31770711455641
386, 52.329451754621395
387, 52.50993037782597
388, 52.73208210014217
389, 52.77004054049658
390, 52.80307186514219
391, 52.846091343583396
392, 52.89381088765565
393, 52.93534926406234
394, 53.038554401236446
395, 53.242040675287384
396, 53.31742176927674
397, 53.631170657949696
398, 53.71534646216912
399, 53.793112486434836
400, 53.93810682034585
401, 53.94909920358806
402, 53.88128886108265
403, 54.04378397570543
404, 54.19453784370308
405, 54.31374135022127
406, 54.40082261882546
407, 54.46118892822991
408, 54.506034164484554
409, 54.564079557688984
410, 54.650879219674415
411, 54.87205017726587
412, 54.879192682437356
413, 54.81204582065886
414, 55.106083457183736
415, 55.21002351327235
416, 55.250288430317426
417, 55.467261217497324
418, 55.434374435489296
419, 55.8676630047221
420, 55.615106347011135
421, 55.859672271649714
422, 56.152716626482196
423, 56.28394170558601
424, 56.4575172619296
425, 56.61260191140704
426, 56.65130031213024
427, 56.77680799093964
428, 57.02733090014393
429, 57.146978586420545
430, 57.41051632338284
431, 57.69947459067484
432, 57.78590824183695
433, 57.926043024784796
434, 57.971477795235245
435, 58.10276494272538
436, 58.23962534800215
437, 58.4843020842275
438, 58.712426085330236
439, 58.804248532348645
440, 59.06413247022205
441, 59.44673295034515
442, 59.331372883356146
443, 59.31569482578583
444, 59.62367085446016
445, 59.72856672531935
446, 60.10581756417662
447, 60.067397237158
448, 60.45652759232366
449, 60.79556879980239
450, 60.83126623391656
451, 61.17144888370149
452, 61.1346625243449
453, 61.265103739900795
454, 61.465496683965014
455, 61.846737169582035
456, 61.939369455732326
457, 62.20636784132191
458, 62.321300180000364
459, 62.42679532018562
460, 62.53803919637458
461, 62.88275675836555
462, 63.19338595180222
463, 63.07262920439516
464, 63.34806225902241
465, 63.646841530869935
466, 63.5100525554367
467, 63.99445989550806
468, 64.11181703319953
469, 64.2184363040996
470, 64.33675459735107
471, 64.7233912424925
472, 64.64495020136788
473, 64.80836727722603
474, 65.11229917647303
475, 64.98912097281163
476, 65.3843284009032
477, 65.67717209949636
478, 65.72910309084736
479, 65.97316706691612
480, 66.11126395443549
481, 66.32185335976445
482, 66.13442793186996
483, 66.34190987818795
484, 66.68583016175546
485, 66.68102282438272
486, 66.5947546215179
487, 66.97413598510995
488, 67.294005936085
489, 67.02040998578585
490, 67.33704961708592
491, 67.3407909735698
492, 67.52921511910235
493, 67.82916553397358
494, 67.8359745285257
495, 68.03515202425481
496, 68.34288740613155
497, 68.69853376796075
498, 68.66736700612942
499, 68.71426801518771
500, 68.66117269735176
501, 68.71609465651802
502, 68.8372274402096
503, 68.82558305503477
504, 68.76548794091792
505, 69.03212484976132
506, 69.11169717493625
507, 69.01875367120137
508, 68.97747827979856
509, 68.95400422922391
510, 68.99427667180554
511, 69.11707202222335
512, 69.15414418171247
513, 68.77724938226329
514, 68.86403524228895
515, 68.77018494569309
516, 68.54006534957193
517, 68.70213825570788
518, 68.45819805807015
519, 68.22305280563009
520, 68.09038750483607
521, 67.99631647522034
522, 67.98205087554473
523, 68.02935225494589
524, 67.61991922378465
525, 67.50107433515181
526, 67.3461221115525
527, 67.08665090239953
528, 66.9427161541151
529, 66.55000919169167
530, 66.49298578127792
531, 66.22762986027624
532, 65.87269683694697
533, 65.84880734624412
534, 65.91327782621008
535, 65.51494773609053
536, 65.36018096965492
537, 65.39373496063635
538, 64.8673092792892
539, 64.55252982951563
540, 64.6206276995984
541, 64.50926211194613
542, 64.36551187844046
543, 64.22616196702454
544, 64.05094761421849
545, 63.82166424714663
546, 63.6117401661306
547, 63.43787754021412
548, 63.45734203926914
549, 63.1118472029877
550, 63.25471988684368
551, 63.00759194299432
552, 62.673957943918055
553, 62.537355226284646
554, 62.64585275040624
555, 62.63667881062867
556, 62.40044873416612
557, 62.19338846822756
558, 62.1350091044903
559, 62.08860937470186
560, 62.18722126578902
561, 62.355879499075044
562, 62.5148125149923
563, 62.50771221698268
564, 62.062438410689644
565, 62.06220151120247
566, 62.41117823618158
567, 62.39768670148219
568, 62.17136968937299
569, 62.19897044174778
570, 62.26511365236916
571, 62.34490266831277
572, 62.471983885236234
573, 62.38306749761189
574, 62.18408922190463
575, 62.21110172296251
576, 62.32716337169537
577, 62.52330341925599
578, 62.454923515255146
579, 62.29357746447633
580, 62.233482300371435
581, 62.24747541676619
582, 62.20788528607314
583, 62.25388468668874
584, 62.46175646550819
585, 62.28560806346224
586, 62.08193977015619
587, 62.238724976019775
588, 62.167497488613
589, 61.95840984262048
590, 62.01169089317518
591, 61.88706458139574
592, 61.691379483468545
593, 61.48493210332894
594, 61.44954154969665
595, 61.25618483455073
596, 61.04174933529709
597, 60.77311582128304
598, 60.76275473400613
599, 60.59246014196565
600, 60.19118922444467
601, 59.9990623177149
602, 60.03663655030994
603, 60.00872430561887
604, 59.822406047220426
605, 59.631998511447534
606, 59.32119447029978
607, 59.26638016561555
608, 59.02268666645024
609, 58.86214379054575
610, 58.65705987777855
611, 58.328198893242245
612, 58.01644027098813
613, 57.704353835970416
614, 57.37435230445604
615, 57.27868224845403
616, 56.96408538427701
617, 56.58600563949072
618, 56.37537103882905
619, 56.43083398024997
620, 56.00576077694754
621, 55.86801190015679
622, 55.92259614823309
623, 55.94747379102008
624, 55.954995103770194
625, 55.94570878633278
626, 55.89329063039313
627, 55.704206774229206
628, 55.654651239088906
629, 55.706591313772755
630, 55.18239372446968
631, 54.630467390880376
632, 54.74822832020264
633, 54.47509245951288
634, 54.451859410558974
635, 54.44793593957853
636, 54.262530094063735
637, 54.06644646657761
638, 54.03882677113726
639, 54.0161853028403
640, 53.983410892653225
641, 53.87179545075644
642, 53.543390603836315
643, 53.73866279418615
644, 53.97552881612215
645, 53.83109220524319
646, 53.60762712212049
647, 53.399435501729876
648, 53.572228896288316
649, 53.13998213186782
650, 53.097536163809536
651, 53.17896008181488
652, 52.801576249008335
653, 52.848034808107585
654, 52.48779995871064
655, 52.690757773455786
656, 52.74219698091502
657, 52.67753779284099
658, 52.52948407332923
659, 52.18809282051483
660, 52.229946731939
661, 52.39846875375652
662, 52.451627365167546
663, 52.44817837062564
664, 52.43086759077491
665, 52.61161590602258
666, 52.08763438513773
667, 52.32226940852546
668, 52.002502244569406
669, 52.00890800987933
670, 51.909625823300445
671, 51.65234480809994
672, 51.43393275932455
673, 51.72142545833225
674, 51.05737944515448
675, 50.88945109471817
676, 50.80140283976715
677, 51.03268443851076
678, 51.10358306768477
679, 51.12683345312469
680, 51.444277252616956
681, 51.539887581597526
682, 51.80434115403734
683, 52.07750593548076
684, 51.83526426857159
685, 51.76254127192568
686, 51.54071992608
687, 51.43705013833471
688, 51.54294855146936
689, 51.549905099620815
690, 51.57586806054885
691, 51.60386398884106
692, 51.62439434110281
693, 51.62796057393938
694, 51.605064143956135
695, 51.19044200773116
696, 51.238494281023485
697, 51.03514469162284
698, 51.32651448881186
699, 51.50679503727754
700, 51.73946695850816
701, 51.443534291504555
702, 51.4122931206842
703, 51.294094869178515
704, 51.57736348221429
705, 51.525111631649075
706, 51.46602194549411
707, 51.60000725944538
708, 51.52933010684037
709, 51.36530678374932
710, 51.241169386848675
711, 51.39381061837008
712, 51.22907857114629
713, 51.1741330764419
714, 51.19961596232057
715, 51.1348925824526
716, 50.96094304628142
717, 51.096558120207874
718, 51.039627778851504
719, 50.94068375328456
720, 51.19065139940948
721, 51.26186488884474
723, 51.555176960708664
728, 51.38501084022447
729, 51.34223344140409
730, 51.206473897982896
731, 51.05670729541753
732, 51.112606035650025
733, 51.07300803098607
734, 50.98856271160769
735, 51.25177546692794
736, 51.21255135937304
737, 51.32461799026596
738, 51.39702837442855
739, 51.396742056915194
740, 51.354173300665664
741, 51.24929883176589
742, 51.46828115325268
743, 51.54613757531251
744, 51.630120092728035
745, 51.71965756609706
746, 51.682141954633515
747, 51.55627037808252
748, 51.669512134370144
749, 51.64104042832477
750, 51.445051066572596
751, 51.56107425665608
752, 51.434126896638396
753, 50.83230585243873
754, 50.96985637838104
755, 50.628024330168884
756, 50.87302198432713
757, 51.0600213209946
758, 51.20457402142481
759, 51.183823375308464
760, 51.30280354480185
761, 51.327722574362774
762, 51.421690171296774
763, 51.66920846731862
764, 51.49706047099179
765, 51.56754009766978
766, 51.86222850739886
767, 51.954335934370675
768, 52.07881885266625
769, 52.07056014104435
770, 52.01044123147398
771, 52.01602601427576
772, 52.094345276468204
773, 51.9523615080726
774, 51.96178974914881
775, 52.328907153762344
776, 52.131159496167406
777, 52.216485387501436
778, 52.364104537201854
779, 52.34908196191255
780, 52.02261688521289
781, 51.95457730117208
782, 51.67203733525252
783, 51.7506461670138
784, 51.59467495861208
785, 51.672365881890684
786, 51.77776969097301
787, 51.864699650433
788, 52.07168371735694
789, 52.39702948011871
790, 52.34161452311497
791, 52.24622430040377
792, 52.254076387449715
793, 52.336757831485585
793.9999999999999, 52.31334980568467
795, 52.30131952355901
796, 51.87159025842692
797, 51.90033989869982
798, 51.71822628070722
799, 51.72289105588573
800, 51.68488445433092
801, 51.65200097097617
801.9999999999999, 51.698287377318486
803, 51.90187394842663
804, 51.97136880128574
805, 52.143406104667655
806, 52.172899225600524
807, 52.093863008145696
808, 52.112425421822856
809, 52.04883378885551
810, 51.92996706241282
811, 51.79107096424014
812, 51.662855488188015
813, 51.474229617601964
814, 51.22817408739106
815, 51.01069579780517
816, 51.15695610965705
817, 51.04570642746096
818, 50.48568555885446
818.9999999999999, 50.40552448643959
820, 50.69395193401051
821, 50.905129515112336
822, 50.775559288376215
823, 50.33522046597996
824, 50.460032092202525
825, 50.430715371341925
826, 50.578963894085376
826.9999999999999, 50.30787214731705
828, 50.15586351714497
829, 49.89976798488282
830, 49.61251387490076
831, 49.84388193829556
832, 49.38128578809084
833, 49.56859164832339
834, 49.06025108582578
834.9999999999999, 49.192966432554684
836, 49.33194619429315
837, 48.77993228774389
838, 48.83420898828158
839, 48.667376729527845
840, 48.76617444699833
841, 48.24481225965506
842, 48.423226935162404
843, 48.32419748324328
843.9999999999999, 48.15750837268685
845, 48.062569295889254
846, 48.18228901204328
847, 47.978280461256624
848, 47.52640144068946
849, 47.976052104866035
850, 47.789575104620354
851, 47.36118239542132
851.9999999999999, 47.171158625026756
853, 47.39718555538751
854, 47.607114389530416
855, 47.7547332945357
856, 47.81628308159712
857, 47.497057871463504
858, 47.31177461557678
859, 47.138078987446534
859.9999999999999, 47.18238684895062
861, 47.428187817709144
862, 47.6720992551799
863, 47.74753739589889
864, 47.661400668938754
865, 47.7174741647263
866, 47.655714639426016
867, 47.6631813326157
867.9999999999999, 48.11748389881738
869, 48.05379483988741
870, 47.990796596459674
871, 48.179826028351684
872, 48.32234774455489
873, 48.42282946511617
874, 47.972483677412015
875, 48.2685598650442
876, 48.619693601782494
876.9999999999999, 48.891997808891766
878, 48.72115880208065
879, 48.99674169313165
880, 49.47949401637416
881, 49.46691134982906
882, 49.62529543341356
883, 49.754890076912346
884, 49.607168987040986
884.9999999999999, 50.13018549037712
886, 50.58472013327065
887, 50.61651011545037
888, 50.55602725578023
889, 50.01913490959482
890, 49.11949283082749
891, 48.773046542773336
892, 48.46109119416231
892.9999999999999, 48.372913691459
894, 49.03942774745219
895, 49.32085675152156
896, 49.35026783590434
897, 49.747350787168614
898, 49.76611156631022
899, 50.36083060277449
900, 49.91298106760504
900.9999999999999, 50.15504113031166
902, 50.79591348221123
903, 50.776384462368334
904, 51.04450693077615
905, 51.44845402691498
906, 51.823591028156045
907, 52.42876516795894
908, 52.16216893304172
909, 52.166491654775236
909.9999999999999, 52.75007837925024
911, 52.40927892423438
912, 52.747444767628814
913, 53.31137571652395
914, 53.587013103079975
915, 53.95049251481684
916, 53.98768848732666
917, 54.205209869944625
917.9999999999999, 54.39353152596275
919, 55.00524176694502
920, 55.17982165374597
921, 55.172405567128884
922, 55.60157683179412
923, 56.064352789027346
924, 56.30657443125502
925, 56.34934449765443
925.9999999999999, 56.45745208179483
927, 56.74776866558765
928, 56.791917525630154
929, 57.46138461175202
930, 58.10986233448145
931, 57.71037600051172
932, 58.335554779336064
933, 58.65643743380971
933.9999999999999, 59.007972766368354
935, 59.23217822929433
936, 59.67105659673697
937, 59.66271165450432
938, 60.54441588117758
939, 60.87560378776932
940, 60.6510463820156
941, 61.3656716835097
942, 61.48801616923925
942.9999999999999, 61.6315889962131
944, 61.66710076927453
945, 62.39483907448504
946, 62.33319120295854
947, 62.20709301291381
948, 62.0738655068992
949, 62.00630522858907
950, 62.38992350928135
950.9999999999999, 63.0282509762243
952, 63.12951749872276
953, 63.72600316480809
954, 64.07557747784091
955, 63.989306858954244
956, 64.67404556134363
957, 64.91861575127196
958, 65.45607051388684
958.9999999999999, 65.84992030171392
960, 65.88307862598997
961, 65.78008581995147
962, 65.83094256313791
963, 66.05580494673288
964, 66.15973160053217
965, 66.24326185006278
966, 67.02949674128529
966.9999999999999, 67.39540297655591
968, 67.16991101961216
969, 67.652519092789
970, 67.92342841479154
971, 67.9099860689118
972, 67.85343122755145
973, 68.141920687111
974, 69.40911422143206
975, 69.45911429117608
975.9999999999999, 69.68667833105232
977, 69.34767689204982
978, 69.3035534975831
979, 69.8722425471108
980, 70.0710792548438
981, 70.26463466273344
982, 70.55047368820753
983, 70.69263412236323
983.9999999999999, 70.73759116576302
985, 71.1247448672591
986, 71.7368819955806
987, 72.11576251174624
988, 72.05053440829803
989, 72.892775225831
990, 72.90151431080217
991, 72.78403858592793
991.9999999999999, 72.91010773133144
993, 72.8678526679553
994, 72.8773405134816
995, 73.09242288958387
996, 72.96875758533488
997, 73.15669083208891
998, 73.28512092044912
999, 73.43489059777075
999.9999999999999, 73.79369874113983
1001, 73.94402110607544
1002, 73.94598665363627
1003, 73.8566516681238
1004, 74.0565862082331
1005, 74.23309407234902
1006, 74.04228786172648
1007, 73.78624818702349
1008, 74.08498133749633
1008.9999999999999, 74.48819498581734
1010, 74.60087826124365
1011, 74.96265615658488
1012, 74.73363784644393
1013, 75.21415755012065
1014, 75.17121415216971
1015, 75.12722103037102
1016, 75.38375375656345
1016.9999999999999, 75.41521177835865
1018, 75.40932269935433
1019, 75.77779598130978
1020, 75.98876057347739
1021, 76.01533573144138
1022, 75.9933674503607
1023, 76.00152666002231
1024, 75.88845990171639
1025, 75.75069028120924
1026, 75.96148555675458
1027, 75.83033357933122
1028, 76.19034533016048
1029, 76.65560784995694
1030, 76.30957179038641
1031, 76.5902334617461
1032, 76.54528652675879
1033, 75.95632879028582
1034, 76.23532225970426
1035, 76.48400891120502
1036, 76.252337435752
1037, 76.24877611367751
1038, 76.6480403606864
1039, 76.35949929274702
1040, 76.41013300215363
1041, 76.1765650613768
1042, 76.07930552216203
1043, 75.63672390349782
1044, 75.97181553285861
1045, 75.79376542286222
1046, 76.84912653045258
1047, 76.58809868723618
1048, 75.93757169242409
1049, 75.49425188813778
1050, 75.41925184864289
1051, 75.56890100503567
1052, 75.92157644225782
1053, 76.24355989656434
1054, 76.32546530505095
1055, 76.27695488890198
1056, 75.9441642019017
1057, 75.57303966846014
1058, 75.89440462193019
1059, 76.02215084718675
1060, 76.04819466168465
1061, 76.34841346757008
1062, 76.47841321928281
1063, 75.40748375624422
1064, 75.36889256764287
1065, 75.18270827066061
1066, 74.61441362314655
1067, 74.21219356855947
1068, 74.41017997897653
1069, 74.52969886922756
1070, 74.59521991028608
1071, 75.05294069601008
1072, 75.00251900315199
1073, 75.1867245081679
1074, 75.05496136843942
1075, 74.68767395856541
1076, 74.44859945585151
1077, 74.45065597934128
1078, 74.06519579211758
1079, 74.57885541474735
1080, 74.58422601932908
1081, 74.53592561239302
1082, 74.1186068090371
1083, 74.21901473515341
1084, 74.24431548232022
1085, 74.25543483685975
1086, 74.33230859446952
1087, 74.6525124568815
1088, 74.39144095098638
1089, 74.01237947485453
1090, 74.02585791180364
1091, 74.4069848592856
1092, 73.71765155735658
1093, 73.36605860457917
1094, 74.3075172635687
1095, 73.1769660570614
1096, 73.02728580139217
1097, 72.99453180382164
1098, 73.01466877154863
1099, 73.32874023968229
1100, 73.17158590421421
1101, 72.84954884870602
1102, 72.85677382181018
1103, 72.92314114743667
1104, 72.95604003758098
1105, 72.8708816026917
1106, 72.48439870350184
1107, 72.62206653771155
1108, 72.53283172215522
1109, 72.33988707474822
1110, 72.73879936466327
1111, 72.9556100259066
1112, 72.95816444454367
1113, 73.21546218734575
1114, 72.93048330663676
1115, 72.64353744695295
1116, 72.4440544423576
1117, 72.11417359625582
1118, 71.96047539406
1119, 72.22993486125672
1120, 71.92132817986241
1121, 71.41733504297781
1122, 71.98007441197748
1123, 71.75695676148473
1124, 71.34334510204256
1125, 70.88865237429867
1126, 70.57495792900569
1127, 70.6384966653798
1128, 69.58081411738155
1129, 69.6815641638317
1130, 69.35209985816388
1131, 69.34632584447333
1132, 69.30501977691902
1133, 69.00099119361286
1134, 69.20913813330256
1135, 68.47968689664665
1136, 67.60276074953738
1137, 68.110389063007
1138, 67.62707872326797
1139, 67.92305104304182
1140, 67.72986528648198
1141, 67.5151406599799
1142, 67.88183614206878
1143, 67.57614018694518
1144, 67.3763319670199
1145, 66.59384614618895
1146, 65.83607777079955
1147, 66.60979429764834
1148, 66.69972081670178
1149, 66.37222116119791
1150, 65.95107377938936
1151, 65.35600247487595
1152, 65.36528551638851
1153, 65.36884239715216
1154, 65.19018996949146
1155, 65.34511786685798
1156, 64.69270488347034
1157, 65.18399818493356
1158, 65.38437094988821
1159, 64.8594291358506
1160, 64.55253738185472
1161, 64.3391808751131
1162, 64.33360507923138
1163, 64.93093744788935
1164, 64.28880668972987
1165, 63.05296934379325
1166, 64.15054946077072
1167, 62.68642571211208
1168, 62.76463379012322
1169, 62.72871200315642
1170, 62.87772967137567
1171, 62.05046190526716
1172, 61.965479772525626
1173, 62.12974748067652
1174, 62.17179030116466
1175, 61.83853909530352
1176, 61.540402411592886
1177, 61.390475932399575
1178, 61.38522471935153
1179, 61.2200840529347
1180, 61.063480367825086
1181, 60.95866173994284
1182, 60.70242122792327
1183, 60.29017613019757
1184, 59.40866359783482
1185, 59.27268296021315
1186, 58.89622462085568
1187, 58.330865116935094
1188, 57.883337473193684
1189, 57.2320969821129
1190, 57.331406222961334
1191, 57.88894064798324
1192, 58.43273719497756
1193, 57.951987614979544
1194, 58.606392273355524
1195, 58.71554035438954
1196, 57.6031429348743
1197, 58.48894542306261
1198, 58.29822746174501
1199, 57.28302539302785
1200, 56.943480812009085
1201, 56.50474738822868
1202, 55.87141838737256
1203, 55.35040155460946
1204, 55.14780493305843
1205, 55.25288356805819
1206, 55.59429381602073
1207, 54.93756480983214
1208, 55.231274048729304
1209, 55.65967865157911
1210, 55.01533295388432
1211, 54.45888190666821
1212, 55.177799568506046
1213, 54.83076439038317
1214, 55.06769153465499
1215, 54.79027496330605
1216, 54.72117637442962
1217, 54.499720731774985
1218, 54.04048708615031
1219, 53.882322482003616
1220, 53.03978652797748
1221, 52.9546413815677
1222, 52.54638034761967
1223, 52.236797385136285
1224, 52.307732565454685
1225, 52.36024653783277
1226, 52.334870815319455
1227, 52.2263993963619
1228, 52.05964735843793
1229, 51.98175605239666
1230, 52.37681683905226
1231, 51.92324354904536
1232, 50.57762484531962
1233, 51.49891845378235
1234, 50.562380894253785
1235, 50.91082331085265
1236, 50.060189887472134
1237, 50.37792704850228
1238, 49.1392039487255
1247, 48.61406857659221
1248, 49.51679412990637
1249, 49.32662293102363
1250, 49.039951056265565
1251, 48.72602526065725
1252, 48.392703264572454
1253, 48.65961586742465
1254, 48.07271083175242
1255, 47.70677312170235
1256, 48.25647359879049
1257, 47.78996566329161
1258, 48.246446243593525
1259, 49.223753516914456
1260, 49.10637086471895
1261, 48.72880038762807
1262, 48.41241367641399
1263, 48.721416844968
1264, 49.31919087570721
1265, 48.693743772186835
1266, 48.62289043118671
1267, 48.24327708666384
1268, 48.2168660265378
1269, 49.163232453810615
1270, 49.13427149467643
1271, 49.21674282843122
1272, 49.23006780271879
1273, 49.147033439246826
1274, 48.53422179443193
1275, 48.66327287387375
1276, 48.220290332287725
1277, 47.90423776136085
1278, 47.80183553024254
1279, 48.09139408634855
1280, 48.34731403022643
1281, 48.12496309565104
1282, 48.05717270693216
1283, 47.76089238105517
1284, 48.43728177921075
1285, 47.979321515350044
1286, 47.60668215886016
1287, 47.76037376132455
1288, 47.782085403029605
1289, 47.96426738251305
1290, 48.37354314194095
1291, 48.10409737575629
1292, 48.360384755205345
1293, 48.428318788503105
1294, 47.73298181337392
1295, 47.688894396457975
1296, 48.081311390683744
1297, 47.657016837718764
1298, 47.77150891299877
1299, 47.64865573158938
1300, 47.73875600062746
1301, 47.8840973885214
1302, 48.05248634116104
1303, 48.413509988633635
1304, 48.20520761100651
1305, 48.27707244794065
1306, 48.234026513493546
1307, 48.17235271373236
1308, 48.35460741739796
1309, 48.49623685297443
1310, 48.300840037565834
1311, 47.906158639375754
1312, 47.74939905343433
1313, 47.70357239910148
1314, 47.18507537203643
1315, 47.05138521083711
1316, 46.50769929639346
1317, 46.266672665995415
1317.9999999999998, 46.12803218290076
1319, 46.50980332250396
1320, 47.03564434445214
1321, 46.87485061520572
1322, 47.53032208672969
1323, 46.49900356118674
1324, 47.70898219119604
1325, 47.183961960225176
1326, 47.25016792837831
1326.9999999999998, 47.62363766847736
1328, 47.63510038949793
1329, 47.2618649461417
1330, 47.30028999301445
1331, 47.331707374055014
1332, 47.10292148934351
1333, 47.79018676281398
1333.9999999999998, 47.85842052675816
1335, 47.63327286476995
1336, 47.64321624695927
1337, 46.979590724089675
1338, 46.98839500667213
1339, 47.034925974701956
1340, 47.11949349616813
1341, 47.61972762696743
1342, 46.58636970445528
1342.9999999999998, 47.09319954160978
1344, 48.0021734539165
1345, 47.23226662199702
1346, 46.937571493957094
1347, 47.09955397097837
1348, 47.10871076179353
1349, 47.12883503165207
1350, 47.4729698955446
1351, 47.6156822993701
1352, 47.271767059887566
1353, 47.14074520725334
1354, 46.85154000533035
1355, 46.404829578073226
1356, 46.32064446151924
1357, 46.80732185728274
1358, 46.73427947990076
1358.9999999999998, 46.8747892262418
1360, 47.658287901218806
1361, 47.2818567653068
1362, 47.793414580800636
1363, 48.331385117779085
1364, 47.640669255132764
1365, 48.17282457110198
1366, 47.57593112103869
1367, 48.20505467911349
1367.9999999999998, 47.40119062193451
1369, 47.35482069102786
1370, 47.187294971170076
1371, 47.282242880957796
1372, 46.72501537770272
1373, 46.621180586859865
1374, 46.739636387965234
1375, 46.26860967176117
1376, 46.50162064053206
1377, 46.684366480371295
1378, 47.156957607800734
1379, 47.58180077198022
1380, 47.44736840033474
1381, 47.61700697406902
1382, 47.04500390348052
1383, 48.106028032696614
1383.9999999999998, 47.60908849248948
1385, 47.616474350198615
1386, 46.98209146912289
1387, 47.60058691496257
1388, 47.788837409395484
1389, 47.51303187037154
1390, 47.68520083439106
1391, 48.006918990976835
1392, 47.2478463980272
1392.9999999999998, 48.34961854084302
1394, 48.318082153523505
1395, 47.76908052122499
1396, 47.55452509719117
1397, 47.46970312900379
1398, 47.384703116748156
1399, 47.289088691429306
1399.9999999999998, 47.32133387977876
1238.9145381990502, 49.48784807501284
1238.9145381990502, 49.48784807501284
1241.1287396977636, 49.20358454043002
1244.4500419458332, 48.99038688949291
1238.9145381990502, 49.62997984230425
1218.9867247106306, 53.467537559172314
1165.8458887415118, 63.5588930368624
1163.6316872427985, 63.84315657144522
1170.2742917389382, 62.42183889853112
974.3174591028128, 68.81776842664456
725.2197904975683, 51.122363398864046
725.2197904975683, 51.122363398864046
725.2197904975683, 51.122363398864046
725.2197904975683, 50.980231631572636
