299, 69.21228223762427
300, 69.18257328180992
301, 69.24875022531353
302, 69.32315618504317
303, 69.39709148303227
304, 69.4618564413142
305, 69.50087559348339
306, 69.48444489983949
307, 69.48832307870703
308, 69.56071056296886
309, 69.64537592947033
310, 69.71933791781508
311, 69.7673609559455
312, 69.69874240823768
313, 69.66976738595979
314, 69.70505365098936
315, 69.7396427676103
316, 69.79477409539768
317, 69.86962850469888
318, 69.92371315674423
319, 70.02450478282269
320, 70.16165184587342
321, 70.16189503307879
322, 70.17196060508549
323, 70.2063969288006
324, 70.24839414661933
325, 70.29473480249348
326, 70.34220144037477
327, 70.38757660421497
328, 70.42764283796585
329, 70.45918268557918
330, 70.51152588146729
331, 70.58425720266685
332, 70.66840363810228
333, 70.75795047218256
334, 70.84688298931675
335, 70.92918647391384
336, 70.99884621038288
337, 71.03439589843697
338, 71.03985465731388
339, 71.04856232345375
340, 71.05925815133159
341, 71.1547376737271
342, 71.3500609220281
343, 71.52285696708253
344, 71.5946090335586
345, 71.67739025413842
346, 71.76837807800031
347, 71.85153759158263
348, 71.90629031570145
349, 71.89378783734645
350, 71.9037524538587
351, 72.03864949293113
352, 72.10273066175613
353, 72.16969376929082
354, 72.24161459693879
355, 72.10286121095001
356, 72.0723498300871
357, 72.19561075766423
358, 72.31252996175579
359, 72.37853794460473
360, 72.44418388781958
361, 72.50687074039406
362, 72.57495355128378
363, 72.65247254590865
364, 72.7196053842247
365, 72.66948287134835
366, 72.85192568868172
367, 73.09854444451022
368, 73.19128439655881
369, 73.26493301639283
370, 73.28665952410749
371, 73.28597108150299
372, 73.29142906730063
373, 73.48634965238337
374, 73.46737916191097
375, 73.40652031821037
376, 73.5179858239139
377, 73.66442196060615
378, 73.80687599835667
379, 73.82665083190696
380, 73.87898693412399
381, 74.01259942076061
382, 73.96246521010193
383, 73.98161688027724
384, 74.13451841365053
385, 74.38718409106511
386, 74.27233385352672
387, 74.28695749081231
388, 74.36997714467938
389, 74.47027789202654
390, 74.55063813804222
391, 74.68995319173217
392, 74.87266403108511
393, 75.05072767492837
394, 75.02213699035788
395, 75.00061759397151
396, 75.24450182419795
397, 75.35989134868238
398, 75.55189638357388
399, 75.55983469703393
400, 75.59221949625653
401, 75.7803545196417
402, 75.8348558004607
403, 75.86825151680755
404, 76.16717097969024
405, 76.09979859352434
406, 76.05635333872698
407, 76.12487434204019
408, 76.24929079252821
409, 76.37116241008798
410, 76.53933575523388
411, 76.79511826239428
412, 76.98381820675826
413, 77.12536502588853
414, 77.15020294951195
415, 77.27614801462661
416, 77.36113863256435
417, 77.45814906770201
418, 77.60697986201227
419, 77.66695123155037
420, 77.87269246308823
421, 78.04632231483637
422, 78.17151954113757
423, 78.30169587976691
424, 78.41174112686127
425, 78.33697145152243
426, 78.34246133303755
427, 78.67463625053911
428, 78.78658080062218
429, 79.03245018721144
430, 79.36768702074896
431, 79.46899479064244
432, 79.37728105959901
433, 79.70076146213071
434, 80.04984095243856
435, 80.10954479495325
436, 80.2910395593509
437, 80.3591606529092
438, 80.61141055298927
439, 80.97773972151175
440, 81.01793503567662
441, 81.11334049902666
442, 81.27635706338422
443, 81.68329205858487
444, 82.01850409122714
445, 82.31826004115995
446, 82.22539321010007
447, 82.25981712355515
448, 82.33051856252901
449, 82.69251546381966
450, 82.72703396303751
451, 82.81059256347775
452, 82.87911511547499
453, 83.09888650164591
454, 83.41234466630237
455, 83.76656015890231
456, 83.85837873369015
457, 83.93812255371381
458, 84.13439906799671
459, 84.48972376257674
460, 84.62443572949319
461, 84.69583316180754
462, 84.81963833982289
463, 84.91954236391764
464, 85.12293753408902
465, 85.28277861660773
466, 85.65129772293747
467, 85.90264140556202
468, 85.82276406929498
469, 85.82920093406315
470, 86.27884989782252
471, 86.57417075153029
472, 86.58253458455667
473, 86.60459548265679
474, 86.715601201496
475, 86.99844251484228
476, 87.16142958752364
477, 87.22614880556387
478, 87.36268409366441
479, 87.60158647894495
480, 87.86027298667048
481, 87.91587666692037
482, 87.97759951149717
483, 88.08283942475224
484, 88.24253774157839
485, 88.51537616843945
486, 88.5907373704034
487, 88.6726939600692
488, 88.92672828326988
489, 89.26820863497622
490, 89.42353516580407
491, 89.56184083890489
492, 89.55353937766611
493, 89.6062878931166
494, 89.75251310556733
495, 89.97386956105233
496, 89.97796674478623
497, 90.08572127874639
498, 90.17615481862994
499, 90.30501752030573
500, 90.47346038205168
501, 90.62428723695486
502, 90.71224089153074
503, 90.65351961188739
504, 90.65779629447255
505, 90.72018625011536
506, 90.76635563303851
507, 90.90575884330185
508, 90.91029494031811
509, 90.88303464397639
510, 90.90771450492429
511, 90.79051439901446
512, 90.6138668460945
513, 90.70106560753621
514, 90.8495560564932
515, 90.61668880913118
516, 90.218496335122
517, 90.0832442557171
518, 89.94236457713879
519, 89.9427579637295
520, 89.96494721507436
521, 89.92267673333339
522, 89.64532174137948
523, 89.43573517968554
524, 89.39138110532001
525, 89.02160505124952
526, 88.6601186011059
527, 88.58959021358784
528, 88.55893466949375
529, 88.05657734455365
530, 87.81058525410499
531, 87.56546526667488
532, 87.46363414389228
533, 87.48181430662424
534, 87.26088772348878
535, 86.82343330677193
536, 86.63413175386343
537, 86.54048873621333
538, 86.44747775421096
539, 86.25087973112035
540, 86.03287542218557
541, 85.91660907261571
542, 85.86088269885259
543, 85.77783466618196
544, 85.60788132530598
545, 85.29947638893957
546, 84.98988610774393
547, 84.83382692229824
548, 84.73146246145761
549, 84.48576287081497
550, 84.32553448095695
551, 84.46881224618977
552, 84.43164209828952
553, 84.1534845221122
554, 84.01332723098449
555, 83.94426729560077
556, 83.94758176648186
557, 83.91839094714187
558, 83.69749013901325
559, 83.58272683597913
560, 83.45056688409865
561, 83.3370074720132
562, 83.51037784432238
563, 83.4233042835809
564, 83.26097229857237
565, 83.38385064742444
566, 83.5523346903154
567, 83.71190570647528
568, 83.82219182710982
569, 83.66374955789871
570, 83.62697140150082
571, 83.66071197700907
572, 83.55668189501348
573, 83.39355513071041
574, 83.31557193509163
575, 83.26653282735252
576, 83.31154684767138
577, 83.39550844425574
578, 83.43664010838414
579, 83.43835489679302
580, 83.5999089063951
581, 83.73133108159833
582, 83.72695113909687
583, 83.63963268267531
584, 83.54221502542204
585, 83.49568432251309
586, 83.29049977248434
587, 83.1381104424917
588, 83.11566681735651
589, 83.0590853767129
590, 82.62295074979636
591, 82.48686688458193
592, 82.56197510600252
593, 82.44908796685782
594, 82.27516458248091
595, 82.10364529753573
596, 81.99050218245438
597, 81.84390788323655
598, 81.9177462147543
599, 81.88890765346699
600, 81.57306194287699
601, 81.30591257079453
602, 81.34275328257102
603, 81.30972518128902
604, 81.04365023442017
605, 80.64406408019664
606, 80.34798985474359
607, 80.3249979721616
608, 80.2953454098681
609, 80.07707232289849
610, 79.82727102494358
611, 79.42726798556178
612, 79.4297767230321
613, 79.42535443800912
614, 78.67036626880547
615, 78.29746595666401
616, 78.1865237250442
617, 78.06830669195683
618, 77.8782560153794
619, 77.7340390680773
620, 77.5005461114624
621, 77.443681367332
622, 77.52272380660649
623, 77.43032801525743
624, 77.36743812203004
625, 77.28230231381698
626, 77.19121993677906
627, 77.11049033707715
628, 77.01955858340965
629, 76.80372807232989
630, 76.76966171291019
631, 76.60338779082161
632, 76.19226884416742
633, 76.06386845792422
634, 76.15263227677266
635, 76.01382946596564
636, 75.77028295469937
637, 75.75947525058842
638, 75.7693898329974
639, 75.77638095076703
640, 75.76657126355948
641, 75.65854281088694
642, 75.50997094293517
643, 75.35865479325375
644, 75.46367955292799
645, 75.36962762007562
646, 75.09795140530468
647, 74.9555133140585
648, 74.94875670175112
649, 74.83812296035721
650, 74.98808167256493
651, 75.25711895684826
652, 74.99936534979747
653, 74.87815055378643
654, 74.72283489932636
655, 74.45127106723709
656, 74.38066455287155
657, 74.47439697644943
658, 74.54063579453296
659, 74.33890380754646
660, 74.13437716477164
661, 74.13115107878352
662, 74.2084805064581
663, 74.20492321719826
664, 74.1938611089714
665, 74.13449871122816
666, 74.14575124036311
667, 74.12647468867831
668, 74.09062871269428
669, 74.02032863881853
670, 73.70634898861312
671, 73.89352522380446
672, 73.73330569101734
673, 73.33075484737596
674, 73.3445504442627
675, 73.50489462435846
676, 73.28663380670504
677, 73.23075437326833
678, 73.40244332548681
679, 73.56995039361924
680, 73.51057635096018
681, 73.65322861886493
682, 73.67058387170148
683, 73.46398659034382
684, 73.47185426155393
685, 73.50520775671133
686, 73.50982755147704
687, 73.43728905384741
688, 73.37752244201481
689, 73.40569822477546
690, 73.55062676357554
691, 73.51941208633028
692, 73.37341388583317
693, 73.24187171037167
694, 73.37883567355115
695, 73.58039060869312
696, 73.46029778341166
697, 73.64523442033139
698, 73.64227706807455
699, 73.64593989940626
700, 73.64271311916175
701, 73.6427201551419
702, 73.50913582735762
703, 73.36544570919368
704, 73.41350026056271
705, 73.45625217568896
706, 73.3698151131145
707, 73.21677406014881
708, 73.20882735196699
709, 73.1976198183884
710, 73.16627956942465
711, 73.17655815459675
712, 73.19071107173222
713, 73.20573267998128
714, 73.21907848713705
715, 73.22471872677342
716, 73.22131616042505
717, 73.20511103472296
718, 73.19494819301559
719, 72.96019668916011
720, 72.87400327098133
721, 73.12233894638392
722, 73.26155282689668
723, 73.12087243895745
724, 72.70966484234668
725, 72.74885842968787
726, 72.82075707076483
727, 72.8668117465113
728, 72.92924949052936
729, 72.95472017843383
730, 72.9793056111311
731, 73.1464281996236
732, 73.31513450330775
733, 73.25260449798945
734, 73.18514358986633
735, 73.08855929656103
736, 72.99949251697163
737, 73.08256986202942
738, 73.21795476992645
739, 73.12455508766892
740, 72.9579425297644
741, 72.98656424780076
742, 73.01200992596348
743, 73.08965502172244
744, 73.12432402604058
745, 73.27510388753839
746, 73.50101822650579
747, 73.4256899673997
748, 73.33858052513428
749, 73.25179385202921
750, 73.0535840453222
751, 73.1723863078618
752, 73.15801250904204
753, 73.04933337206761
754, 72.71543508914561
755, 72.739198687452
756, 72.75230408481083
757, 72.70205384585276
758, 72.70449548660882
759, 72.8741111143482
760, 72.66372524368792
761, 72.80243367522156
762, 73.22015766393919
763, 73.14802934338064
764, 73.00004154788806
765, 73.25620610464735
766, 73.60726714021482
767, 73.48990349946642
768, 73.29093423994799
769, 73.36089641582689
770, 73.38190802678129
771, 73.45833744217892
772, 73.62651105041164
773, 73.79038040060423
774, 73.5818334844651
775, 73.56002087222402
776, 73.83253413995804
777, 73.71081008096627
778, 73.73155754521761
779, 73.7918298128893
780, 73.71782914770114
781, 73.62216931034997
782, 73.43021610782564
783, 73.55927594614819
784, 73.70457126241924
785, 73.77316330860296
786, 73.84302635910613
787, 73.86727812068025
788, 73.75703902883285
789, 73.57866972249244
790, 73.38007869704363
791, 73.3782200740938
792, 73.42070907649646
793, 73.4570271758405
793.9999999999999, 73.51752399367759
795, 73.61514339558951
796, 73.69995162794093
797, 73.55109442314016
798, 73.32818109976598
799, 73.17690723264145
800, 73.3802395950117
801, 73.56379508375149
801.9999999999999, 73.5242156784052
803, 73.40481228412501
804, 73.33605910781223
805, 73.46621095101708
806, 73.52513458429243
807, 73.52654838329279
808, 73.47757313029223
809, 73.3892424848374
810, 73.43526015504405
811, 73.53347166043041
812, 73.61533637311705
813, 73.23080273959162
814, 72.8810894978916
815, 72.59167223517329
816, 72.580783290673
817, 72.56982060902786
818, 72.18890429315385
818.9999999999999, 72.11807108696986
820, 72.33078057585149
821, 72.35687050149255
822, 72.38153191927819
823, 72.24770700586797
824, 71.97866804325407
825, 71.74410537607532
826, 71.78668643843274
826.9999999999999, 71.76202044436742
828, 71.70881445481642
829, 71.3662884349075
830, 70.98348901899136
831, 71.01623726187466
832, 71.02924066680383
833, 70.87924819798747
834, 70.79021826061505
834.9999999999999, 70.53784359901496
836, 70.33230936566584
837, 70.29981251813399
838, 70.26006686440087
839, 70.2263923169484
840, 70.20282542401904
841, 70.16374518622499
842, 70.54366715245476
843, 70.69027088345199
843.9999999999999, 70.50455542847585
845, 70.4441165074411
846, 70.75752001502578
847, 70.5538559858818
848, 70.1281901206615
849, 70.0920167549152
850, 70.05099753904452
851, 69.62931628149731
851.9999999999999, 69.50832459048695
853, 69.60875425052787
854, 69.50790552042453
855, 69.35779068625222
856, 69.1347914545965
857, 68.93584057835801
858, 69.14503132632402
859, 68.98035818637304
859.9999999999999, 69.05403136824339
861, 69.06298664517867
862, 68.98780268900197
863, 68.78729952803437
864, 68.84963224589916
865, 69.12613958206558
866, 68.96364882084582
867, 68.89292101995582
867.9999999999999, 68.96233165583631
869, 69.03319955641277
870, 69.25432595941233
871, 69.33632452147093
872, 69.20266399455289
873, 69.17173481834492
874, 69.3001114040586
875, 69.43634718401964
876, 69.725337501103
876.9999999999999, 69.98735622215385
878, 70.19220107479435
879, 70.17967946375515
880, 70.22594975997004
881, 70.40997938615153
882, 70.43207179817531
883, 70.51350617727674
884, 70.75781017816911
884.9999999999999, 71.00338175300345
886, 70.89131214352203
887, 71.122564779514
888, 71.36625598567176
889, 71.22791881801759
890, 71.41646824311735
891, 71.36605310662857
892, 71.11685415217107
892.9999999999999, 71.53606327918634
894, 71.92084680636518
895, 72.28366633281792
896, 72.43797492537608
897, 72.79884597894217
898, 72.94310004565806
899, 73.2007388890399
900, 73.6279028608091
900.9999999999999, 73.89288226341286
902, 73.72150522952023
903, 74.25908715474839
904, 74.63579455374995
905, 74.81256533369856
906, 74.82368887200795
907, 74.69832705454644
908, 74.91215916554854
909, 75.25588058312951
909.9999999999999, 75.55859383202062
911, 75.76424497632527
912, 76.03148622888861
913, 76.5169602488005
914, 76.67333166765825
915, 76.75392233993715
916, 77.13481363538654
917, 77.77976862661743
917.9999999999999, 78.36243862754287
919, 78.29307817687877
920, 78.67706222904522
921, 79.0120594271564
922, 79.08337518440082
923, 79.47986519057847
924, 79.74545273674505
925, 80.02659112135157
925.9999999999999, 80.14945097101294
927, 80.27155391496493
928, 80.54012488570346
929, 80.88757324631231
930, 81.2501541535868
931, 81.3551729143605
932, 81.59447294273284
933, 81.73727893483722
933.9999999999999, 81.99455661182341
935, 82.23510747862873
936, 82.1037262771301
937, 82.4425884465993
938, 82.7935694475475
939, 83.05568266532073
940, 83.35356537724246
941, 83.32466580583097
942, 83.48383062170466
942.9999999999999, 84.13308828324533
944, 84.40454598278467
945, 84.41314673223106
946, 84.65970763849087
947, 85.05242867822419
948, 85.2823326153302
949, 85.48214963895684
950, 85.79783078120117
950.9999999999999, 85.75315034425958
952, 86.01405082084828
953, 86.43554933210976
954, 86.82679658172223
955, 86.97725855473578
956, 86.98757021484238
957, 87.18666650938194
958, 87.40208682552529
958.9999999999999, 88.09768541404155
960, 88.25205931824185
961, 88.35919433465749
962, 88.39549483472872
963, 88.55412535851588
964, 88.71813032854605
965, 89.06576506144452
966, 89.61297889011605
966.9999999999999, 89.8089052054669
968, 90.04838482194926
969, 90.43761764174701
970, 90.79034996460543
971, 90.95345898556361
972, 91.18070709325295
973, 91.47973296233967
974, 91.70394571846299
975, 91.8727037583063
975.9999999999999, 92.0279716167262
977, 92.24584863389309
978, 92.77082753895735
979, 93.11031637469294
980, 93.29469983439417
981, 93.40587703617632
982, 93.55380711580997
983, 93.94654446945496
983.9999999999999, 94.24097745961221
985, 94.58851995097302
986, 94.84551403885249
987, 94.98064978180008
988, 95.35912713688577
989, 95.31507185932718
990, 95.46449433786502
991, 95.92099283103694
991.9999999999999, 96.15994159635224
993, 96.32062091445552
994, 96.32681479960131
995, 96.27993850815099
996, 96.12229544981878
997, 96.302183070006
998, 96.52873288649111
999, 97.0285185711405
999.9999999999999, 97.40933898736819
1001, 97.0715517068507
1002, 97.60293389652026
1005, 97.63102318418176
1006, 97.33455614899694
1007, 97.20835951031962
1008, 97.31186827052824
1008.9999999999999, 97.59893584045834
1010, 98.19541732687611
1011, 98.5496429351728
1012, 98.51088099544724
1013, 98.58635099204974
1014, 99.0507280617953
1015, 99.16921227863958
1016, 99.25415207195388
1016.9999999999999, 99.35440655420406
1018, 99.26642070653779
1019, 99.1660521413963
1020, 99.13111845502738
1021, 99.26813409202114
1022, 99.27989530323072
1023, 99.29307679345673
1024, 99.3600684410846
1025, 99.61802736882679
1026, 99.43632825972993
1027, 99.24796966792822
1028, 99.29704865863137
1029, 99.21546851852982
1030, 99.39925099792306
1031, 99.47096749958769
1032, 99.23421013469822
1033, 99.27768901067707
1034, 99.36336115387033
1035, 99.28729237086517
1036, 99.16974120035592
1037, 99.29972530948375
1038, 99.10421001694321
1039, 99.18985035498146
1040, 99.15912385814242
1041, 99.20417450438805
1042, 99.3687176724548
1043, 99.5523993137043
1047, 99.29270089293976
1048, 99.06287570836565
1049, 98.80257156882986
1050, 98.89496586967425
1051, 99.0521531376408
1052, 99.13233603765512
1053, 98.98954857031478
1054, 98.52333931389839
1055, 98.45939950715461
1056, 98.44698718015776
1057, 98.16182200452305
1058, 98.14492447354145
1059, 98.45343093099187
1060, 98.48744786670919
1061, 98.08336061596813
1062, 97.71628117490887
1063, 97.37977260995619
1064, 97.60895517212252
1065, 97.44498403386476
1066, 97.05014895191762
1067, 97.05936542111908
1068, 97.16579477812179
1069, 97.24861222195153
1070, 96.96080407728404
1071, 96.84522486923369
1072, 96.67775249469561
1073, 97.08271954276685
1074, 97.0317256141452
1075, 96.88862050488649
1076, 96.39424460406472
1077, 96.38058100445843
1078, 96.32919428157103
1079, 96.18881467328914
1080, 95.8158998485203
1081, 95.30944682693085
1082, 94.95684538432779
1083, 95.13295375639447
1084, 95.40297887384628
1085, 95.51130058263108
1086, 95.61629478061958
1087, 95.39023172470557
1088, 95.05077363046033
1089, 95.23259682057405
1090, 95.29383083536722
1091, 95.13477383181797
1092, 95.14616301539262
1093, 94.92549874212915
1094, 94.42636073473744
1095, 94.22211686341271
1096, 94.03776343469993
1097, 93.57953385493401
1098, 93.70763743956147
1099, 94.00051258784382
1100, 94.18333966863656
1101, 94.13520039810949
1102, 93.78805151809506
1103, 93.74493204503949
1104, 93.7086139112663
1105, 93.38508608909179
1106, 93.13446027194739
1107, 92.95037049783726
1108, 92.73425121157308
1109, 92.77069624953883
1110, 92.80438330231073
1111, 92.60009697831246
1112, 92.45261933736187
1113, 92.51515213262653
1114, 92.66580810998856
1115, 92.76035522884739
1116, 92.5629674675176
1117, 92.36678908913248
1118, 92.13006275387283
1119, 91.94508343614608
1120, 91.83351921818817
1121, 91.6227650771688
1122, 91.52520705149351
1123, 91.19984902564303
1124, 90.94814193992387
1125, 90.81949768104417
1126, 90.72538350583463
1127, 90.60771514738902
1128, 90.31125143201648
1129, 90.21126571981311
1130, 90.00595578516685
1131, 89.55778098950539
1132, 88.97598473766426
1133, 88.77422313620306
1134, 88.98051402754614
1135, 88.87972770428847
1136, 88.59523055694348
1137, 88.37225348921024
1138, 88.01755824469002
1139, 87.84932123762015
1140, 88.13636379933178
1141, 88.05563394776394
1142, 87.58594803918515
1143, 87.43848916221425
1144, 87.40752239323821
1145, 87.40122985868935
1146, 87.1280333264772
1147, 86.46070873233946
1148, 86.31774118921916
1149, 86.14118456829048
1150, 85.96603103887072
1151, 85.79574439185303
1152, 86.03958161543491
1153, 85.78785103848031
1154, 85.2904561066905
1155, 85.02988681724237
1156, 85.00798926271361
1157, 85.16726344229991
1158, 84.99799873381248
1159, 85.1130489074267
1160, 85.14029477895072
1161, 84.80692477861386
1162, 84.28659826177446
1163, 83.91792840434766
1164, 84.02372954494754
1165, 83.98823002075486
1166, 83.87464724870478
1167, 83.5578250023102
1168, 83.33535347355792
1169, 83.27649220234056
1170, 83.06798379851999
1171, 82.93622483936936
1172, 82.72773340586934
1173, 82.3097356558576
1174, 82.09706989268452
1175, 82.26411426335333
1176, 82.15297571154592
1177, 81.73091894967884
1178, 81.55360472514633
1179, 81.60019693064045
1180, 81.17448840204875
1181, 80.7336578675528
1182, 80.69449745927018
1183, 80.548232639247
1184, 80.19472200541645
1185, 79.514385974021
1186, 79.22609021162855
1187, 79.44447838712871
1188, 78.95798458688918
1189, 78.33665502859668
1190, 78.16321737159618
1191, 78.1648964642054
1192, 78.49100554840031
1193, 78.71164746286351
1194, 78.74076314737943
1195, 78.78770382148831
1196, 78.37196114690217
1197, 78.12394161688329
1198, 77.98781141331547
1199, 77.59080108671697
1200, 77.16951660234906
1201, 77.00232055270048
1202, 77.0483047829432
1203, 76.94577981838457
1204, 76.77075405014045
1205, 76.42020211874285
1206, 76.09096161676302
1207, 76.00063613749455
1208, 75.87468637754652
1209, 75.77084938508192
1210, 75.65735745813768
1211, 75.37589856770914
1212, 75.35758145764218
1213, 75.29809367700277
1214, 74.93568251091384
1215, 74.54008871620285
1216, 74.62615469225004
1217, 74.63599468404898
1218, 74.37962856206444
1219, 74.48921359371418
1220, 74.48036681921084
1221, 74.49772491489475
1222, 74.26151817018102
1223, 74.04080098318414
1224, 73.81016911481088
1225, 73.55530544229642
1226, 73.36436386542563
1227, 72.99122018270296
1228, 72.80432635128385
1229, 72.90174084047517
1230, 72.69278110056531
1231, 72.29855261264635
1232, 72.02116301897347
1233, 71.95216199286179
1234, 71.85697459116977
1235, 71.67003854558813
1236, 71.58531364814941
1237, 71.48631718452629
1238, 71.08688632550889
1239, 70.54621265967697
1240, 70.22867270750815
1241, 70.18979332790525
1242, 69.92513690550882
1243, 69.52788371746252
1244, 69.30541122051234
1245, 69.15669100166005
1246, 69.46130259384624
1247, 70.13671941989325
1248, 70.54743105457175
1249, 70.72561986425096
1250, 70.63237008472204
1251, 70.45574765794764
1252, 70.27324757801968
1253, 70.00951220019105
1254, 69.86206963560714
1255, 69.73212006313267
1256, 69.5886462079488
1257, 69.59177443301422
1258, 69.61031582530228
1259, 69.6866378527996
1260, 69.85466274775402
1261, 69.7849379737643
1262, 69.70321384722041
1263, 69.69554474853521
1264, 69.74122783475146
1265, 69.39035957541513
1266, 69.62573554514702
1267, 69.67635882081235
1268, 69.62328659335658
1269, 69.98331856634535
1270, 69.92929280805596
1271, 69.91889378186828
1272, 69.91141948208471
1273, 69.91510488000368
1274, 69.41118793417589
1275, 69.27086957378317
1276, 69.08033656414425
1277, 68.63683233568231
1278, 68.39608272554936
1279, 68.42563597292217
1280, 69.20184881579378
1281, 69.766382919431
1282, 69.44532156507218
1283, 69.55990584381173
1284, 69.63855643757913
1285, 69.42024565158246
1286, 69.0334214293763
1287, 69.19392261551847
1288, 69.5048790695017
1289, 69.78053340114997
1290, 70.14741023117082
1291, 70.15812469708123
1292, 70.07712614096485
1293, 70.26127277513935
1294, 70.45796494650983
1295, 70.43541686831138
1296, 70.4680130532748
1297, 70.61753745385136
1298, 70.62127667185386
1299, 70.5174000661815
1300, 70.41033945973953
1301, 70.27662409987387
1302, 70.18961696206303
1303, 70.0297028261093
1304, 69.78186174380545
1305, 69.5211754665959
1306, 69.63994955078276
1307, 70.11726368004139
1308, 70.15197924974862
1309, 69.99356479836695
1310, 70.02959181506432
1311, 69.86293677067022
1312, 69.48585197814865
1313, 69.4352057401512
1314, 69.24617940813903
1315, 68.69767634795744
1316, 68.7134624575069
1317, 68.91519499649532
1317.9999999999998, 68.43486764917391
1319, 68.4606179275828
1320, 68.63654874368353
1321, 68.68336800471918
1322, 68.47000238985868
1323, 68.4728880199514
1324, 68.81913877129293
1325, 69.2417884426846
1326, 69.40577779715684
1326.9999999999998, 69.3118623262211
1328, 69.47768373551193
1329, 69.39390803326194
1330, 69.6529138402822
1331, 69.89617828709001
1332, 69.79878298352232
1333, 69.29309618011165
1333.9999999999998, 68.6858771410868
1335, 68.86772195784353
1336, 68.93686451097007
1337, 68.70360765096068
1338, 68.62852010386565
1339, 69.02069488235614
1340, 69.35469753975664
1341, 69.30824036843916
1342, 69.23233806179722
1342.9999999999998, 69.0219910354678
1344, 68.78652848125823
1345, 69.0265047409619
1346, 69.27486784999385
1347, 69.08400201229495
1348, 68.98725355621875
1349, 68.70720353308005
1350, 68.68223216631142
1351, 68.79362325662018
1352, 68.87370598923889
1353, 69.1701292440221
1354, 69.22776720682133
1355, 68.96898964315537
1356, 68.82786351910435
1357, 68.24016910546334
1358, 67.71010143156991
1358.9999999999998, 68.1285422280562
1360, 68.52897816183756
1361, 68.66200999671418
1362, 68.8965799544616
1363, 69.0434678926109
1364, 69.19992085252122
1365, 69.33378602246299
1366, 69.34260770307829
1367, 69.24438278255171
1367.9999999999998, 68.85282791784067
1369, 68.64167549746843
1370, 68.97681136116174
1371, 68.89983703475892
1372, 68.55367553833709
1373, 68.38613619054038
1374, 68.53461093851516
1375, 68.7838930868433
1376, 68.99095351650888
1377, 69.12209736164688
1378, 69.28162893338681
1379, 69.28807796661883
1380, 69.24409866468042
1381, 69.21855834474157
1382, 68.916216898449
1383, 69.11401162311701
1383.9999999999998, 69.4495205579549
1385, 69.51756377117566
1386, 69.50771063481666
1387, 69.24540585889432
1388, 69.09708984889227
1389, 68.95799226518758
1390, 69.21407535049252
1391, 69.1771977424934
1392, 69.20762970179385
1392.9999999999998, 69.6728206076425
1394, 69.60086849570469
1395, 69.36951974966631
1396, 68.94074398909643
1397, 68.71976762874505
1398, 68.86348347107389
1399, 69.278131280436
1399.9999999999998, 69.47271012977379
