299.5, 29.929979809639093
300, 30.002671528869286
300.5, 30.093777833552267
301, 30.104721768266074
301.5, 30.137080180281572
302, 30.193433272664862
302.5, 30.239513650114333
303, 30.29085150012176
303.5, 30.36243723180864
304, 30.413059142150587
304.5, 30.423198013013575
305, 30.453105327001794
305.5, 30.52379516082246
306, 30.572765955823783
306.5, 30.58347434433118
307, 30.60159185122494
307.5, 30.637227939009207
308, 30.669273883668467
308.5, 30.70105533643735
309, 30.747507946987994
309.5, 30.79619345951774
310, 30.829502601900288
310.5, 30.861317255852512
311, 30.907310148364942
311.5, 30.95879916735285
312, 31.007099920457506
312.5, 31.054491167376028
313, 31.10277146037228
313.5, 31.15069308587465
314, 31.19859375099395
314.5, 31.248538818261792
315, 31.296822190766548
315.5, 31.335763200787284
316, 31.365230093565913
316.5, 31.390913496025178
317, 31.42780031903935
317.5, 31.48815296544619
318, 31.55562872576799
318.5, 31.610352888383517
319, 31.64588063244848
319.5, 31.671405069323953
320, 31.72311233162165
320.5, 31.807344686232653
321, 31.881892320682965
321.5, 31.927846988200443
322, 31.956000649445656
322.5, 31.987677379755723
323, 32.046486293650275
323.5, 32.11305401487947
324, 32.15274159132662
324.5, 32.18026761376859
325, 32.222346194747715
325.5, 32.27756624832456
326, 32.33952882861813
326.5, 32.40839771351378
327, 32.477527903597164
327.5, 32.52478186953941
328, 32.541090203083485
328.5, 32.53916555768501
329, 32.55210368053338
329.5, 32.62617466112938
330, 32.73092621541312
330.5, 32.78991919773722
331, 32.809637609474265
331.5, 32.83361619069514
332, 32.8721820276096
332.5, 32.92600829483692
333, 33.00457252631574
333.5, 33.10573181333663
334, 33.19079364552664
334.5, 33.23966318381264
335, 33.278028874039734
335.5, 33.32530688326287
336, 33.385430927715305
336.5, 33.451260254109826
337, 33.50734059260378
337.5, 33.55304218839757
338, 33.597672520279716
338.5, 33.64768516549893
339, 33.7071713712231
339.5, 33.77540214467072
340, 33.846252011628394
340.5, 33.899805136577044
341, 33.92913810382086
341.5, 33.96757781559549
342, 34.03226046508007
342.5, 34.10127442351764
343, 34.16439204106031
343.5, 34.23032698688753
344, 34.29541065201312
344.5, 34.34592691488996
345, 34.39274169281657
345.5, 34.4572992099322
346, 34.520699469673616
346.5, 34.55948508131627
347, 34.61926848581605
347.5, 34.73590355754963
348, 34.83809218694998
348.5, 34.874123808217846
349, 34.89211007241592
349.5, 34.92523497098061
350, 34.95885986897082
350.5, 35.00229418527792
351, 35.09494650391815
351.5, 35.21474452936894
352, 35.292630295751536
352.5, 35.32981673182043
353, 35.367419217245555
353.5, 35.422265076874794
354, 35.4936931288928
354.5, 35.54856199980286
355, 35.56995580827282
355.5, 35.623200288903575
356, 35.74031981563434
356.5, 35.84371641401498
357, 35.891376504303025
357.5, 35.91950499331395
358, 35.951657092908675
358.5, 35.98984765280933
359, 36.03929690951239
359.5, 36.10767465178273
360, 36.19253456330394
360.5, 36.283425647524346
361, 36.35562420035216
361.5, 36.39053685212193
362, 36.42146226273928
362.5, 36.48061547660189
363, 36.55409614449677
363.5, 36.62242371300747
364, 36.67289619140783
364.5, 36.71528141538129
365, 36.78951895855433
365.5, 36.89173906531405
366, 36.97262488641764
366.5, 37.031604916944204
367, 37.102921593826785
367.5, 37.18703189841546
368, 37.268459302894755
368.5, 37.348032629184665
369, 37.430054988429966
369.5, 37.507680139636534
370, 37.58083680076009
370.5, 37.67643671333629
371, 37.79653050696479
371.5, 37.885964778379574
372, 37.92968861760232
372.5, 37.97641592150785
373, 38.043534151500594
373.5, 38.1131339788866
374, 38.176054586395125
374.5, 38.232545049462665
375, 38.300515703075064
375.5, 38.39779007120816
376, 38.4915286583992
376.5, 38.546475432129796
377, 38.58698064700619
377.5, 38.636919891026054
378, 38.681042576344474
378.5, 38.720784860498085
379, 38.799245593090944
379.5, 38.91779315422015
380, 39.01863938818565
380.5, 39.07822491347802
381, 39.110125120991235
381.5, 39.14133078928641
382, 39.20276894302255
382.5, 39.292625551746994
383, 39.39313890802943
383.5, 39.48493216726239
384, 39.55448912318181
384.5, 39.611297194871824
385, 39.67040297604931
385.5, 39.747593686442464
386, 39.84509297804008
386.5, 39.94180972627491
387, 40.0353003152764
387.5, 40.147253909300595
388, 40.26291570181522
388.5, 40.33941430365365
389, 40.39840673012683
389.5, 40.49192948281172
390, 40.58867231450248
390.5, 40.63888228274105
391, 40.688058030545534
391.5, 40.783556072256765
392, 40.878907648815634
392.5, 40.940380985839475
393, 41.01006109602472
393.5, 41.108646024273675
394, 41.20482972737696
394.5, 41.29686984303052
395, 41.42010109096792
395.5, 41.55344279117536
396, 41.633501447719645
396.5, 41.66970127152046
397, 41.71268200741729
397.5, 41.79064315073014
398, 41.912874615572825
398.5, 42.045826431156804
399, 42.15322779233033
399.5, 42.22974670306687
400, 42.28828490255483
400.5, 42.367914211517785
401, 42.482060819874185
401.5, 42.59925765969334
402, 42.69593859945391
402.5, 42.763570311642646
403, 42.82479170217412
403.5, 42.92092003667715
404, 43.03990940700159
404.5, 43.1449113076683
405, 43.23557946190333
405.5, 43.326004098884674
406, 43.42961362903651
406.5, 43.54794022078426
407, 43.647838431588106
407.5, 43.7207171355337
408, 43.820953725760766
408.5, 43.946184993152535
409, 44.003759542262706
409.5, 44.00583822240787
410, 44.0741070092134
410.5, 44.21873995583075
411, 44.36689043118529
411.5, 44.48664066253151
412, 44.57345077567757
412.5, 44.649769238078306
413, 44.74090685138691
413.5, 44.84321256653285
414, 44.950973966794265
414.5, 45.073339774439255
415, 45.215630897611426
415.5, 45.37069910919838
416, 45.531498184227004
416.5, 45.69263684672002
417, 45.838019782471406
417.5, 45.942124910188795
418, 45.99641633132432
418.5, 46.01323622131779
419, 46.077120607543904
419.5, 46.269825526312
420, 46.45484277082874
420.5, 46.488050150184556
421, 46.487930597907095
421.5, 46.57294194360496
422, 46.69682261627637
422.5, 46.81119742809148
423, 46.913319131032154
423.5, 47.020679707304154
424, 47.16809525630248
424.5, 47.335306892453445
425, 47.456009073704934
425.5, 47.54354008665434
426, 47.65747919841027
426.5, 47.793109970780165
427, 47.921747835937715
427.5, 48.05063900898145
428, 48.19287737716002
428.5, 48.340122966335656
429, 48.48423616836529
429.5, 48.62934751408119
430, 48.775557698768026
430.5, 48.913367285867174
431, 49.053464076723486
431.5, 49.229973812228494
432, 49.428482651823316
432.5, 49.593905220725524
433, 49.71034210792606
433.5, 49.793108260335224
434, 49.89857674058285
434.5, 50.07927459017617
435, 50.27989892262985
435.5, 50.43581927385406
436, 50.56239671889932
436.5, 50.67944633740351
437, 50.77850048749801
437.5, 50.86826835208645
438, 50.99091042862399
438.5, 51.155300257561336
439, 51.32855975720664
439.5, 51.48770089249923
440, 51.62086986185384
440.5, 51.7257909074559
441, 51.81045220757171
441.5, 51.91538863784066
442, 52.071049969433105
442.5, 52.1988639273023
443, 52.24101897469249
443.5, 52.30365209885656
444, 52.45995305713027
444.5, 52.641578910270155
445, 52.80155994795232
445.5, 52.95404518619814
446, 53.10016002354801
446.5, 53.22366813990419
447, 53.35002365098628
447.5, 53.529495432854745
448, 53.72779974713235
448.5, 53.879066128300096
449, 54.020891546925306
449.5, 54.20509731558022
450, 54.368674611117065
450.5, 54.461968238652254
451, 54.56601752410004
451.5, 54.72972971410962
452, 54.88741318545191
452.5, 55.00000774153335
453, 55.08795959332798
453.5, 55.18160058700572
454, 55.31409188355727
454.5, 55.48194590491972
455, 55.65318232280844
455.5, 55.78579745721225
456, 55.84994564575604
456.5, 55.91766944819726
457, 56.065764772162204
457.5, 56.238219967183916
458, 56.36690658305631
458.5, 56.443469775318206
459, 56.49550417694264
459.5, 56.59878424013344
460, 56.76682495724993
460.5, 56.92275946812953
461, 57.04554342212973
461.5, 57.172428407732546
462, 57.30228101811908
462.5, 57.4072030907862
463, 57.475430701842264
463.5, 57.512326916359214
464, 57.57237782639818
464.5, 57.70344278056121
465, 57.863918313676685
465.5, 58.003522639618524
466, 58.10471341419264
466.5, 58.16929278650677
467, 58.22504632656523
467.5, 58.31333093671296
468, 58.4845651908639
468.5, 58.68969822363504
469, 58.800126284339086
469.5, 58.84733653173876
470, 58.95022449281945
470.5, 59.0661804196574
471, 59.10246224172061
471.5, 59.10357631973926
472, 59.14386913544645
472.5, 59.24479325399693
473, 59.401477575028345
473.5, 59.57336261220957
474, 59.71455224370932
474.5, 59.78091951978676
475, 59.78759320517841
475.5, 59.81905607866354
476, 59.90704186907829
476.5, 60.03362715357029
477, 60.18395334742137
477.5, 60.34346232368408
478, 60.47825132443369
478.5, 60.55766938182079
479, 60.608596479493414
479.5, 60.667025762198655
480, 60.740917383032865
480.5, 60.83236194765341
481, 60.94313842479316
481.5, 61.06082080466094
482, 61.15071032044017
482.5, 61.19740360958755
483, 61.210571693426694
483.5, 61.20729799591613
484, 61.208978151870554
484.5, 61.23009955530047
485, 61.27662582233307
485.5, 61.32497052718289
486, 61.34791982289014
486.5, 61.35749494443015
487, 61.377369888701914
487.5, 61.4324402370678
488, 61.52038353435237
488.5, 61.580444312777374
489, 61.60303609885461
489.5, 61.66604586922544
490, 61.78586090861685
490.5, 61.90560991637861
491, 61.99743626494268
491.5, 62.06011408243603
492, 62.1023764215025
492.5, 62.13675584042641
493, 62.1672682015731
493.5, 62.19617449221784
494, 62.232497906687506
494.5, 62.280930368480405
495, 62.32827325584805
495.5, 62.37158291395041
496, 62.43471398698121
496.5, 62.507679434142545
497, 62.52971054066077
497.5, 62.50480266268286
498, 62.50396804691713
498.5, 62.54446705250226
499, 62.60119022007333
499.5, 62.645439517273516
500, 62.65143473096005
500.5, 62.618668641387075
501, 62.558171414177636
501.5, 62.49016970168832
502, 62.43445568374668
502.5, 62.40316445205173
503, 62.39123521537672
503.5, 62.363522880739104
504, 62.300302414923095
504.5, 62.20814098339028
505, 62.10880166727861
505.5, 62.03383701617357
506, 61.97368489519311
506.5, 61.89560619556278
507, 61.814569747206555
507.5, 61.75088285304184
508, 61.622934663675125
508.5, 61.37166447899624
509, 61.15410379642866
509.5, 61.08440142295873
510, 61.03584222399929
510.5, 60.92221282441265
511, 60.798778026495036
511.5, 60.6903575301797
512, 60.564214826958484
512.5, 60.40032019968103
513, 60.197985237418855
513.5, 60.00618800544161
514, 59.888895352856565
514.5, 59.777499303183795
515, 59.57251922689564
515.5, 59.33407867262778
516, 59.144938219337305
516.5, 58.98631500434977
517, 58.82742826276287
517.5, 58.662557150837856
518, 58.48835422225035
518.5, 58.299570151236765
519, 58.10427187796928
519.5, 57.92585138666453
520, 57.768645153113205
520.5, 57.62037612263315
521, 57.47713038146573
521.5, 57.343415277396346
522, 57.24445199426806
522.5, 57.19075827283769
523, 57.07818753935525
523.5, 56.83427373621902
524, 56.60488261608323
524.5, 56.48348606986408
525, 56.34275451914845
525.5, 56.114586630595355
526, 55.87449250040835
526.5, 55.68040356129304
527, 55.55159243181431
527.5, 55.44683439972686
528, 55.28279272615652
528.5, 55.03574821461858
529, 54.72829570173021
529.5, 54.45455246882717
530, 54.30187995933671
530.5, 54.194902376963704
531, 54.04507538021241
531.5, 53.86563049487982
532, 53.68491553592813
532.5, 53.5211793227976
533, 53.366942975415306
533.5, 53.1795471617883
534, 52.9643015187992
534.5, 52.77810461140788
535, 52.624573080068764
535.5, 52.46761802729375
536, 52.305572368845496
536.5, 52.15691236738788
537, 52.04367858753062
537.5, 51.97234459571921
538, 51.87787535976907
538.5, 51.71007038665514
539, 51.51676495439721
539.5, 51.356113160877726
540, 51.270076073913636
540.5, 51.23514015699565
541, 51.141393923602415
541.5, 50.984135820048124
542, 50.86742455655107
542.5, 50.81665721676605
543, 50.79509156934236
543.5, 50.75807666000536
544, 50.66404148160128
544.5, 50.509159394441255
545, 50.31689166982617
545.5, 50.16468135771674
546, 50.10460031307361
546.5, 50.083119573131476
547, 50.03493161206381
547.5, 49.907835521976196
548, 49.719450402786734
548.5, 49.57601193479937
549, 49.505581316077226
549.5, 49.45573063376891
550, 49.38851637329161
550.5, 49.28185074780583
551, 49.14280888666365
551.5, 48.99605203201478
552, 48.885146216787575
552.5, 48.83611094988689
553, 48.78591297481524
553.5, 48.68851248722502
554, 48.59391512446582
554.5, 48.52224267252405
555, 48.4146953618462
555.5, 48.27536242700207
556, 48.19443234004709
556.5, 48.1738266744877
557, 48.13641214766845
557.5, 48.08364717413772
558, 48.06135475112184
558.5, 48.04800129590729
559, 47.99998318371965
559.5, 47.92150825241155
560, 47.83408730391748
560.5, 47.76612268000133
561, 47.73171613846451
561.5, 47.707236499063825
562, 47.68532321868273
562.5, 47.69449462455928
563, 47.73157405102692
563.5, 47.75216160428414
564, 47.73132076406627
564.5, 47.66561344191641
565, 47.57986841766487
565.5, 47.51232979497107
566, 47.475931748168684
566.5, 47.46925651848607
567, 47.47512580401951
567.5, 47.48232704033713
568, 47.5144352658627
568.5, 47.580578148823065
569, 47.641327099756616
569.5, 47.663655672773224
570, 47.63606659277105
570.5, 47.56810382810856
571, 47.48975037575766
571.5, 47.40978723995924
572, 47.32139197934641
572.5, 47.24381565149859
573, 47.20647672510514
573.5, 47.20401443806766
574, 47.22214229572604
574.5, 47.27039733969354
575, 47.35768847860508
575.5, 47.4704113912502
576, 47.57981916622222
576.5, 47.6347527696501
577, 47.618715634109876
577.5, 47.571215949751824
578, 47.52188228212046
578.5, 47.48368911462074
579, 47.453501036124806
579.5, 47.418663500289604
580, 47.38761598167132
580.5, 47.37725032653415
581, 47.38442804323299
581.5, 47.39934483757632
582, 47.416584993919166
582.5, 47.43922135372828
583, 47.49117566697005
583.5, 47.56691443810224
584, 47.59561315676585
584.5, 47.558312935798284
585, 47.51855282843913
585.5, 47.49072773432059
586, 47.43552771826219
586.5, 47.34859917254374
587, 47.25541229187648
587.5, 47.204704305857625
588, 47.23564234044374
588.5, 47.26436832442384
589, 47.200558412913786
589.5, 47.102598623787785
590, 47.041455248435696
590.5, 47.02310753982542
591, 47.0375338831194
591.5, 47.06499130359444
592, 47.08425275669919
592.5, 47.074632696896735
593, 47.03862022708088
593.5, 46.999896647229576
594, 46.96953784661722
594.5, 46.95097731462234
595, 46.96056346753715
595.5, 47.00701838057309
596, 47.02331139624998
596.5, 46.94674528046876
597, 46.82488154158067
597.5, 46.71730569976185
598, 46.649242919871334
598.5, 46.60967984541742
599, 46.534300960086945
599.5, 46.41452569464259
600, 46.31738571112254
600.5, 46.27525141485685
601, 46.27942784738111
601.5, 46.25982709937788
602, 46.13063204537834
602.5, 45.980229196269654
603, 45.934983928654596
603.5, 45.90920884761757
604, 45.80119315161871
604.5, 45.68601614421746
605, 45.62485237356901
605.5, 45.55520521705503
606, 45.441308542790104
606.5, 45.32164181046313
607, 45.211671562311764
607.5, 45.0927568414831
608, 44.97866980278258
608.5, 44.90644056816767
609, 44.84613460779382
609.5, 44.735015800936736
610, 44.5706983430835
610.5, 44.37417928707475
611, 44.15327445016444
611.5, 43.92546763773851
612, 43.75209352730711
612.5, 43.64947052506491
613, 43.51433812423947
613.5, 43.31199840719254
614, 43.139194000091386
614.5, 43.01929291850205
615, 42.88318526871448
615.5, 42.71656126234736
616, 42.549275824748
616.5, 42.36963994792409
617, 42.15570687335853
617.5, 41.980240790987445
618, 41.92186336917745
618.5, 41.91468280440844
619, 41.86607888002202
619.5, 41.72466415248405
620, 41.49435985019373
620.5, 41.27851909279898
621, 41.1442216985567
621.5, 41.08444383628095
622, 41.05968917936605
622.5, 41.005234739190925
623, 40.89980166195952
623.5, 40.759907968229946
624, 40.63621080778811
624.5, 40.58280701470853
625, 40.564225361124976
625.5, 40.52482131068723
626, 40.46671605341313
626.5, 40.40334149150724
627, 40.33738375894809
627.5, 40.26300636437701
628, 40.161601597123465
628.5, 40.03155104453072
629, 39.896740380216144
629.5, 39.76903874307587
630, 39.64685325636326
630.5, 39.53635186190517
631, 39.44555745682239
631.5, 39.346530644814024
632, 39.20232492616199
632.5, 39.030053912374726
633, 38.85703997569295
633.5, 38.67512267287201
634, 38.48574541553647
634.5, 38.33893390604589
635, 38.25695934851707
635.5, 38.195932018413224
636, 38.14244534217846
636.5, 38.13118274146953
637, 38.15379381434691
637.5, 38.15819996413087
638, 38.097156449938375
638.5, 37.94012552527366
639, 37.754776546944186
639.5, 37.634432500018605
640, 37.556875506902855
640.5, 37.48069149692744
641, 37.435798249154445
641.5, 37.438828855884594
642, 37.432374402924225
642.5, 37.38410834451069
643, 37.325428505956324
643.5, 37.26481283138661
644, 37.175321920492095
644.5, 37.058279457155884
645, 36.94210939632352
645.5, 36.851427806104645
646, 36.80084844195438
646.5, 36.75310807412732
647, 36.66298076481176
647.5, 36.563096177301844
648, 36.49362338474825
648.5, 36.436827093285515
649, 36.37304228607303
649.5, 36.307295160103706
650, 36.243544895035086
650.5, 36.178220090542624
651, 36.113050499364874
651.5, 36.05648312831413
652, 36.00987943000047
652.5, 35.96915130865895
653, 35.93981955543191
653.5, 35.928553548999034
654, 35.90867801704334
654.5, 35.85104101594894
655, 35.78180274154026
655.5, 35.725102580600435
656, 35.64645144413319
656.5, 35.52997237995716
657, 35.42680320453121
657.5, 35.36310844562567
658, 35.31231064262154
658.5, 35.26303528776978
659, 35.225216798302526
659.5, 35.19496233853911
660, 35.15720936932698
660.5, 35.105091981180294
661, 35.041890995892174
661.5, 35.00529354426408
662, 35.02890886745466
662.5, 35.067784058285426
663, 35.08083201081837
663.5, 35.103563406453645
664, 35.13919738238059
664.5, 35.094921872527834
665, 34.955986744249515
665.5, 34.83843801218762
666, 34.79593671173764
666.5, 34.80400836731536
667, 34.82366346189096
667.5, 34.8124789047412
668, 34.7714230048654
668.5, 34.72268711750628
669, 34.67510062427215
669.5, 34.625409428064984
670, 34.541596664998536
670.5, 34.41630979620416
671, 34.33247636205459
671.5, 34.33212306933302
672, 34.34593425901619
672.5, 34.318642166253895
673, 34.23497522437083
673.5, 34.13081717832739
674, 34.0833529247745
674.5, 34.07787958484579
675, 34.042437634970184
675.5, 33.98851683897945
676, 33.95816914911683
676.5, 33.922812930527186
677, 33.85139278548115
677.5, 33.80015510038052
678, 33.811956194231996
678.5, 33.83836400695533
679, 33.849880015118515
679.5, 33.87918456249062
680, 33.93163217781449
680.5, 33.96967822359588
681, 33.99761518791257
681.5, 34.05680932146487
682, 34.12435810021951
682.5, 34.14074064683879
683, 34.10818079448936
683.5, 34.060836768304114
684, 34.04406664458473
684.5, 34.08116815946761
685, 34.102374703708776
685.5, 34.057724707556716
686, 33.998924279752345
686.5, 33.96520563639274
687, 33.94671975239339
687.5, 33.931539634614126
688, 33.91207520415941
688.5, 33.895130076796875
689, 33.896922469444746
689.5, 33.897313813360924
690, 33.860390787270006
690.5, 33.80658917113578
691, 33.77533179802465
691.5, 33.77383468477683
692, 33.79303855777441
692.5, 33.80280189108956
693, 33.78653328821264
693.5, 33.769708321890164
694, 33.76910157519217
694.5, 33.77740491698242
695, 33.792681489845876
695.5, 33.82113994302131
696, 33.85496351707917
696.5, 33.87629347503723
697, 33.89021681152575
697.5, 33.91135468559024
698, 33.92358207761423
698.5, 33.90795146466863
699, 33.89325566687887
699.5, 33.90674181783038
700, 33.926450884256695
700.5, 33.93029064629941
701, 33.91773837321273
701.5, 33.909278614279174
702, 33.951261823134715
702.5, 34.025304647200144
703, 34.04375433419952
703.5, 33.99939267127017
704, 33.94923703605261
704.5, 33.924119931632845
705, 33.93368619464596
705.5, 33.95314956445054
706, 33.950217586049035
706.5, 33.91918709703778
707, 33.87441738935844
707.5, 33.868217000782565
708, 33.91954310462792
708.5, 33.96434086915832
709, 33.97616387525392
709.5, 33.997406483840365
710, 34.033674711792585
710.5, 34.048808036425925
711, 34.04422005177743
711.5, 34.048715659774814
712, 34.06977675312072
712.5, 34.09908377703181
713, 34.103880666926216
713.5, 34.05923609795795
714, 34.009333923872774
714.5, 33.99848729570394
715, 34.02174805812055
715.5, 34.05867159318635
716, 34.075725919792745
716.5, 34.05932353143871
717, 34.02565360352568
717.5, 33.99235085839828
718, 33.97430951897641
718.5, 33.95983697156221
719, 33.924434251092435
719.5, 33.89419193283331
720, 33.91023298576219
720.5, 33.95411280932615
721, 33.99257526221328
721.5, 34.0157928789403
722, 34.02769487189963
722.5, 34.053535722261046
723, 34.11218904688377
723.5, 34.2038498518304
724, 34.30605890797287
724.5, 34.3702000189096
725, 34.364787896234304
725.5, 34.28022834636647
726, 34.15813666266034
726.5, 34.06661781178734
727, 34.01664706940251
727.5, 33.99268366960631
728, 33.983330001656185
728.5, 33.980732311790234
729, 33.984686503240795
729.5, 33.997335894323456
730, 34.022296934842075
730.5, 34.05615807087882
731, 34.08290369786782
731.5, 34.08526908974797
732, 34.04882242570696
732.5, 34.01171401243032
733, 34.048677530931855
733.5, 34.123677989366456
734, 34.1475265704843
734.5, 34.16073540372771
735, 34.23596377662864
735.5, 34.31722143233581
736, 34.34030354782129
736.5, 34.346915013182596
737, 34.36961522048372
737.5, 34.3687384435796
738, 34.352332797266456
738.5, 34.41971653157475
739, 34.56373332036348
739.5, 34.64954989132171
740, 34.65053261323874
740.5, 34.632394759358334
741, 34.61727653584569
741.5, 34.59810596880652
742, 34.55731403719395
742.5, 34.489629016209335
743, 34.46621180142165
743.5, 34.539011508134706
744, 34.629896014643464
744.5, 34.67877488679987
745, 34.72072576985187
745.5, 34.78347015940702
746, 34.86312231569798
746.5, 34.93186149534441
747, 34.94382419706072
747.5, 34.93640827583829
748, 34.99781900768785
748.5, 35.06414837871475
749, 35.01464722193535
749.5, 34.91692766995057
750, 34.88188006517426
750.5, 34.88530832347544
751, 34.89012508349376
751.5, 34.92927035879612
752, 35.022396435679454
752.5, 35.13537145869262
753, 35.23563880972864
753.5, 35.303685640366865
754, 35.34758128918125
754.5, 35.40099226805481
755, 35.46833757786405
755.5, 35.52957680553692
756, 35.54890444111692
756.5, 35.496468394207994
757, 35.42603427611252
757.5, 35.40502585637833
758, 35.4308045737107
758.5, 35.480566440959535
759, 35.52502638857885
759.5, 35.55380271817438
760, 35.59489725711184
760.5, 35.660102046093115
761, 35.73352039483372
761.5, 35.81312343302601
762, 35.91031088951026
762.5, 36.007691119326054
763, 36.07219592587751
763.5, 36.112609889405746
764, 36.15860259689461
764.5, 36.23890050767719
765, 36.36136214041907
765.5, 36.45609215189982
766, 36.4760787273482
766.5, 36.481854007019564
767, 36.514807478808066
767.5, 36.550547225259834
768, 36.5922842277992
768.5000000000001, 36.68479723723051
769, 36.805621278211085
769.5, 36.875467583092814
770.0000000000001, 36.91500637490754
770.5, 36.999547043050505
771, 37.101183185062034
771.5, 37.163009398366206
772, 37.23248157109412
772.5, 37.35502769046507
773, 37.44774731149208
773.5, 37.459195481380185
774, 37.48424338644256
774.5, 37.56997637035546
775, 37.64493577915462
775.5, 37.68715323003476
776, 37.74727961225125
776.5000000000001, 37.83250718477048
777, 37.908581665752585
777.5, 37.948184923845
778.0000000000001, 37.93720401609596
778.5, 37.919450764845244
779, 37.949987327844134
779.5, 38.01404975107492
780, 38.081233547041975
780.5, 38.140221853995364
781, 38.188629021318846
781.5, 38.235545620900666
782, 38.294920964107554
782.5, 38.38479379697837
783, 38.4874392973617
783.5, 38.54622370565476
784, 38.55345786580694
784.5000000000001, 38.5450548185278
785, 38.56925509584863
785.5, 38.667098478867004
786.0000000000001, 38.78663994382422
786.5, 38.85926704935003
787, 38.916943606166036
787.5, 38.99863424913936
788, 39.07514633705011
788.5, 39.124179652388634
789, 39.16699001241621
789.5, 39.21613572979599
790, 39.26211901613393
790.5, 39.2946346168231
791, 39.30651744510581
791.5, 39.32106456184759
792, 39.377900469063405
792.5000000000001, 39.44545263581786
793, 39.46437053697216
793.5, 39.45240236263345
794.0000000000001, 39.44847763330108
794.5, 39.45265149372251
795, 39.461552163557286
795.5000000000001, 39.49226263560898
796, 39.54528816151821
796.5, 39.58019169517235
797, 39.5793913616452
797.5, 39.56508677205132
798, 39.54919728249607
798.5, 39.53033279092114
799, 39.51441872124371
799.5, 39.51123607503157
800, 39.51263210416186
800.5, 39.50940027276174
801, 39.542166499280526
801.5, 39.646687235494724
802, 39.765658433364216
802.5, 39.84145142692232
803, 39.87996531280774
803.5, 39.896982481211545
804, 39.90641201918883
804.5, 39.92075447899287
805, 39.94999457256387
805.5, 39.98460407895052
806, 39.99722573501647
806.5, 39.97403009727899
807, 39.91676264436904
807.5, 39.87362859612463
808, 39.89020972327062
808.5, 39.87112833370076
809, 39.72889933285091
809.5, 39.58840671672446
810, 39.55850621271995
810.5, 39.57758977052682
811, 39.592084691008466
811.5, 39.61206510098167
812, 39.64451468094696
812.5, 39.68346498807856
813, 39.716122659611905
813.5, 39.72496656237082
814, 39.701798894878245
814.5, 39.64693607909992
815, 39.57805843510211
815.5, 39.515201855082545
816, 39.449052968821164
816.5, 39.36332414484141
817, 39.250652261606284
817.5, 39.12502323970372
818, 39.046814058790176
818.5, 39.0243744774124
819, 38.967761284979915
819.5, 38.86176107433144
820, 38.78910614016245
820.5, 38.749381170111164
821, 38.67341900324001
821.5, 38.5900156378463
822, 38.5763440871457
822.5, 38.608765734268154
823, 38.63068204519983
823.5, 38.64153808822343
824, 38.64398677961529
824.5, 38.59516991138202
825, 38.48046696989068
825.5, 38.370401176402446
826, 38.285238059155034
826.5, 38.148398214380975
827, 37.9740514263555
827.5, 37.88202928831174
828, 37.84928542681517
828.5, 37.744732963294105
829, 37.58445250175719
829.5, 37.457796470017115
830, 37.35352996219559
830.5, 37.229990096975484
831, 37.09737405581273
831.5, 36.977104036464645
832, 36.8796135275796
832.5, 36.8017498779809
833, 36.715931614385404
833.5, 36.60521606572919
834, 36.474180196745436
834.5, 36.34263391070379
835, 36.24247122980515
835.5, 36.16779819036083
836, 36.08693088632191
836.5, 36.00677229815345
837, 35.94204398176777
837.5, 35.82024182751185
838, 35.57942647626231
838.5, 35.34636712165292
839, 35.233942252357025
839.5, 35.1688783351882
840, 35.07834606468312
840.5, 34.95842022624984
841, 34.803466032077665
841.5, 34.595967461966666
842, 34.37816370961211
842.5, 34.24518367732591
843, 34.16246332403941
843.5, 34.01431997436259
844, 33.82511899905897
844.5, 33.67757235850826
845, 33.562710261559275
845.5, 33.447854478282835
846, 33.33946142330217
846.5, 33.24454621830783
847, 33.145041336342274
847.5, 33.02282578740575
848, 32.86842281783768
848.5, 32.700954104186266
849, 32.57366745208736
849.5, 32.469577835400344
850, 32.309874401132646
850.5, 32.12540824955492
851, 32.01091457086957
851.5, 31.947121335045566
852, 31.870825046117204
852.5, 31.788315448889577
853, 31.716438336303824
853.5, 31.622564794917793
854, 31.489872853463453
854.5, 31.371306228388917
855, 31.293112902164495
855.5, 31.214441868173665
856, 31.116347029443858
856.5, 31.016245995592328
857, 30.920805139566596
857.5, 30.825061342634967
858, 30.72853288594068
858.5, 30.63554246515892
859, 30.56258609191508
859.5, 30.52423592127647
860, 30.49651135650123
860.5, 30.452527637830016
861, 30.398403276163734
861.5, 30.346709381217465
862, 30.308016904329392
862.5, 30.27930620737341
863, 30.23560145741024
863.5, 30.169629305258695
864, 30.09787904990864
864.5, 30.034135369566954
865, 29.987880274061553
865.5, 29.960515088894468
866, 29.949226188944152
866.5, 29.956084996276957
867, 29.9828893214533
867.5, 30.019787866357476
868, 30.05496336464647
868.5, 30.08163502870717
869, 30.098163340330757
869.5, 30.112168686539164
870, 30.128343824861133
870.5, 30.14430203282103
871, 30.146651288438278
871.5, 30.113503655387547
872, 30.077358434016304
872.5, 30.106985010491826
873, 30.18471691874268
873.5, 30.24914481723532
874, 30.286694582472506
874.5, 30.30513087305785
875, 30.31925620383987
875.5, 30.33829000515378
876, 30.34834030248254
876.5, 30.345092710774196
877, 30.353622904005405
877.5, 30.37502048506215
878, 30.370371007800586
878.5, 30.34788758730224
879, 30.36603210933157
879.5, 30.422539062261905
880, 30.471809037066166
880.5, 30.519312456856696
881, 30.59244959127625
881.5, 30.676928540114872
882, 30.743588925266636
882.5, 30.768469605523748
883, 30.742850395700174
883.5, 30.69810552605624
884, 30.688206669369507
884.5, 30.795746938869968
885, 30.99358099221672
885.5, 31.100024682161248
886, 31.081815398891933
886.5, 31.06289596430635
887, 31.087914118101452
887.5, 31.137694340269434
888, 31.184971379258485
888.5, 31.20618395620697
889, 31.21925897862576
889.5, 31.262320133160017
890, 31.394107224413588
890.5, 31.620145768523287
891, 31.789004817529246
891.5, 31.821856021865713
892, 31.825802578075397
892.5, 31.872724124812976
893, 31.960433778616988
893.5, 32.10651427568078
894, 32.343561022288796
894.5, 32.590218403739215
895, 32.70903083746059
895.5, 32.74689676922375
896, 32.81386922497546
896.5, 32.87246792632365
897, 32.874330333610416
897.5, 32.91588929096929
898, 33.06095945888325
898.5, 33.20604136686978
899, 33.29554453042117
899.5, 33.40372774527725
900, 33.52966904410363
900.5, 33.56742173861251
901, 33.55127741112544
901.5, 33.633152540413306
902, 33.7792958515509
902.5, 33.85225907323188
903, 33.862811866602684
903.5, 33.8807279759387
904, 33.926315548918055
904.5, 34.010776798260835
905, 34.168352379871806
905.5, 34.39177518072397
906, 34.56362327449591
906.5, 34.6280461206039
907, 34.658821564765674
907.5, 34.70634695045216
908, 34.77798889598395
908.5, 34.877563206785695
909, 35.003999132198544
909.5, 35.11276281592821
910, 35.14982030934975
910.5, 35.181283721088676
911, 35.29870046366334
911.5, 35.46781820568029
912, 35.626728953224074
912.5, 35.745489450495
913, 35.8230366433522
913.5, 35.908317937772466
914, 36.033398141989124
914.5, 36.19210098719877
915, 36.35733361352035
915.5, 36.484870383008875
916, 36.57390475193497
916.5, 36.6582797778513
917, 36.75896957417231
917.5, 36.88180953108279
918, 36.98562195198319
918.5, 37.03685292729239
919, 37.12054904066852
919.5, 37.29356565702329
920, 37.426648592830055
920.5, 37.442383895533034
921, 37.44694330874005
921.5, 37.520474686226486
922, 37.667802761509805
922.5, 37.85237964166432
923, 38.003779503911616
923.5, 38.10686092772616
924, 38.19084380752369
924.5, 38.29221165933744
925, 38.43826284701714
925.5, 38.57916042192618
926, 38.66189574400221
926.5, 38.742704947688964
927, 38.865133796124354
927.5, 38.955455152545966
928, 38.99757338601376
928.5, 39.12892258286222
929, 39.37085092525909
929.5, 39.560705403487354
930, 39.65912312734423
930.5, 39.7583102259115
931, 39.85689188801019
931.5, 39.89665908930934
932, 39.94916034552587
932.5, 40.11695781890066
933, 40.294367593383456
933.5, 40.35614047965418
934, 40.39203197877302
934.5, 40.482107882778486
935, 40.54010111117216
935.5, 40.547345224948835
936, 40.66002641938697
936.5, 40.8907780478692
937, 41.04341178743534
937.5, 41.0881621677677
938, 41.15680990157647
938.5, 41.24352495055968
939, 41.26489133912725
939.5, 41.30403469827506
940, 41.47788522479149
940.5, 41.64844181025453
941, 41.67048679193149
941.5, 41.68589247740074
942, 41.813209011372884
942.5, 41.947007906530445
943, 42.012931718761365
943.5, 42.05259017720516
944, 42.099682564769914
944.5, 42.163506311875686
945, 42.26177839533123
945.5, 42.414159366702485
946, 42.558778041750315
946.5, 42.60419918392523
947, 42.63127621933257
947.5, 42.75661433004521
948, 42.88125156566913
948.5, 42.89441047543999
949, 42.877776836570156
949.5, 42.9223125086717
950, 43.04289671035973
950.5, 43.23162201143764
951, 43.45989005086193
951.5, 43.66370721778509
952, 43.74768272105286
952.5, 43.76160620641098
953, 43.861604125934804
953.5, 44.00247365175334
954, 44.04864986515719
954.5, 44.102252590941774
955, 44.30573542227204
955.5, 44.5098833234597
956, 44.56057978741657
956.5, 44.56477990383562
957, 44.62358704184151
957.5, 44.70850268283451
958, 44.80015261519108
958.5, 44.91977536003226
959, 45.054040550599986
959.5, 45.149157817913476
960, 45.18826727053583
960.5, 45.18981146393344
961, 45.21076407268701
961.5, 45.31637701200389
962, 45.485587472077604
962.5, 45.663861745870086
963, 45.80221852374504
963.5, 45.88119717894323
964, 45.96553490611732
964.5, 46.09512180811639
965, 46.22509585462294
965.5, 46.33438845841566
966, 46.45156461484589
966.5, 46.56850077405228
967, 46.637331755827994
967.5, 46.660008214736266
968, 46.67650722349777
968.5, 46.71522115757696
969, 46.793492418461256
969.5, 46.902523844968535
970, 47.02195998601424
970.5, 47.1242936309123
971, 47.19300569749205
971.5, 47.24803837656646
972, 47.32676160883178
972.5, 47.48639686705097
973, 47.69768157511482
973.5, 47.81269993759558
974, 47.81175711696381
974.5, 47.807635392760005
975, 47.84865502324174
975.5, 47.92886449181282
976, 48.008839411403294
976.5, 48.052579901793
977, 48.13730203807906
977.5, 48.33157826953571
978, 48.515010426029406
978.5, 48.58169623872924
979, 48.5860949470264
979.5, 48.59396595104794
980, 48.64180251275906
980.5, 48.715124543271045
981, 48.74047639042304
981.5, 48.73053369608625
982, 48.777924468431806
982.5, 48.9086483940367
983, 49.097822570602666
983.5, 49.2913988615229
984, 49.43577330389436
984.5, 49.55179383520876
985, 49.680832093033224
985.5, 49.84880616184739
986, 50.05159434020721
986.5, 50.21926252007471
987, 50.31708666015926
987.5, 50.389050771665886
988, 50.45573477403233
988.5, 50.50281024599932
989, 50.59570507625818
989.5, 50.85262961055801
990, 51.157204137926264
990.5, 51.28137988389923
991, 51.289409696321805
991.5, 51.33775205292801
992, 51.3813789939108
992.5, 51.35766568207989
993, 51.358225580108076
993.5, 51.44227116929309
994, 51.51688454139293
994.5, 51.55076534553244
995, 51.64714133369899
995.5, 51.806563623769755
996, 51.89971436813983
996.5, 51.90007146353362
997, 51.87682167095191
997.5, 51.92657352154855
998, 52.12821883134509
998.5, 52.33597594511492
999, 52.37464187727709
999.5, 52.376274674073024
1000, 52.48530929115026
1000.5, 52.59929979766328
1001, 52.641651552659006
1001.5, 52.70086777406859
1002, 52.83941756292933
1002.5, 53.04299857430991
1003, 53.246543878705545
1003.5, 53.3431032384625
1004, 53.339560988343806
1004.5, 53.331684531416954
1005, 53.379077936686144
1005.5, 53.50152166490375
1006, 53.603174502170525
1006.5, 53.58597322420008
1007, 53.54304955663226
1007.5, 53.56965377568054
1008, 53.61091935755682
1008.5, 53.63195223729631
1009, 53.69645579905065
1009.5, 53.81681466015135
1010, 53.914846792575034
1010.5, 53.98658293562408
1011, 54.10943813663835
1011.5, 54.2988186415862
1012, 54.51551088729507
1012.5, 54.67483893593629
1013, 54.698139407305696
1013.5, 54.68591133433522
1014, 54.763007908542725
1014.5, 54.8792223876646
1015, 54.959971863665444
1015.5, 54.98850805233626
1016, 54.97279073255826
1016.5, 54.949458384504716
1017, 54.95816821053183
1017.5, 55.0366429532087
1018, 55.188380329553084
1018.5, 55.381054123179304
1019, 55.55627143533396
1019.5, 55.65218523084417
1020, 55.725592716811576
1020.5, 55.86603315337236
1021, 56.00964010757037
1021.5, 56.068071924358044
1022, 56.066394908556454
1022.5, 56.05537035490533
1023, 56.08144518077107
1023.5, 56.169940613058245
1024, 56.307678417636794
1024.5, 56.447130681661925
1025, 56.50566782726867
1025.5, 56.492535703342305
1026, 56.499162034369796
1026.5, 56.53958372468006
1027, 56.57752477190577
1027.5, 56.60662427178069
1028, 56.6385117285442
1028.5, 56.702485097314266
1029, 56.81488220148857
1029.5, 56.92459280852927
1030, 56.98525631090099
1030.5, 57.00008530585502
1031, 56.99382878050702
1031.5, 57.01467712730674
1032, 57.080800566822944
1032.5, 57.17061867002731
1033, 57.2682048753407
1033.5, 57.364061743067644
1034, 57.43990313917108
1034.5, 57.48042764039433
1035, 57.53429094553724
1035.5, 57.65961251694985
1036, 57.819985517240006
1036.5, 57.96129185085184
1037, 58.06833441384393
1037.5, 58.14665544926404
1038, 58.2306333784963
1038.5, 58.33110682752268
1039, 58.41453920660778
1039.5, 58.475175275796964
1040, 58.54153852835358
1040.5, 58.5908763707073
1041, 58.570039823151205
1041.5, 58.57481432930442
1042, 58.75118461494018
1042.5, 58.974898072012
1043, 59.06536251312247
1043.5, 59.10854932291565
1044, 59.21587207197944
1044.5, 59.334890887451884
1045, 59.408506664419306
1045.5, 59.4408102195563
1046, 59.47425551529134
1046.5, 59.59394232929145
1047, 59.77127287753081
1047.5, 59.85671463750428
1048, 59.8359613683283
1048.5, 59.801301787086935
1049, 59.792631333450764
1049.5, 59.81532389630731
1050, 59.853259195310535
1050.5, 59.88683521532656
1051, 59.91753198448142
1051.5, 59.95608473288155
1052, 60.023572782220214
1052.5, 60.12254917475157
1053, 60.214260281785904
1053.5, 60.300502935292364
1054, 60.44633104821266
1054.5, 60.63433488918687
1055, 60.76069024295322
1055.5, 60.79107430436879
1056, 60.75571259285363
1056.5, 60.77118100445101
1057, 60.962451852232704
1057.5, 61.23506574631281
1058, 61.440773277033024
1058.5, 61.54378678781583
1059, 61.554442305599814
1059.5, 61.531566342243714
1060, 61.507516226976854
1060.5, 61.44796926062733
1061, 61.35919445374071
1061.5, 61.31257926272156
1062, 61.35011789251661
1062.5, 61.47530864540575
1063, 61.62799904830216
1063.5, 61.71596624280861
1064, 61.745218632370836
1064.5, 61.76694713652004
1065, 61.80828256166659
1065.5, 61.876199087087954
1066, 61.93330176994803
1066.5, 61.952438167358295
1067, 61.96061917249909
1067.5, 61.96816401279986
1068, 61.93999997782285
1068.5, 61.88388697459048
1069, 61.86776737094602
1069.5, 61.92304937257421
1070, 62.04162401215858
1070.5, 62.194396857316384
1071, 62.341451717146974
1071.5, 62.459713452748424
1072, 62.53852975990777
1072.5, 62.59029721391752
1073, 62.62940002393162
1073.5, 62.65058892088479
1074, 62.66603538029617
1074.5, 62.74080149258721
1075, 62.89051204689884
1075.5, 63.03271886147168
1076, 63.11417231379072
1076.5, 63.13094895020915
1077, 63.10768913039172
1077.5, 63.08924788884994
1078, 63.095122566237166
1078.5, 63.12777839800249
1079, 63.18487901485574
1079.5, 63.260925763099365
1080, 63.34477352960867
1080.5, 63.4262839019781
1081, 63.504435118983274
1081.5, 63.57485571082124
1082, 63.62106961612053
1082.5, 63.627692934288696
1083, 63.58451921124887
1083.5, 63.500715892266555
1084, 63.407003065988725
1084.5, 63.32791642418648
1085, 63.281064217403134
1085.5, 63.27594629301779
1086, 63.31601243076551
1086.5, 63.3954164776287
1087, 63.498877152328504
1087.5, 63.58542936757479
1088, 63.63076243849008
1088.5, 63.685753155749865
1089, 63.7905816948088
1089.5, 63.92995436233071
1090, 64.0676823004828
1090.5, 64.14826718805543
1091, 64.15878065330705
1091.5, 64.13318248192599
1092, 64.08147318062187
1092.5, 64.00260183017998
1093, 63.98830723450031
1093.5, 64.14370235358132
1094, 64.32846367070503
1094.5, 64.3776657086718
1095, 64.43420153859351
1095.5, 64.61045991079993
1096, 64.68659769579598
1096.5, 64.5490050078382
1097, 64.42293598799735
1097.5, 64.41664334010932
1098, 64.41190344277943
1098.5, 64.35772924183482
1099, 64.28985987038881
1099.5, 64.22647791761644
1100, 64.17192284880647
1100.5, 64.14977297770966
1101, 64.18413149556258
1101.5, 64.2410620992146
1102, 64.28269117944146
1102.5, 64.34127467609753
1103, 64.44026779708906
1103.5, 64.53028452589076
1104, 64.57986225518108
1104.5, 64.61542449465615
1105, 64.6381149160016
1105.5, 64.60847018342679
1106, 64.55149477274698
1106.5, 64.55075436557699
1107, 64.5939389920463
1107.5, 64.60715547269912
1108, 64.57688063437672
1108.5, 64.52300326656518
1109, 64.48112273557527
1109.5, 64.47238011522583
1110, 64.44325844985508
1110.5, 64.36011662484842
1111, 64.28619308693527
1111.5, 64.26554971733583
1112, 64.27945126749137
1112.5, 64.31146438347304
1113, 64.35718629399648
1113.5, 64.42227234330393
1114, 64.51379116909038
1114.5, 64.55303518817165
1115, 64.43181626713823
1115.5, 64.25281714415391
1116, 64.17984470869102
1116.5, 64.18140325441928
1117, 64.18802490803235
1117.5, 64.21996195882502
1118, 64.28943666763655
1118.5, 64.34128950398286
1119, 64.35318325579935
1119.5, 64.37411602768218
1120, 64.3865975310976
1120.5, 64.29055834822091
1121, 64.11237621586154
1121.5, 63.984427200640084
1122, 63.94154829541068
1122.5, 63.95067610216552
1123, 63.94369206882534
1123.5, 63.86447643950385
1124, 63.78790948428721
1124.5, 63.78554694650757
1125, 63.78625062039635
1125.5, 63.721082555874425
1126, 63.59415839209642
1126.5, 63.44084812629593
1127, 63.329077993092106
1127.5, 63.28454920733409
1128, 63.27967253264258
1128.5, 63.26530813420178
1129, 63.1862478162489
1129.5, 63.08255897256977
1130, 63.03672973406666
1130.5, 63.038860685751516
1131, 63.04177354831544
1131.5, 63.00339305996574
1132, 62.89568453236873
1132.5, 62.72973080229118
1133, 62.54095138960859
1133.5, 62.40009966856665
1134, 62.33567876257289
1134.5, 62.30526096279874
1135, 62.27471952250171
1135.5, 62.22549676231369
1136, 62.1401335605226
1136.5, 62.00796538683672
1137, 61.88070413820795
1137.5, 61.821633257806035
1138, 61.749916312239314
1138.5, 61.583552096863635
1139, 61.47426284253874
1139.5, 61.53727861909382
1140, 61.600420477144226
1140.5, 61.54126330199946
1141, 61.44322257307085
1141.5, 61.3641204796117
1142, 61.2894455977153
1142.5, 61.20884801528834
1143, 61.12388748140531
1143.5, 61.062446440643576
1144, 61.05698903771311
1144.5, 61.012686623951055
1145, 60.80998810121712
1145.5, 60.57531289481481
1146, 60.46765028559411
1146.5, 60.41761330753945
1147, 60.33895917914256
1147.5, 60.25504852071193
1148, 60.16308100649565
1148.5, 59.97757436492489
1149, 59.728808663684944
1149.5, 59.60847444890814
1150, 59.63204283493734
1150.5, 59.6418644459075
1151, 59.59724662866494
1151.5, 59.53714952622499
1152, 59.44664592772347
1152.5, 59.29985903065534
1153, 59.16084879710054
1153.5, 59.09157632850915
1154, 59.030996465525675
1154.5, 58.9300900024434
1155, 58.844060366093636
1155.5, 58.781318789442565
1156, 58.6397147580748
1156.5, 58.44053881885972
1157, 58.36856177895919
1157.5, 58.42491949883494
1158, 58.44392123707228
1158.5, 58.39511080854869
1159, 58.33431565121508
1159.5, 58.26808281952248
1160, 58.18217824070037
1160.5, 58.07646103322853
1161, 57.95440572411444
1161.5, 57.816149571369785
1162, 57.65340539082555
1162.5, 57.44007913253315
1163, 57.20862454513576
1163.5, 57.09173890365994
1164, 57.10623916915881
1164.5, 57.12130204358864
1165, 57.081341804643806
1165.5, 57.00040726536333
1166, 56.85728405731366
1166.5, 56.62560045296558
1167, 56.408211736154584
1167.5, 56.3250623975681
1168, 56.30700643458063
1168.5, 56.25093207012737
1169, 56.12933766403886
1169.5, 55.96699755956708
1170, 55.870854139657894
1170.5, 55.865993098955684
1171, 55.8303851355332
1171.5, 55.698800755338624
1172, 55.48929135359739
1172.5, 55.27470726615105
1173, 55.160033089841264
1173.5, 55.15882405127868
1174, 55.212922650212604
1174.5, 55.14527684754606
1175, 54.82181095379554
1175.5, 54.520312728352756
1176, 54.47887252183981
1176.5, 54.456433970036244
1177, 54.28436525451877
1177.5, 54.143084513517955
1178, 54.10917687043145
1178.5, 54.038911693783916
1179, 53.89810351449385
1179.5, 53.78491632676029
1180, 53.713897738805656
1180.5, 53.63031928408535
1181, 53.48369258914259
1181.5, 53.24584815425767
1182, 53.00700329497425
1182.5, 52.86819795998373
1183, 52.78403553952721
1183.5, 52.691388239475266
1184, 52.58763936510788
1184.5, 52.46876425420462
1185, 52.30700312135086
1185.5, 52.11968466292588
1186, 51.986913858239554
1186.5, 51.85822814378939
1187, 51.56462384213278
1187.5, 51.20583823023313
1188, 51.04312173055687
1188.5, 50.99986254051414
1189, 50.860282257702714
1189.5, 50.62886304099183
1190, 50.38037371941382
1190.5, 50.15095134984097
1191, 49.967706790139694
1191.5, 49.85900521313613
1192, 49.82504913277022
1192.5, 49.813203044790015
1193, 49.80725902246317
1193.5, 49.84559865586564
1194, 49.91698388242217
1194.5, 49.96118173966409
1195, 49.949727307103224
1195.5, 49.882111519905244
1196, 49.796054687941464
1196.5, 49.73752581337463
1197, 49.69725579655813
1197.5, 49.64749538923864
1198, 49.561575089410304
1198.5, 49.43281233646086
1199, 49.30439328782662
1199.5, 49.186714623226294
1200, 49.018713710581636
1200.5, 48.77596566706234
1201, 48.49093085892007
1201.5, 48.21505750054581
1202, 48.01070766386103
1202.5, 47.904779362234144
1203, 47.88723428786671
1203.5, 47.84470736247814
1204, 47.64920783390623
1204.5, 47.338703923214666
1205, 47.01620538169505
1205.5, 46.826831810267386
1206, 46.83368390338315
1206.5, 46.88220510013035
1207, 46.84811775482223
1207.5, 46.714045481201204
1208, 46.53855804297364
1208.5, 46.451658498529234
1209, 46.452937254675305
1209.5, 46.4313711282015
1210, 46.331697581201816
1210.5, 46.14919597688158
1211, 45.97908047783681
1211.5, 45.92317917663889
1212, 45.91027416193274
1212.5, 45.84169948978022
1213, 45.69756689326442
1213.5, 45.483142043294336
1214, 45.22476215103106
1214.5, 44.98079921189055
1215, 44.851415200128265
1215.5, 44.80700413833804
1216, 44.675624365524534
1216.5, 44.429694097022185
1217, 44.16339932597323
1217.5, 43.95378115274854
1218, 43.8433589286486
1218.5, 43.72554261618309
1219, 43.482651473090314
1219.5, 43.21741910219846
1220, 43.04776856562268
1220.5, 42.94998597390808
1221, 42.899838335213886
1221.5, 42.92701752319157
1222, 42.95134114597053
1222.5, 42.728875843449
1223, 42.30254491495076
1223.5, 42.01728214353262
1224, 41.92895974674746
1224.5, 41.87319070535205
1225, 41.80518981625486
1225.5, 41.737822076345005
1226, 41.618183157244886
1226.5, 41.40460520168506
1227, 41.208442473909635
1227.5, 41.12007924686139
1228, 41.05528468960502
1228.5, 40.93715408214977
1229, 40.76586700177023
1229.5, 40.56784323052057
1230, 40.392679781853836
1230.5, 40.26724543487819
1231, 40.191261772919404
1231.5, 40.131856798296106
1232, 40.03955554553641
1232.5, 39.918059591407335
1233, 39.78406842080116
1233.5, 39.570464772092684
1234, 39.23398517463705
1234.5, 38.94273416685569
1235, 38.82026205299185
1235.5, 38.73155905828938
1236, 38.58327588065994
1236.5, 38.43965688105262
1237, 38.30733418469114
1237.5, 38.09718314615825
1238, 37.81121652325841
1238.5, 37.53973939527995
1239, 37.307999663019054
1239.5, 37.0952996959149
1240, 36.88862357373754
1240.5, 36.68055882356251
1241, 36.47154947755022
1241.5, 36.263483646801866
1242, 36.05391884676558
1242.5, 35.85005443914555
1243, 35.68568365762752
1243.5, 35.572460463284216
1244, 35.47600700157844
1244.5, 35.378517422055594
1245, 35.28943668417405
1245.5000000000002, 35.22652596829661
1246, 35.205693667454355
1246.5, 35.15236698406481
1247.0000000000002, 34.96456997795826
1247.5, 34.77293655604264
1248, 34.748476619066395
1248.5, 34.72980225110774
1249, 34.55043791261542
1249.5, 34.38712235653688
1250, 34.3576162850687
1250.5, 34.26631152108702
1251, 34.0381544601276
1251.5, 33.87040806500656
1252, 33.80872785951877
1252.5, 33.696713411065275
1253, 33.538130953957534
1253.5, 33.469185053917755
1254, 33.47299910661411
1254.5, 33.45198735876673
1255, 33.414150960566374
1255.5, 33.39529489707374
1256, 33.346438711259054
1256.5, 33.224605144158375
1257, 33.08704228953579
1257.5, 32.97683018041006
1258, 32.86092807127366
1258.5, 32.738209564625166
1259, 32.6718759492249
1259.5, 32.66430067975341
1260.0000000000002, 32.647714969406024
1260.5, 32.628012340075614
1261, 32.66214823521963
1261.5000000000002, 32.69458180086173
1262, 32.62479828034819
1262.5, 32.48605473440131
1263.0000000000002, 32.35130517262675
1263.5, 32.229724899244474
1264, 32.12095093646485
1264.5000000000002, 32.04912425913162
1265, 32.0107369935443
1265.5, 31.93584622434716
1266, 31.82443017323314
1266.5, 31.787635179749486
1267, 31.80517928798494
1267.5, 31.717896638961804
1268, 31.51789304492756
1268.5, 31.313148051989117
1269, 31.17137177130961
1269.5, 31.12454309225045
1270, 31.128958645178926
1270.5, 31.132474130889364
1271, 31.16617226544733
1271.5, 31.25132741159524
1272, 31.320331595454505
1272.5, 31.33519060632439
1273, 31.3468797338994
1273.5, 31.381170905913095
1274, 31.414174944802895
1274.5, 31.429439484021728
1275, 31.42161136100134
1275.5, 31.38408618438679
1276.0000000000002, 31.312163429113426
1276.5, 31.228205796240132
1277, 31.161104722038715
1277.5000000000002, 31.098319431980116
1278, 31.020334643690347
1278.5, 30.937809467291686
1279.0000000000002, 30.86685172497573
1279.5, 30.818321836918486
1280, 30.779755129024963
1280.5000000000002, 30.698517681805612
1281, 30.58902475219182
1281.5, 30.555430339463754
1282, 30.601275104370487
1282.5, 30.63395481226894
1283, 30.624460412774283
1283.5, 30.590663837835308
1284, 30.559796414351126
1284.5, 30.55185870010162
1285, 30.52641937799507
1285.5, 30.447449602950243
1286, 30.368182827160155
1286.5, 30.332559494302487
1287, 30.310613785966126
1287.5, 30.288092241061833
1288, 30.297309946577045
1288.5, 30.335234485876754
1289, 30.352145395356885
1289.5, 30.362887081409866
1290, 30.434602309854128
1290.5, 30.540427010394183
1291, 30.602315596324132
1291.5, 30.618010725626107
1292.0000000000002, 30.617458574675666
1292.5, 30.618554605222272
1293, 30.63138204994958
1293.5000000000002, 30.652377640887707
1294, 30.672571161642708
1294.5, 30.67725069275538
1295.0000000000002, 30.661491501321052
1295.5, 30.6375888898865
1296, 30.6069734294001
1296.5000000000002, 30.557983310934475
1297, 30.50747690405838
1297.5, 30.490773681008747
1298.0000000000002, 30.476056837225755
1298.5, 30.407680422051726
1299, 30.348513116103334
1299.5, 30.376925850555295
1300, 30.4072736793712
1300.5, 30.3467684406191
1301, 30.23358708570747
1301.5, 30.133322376290423
1302, 30.11327304059759
1302.5, 30.17163809720121
1303, 30.20170879285652
1303.5, 30.190533610638823
1304, 30.23446241731149
1304.5, 30.343491111046916
1305, 30.455532177900167
1305.5, 30.52373916891939
1306, 30.51959538076406
1306.5, 30.469742092958384
1307, 30.420639114520256
1307.5, 30.409404875896257
1308.0000000000002, 30.446121958988172
1308.5, 30.46777547444198
1309, 30.444866120482914
1309.5000000000002, 30.445329005487423
1310, 30.496994357701126
1310.5, 30.551520197103486
1311.0000000000002, 30.582179611480598
1311.5, 30.591873455956346
1312.0000000000002, 30.589359146314337
1312.5000000000002, 30.584270449771964
1313, 30.56357737177275
1313.5000000000002, 30.508436583566493
1314.0000000000002, 30.438550767444525
1314.5, 30.37784527871122
1315.0000000000002, 30.308080674017518
1315.5, 30.21963462765399
1316, 30.15743174666318
1316.5000000000002, 30.142404971695996
1317, 30.12998368877281
1317.5, 30.085215282873023
1318.0000000000002, 29.998687923708943
1318.5, 29.89674350353708
1319, 29.836260087090622
1319.5000000000002, 29.83159322502462
1320, 29.86570340398177
1320.5, 29.92035891928981
1321.0000000000002, 29.977095138436198
1321.5, 30.017611671974848
1322, 30.033141689134993
1322.5000000000002, 30.051383361295265
1323, 30.088719755701078
1323.5, 30.108730829847502
1324.0000000000002, 30.10172687854228
1324.5, 30.12241884687367
1325, 30.18974059232376
1325.5000000000002, 30.266455630502975
1326, 30.31436336255092
1326.5, 30.302941896152845
1327.0000000000002, 30.26311336588887
1327.5, 30.258421333202534
1328.0000000000002, 30.284929188505558
1328.5000000000002, 30.30967645377727
1329, 30.31765033265775
1329.5000000000002, 30.304758336517594
1330.0000000000002, 30.284689558611092
1330.5, 30.268772002396673
1331.0000000000002, 30.25256895153352
1331.5000000000002, 30.23499234323971
1332, 30.22481341674576
1332.5000000000002, 30.225230065165732
1333, 30.231744539975082
1333.5, 30.248178868884025
1334.0000000000002, 30.283446859510633
1334.5, 30.31543573058957
1335, 30.309840762467616
1335.5000000000002, 30.28857939752369
1336, 30.287596384963877
1336.5, 30.287050233977965
1337.0000000000002, 30.26078735773153
1337.5, 30.219780036378737
1338, 30.167255183050386
1338.5000000000002, 30.070608140506238
1339, 29.93407924351291
1339.5, 29.82977060750646
1340.0000000000002, 29.798512656773156
1340.5, 29.836263615846434
1341, 29.924527047858916
1341.5000000000002, 30.033956292530917
1342, 30.126192394012065
1342.5, 30.165290322972936
1343.0000000000002, 30.167670489962646
1343.5, 30.16619919844146
1344.0000000000002, 30.16772512709673
1344.5000000000002, 30.169967687994074
1345, 30.165729559483196
1345.5000000000002, 30.150909412470796
1346.0000000000002, 30.130214307793963
1346.5, 30.101405881982345
1347.0000000000002, 30.050392024084346
1347.5000000000002, 29.982971223823185
1348, 29.927300345246323
1348.5000000000002, 29.89927192776551
1349, 29.900738931480916
1349.5, 29.900492080309263
1350.0000000000002, 29.859590515252137
1350.5, 29.807991418538933
1351, 29.78354813227577
1351.5000000000002, 29.73965601477343
1352, 29.65276900763071
1352.5, 29.63584138020539
1353.0000000000002, 29.75519644296041
1353.5, 29.928635917868434
1354, 30.06941102372646
1354.5000000000002, 30.114913873960973
1355, 30.100344764648625
1355.5, 30.15189747255876
1356.0000000000002, 30.26259061340808
1356.5, 30.33030347040932
1357, 30.32383838474506
1357.5000000000002, 30.258797082045746
1358, 30.19776440493746
1358.5, 30.19437128591592
1359.0000000000002, 30.195230401468123
1359.5, 30.15038585685062
1360, 30.095442365414428
1360.5000000000002, 30.06120112028259
1361, 30.040548571611865
1361.5000000000002, 30.036369999005203
1362.0000000000002, 30.069684419677245
1362.5, 30.123524417870783
1363.0000000000002, 30.146124265525117
1363.5000000000002, 30.13909442718017
1364, 30.138066290252382
1364.5000000000002, 30.138441169908745
1365.0000000000002, 30.121797914477128
1365.5, 30.10737816070234
1366.0000000000002, 30.12289374815245
1366.5, 30.17798647838555
1367, 30.242935213588922
1367.5000000000002, 30.19726440581786
1368, 30.019911547197125
1368.5, 29.89608666733193
1369.0000000000002, 29.90350370735024
1369.5, 29.952558369503663
1370, 29.98411743196992
1370.5000000000002, 29.982123359545255
1371, 29.980861421375778
1371.5, 30.0327519916963
1372.0000000000002, 30.07756842395912
1372.5, 30.030226949842515
1373, 29.95522170335633
1373.5000000000002, 29.93275882619102
1374, 29.92388666706205
1374.5, 29.88316583802977
1375.0000000000002, 29.815190029478032
1375.5, 29.762766971785382
1376, 29.818432302583545
1376.5000000000002, 29.964272666622847
1377, 30.04754230636263
1377.5000000000002, 30.047898113784868
1378.0000000000002, 30.061595062343613
1378.5, 30.100549227953977
1379.0000000000002, 30.123746569697644
1379.5000000000002, 30.1100203605763
1380, 30.061451248093704
1380.5000000000002, 30.04927523515471
1381.0000000000002, 30.125746587659478
1381.5, 30.208533050336627
1382.0000000000002, 30.223109938143836
1382.5000000000002, 30.178650339395162
1383, 30.118473097529417
1383.5000000000002, 30.12004401948232
1384, 30.192661883416037
1384.5, 30.265234740637226
1385.0000000000002, 30.30881888766173
1385.5, 30.33317811987655
1386, 30.34622675185466
1386.5000000000002, 30.352743136592466
1387, 30.348404664692836
1387.5, 30.322155478226108
1388.0000000000002, 30.249372291201823
1388.5, 30.127444346070405
1389, 30.034950991467923
1389.5000000000002, 30.01722035755941
1390, 30.01315722459509
1390.5, 29.99232059256299
1391.0000000000002, 29.992049319064222
1391.5, 30.026859648555572
1392, 30.08050269688107
1392.5000000000002, 30.14647488315842
1393, 30.225826690503993
1393.5000000000002, 30.306532089073414
1394.0000000000002, 30.367617710976333
1394.5, 30.37851575514688
1395.0000000000002, 30.325957670160676
1395.5000000000002, 30.287315069099776
1396, 30.31979975283835
1396.5000000000002, 30.349424345330164
1397.0000000000002, 30.32128170365972
1397.5, 30.268483535970347
1398.0000000000002, 30.208243028944835
1398.5000000000002, 30.120457886484346
1399, 30.01902737542538
1399.5000000000002, 29.95317007276897
1400, 29.929556071892364
