300, 1.0066412594390641
300.5, 0.841655761219883
301, 0.9353579097150231
301.5, 1.0134180732300848
302, 1.0210898590291464
302.5, 1.0422511598456055
303, 1.0839912699072016
303.5, 1.1317093672740128
304, 1.1804311354894992
304.5, 1.2284513502618921
305, 1.276882594590731
305.5, 1.325549479762472
306, 1.3716329939444307
306.5, 1.4185449317690484
307, 1.4766459834597043
307.5, 1.5426560015177557
308.5, 1.6463418283905895
309, 1.6752676856129654
309.5, 1.7099463527172674
310, 1.7716036830598512
310.5, 1.8368906792647408
311, 1.883524601089377
311.5, 1.9352468213321146
312, 2.004167646940118
312.5, 2.056091445228816
313, 2.0833412767832016
313.5, 2.128640939700702
314, 2.1975128020453667
314.5, 2.250468555233155
315, 2.278009681601006
315.5, 2.2975453713553406
316, 2.3341621140194206
316.5, 2.40902756263516
317, 2.4915603915682425
317.5, 2.5439688044458677
318, 2.5890085550187507
318.5, 2.652355702394928
319, 2.717632880277435
319.5, 2.7686167426054453
320, 2.80620646143889
320.5, 2.8370453886857234
321, 2.8729327495260435
321.5, 2.9213989413323844
322, 2.98409569379821
322.5, 3.049536559818847
323, 3.099714152554469
323.5, 3.146927299765082
324, 3.2127636388971013
324.5, 3.2745652772015887
325, 3.3066688647556646
325.5, 3.340740311268931
326, 3.404128301471104
326.5, 3.469626723562314
327, 3.51774383047848
327.5, 3.5631618540196683
328, 3.6125667398324737
328.5, 3.6565118533841456
329, 3.7027093624011087
329.5, 3.7745817381761526
330, 3.8583427101149255
330.5, 3.917978686290951
331, 3.9608711997967134
331.5, 4.0138886142344035
332, 4.0871979093284665
332.5, 4.176270283085614
333, 4.242762345192446
333.5, 4.269050680254665
334, 4.3143924456003475
334.5, 4.401792778275734
335, 4.464016599207639
335.5, 4.476189173250177
336, 4.482171600499015
336.5, 4.515382697145654
337, 4.59087126474418
337.5, 4.6743700360088525
338, 4.7106987981442074
338.5, 4.741502672356432
339, 4.832708186615179
339.5, 4.929917052947687
340, 4.968578367267739
340.5, 4.993777297620326
341, 5.052191087010726
341.5, 5.13176971231168
342, 5.214149059953215
342.5, 5.286181046922522
343, 5.3484944322542844
343.5, 5.417728455722681
344, 5.499653636309944
344.5, 5.588384607603615
345, 5.666560475774688
345.5, 5.715899200248629
346, 5.764147262917319
346.5, 5.849148146667503
347, 5.954915957429719
347.5, 6.049708480541895
348, 6.105702341986699
348.5, 6.1265549954145655
349, 6.187348873303463
349.5, 6.3081370083688455
350, 6.402603872573209
350.5, 6.444354319231024
351, 6.487851031337357
351.5, 6.555732191105349
352, 6.6388103262895015
352.5, 6.718408082120845
353, 6.774954932682334
353.5, 6.818363443641147
354, 6.866332641252541
354.5, 6.914193312206024
355, 6.957660608428441
355.5, 7.014682138471741
356, 7.094554921995808
356.5, 7.177582131050997
357, 7.245146812071141
357.5, 7.287184857201183
358, 7.315510542408063
358.5, 7.363493604488411
359, 7.431959595147944
359.5, 7.4973008404066235
360, 7.560894503460702
360.5, 7.633425945419987
361, 7.690959722587962
361.5, 7.713553609678371
362, 7.759889071467285
362.5, 7.872728038088312
363, 7.982245108873357
363.5, 8.035748736942722
364, 8.060289046091171
364.5, 8.08828582464038
365, 8.144362361219123
365.5, 8.228149197656279
366, 8.314580056206054
366.5, 8.393398093579648
367, 8.467565836280741
367.5, 8.550381814568553
368, 8.656157527581527
368.5, 8.772696980098473
369, 8.883860837339654
369.5, 8.99829336377141
370, 9.118731219195823
370.5, 9.213394081892318
371, 9.264768139529863
371.5, 9.295417043698976
372, 9.337449498731516
372.5, 9.42738475896671
373, 9.547377091771523
373.5, 9.630789562651287
374, 9.687864551744937
374.5, 9.776165441613529
375, 9.875975029159008
375.5, 9.938625544891579
376, 9.976144648016373
376.5, 10.017632592663517
377, 10.075128187473638
377.5, 10.145338123380483
378, 10.195583945251315
378.5, 10.220631236520376
379, 10.274006175656297
379.5, 10.373480946209895
380, 10.482138866085648
380.5, 10.577518906845484
381, 10.656049497349557
381.5, 10.735852443634926
382, 10.843258087608888
382.5, 10.95770111597281
383, 11.045256265943081
383.5, 11.120156190456512
384, 11.20285166602001
384.5, 11.27859513054922
385, 11.339161077592266
385.5, 11.412109590474188
386, 11.509563209113182
386.5, 11.607388448147233
387, 11.688345937182689
387.5, 11.74952933242983
388, 11.811412503571987
388.5, 11.909830148502877
389, 12.027607516324636
389.5, 12.120327337739809
390, 12.193882564578502
390.5, 12.268350483208124
391, 12.321163879972872
391.5, 12.340575369821849
392, 12.396217930260832
392.5, 12.526075828857856
393, 12.654411592825028
393.5, 12.735110406668866
394, 12.797559205318223
394.5, 12.874855161719495
395, 12.993184326434104
395.5, 13.12712113760388
396, 13.215209580038817
396.5, 13.270196009493418
397, 13.344698323844966
397.5, 13.45471385907966
398, 13.592001457563669
398.5, 13.708494006700377
399, 13.77226758194611
399.5, 13.83922664356865
400, 13.94966109041421
400.5, 14.071339186241389
401, 14.172339998266168
401.5, 14.237262980986301
402, 14.280448270829226
402.5, 14.34484402632647
403, 14.429868492330883
403.5, 14.502582168778659
404, 14.563281068770763
404.5, 14.633657970781528
405, 14.74888113099793
405.5, 14.923845001362707
406, 15.062252024554638
406.5, 15.095568737465868
407, 15.127846545015899
407.5, 15.235572398596759
408, 15.372064846230472
408.5, 15.489753265955343
409, 15.564129799972548
409.5, 15.620898668445093
410, 15.7309098190605
410.5, 15.885711699693971
411, 16.02126925035887
411.5, 16.12349033382729
412, 16.209007993300503
412.5, 16.31480654827527
413, 16.464767094208426
413.5, 16.598804811450847
414, 16.668934232755547
414.5, 16.720837906411944
415, 16.80504440856602
415.5, 16.948627998678248
416, 17.121966686481798
416.5, 17.225923694807165
417, 17.275975014114408
417.5, 17.39560633241679
418, 17.570318215909694
418.5, 17.697165996392116
419, 17.779084241310372
419.5, 17.866221723311227
420, 17.969966511257567
420.5, 18.089586167835677
421, 18.230260936490993
421.5, 18.377408756810922
422, 18.461563242118757
422.5, 18.478053371670413
423, 18.5550027663558
423.5, 18.7261829147144
424, 18.886663494015735
424.5, 18.992320433300208
425, 19.065951895582884
425.5, 19.14678348312262
426, 19.275157897706023
426.5, 19.427444045408734
427, 19.556857946955915
427.5, 19.6539846381919
428, 19.734171930909568
428.5, 19.85728706531887
429, 20.05142398068324
429.5, 20.242223240765128
430, 20.386171967372846
430.5, 20.519529169914605
431, 20.66450091628508
431.5, 20.816538259029812
432, 20.977484590949047
432.5, 21.15428545888986
433, 21.331337697523992
433.5, 21.481423766934043
434, 21.597241984123215
434.5, 21.68705624428314
435, 21.791756730285584
435.5, 21.938759088529366
436, 22.076739367237437
436.5, 22.17186988816684
437, 22.268850914045714
437.5, 22.396405170124893
438, 22.538775524852554
438.5, 22.670415206697143
439, 22.762213772288007
439.5, 22.83684281615305
440, 22.954113452027244
440.5, 23.1088164520922
441, 23.25826515764433
441.5, 23.37267747561569
442, 23.44387442458475
442.5, 23.537440367398546
443, 23.706037920570992
443.5, 23.89487017215575
444, 24.049183243488457
444.5, 24.160761068934917
445, 24.250215943289433
445.5, 24.371551418218573
446, 24.5369258244194
446.5, 24.709271073626994
447, 24.850293327384264
447.5, 24.931612121816954
448, 25.010780278766973
448.5, 25.171320633674696
449, 25.355902534206265
449.5, 25.47580903630505
450, 25.546446242845434
450.5, 25.61250176665746
451, 25.721780633324485
451.5, 25.885844946624232
452, 26.04132843379098
452.5, 26.153696040521694
453, 26.243333867872323
453.5, 26.323122434564695
454, 26.39581344192328
454.5, 26.49485896081231
455, 26.665021941466975
455.5, 26.844311114307985
456, 26.936877231628273
456.5, 26.982301578371988
457, 27.056695925454633
457.5, 27.181146037396715
458, 27.346154882195833
458.5, 27.496311508587894
459, 27.597040830236367
459.5, 27.669217941545767
460, 27.73266622212293
460.5, 27.797274222722407
461, 27.877210939890404
461.5, 27.98824610995561
462, 28.102881304738673
462.5, 28.171157113227707
463, 28.20984621969241
463.5, 28.262572488382446
464, 28.336098528197525
464.5, 28.42081616860966
465, 28.493781932560736
465.5, 28.54240285868059
466, 28.58914517705074
466.5, 28.65135216914807
467, 28.72667533929581
467.5, 28.808019269871437
468, 28.884920202454595
468.5, 28.94832350522465
469, 28.991670492904333
469.5, 29.020233648123366
470, 29.049002922860467
470.5, 29.107993180040722
471, 29.219531143052507
471.5, 29.329553607836772
472, 29.38497055947859
472.5, 29.4242661631003
473, 29.493007826687247
473.5, 29.60405623607629
474, 29.740245677343182
474.5, 29.84274194469002
475, 29.901133554175885
475.5, 29.966999497263558
476, 30.051080430108655
476.5, 30.126777993446638
477, 30.187125275690676
477.5, 30.238095378278956
478, 30.284669749656473
478.5, 30.327421989709052
479, 30.347975127632594
479.5, 30.334406411137834
480, 30.31545611693936
480.5, 30.32153022153875
481, 30.367183744486837
481.5, 30.44848957273439
482, 30.535332242251442
482.5, 30.60125268778961
483, 30.629082664468
483.5, 30.64027288637493
484, 30.6814017837159
484.5, 30.732835387879334
485, 30.748085586017837
485.5, 30.766395179826077
486, 30.840794196024078
486.5, 30.92414729254469
487, 30.96427752078469
487.5, 30.98259695191308
488, 31.008859721346937
488.5, 31.059522026789637
489, 31.128222327098158
489.5, 31.177240634437112
490, 31.19101466520678
490.5, 31.18319586899787
491, 31.200370463526923
491.5, 31.302488430088275
492, 31.442001926649837
492.5, 31.52836572502777
493, 31.578563326659122
493.5, 31.63959098930337
494, 31.706722050087777
494.5, 31.762776813309515
495, 31.794756010905985
495.5, 31.798056530004573
496, 31.783450054499937
496.5, 31.754078408973314
497, 31.700236145251566
497.5, 31.63257844244025
498, 31.582011785905635
498.5, 31.554568366782547
499, 31.53761122068579
499.5, 31.52193670155168
500, 31.5027799802739
500.5, 31.489602487856416
501, 31.490626942063614
501.5, 31.488299801931277
502, 31.47059671293009
502.5, 31.458378783783957
503, 31.469758278011852
503.5, 31.506045273162513
504, 31.53335920176781
504.5, 31.476660741991665
505, 31.3512283044455
505.5, 31.25629288671594
506, 31.201875092544128
506.5, 31.13977703576863
507, 31.07474680713362
507.5, 31.029395271838013
508, 30.97734044173137
508.5, 30.888587648622618
509, 30.782951528993976
509.5, 30.68393953996825
510, 30.59438918056854
510.5, 30.5132370375989
511, 30.4378386921732
511.5, 30.34746066115821
512, 30.20126261278817
512.5, 30.016314514762243
513, 29.859405814666403
513.5, 29.74010340446722
514, 29.628539862108596
514.5, 29.49052292007643
515, 29.302895259326803
515.5, 29.108243179809648
516, 28.953195632691575
516.5, 28.824135709201613
517, 28.705620812407304
517.5, 28.609562571233766
518, 28.523353019805256
518.5, 28.38752785055199
519, 28.202412358208264
519.5, 28.04373283474922
520, 27.938964474720038
520.5, 27.868995023096375
521, 27.807172986401397
521.5, 27.721354247096187
522, 27.566650888910857
522.5, 27.323842462709294
523, 27.124632570936413
523.5, 27.072154323345302
524, 27.025293789403307
524.5, 26.87237264016005
525, 26.683148699690392
525.5, 26.518847049238815
526, 26.38609666964271
526.5, 26.276143426558036
527, 26.169804799716346
527.5, 26.073553009518108
528, 26.00998077677643
528.5, 25.946298304797438
529, 25.82472707803639
529.5, 25.639202910006873
530, 25.419576645463522
530.5, 25.26141513349593
531, 25.21241413018994
531.5, 25.115377874303633
532, 24.891987689172467
532.5, 24.715783677020156
533, 24.660888518264656
533.5, 24.603525106573557
534, 24.47196674163777
534.5, 24.272889130619745
535, 24.076176639617074
535.5, 23.981147149428693
536, 23.930192134897723
536.5, 23.804779084132377
537, 23.649849806663738
537.5, 23.545972537066802
538, 23.455809547683103
538.5, 23.33894551815284
539, 23.23658718606451
539.5, 23.164880573402826
540, 23.060944961283298
540.5, 22.92105394581594
541, 22.836177446880384
541.5, 22.81470243895228
542, 22.778537749547013
542.5, 22.72532274904063
543, 22.699270503808393
543.5, 22.640937697861673
544, 22.46615216646704
544.5, 22.26471183077436
545, 22.1495376507348
545.5, 22.07425566332614
546, 21.973110324291
546.5, 21.835588319386787
547, 21.68146192523389
547.5, 21.569229663462394
548, 21.5103394419356
548.5, 21.449232649299347
549, 21.38082015937198
549.5, 21.34762039900646
550, 21.31852168949868
550.5, 21.223617817750934
551, 21.103348620075778
551.5, 21.035282912108116
552, 21.002321127917185
552.5, 20.957649581372664
553, 20.864264807041124
553.5, 20.716086883473878
554, 20.579927409853667
554.5, 20.496740059546156
555, 20.440472716932447
555.5, 20.379855279970485
556, 20.28828242822958
556.5, 20.18689913680062
557, 20.133658187957977
557.5, 20.109553347602244
558, 20.054592122478866
558.5, 19.9860553375497
559, 19.946084270271825
559.5, 19.920022083708417
560, 19.880434188865962
560.5, 19.818782762682503
561, 19.7379880400037
561.5, 19.65837061980288
562, 19.583133720646344
562.5, 19.483691834279256
563, 19.378539295254967
563.5, 19.34212182133973
564, 19.37020853111777
564.5, 19.393623278257323
565, 19.406526173038017
565.5, 19.437162051468746
566, 19.469449527858814
566.5, 19.47242250059753
567, 19.43696445844209
567.5, 19.364758787925396
568, 19.271336941091988
568.5, 19.173135469757057
569, 19.08228230894511
569.5, 19.012696592279553
570, 18.981387695104644
570.5, 18.984712239330506
571, 18.995671670326686
571.5, 18.994461623109416
572, 18.971995368670804
572.5, 18.957802696145663
573, 18.990375969784765
573.5, 19.020037053147377
574, 18.98030775265741
574.5, 18.890899298481173
575, 18.79649527296047
575.5, 18.743940403544883
576, 18.74630144849094
576.5, 18.74454945274968
577, 18.710245490672733
577.5, 18.674412699765625
578, 18.65865261639148
578.5, 18.66782598712099
579, 18.686612328627888
579.5, 18.6889560766447
580, 18.687847581785533
580.5, 18.71149142030069
581, 18.748940623143355
581.5, 18.780601616580157
582, 18.81383183507245
582.5, 18.84628558931088
583, 18.827627627545354
583.5, 18.74341873917824
584, 18.667641918708725
584.5, 18.6484482211348
585, 18.681285754358356
585.5, 18.734959392296247
586, 18.758899285793476
586.5, 18.75196323633351
587, 18.746571634205736
587.5, 18.749051247185207
588, 18.752078901760072
588.5, 18.74949415330792
589, 18.737067113927395
589.5, 18.716359696076736
590, 18.688130895083773
590.5, 18.647203345922463
591, 18.596522653650624
591.5, 18.55604377873962
592, 18.538797419040577
592.5, 18.545433189213412
593, 18.564069966707038
593.5, 18.573160682425225
594, 18.57038958010142
594.5, 18.566463054149253
595, 18.568506349752653
595.5, 18.57721249563464
596, 18.568505122230093
596.5, 18.52340692604332
597, 18.472514083259682
597.5, 18.440561783515946
598, 18.40852143742964
598.5, 18.361619671752692
599, 18.3050445621231
599.5, 18.253782207634742
600, 18.230584770147587
600.5, 18.21901097061547
601, 18.171767006729354
601.5, 18.10123855292514
602, 18.053331760523278
602.5, 18.02977162861015
603, 18.010091519967062
603.5, 17.965035621057382
604, 17.881141825334595
604.5, 17.80890724380859
605, 17.77169743134263
605.5, 17.695938298629102
606, 17.549467087172246
606.5, 17.39247356627814
607, 17.26387614687215
607.5, 17.165993855093532
608, 17.089312330980533
608.5, 17.01639849898828
609, 16.933832918076988
609.5, 16.834823379000383
610, 16.740882800004783
610.5, 16.671307562786154
611, 16.577235444904403
611.5, 16.413986562770404
612, 16.215902019829812
612.5, 16.01271470770854
613, 15.788481695449406
613.5, 15.554159183913612
614, 15.371213030276579
614.5, 15.249432382252436
615, 15.135896100967912
615.5, 14.987722796054499
616, 14.779185063533262
616.5, 14.547755122961448
617, 14.360837742530862
617.5, 14.245100476049998
618, 14.192024662581886
618.5, 14.110517429379499
619, 13.942493499290833
619.5, 13.799332217976442
620, 13.726468523691807
620.5, 13.56538061155716
621, 13.297719651737623
621.5, 13.145639310812413
622, 13.15168491031524
622.5, 13.154202312852703
623, 13.112091677485765
623.5, 13.077780458134896
624, 13.046765981206619
624.5, 12.986684287943277
625, 12.89181410256397
625.5, 12.768972584365045
626, 12.634615988112515
626.5, 12.510127903377906
627, 12.423602545199827
627.5, 12.378298187905031
628, 12.326373991736489
628.5, 12.244940058113073
629, 12.154042559256354
629.5, 12.058615256822762
630, 11.94477546256833
630.5, 11.793962250273012
631, 11.591511076228429
631.5, 11.380309527304433
632, 11.221972187000205
632.5, 11.116808948007915
633, 11.035217554215734
633.5, 10.916470642793797
634, 10.733810682315905
634.5, 10.571422221010224
635, 10.494063076852413
635.5, 10.494227633742952
636, 10.497903345168965
636.5, 10.362092051672803
637, 10.12945813931816
637.5, 10.006573205802411
638, 9.983589751164956
638.5, 9.918908979832423
639, 9.831570798094944
639.5, 9.79954644079507
640, 9.795092507712553
640.5, 9.769667655006316
641, 9.728481988674929
641.5, 9.675759956714316
642, 9.5828151482864
642.5, 9.458683605486186
643, 9.385266792889496
643.5, 9.352596213149155
644, 9.233443804783278
644.5, 9.04004622935058
645, 8.904810707397871
645.5, 8.822701662889656
646, 8.712133630140897
646.5, 8.59995928335799
647, 8.546799594048196
647.5, 8.532975329725545
648, 8.52090824398124
648.5, 8.498254868262109
649, 8.464771848530745
649.5, 8.435928196825841
650, 8.41975924285832
650.5, 8.407422538122418
651, 8.365787122352529
651.5, 8.240105971387521
652, 8.067519706506175
652.5, 7.9533460187211915
653, 7.886103567576214
653.5, 7.792321502189182
654, 7.669053555593422
654.5, 7.544033547349855
655, 7.446090863076492
655.5, 7.391293084039461
656, 7.3538665066204345
656.5, 7.316572699636353
657, 7.299436041490239
657.5, 7.303405843437545
658, 7.2926059780223085
658.5, 7.257563935422979
659, 7.220077040050654
659.5, 7.171872292873402
660, 7.083041134977719
660.5, 6.961454880400083
661, 6.841781609476172
661.5, 6.790328307974789
662, 6.8550340008353885
662.5, 6.947521443005144
663, 6.984192492972852
663.5, 7.008731601931544
664, 7.041562923797997
664.5, 7.005774936505333
665, 6.885900606316639
665.5, 6.773038779510458
666, 6.698350203679524
666.5, 6.622785416838553
667, 6.5405190579011645
667.5, 6.472651049209929
668, 6.432889279422625
668.5, 6.426137849017579
669, 6.430144276908393
669.5, 6.414988725021217
670, 6.361207836848806
670.5, 6.2662456890274285
671, 6.167540820096065
671.5, 6.088025075830785
672, 6.008604109690495
672.5, 5.9251764333744745
673, 5.860472292648282
673.5, 5.8154346586854615
674, 5.768769450133334
674.5, 5.719695734560787
675, 5.6811567600678075
675.5, 5.6520582830936235
676, 5.627149497142469
676.5, 5.61891890761585
677, 5.636146234138295
677.5, 5.648987803453949
678, 5.634737717821821
678.5, 5.614294040883024
679, 5.600421471022543
679.5, 5.5778591315186645
680, 5.543869474468806
680.5, 5.516414145919171
681, 5.517267098001952
681.5, 5.566587499629108
682, 5.636566032833841
682.5, 5.6738417959559655
683, 5.679133524972045
683.5, 5.676896747991549
684, 5.679173720792406
684.5, 5.686699846366025
685, 5.67438000712005
685.5, 5.627945891488679
686, 5.574624602153008
686.5, 5.538589869603911
687, 5.52708434749114
687.5, 5.530239986849892
688, 5.520646667122477
688.5, 5.501627080763825
689, 5.501011233553939
689.5, 5.50220947146282
690, 5.4671324464768105
690.5, 5.412195333101465
691, 5.37182884486684
691.5, 5.347343479753732
692, 5.330481013445919
692.5, 5.315577531984772
693, 5.2994635886139605
693.5, 5.283640406307697
694, 5.278205076051634
694.5, 5.305386303142072
695, 5.358217218813095
695.5, 5.395831344936298
696, 5.407585780914815
696.5, 5.409208340758866
697, 5.408638950416872
697.5, 5.408322398721879
698, 5.408507683863192
698.5, 5.40862839354395
699, 5.408498332723937
699.5, 5.408255738215615
700, 5.408709510139047
700.5, 5.409468679513523
701, 5.407140665475808
701.5, 5.394322594044354
702, 5.358693643546232
702.5, 5.307333338857916
703, 5.2675323404516945
703.5, 5.23812636623353
704, 5.198603700531862
704.5, 5.169045997028462
705, 5.184581064609972
705.5, 5.226985222325396
706, 5.2634898126140115
706.5, 5.290726140037947
707, 5.310883507009706
707.5, 5.318787101856287
708, 5.31637741767976
708.5, 5.322870909651385
709, 5.341537553760659
709.5, 5.349965068907267
710, 5.347322237539942
710.5, 5.355934594401347
711, 5.374448054277451
711.5, 5.384316340695747
712, 5.380044034695402
712.5, 5.361632166358959
713, 5.318833061046888
713.5, 5.244272082884805
714, 5.158076397794588
714.5, 5.091057837373938
715, 5.083992008129599
715.5, 5.146842571575306
716, 5.2262767396778
716.5, 5.278658676849574
717, 5.285484469035552
717.5, 5.263638661804322
718, 5.260216633145973
718.5, 5.281891933273997
719, 5.308495701079991
719.5, 5.343275927684061
720, 5.395358821213463
720.5, 5.43894830898482
721, 5.447295446018671
721.5, 5.436964185592473
722, 5.42460107426156
722.5, 5.399896253900408
723, 5.36367670246716
723.5, 5.344984279022384
724, 5.3603201096227195
724.5, 5.404284745236481
725, 5.439972765416826
725.5, 5.410212524357647
726, 5.354023764693693
726.5, 5.360829118237888
727, 5.4053395084767715
727.5, 5.423916527809666
728, 5.439669315620961
728.5, 5.486567948003923
729, 5.5349052913510945
729.5, 5.555904254034161
730, 5.558445250835774
730.5, 5.556612410691898
731, 5.563286999456622
731.5, 5.580506633674787
732, 5.597562085768175
732.5, 5.6129686366742675
733, 5.634182039311398
733.5, 5.669529531503159
734, 5.723291798453587
734.5, 5.767450465237829
735, 5.7758568373433405
735.5, 5.802555573083481
736, 5.894946687701193
736.5, 5.994918166999298
737, 6.0429220852197005
737.5, 6.0280430636383215
738, 5.973055736176647
738.5, 5.943203668323861
739, 5.9627023530956365
739.5, 6.004108272737753
740, 6.053230865139895
740.5, 6.108176855153587
741, 6.154217660016528
741.5, 6.174224431994006
742, 6.188577438757278
742.5, 6.222517323761281
743, 6.250985357125188
743.5, 6.251012614953595
744, 6.25200291084829
744.5, 6.271503473522571
745, 6.279134610407837
745.5, 6.272299602046758
746, 6.299542787839769
746.5, 6.368951952288143
747, 6.440011837360217
747.5, 6.484655043180496
748, 6.490891116834376
748.5, 6.488109706712052
749, 6.520408708594061
749.5, 6.578745529588346
750, 6.639659224650927
750.5, 6.708209867956995
751, 6.789670565374905
751.5, 6.867075490745037
752, 6.922440026836128
752.5, 6.944272990265418
753, 6.929766522748707
753.5, 6.88795807996928
754, 6.837129306177545
754.5, 6.802843831323955
755, 6.791124019538586
755.5, 6.792527016181964
756, 6.791890976362353
756.5, 6.776048292279981
757, 6.760677584536495
757.5, 6.766968312617564
758, 6.795180961922668
758.5, 6.840001745660686
759, 6.8955485356518125
759.5, 6.975822738682112
760, 7.131815740699878
760.5, 7.3398639974250415
761, 7.473188306103992
761.5, 7.522558581416078
762, 7.595599066504207
762.5, 7.719040023021833
763, 7.85911271629611
763.5, 7.981588676267506
764, 8.06048602724519
764.5, 8.113657719481068
765, 8.170363310055734
765.5, 8.245394897048854
766, 8.341422331982528
766.5, 8.43853393699446
767, 8.521232133284059
767.5, 8.58895173271253
768, 8.650861914844128
768.5000000000001, 8.725548180561475
769, 8.808354391065848
769.5, 8.87405362288817
770.0000000000001, 8.916994678250049
770.5, 8.946247712385372
771, 8.98015578036842
771.5, 9.036410140424124
772, 9.107169016104663
772.5, 9.171751516825566
773, 9.193500054468757
773.5, 9.16761153394431
774, 9.175567905387965
774.5, 9.26608438782381
775, 9.409156921157603
775.5, 9.572235976462522
776, 9.729250548005524
776.5000000000001, 9.855423228534391
777, 9.930039527177101
777.5, 9.96898653623397
778.0000000000001, 10.008068664494417
778.5, 10.061631868340896
779, 10.133364375674446
779.5, 10.22189212437172
780, 10.320808435158995
780.5, 10.412056085370438
781, 10.481498034033152
781.5, 10.52967759274361
782, 10.561966172331395
782.5, 10.588249033561866
783, 10.619251547762318
783.5, 10.664979187190369
784, 10.715058189988127
784.5000000000001, 10.746344027554045
785, 10.77815886782237
785.5, 10.846967191044868
786.0000000000001, 10.933574169140897
786.5, 11.00390140362839
787, 11.062123847523111
787.5, 11.110574381117587
788, 11.1117488142132
788.5, 11.065948662239435
789, 11.07119427863212
789.5, 11.169132774338038
790, 11.296801384630186
790.5, 11.42357717915749
791, 11.561733469289194
791.5, 11.69064960982196
792, 11.767791825349931
792.5000000000001, 11.80410410387826
793, 11.830182566409661
793.5, 11.810122864509523
794.0000000000001, 11.71086525580867
794.5, 11.623375970602169
795, 11.626652232418976
795.5000000000001, 11.667107797583611
796, 11.697572898583857
796.5, 11.732922682403128
797, 11.770653625966531
797.5, 11.77410155687673
798, 11.75177913765971
798.5, 11.75807684167681
799, 11.797327289440958
799.5, 11.837450133093611
800, 11.865948712103929
800.5, 11.879826885036152
801, 11.86873964705994
801.5, 11.830730672489736
802, 11.808496643502835
802.5, 11.83421745125132
803, 11.880260006230671
803.5, 11.916961041757531
804, 11.930802254861263
804.5, 11.927625799679063
805, 11.936457948041621
805.5, 11.97075897921519
806, 12.025459189568409
806.5, 12.073319312505376
807, 12.078032590432073
807.5, 12.052064783658992
808, 12.025090369487856
808.5, 11.98788487838793
809, 11.926455319734885
809.5, 11.859447068753838
810, 11.80653319903756
810.5, 11.770171577229362
811, 11.750941324822094
811.5, 11.75087186231643
812, 11.767450123059348
812.5, 11.791105392390492
813, 11.792011058287116
813.5, 11.727544544473218
814, 11.620382031646855
814.5, 11.531323219129604
815, 11.48060928575832
815.5, 11.463650131965622
816, 11.44676066641044
816.5, 11.39623255364171
817, 11.311314104986067
817.5, 11.208559602846933
818, 11.128540374567265
818.5, 11.083525460609152
819, 11.032326250489803
819.5, 10.96440250963083
820, 10.91158099358745
820.5, 10.883122686143949
821, 10.865087110724915
821.5, 10.829074108719354
822, 10.745972144320788
822.5, 10.642827248491528
823, 10.559772937622327
823.5, 10.48099546878261
824, 10.385178287569943
824.5, 10.288865022544115
825, 10.206911261501574
825.5, 10.132571284199202
826, 10.065141693980394
826.5, 10.017937452641235
827, 9.988367163610576
827.5, 9.954674217982173
828, 9.90435856665897
828.5, 9.832695268172685
829, 9.727641449700073
829.5, 9.583571792466316
830, 9.467721615894035
830.5, 9.436648752513491
831, 9.362235607671522
831.5, 9.141825052227162
832, 8.913830609696106
832.5, 8.789841678879483
833, 8.723890169999706
833.5, 8.674518661707353
834, 8.637050578459508
834.5, 8.57835418631592
835, 8.437386459947447
835.5, 8.248727120090194
836, 8.108857938194106
836.5, 7.985695877374937
837, 7.797723326584915
837.5, 7.605145894836028
838, 7.50095077474468
838.5, 7.483178967302479
839, 7.504472193005327
839.5, 7.459447893914913
840, 7.3092837837859435
840.5, 7.169657232586744
841, 7.094266912597263
841.5, 7.022564011188123
842, 6.923850916501493
842.5, 6.808937717771158
843, 6.714684746772974
843.5, 6.681646540666833
844, 6.626428736160719
844.5, 6.440761987324834
845, 6.249675128108052
845.5, 6.208773993248499
846, 6.257082770410491
846.5, 6.294569716194289
847, 6.262030759391138
847.5, 6.122359314293206
848, 5.868961853778345
848.5, 5.562841113930176
849, 5.345963471782255
849.5, 5.234116077378047
850, 5.1194538277378
850.5, 4.947413742524759
851, 4.709546524985285
851.5, 4.443895761865662
852, 4.209099175945724
852.5, 4.054039990716689
853, 3.997311276028981
853.5, 3.957148711975236
854, 3.8595053258132594
854.5, 3.710133880211103
855, 3.5226196038934035
855.5, 3.302741481745983
856, 3.085123710296827
856.5, 2.9376354413838754
857, 2.8369449055691547
857.5, 2.684208359643762
858, 2.498165452408969
858.5, 2.3653503136899303
859, 2.288573168191064
859.5, 2.2316198594562593
860, 2.159346908044796
860.5, 2.0561202793962963
861, 1.9729323023930618
861.5, 1.9265220571225115
862, 1.8171818180814938
862.5, 1.6249497055737834
863, 1.4907680495882545
863.5, 1.4538353889075353
864, 1.4148517828179763
864.5, 1.3281811110694832
865, 1.2051944914384478
865.5, 1.0951683384240596
866, 1.05635654532135
866.5, 1.0524826647344128
867, 1.0231904685477389
867.5, 0.9901693293707297
868, 0.9852682651460185
868.5, 0.9928348137691358
869, 0.9946765904591928
869.5, 0.9890131190226725
870, 0.9849295742780413
870.5, 1.0047002649207144
871, 1.0546698979206042
871.5, 1.1213768720997166
872, 1.1862866777543672
872.5, 1.230012861492682
873, 1.2576005510501176
873.5, 1.281080888649896
874, 1.2642444287837549
874.5, 1.173407736926265
875, 1.0751293886309554
875.5, 1.039357392450313
876, 1.0597972838146745
876.5, 1.118421215970443
877, 1.2030912030773635
877.5, 1.2898737141425443
878, 1.3370793892870836
878.5, 1.333093677124097
879, 1.3015793496605284
879.5, 1.2859866557080863
880, 1.3359892431601281
880.5, 1.4289202649021462
881, 1.5089863763150504
881.5, 1.5617732743229595
882, 1.5931992017225554
882.5, 1.6273332817063846
883, 1.6785831425079465
883.5, 1.719804996973977
884, 1.7270472931354846
884.5, 1.6982443039562014
885, 1.658279950115329
885.5, 1.6643469168816125
886, 1.7198511500158844
886.5, 1.7741222339690523
887, 1.8197551907257292
887.5, 1.879245422269335
888, 1.9455376454858992
888.5, 1.9995778750172661
889, 2.043400949253652
889.5, 2.1009149317549003
890, 2.252093805759287
890.5, 2.5151683969365024
891, 2.7049095582091383
891.5, 2.7320998435630344
892, 2.751591175418099
892.5, 2.8501478867368064
893, 2.987276276735642
893.5, 3.1330420818072326
894, 3.274751275889372
894.5, 3.380782313587858
895, 3.41781501724509
895.5, 3.448414517473182
896, 3.5543408549208664
896.5, 3.6678469310882065
897, 3.712910873931321
897.5, 3.7700628681218546
898, 3.8935845614326183
898.5, 3.9797607176144254
899, 3.9766364090774857
899.5, 3.9674548606762983
900, 4.000444283322409
900.5, 4.061359302527052
901, 4.127679461409471
901.5, 4.177699933024314
902, 4.244461350380746
902.5, 4.38375335753679
903, 4.5547317486994245
903.5, 4.686519324890597
904, 4.781629912623188
904.5, 4.857532041716496
905, 4.902670333224577
905.5, 4.9162075566940615
906, 4.93749644543756
906.5, 4.976424392104377
907, 4.985745849057594
907.5, 4.988974732863483
908, 5.093237594880151
908.5, 5.2708791733620615
909, 5.386237474008311
909.5, 5.431902844793697
910, 5.4762300134386805
910.5, 5.552927534667077
911, 5.668676731969285
911.5, 5.774823025628081
912, 5.829707922131604
912.5, 5.867731565258623
913, 5.925514512551118
913.5, 6.009939275865719
914, 6.120413892881828
914.5, 6.25052839792464
915, 6.382012162812941
915.5, 6.48554492041481
916, 6.560546741632919
916.5, 6.631580078482116
917, 6.736946788079393
917.5, 6.911159330493987
918, 7.114214157322891
918.5, 7.284606099031578
919, 7.399549649137995
919.5, 7.469288455529835
920, 7.571509317987946
920.5, 7.7555173510388045
921, 7.983180766253071
921.5, 8.190745502704289
922, 8.296480007076681
922.5, 8.314409092093129
923, 8.35548128829889
923.5, 8.427916156158247
924, 8.463529932340776
924.5, 8.448557862822426
925, 8.40468904913746
925.5, 8.383047991365203
926, 8.42412192541012
926.5, 8.477740118951033
927, 8.496360461497488
927.5, 8.507525549746461
928, 8.537055615955154
928.5, 8.580977041393666
929, 8.641668788904099
929.5, 8.734985785573457
930, 8.866221192972318
930.5, 9.027420580689721
931, 9.189356836604219
931.5, 9.316302300990657
932, 9.445615945125226
932.5, 9.633320638978901
933, 9.826696207330968
933.5, 9.952580833063934
934, 10.010163679366372
934.5, 10.018096013424923
935, 9.999662237121171
935.5, 9.969945356063405
936, 9.927938474269197
936.5, 9.901962761943508
937, 9.95670386804106
937.5, 10.050498081375167
938, 10.051905013683452
938.5, 10.00565778916338
939, 10.057178955864856
939.5, 10.175245036065306
940, 10.263453957684206
940.5, 10.338806677279848
941, 10.44276778282142
941.5, 10.566495434702475
942, 10.687489509567456
942.5, 10.778194030361334
943, 10.837749956646874
943.5, 10.912807563219431
944, 11.01365309247258
944.5, 11.10022386528351
945, 11.16058378672389
945.5, 11.210393789460781
946, 11.258006057325758
946.5, 11.303739944326665
947, 11.327728199603158
947.5, 11.323240226481204
948, 11.395686542369958
948.5, 11.613757626779233
949, 11.799286369675613
949.5, 11.832197996842893
950, 11.854485929841289
950.5, 11.953482749220285
951, 12.063135087882898
951.5, 12.14249468629059
952, 12.198921262391764
952.5, 12.261563537732187
953, 12.368752406888092
953.5, 12.484142155348934
954, 12.53917426413149
954.5, 12.55847335416216
955, 12.59206628871371
955.5, 12.620976346370512
956, 12.632971056931467
956.5, 12.702881362241172
957, 12.865327354978703
957.5, 13.027023209151153
958, 13.12685548450645
958.5, 13.182366044103972
959, 13.239753010467709
959.5, 13.36337132598213
960, 13.517618511231746
960.5, 13.598846134434055
961, 13.633430743467372
961.5, 13.70614697170906
962, 13.789611027144886
962.5, 13.829751139895762
963, 13.854936509743354
963.5, 13.894401726919412
964, 13.91128947435027
964.5, 13.881912751508025
965, 13.836538312918321
965.5, 13.823718450284545
966, 13.905325041583424
966.5, 14.048300531814576
967, 14.125679842264802
967.5, 14.125438973551994
968, 14.123485753508703
968.5, 14.170028479174022
969, 14.284646780401232
969.5, 14.391916072995102
970, 14.429198252282958
970.5, 14.534666725590853
971, 14.793340573885672
971.5, 14.993363105335959
972, 15.01042009718617
972.5, 14.994427677773132
973, 15.030845267434486
973.5, 15.07143821808556
974, 15.100528324469721
974.5, 15.14282473260721
975, 15.193405760718775
975.5, 15.232741150261802
976, 15.308949657305405
976.5, 15.482445329441816
977, 15.68659478934876
977.5, 15.834814707679953
978, 15.93787519270957
978.5, 16.015454419101076
979, 16.048319743364516
979.5, 16.032779195046317
980, 16.006114246045016
980.5, 16.014162243701435
981, 16.10564441164837
981.5, 16.276728990001004
982, 16.473875550946644
982.5, 16.646076460053408
983, 16.75985459711596
983.5, 16.897257843948665
984, 17.150498244263005
984.5, 17.371640204793437
985, 17.40568541480124
985.5, 17.36203639083695
986, 17.356605177572504
986.5, 17.371756949478183
987, 17.39576491070926
987.5, 17.46240903047766
988, 17.577889169620605
988.5, 17.709033614385007
989, 17.837208168399542
989.5, 17.957445188401735
990, 18.047111290583786
990.5, 18.084476810683668
991, 18.140608445677742
991.5, 18.290825868163438
992, 18.422846963178444
992.5, 18.424665825935435
993, 18.384231904965844
993.5, 18.383154688156537
994, 18.38861967804182
994.5, 18.38342537581528
995, 18.4027965528377
995.5, 18.467413625302243
996, 18.574277181374867
996.5, 18.707346125907208
997, 18.840547672568647
997.5, 18.946048380274632
998, 19.00571066699716
998.5, 19.07460626351616
999, 19.209001391042918
999.5, 19.32590820220281
1000, 19.349330565823138
1000.5, 19.355280044481603
1001, 19.403990085684427
1001.5, 19.454722152305067
1002, 19.505540424234084
1002.5, 19.632797109883143
1003, 19.82278235674194
1003.5, 19.961068949429404
1004, 20.045001678175183
1004.5, 20.154899121149697
1005, 20.268896974928523
1005.5, 20.32622122436922
1006, 20.39841017957231
1006.5, 20.565274571814413
1007, 20.71123703316937
1007.5, 20.729070599704073
1008, 20.69659007274889
1008.5, 20.698866049108574
1009, 20.76369825326708
1009.5, 20.880449993500932
1010, 20.99397899098078
1010.5, 21.086908444641566
1011, 21.18345625565337
1011.5, 21.280815611579214
1012, 21.357130054519487
1012.5, 21.4160893570687
1013, 21.471451263945028
1013.5, 21.513637973698962
1014, 21.536331788394534
1014.5, 21.582538612089863
1015, 21.685764453928215
1015.5, 21.8172869980274
1016, 21.93906240634408
1016.5, 22.016940529509156
1017, 22.05820412511453
1017.5, 22.12416001305664
1018, 22.211496472582965
1018.5, 22.256638866456242
1019, 22.301207093132703
1019.5, 22.445455831450843
1020, 22.63667456684101
1020.5, 22.764953198861406
1021, 22.836761716783926
1021.5, 22.909712937629635
1022, 23.08008142665018
1022.5, 23.372591152696145
1023, 23.59991244210792
1023.5, 23.6640802303412
1024, 23.694327790954205
1024.5, 23.774221744278435
1025, 23.893796069367312
1025.5, 24.01035521601301
1026, 24.065246505529245
1026.5, 24.10803240723888
1027, 24.24176573092096
1027.5, 24.414878674613107
1028, 24.527178698198668
1028.5, 24.61214282387064
1029, 24.724309356401776
1029.5, 24.835108902928766
1030, 24.91711630611654
1030.5, 24.99194041728225
1031, 25.07359450580647
1031.5, 25.14973583409966
1032, 25.201134751884183
1032.5, 25.207057900119295
1033, 25.216971374719975
1033.5, 25.330452785679967
1034, 25.50837849951688
1034.5, 25.6376586016612
1035, 25.715692644360615
1035.5, 25.782709225412347
1036, 25.843932621784973
1036.5, 25.900719635894546
1037, 25.978027833262587
1037.5, 26.088889013268755
1038, 26.207594423940606
1038.5, 26.34910610293481
1039, 26.60009342155385
1039.5, 26.925280701421926
1040, 27.147677550671816
1040.5, 27.237067629554048
1041, 27.28899361945892
1041.5, 27.357317682652535
1042, 27.462092073829666
1042.5, 27.578230536051777
1043, 27.669903526257826
1043.5, 27.738535060181647
1044, 27.804238907374113
1044.5, 27.911896172852707
1045, 28.075516576768564
1045.5, 28.231153512426843
1046, 28.332985389383552
1046.5, 28.37945736823697
1047, 28.377130194542545
1047.5, 28.34092934346262
1048, 28.341851616850434
1048.5, 28.477140648666918
1049, 28.6710486204435
1049.5, 28.77905102219289
1050, 28.84320315362835
1050.5, 28.950956059007012
1051, 29.065602797298453
1051.5, 29.150728349522936
1052, 29.270522358358534
1052.5, 29.45346193310671
1053, 29.61690101689105
1053.5, 29.714235368077354
1054, 29.77100487992223
1054.5, 29.80216090857185
1055, 29.808067384449657
1055.5, 29.82371708155962
1056, 29.904661080182237
1056.5, 30.053740247643574
1057, 30.240786519968808
1057.5, 30.407171177110627
1058, 30.50414189097721
1058.5, 30.56557623844057
1059, 30.643298473312527
1059.5, 30.780291621307597
1060, 30.978127863683312
1060.5, 31.16177808883593
1061, 31.290501356992905
1061.5, 31.381820074956266
1062, 31.429551056050855
1062.5, 31.40512730784475
1063, 31.348093191450047
1063.5, 31.336763751984805
1064, 31.365756625303916
1064.5, 31.398556503295822
1065, 31.46106440571687
1065.5, 31.57725043644598
1066, 31.680700175657392
1066.5, 31.719397955925004
1067, 31.735097542322094
1067.5, 31.76487078146127
1068, 31.809315482931083
1068.5, 31.859351252451802
1069, 31.898509251793357
1069.5, 31.912975997717467
1070, 31.896488776352413
1070.5, 31.898795538861606
1071, 31.992454788729106
1071.5, 32.13817336344576
1072, 32.26325419672138
1072.5, 32.39702869301645
1073, 32.57634984976852
1073.5, 32.74579758155508
1074, 32.854923907663476
1074.5, 32.91607329145586
1075, 32.94912045030583
1075.5, 32.970334864442094
1076, 32.98691257407512
1076.5, 32.99544459017325
1077, 32.99431224373521
1077.5, 32.98553015255251
1078, 32.987759826947766
1078.5, 33.026870262934736
1079, 33.10557290461212
1079.5, 33.210062304917045
1080, 33.29610250562223
1080.5, 33.33752950938032
1081, 33.39952781447913
1081.5, 33.517859387434584
1082, 33.61727001889787
1082.5, 33.682486817314214
1083, 33.817338204825774
1083.5, 34.01100730169466
1084, 34.11481740219581
1084.5, 34.111235059923246
1085, 34.094602646103226
1085.5, 34.122051293202304
1086, 34.21456472380322
1086.5, 34.31106955260658
1087, 34.340873432675465
1087.5, 34.34524613319813
1088, 34.363471474680125
1088.5, 34.328084667555686
1089, 34.2099578999827
1089.5, 34.107876839612075
1090, 34.086435266313444
1090.5, 34.13112969803612
1091, 34.20172529093627
1091.5, 34.242856889679686
1092, 34.28719763851103
1092.5, 34.42067094340413
1093, 34.570460858543385
1093.5, 34.6018553543754
1094, 34.55559213516423
1094.5, 34.52417592458238
1095, 34.52607342444932
1095.5, 34.55531332044647
1096, 34.59276927283979
1096.5, 34.625093242573755
1097, 34.65565491218081
1097.5, 34.687658392354294
1098, 34.72049250618193
1098.5, 34.73838889740456
1099, 34.713137670746136
1099.5, 34.658140095269545
1100, 34.616068291007565
1100.5, 34.61156859562681
1101, 34.65239417775311
1101.5, 34.704560710612554
1102, 34.73441931820645
1102.5, 34.771280784188235
1103, 34.83804594839705
1103.5, 34.89635505349733
1104, 34.92603551876317
1104.5, 34.96177605447991
1105, 35.02522239706606
1105.5, 35.11142025741779
1106, 35.209632543527746
1106.5, 35.30523034033152
1107, 35.38215538519559
1107.5, 35.42473138642157
1108, 35.427829605772374
1108.5, 35.40321126624919
1109, 35.42734474429767
1109.5, 35.565119741275424
1110, 35.753525877650915
1110.5, 35.88814686259744
1111, 35.83691856296238
1111.5, 35.60465966862108
1112, 35.4472405913467
1112.5, 35.42414473484702
1113, 35.31842213307439
1113.5, 35.135253892647256
1114, 35.08447182006351
1114.5, 35.164997676947735
1115, 35.238527971424475
1115.5, 35.22282359371694
1116, 35.09567621265717
1116.5, 35.00471132823297
1117, 35.08593982475638
1117.5, 35.24028516292684
1118, 35.361082081200564
1118.5, 35.449608663926625
1119, 35.507085687998
1119.5, 35.50793182123883
1120, 35.45554620764632
1120.5, 35.388101866434084
1121, 35.27576021154505
1121.5, 35.04217573570925
1122, 34.77432182668001
1122.5, 34.63696362486007
1123, 34.61430120239362
1123.5, 34.62375858304813
1124, 34.64638848521287
1124.5, 34.6849208636568
1125, 34.74950754050545
1125.5, 34.827791146493155
1126, 34.85306686376512
1126.5, 34.80293696251749
1127, 34.737734053451106
1127.5, 34.69068214723475
1128, 34.65426666073044
1128.5, 34.60603549468581
1129, 34.518385055043524
1129.5, 34.41826260478038
1130, 34.35535616872505
1130.5, 34.31583645692348
1131, 34.26817821611081
1131.5, 34.22031538097423
1132, 34.185451187417726
1132.5, 34.15821334759738
1133, 34.12910380874658
1133.5, 34.08753871581925
1134, 34.02576611758741
1134.5, 33.94005798555612
1135, 33.813312794272235
1135.5, 33.61934842819406
1136, 33.42071625753428
1136.5, 33.33196734525245
1137, 33.30099732760584
1137.5, 33.21277148426924
1138, 33.142411748433574
1138.5, 33.192524754242086
1139, 33.26704043033891
1139.5, 33.25830043836066
1140, 33.17941681446703
1140.5, 33.074338970977124
1141, 33.00345580697446
1141.5, 32.94400027595182
1142, 32.75803956575096
1142.5, 32.47794378999646
1143, 32.30958135784927
1143.5, 32.31046729473722
1144, 32.41675389855227
1144.5, 32.50817792263129
1145, 32.47064630193239
1145.5, 32.390992141939506
1146, 32.375421622326456
1146.5, 32.315112920159564
1147, 32.13104167416462
1147.5, 31.971895509140296
1148, 31.925603013642558
1148.5, 31.89169778276947
1149, 31.82198802328392
1149.5, 31.766230566038118
1150, 31.73840892209293
1150.5, 31.711118794827286
1151, 31.65835100613488
1151.5, 31.561215105865045
1152, 31.441688655737977
1152.5, 31.335876764267994
1153, 31.24737786330148
1153.5, 31.167860006385922
1154, 31.086111770232463
1154.5, 30.99328646069533
1155, 30.88828511201237
1155.5, 30.765722814152397
1156, 30.611179438236746
1156.5, 30.443344285422654
1157, 30.321656461699874
1157.5, 30.249601830605982
1158, 30.18092676081666
1158.5, 30.117097802656687
1159, 30.084538137848583
1159.5, 30.051893235972884
1160, 29.979797981729618
1160.5, 29.92640236970088
1161, 29.93345894421458
1161.5, 29.875703470525195
1162, 29.665829176156933
1162.5, 29.396343158228888
1163, 29.159150831013477
1163.5, 28.99851673671806
1164, 28.908576232503748
1164.5, 28.828444781750136
1165, 28.69698289429121
1165.5, 28.464396987621967
1166, 28.176501357038916
1166.5, 27.94029441364384
1167, 27.8790332902543
1167.5, 28.06404252431686
1168, 28.28428510850459
1168.5, 28.36093849720335
1169, 28.499279263909713
1172, 28.673877648190327
1172.5, 28.125513360737017
1173, 27.860494898933013
1173.5, 27.80896576065045
1174, 27.632221705556134
1174.5, 27.326071021794903
1175, 27.01996486970502
1175.5, 26.82175726876055
1176, 26.76011332054361
1176.5, 26.639643442736514
1177, 26.365400781665443
1177.5, 26.14673684771283
1178, 26.0869733508666
1178.5, 26.07175277151856
1179, 26.023668851649518
1179.5, 25.92547001568954
1180, 25.77194354932317
1180.5, 25.572227126362193
1181, 25.40477769596359
1181.5, 25.34229264482481
1182, 25.185302870133157
1182.5, 24.74291170359308
1183, 24.302877235015572
1183.5, 24.121586744417883
1184, 24.000158810559128
1184.5, 23.794351941467625
1185, 23.632820618790703
1185.5, 23.585784043758338
1186, 23.59476695816045
1186.5, 23.627613505005286
1187, 23.68518215849322
1187.5, 23.715079901338356
1188, 23.639720587801236
1188.5, 23.510865996866627
1189, 23.41879349053916
1189.5, 23.28597360689419
1190, 23.024208168051373
1190.5, 22.743552639205532
1191, 22.55742904442991
1191.5, 22.455231459895515
1192, 22.404865059283978
1192.5, 22.373581801321293
1193, 22.353449314810604
1193.5, 22.36706649387797
1194, 22.373983107891632
1194.5, 22.280785797195946
1195, 22.119149070656476
1195.5, 21.997740331982143
1196, 21.938038706994234
1196.5, 21.910287695200793
1197, 21.84144431089068
1197.5, 21.67723527163571
1198, 21.4869472653276
1198.5, 21.350132573410505
1199, 21.298582234360254
1199.5, 21.27211601580335
1200, 21.065815754492235
1200.5, 20.6944091719443
1201, 20.456457539433814
1201.5, 20.375877318468028
1202, 20.22921570791638
1202.5, 20.018949676356073
1203, 19.881218937789924
1203.5, 19.80676059213546
1204, 19.723212287131105
1204.5, 19.58234525051651
1205, 19.37620669578007
1205.5, 19.209547849231924
1206, 19.15971190561784
1206.5, 19.179494753764743
1207, 19.185739749928402
1207.5, 19.069626701657697
1208, 18.856306974466705
1208.5, 18.72395987878656
1209, 18.662483141186712
1209.5, 18.51017805664422
1210, 18.301319346441886
1210.5, 18.173297952404525
1211, 18.120726745098068
1211.5, 18.085644546360925
1212, 18.05669375761842
1212.5, 18.01414194442782
1213, 17.86594438370875
1213.5, 17.60103832518527
1214, 17.42113415591801
1214.5, 17.370140210746555
1215, 17.203218913825538
1215.5, 16.900844816384406
1216, 16.715410587074402
1216.5, 16.697683702143394
1217, 16.721486257705706
1217.5, 16.647654467463624
1218, 16.374934214214477
1218.5, 16.08269612498451
1219, 15.989775294719095
1219.5, 15.982678799066107
1220, 15.901752786406576
1220.5, 15.730228221465765
1221, 15.491750859409933
1221.5, 15.237776170495366
1222, 15.00831939350168
1222.5, 14.8194991531617
1223, 14.649171605539252
1223.5, 14.442091802180897
1224, 14.228613611138755
1224.5, 14.095960876332967
1225, 14.037737360742724
1225.5, 13.98725916451815
1226, 13.825810829228388
1226.5, 13.477703062058808
1227, 13.129493577352093
1227.5, 12.939507839468746
1228, 12.789041993094898
1228.5, 12.58980607645249
1229, 12.411812838017696
1229.5, 12.2983953014258
1230, 12.228137616894486
1230.5, 12.1676662695032
1231, 12.077978940672565
1231.5, 11.94069794163849
1232, 11.760385918509002
1232.5, 11.609431523017761
1233, 11.559354753162424
1233.5, 11.476990107103305
1234, 11.229116868033628
1234.5, 10.96987772371044
1235, 10.848322100169497
1235.5, 10.809911409325991
1236, 10.738381828643142
1236.5, 10.469653381791431
1237, 10.0239156276904
1237.5, 9.665700046441998
1238, 9.479191149599274
1238.5, 9.361686091153999
1239, 9.231994192103784
1239.5, 9.0418773470129
1240, 8.84907193132453
1240.5, 8.730111630444071
1241, 8.587775714710318
1241.5, 8.32797416005721
1242, 8.082756934091421
1242.5, 7.9460267737457
1243, 7.785206087957462
1243.5, 7.544451875083013
1244, 7.36320013382408
1244.5, 7.279046877340562
1245, 7.179910933153309
1245.5000000000002, 7.027383798918123
1246, 6.858944957071543
1246.5, 6.720676183914165
1247.0000000000002, 6.6543375994657055
1247.5, 6.640676970116232
1248, 6.631826731670813
1248.5, 6.575593056962191
1249, 6.436790145712976
1249.5, 6.243345997407488
1250, 6.039683797929456
1250.5, 5.8767734367905575
1251, 5.777172537434964
1251.5, 5.714600101472016
1252, 5.667452543133379
1252.5, 5.624382122588045
1253, 5.559468645708222
1253.5, 5.439067875454782
1254, 5.285578461132175
1254.5, 5.143315970048008
1255, 4.97000466677882
1255.5, 4.7224070095713415
1256, 4.528852839521591
1256.5, 4.49126266642287
1257, 4.462927144731125
1257.5, 4.3197119424684445
1258, 4.1000785507185356
1258.5, 3.876649859062283
1259, 3.738524414141608
1259.5, 3.699668577714874
1260.0000000000002, 3.6909490310389117
1260.5, 3.6911490674289666
1261, 3.716007046729814
1261.5000000000002, 3.729308989513129
1262, 3.6789067857502715
1262.5, 3.6075127736474144
1263.0000000000002, 3.5700458205520533
1263.5, 3.5059222133814814
1264, 3.3638044168760217
1264.5000000000002, 3.2169254278429094
1265, 3.110757074251495
1265.5, 2.9843726229386363
1266, 2.83952977994673
1266.5, 2.78696874115964
1267, 2.8334569638438865
1267.5, 2.871793051332901
1268, 2.8808831349746526
1268.5, 2.900804271025848
1269, 2.8926214173604166
1269.5, 2.797831488576648
1270, 2.704789784355299
1270.5, 2.703639333246059
1271, 2.6611340788471978
1271.5, 2.4719447413024938
1272, 2.274139451400359
1272.5, 2.1711024285455665
1273, 2.1133408660823676
1273.5, 2.0750787937970756
1274, 2.087292280141014
1274.5, 2.142202470607387
1275, 2.1913085425966727
1275.5, 2.218949646292245
1276.0000000000002, 2.232717948743101
1276.5, 2.2262452883444723
1277, 2.189407932388832
1277.5000000000002, 2.132783237773154
1278, 2.0707120828864447
1278.5, 2.003546455724006
1279.0000000000002, 1.934278227502375
1279.5, 1.8819421298950658
1280, 1.8606417383016378
1280.5000000000002, 1.869918569271249
1281, 1.8908429484599765
1281.5, 1.8839195304723972
1282, 1.8468010770997836
1282.5, 1.812635987227452
1283, 1.8012576031185006
1283.5, 1.818095805996819
1284, 1.8332414613698376
1284.5, 1.8106747855004812
1285, 1.7717264936955672
1285.5, 1.7485170008710185
1286, 1.7427815426059254
1286.5, 1.745583542868161
1287, 1.7386616143655544
1287.5, 1.7096845816960382
1288, 1.6600579631757881
1288.5, 1.6200710646229766
1289, 1.649923025884803
1289.5, 1.7252041029206708
1290, 1.7570651978789584
1290.5, 1.80659285575571
1291, 1.999146850131055
1291.5, 2.213146908634556
1292.0000000000002, 2.2685884870562774
1292.5, 2.253803957557693
1293, 2.2885011264435065
1293.5000000000002, 2.3130638207049685
1294, 2.2784569073899377
1294.5, 2.2500660487907993
1295.0000000000002, 2.2665435264125904
1295.5, 2.29570296038014
1296, 2.3255431940340685
1296.5000000000002, 2.3738177329410632
1297, 2.4246901898474107
1297.5, 2.4364784993843926
1298.0000000000002, 2.4103985239846395
1298.5, 2.3705876178861445
1299, 2.317051658770879
1299.5, 2.24670566863459
1300, 2.1906605175870766
1300.5, 2.166716751058516
1301, 2.118271848379777
1301.5, 2.025080231634803
1302, 1.9792384198256059
1302.5, 2.015840739810727
1303, 2.058875899942379
1303.5, 2.0721408346965973
1304, 2.0740328962758667
1304.5, 2.073780571086175
1305, 2.068171572140983
1305.5, 2.0262469683573556
1306, 1.9192383912848214
1306.5, 1.833758805026477
1307, 1.8630534763527038
1307.5, 1.927260056134756
1308.0000000000002, 1.949326401004953
1308.5, 2.0026478695692305
1309, 2.0907310392425416
1309.5000000000002, 2.0165008234230157
1310, 1.7625593080471873
1310.5, 1.6044455516790777
1311.0000000000002, 1.5974247566578583
1311.5, 1.5501130866924484
1312.0000000000002, 1.4203659017741899
1312.5000000000002, 1.2838542945931835
1313, 1.1819266777778665
1313.5000000000002, 1.1363301849763872
1314.0000000000002, 1.1710706935152615
1314.5, 1.2874440332386428
1315.0000000000002, 1.3896359336859945
1315.5, 1.4084333305637244
1316, 1.4193679546597195
1316.5000000000002, 1.4627626742214659
1317, 1.461506597435445
1317.5, 1.3915716350833662
1318.0000000000002, 1.319470579261619
1318.5, 1.2596951967182548
1319, 1.1723402478805696
1319.5000000000002, 1.07186864075463
1320, 1.0063868842020156
1320.5, 0.9662766124681639
1321.0000000000002, 0.9254729665273658
1321.5, 0.9321490493920095
1322, 1.0316536902975457
1322.5000000000002, 1.1576264087960482
1323, 1.2523754616663325
1323.5, 1.3518550549280377
1324.0000000000002, 1.462266313867545
1324.5, 1.5080310567044677
1325, 1.4703300317543295
1325.5000000000002, 1.4146465586764236
1326, 1.3684639768039801
1326.5, 1.3194158913123744
1327.0000000000002, 1.2710608105309262
1327.5, 1.2381539864673243
1328.0000000000002, 1.2310043499093553
1328.5000000000002, 1.2473429446185236
1329, 1.22996925678666
1329.5000000000002, 1.141136187636178
1330.0000000000002, 1.0786000803967966
1330.5, 1.123505281888086
1331.0000000000002, 1.2397659471669158
1331.5000000000002, 1.374822817203821
1332, 1.4792719972078459
1332.5000000000002, 1.5277994565497437
1333, 1.525192199734164
1333.5, 1.4878570335943238
1334.0000000000002, 1.439710046963981
1334.5, 1.391566804355108
1335, 1.3449855984799939
1335.5000000000002, 1.2958299139197322
1336, 1.241610175134312
1336.5, 1.2003375084173626
1337.0000000000002, 1.1899421682267217
1337.5, 1.2065931507193568
1338, 1.2392074797095773
1338.5000000000002, 1.270443469502311
1339, 1.2783033905254797
1339.5, 1.2361045167359777
1340.0000000000002, 1.1637520365197531
1340.5, 1.1329089331085527
1341, 1.1582921105722193
1341.5000000000002, 1.2025407793814793
1342, 1.2095679834643107
1342.5, 1.1294729252944933
1343.0000000000002, 1.0254403742581673
1343.5, 0.9855875484465884
1344.0000000000002, 0.9927057650724862
1344.5000000000002, 1.0085071704442754
1345, 1.0249419943242657
1345.5000000000002, 1.0408753057973286
1346.0000000000002, 1.0572032256203272
1346.5, 1.0736539252530406
1347.0000000000002, 1.0879227938128935
1347.5000000000002, 1.1031007313772676
1348, 1.1278579042057544
1348.5000000000002, 1.1616998047438756
1349, 1.195175150128776
1349.5, 1.2046234708622592
1350.0000000000002, 1.1669140886915557
1350.5, 1.1129874539314528
1351, 1.0809608695554118
1351.5000000000002, 1.0470545564767093
1352, 0.9979009053369339
1352.5, 1.0009193674867447
1353.0000000000002, 1.0925160512432797
1353.5, 1.2143416156489337
1354, 1.3155215206417523
1354.5000000000002, 1.3740071437345591
1355, 1.386637785668114
1355.5, 1.3676691356386925
1356.0000000000002, 1.33220469800591
1356.5, 1.2911282806150695
1357, 1.216935054705985
1357.5000000000002, 1.0771877669571097
1358, 0.9321920650126714
1358.5, 0.8519763536256306
1359.0000000000002, 0.8055767761637895
1359.5, 0.7611720538111371
1360, 0.7561396952412025
1360.5000000000002, 0.8055078226974786
1361, 0.8583777815884588
1361.5000000000002, 0.9004551361204989
1362.0000000000002, 0.9749895178520944
1362.5, 1.0478878048768507
1363.0000000000002, 1.01426578481464
1363.5000000000002, 0.8983838171623688
1364, 0.8071081176910297
1364.5000000000002, 0.7558173432672675
1365.0000000000002, 0.7208288470624495
1365.5, 0.7215958494680592
1366.0000000000002, 0.782441065061434
1366.5, 0.8883814900948295
1367, 1.0094326289214592
1367.5000000000002, 1.1011005388884456
1368, 1.138734944985444
1368.5, 1.1384456513047638
1369.0000000000002, 1.120562954789591
1369.5, 1.1042883766219944
1370, 1.0896244870191936
1370.5000000000002, 1.0594998683964434
1371, 1.0063132621490638
1371.5, 0.9309991183213953
1372.0000000000002, 0.8484166939814912
1372.5, 0.7734879719895105
1373, 0.6873205610274482
1373.5000000000002, 0.5787318358112401
1374, 0.5036361995407503
1374.5, 0.4983383283398837
1375.0000000000002, 0.5143949466287268
1375.5, 0.534576738792623
1376, 0.6166087292908458
1376.5000000000002, 0.7812020940840654
1377, 0.9912995953863657
1377.5000000000002, 1.1531034293425932
1378.0000000000002, 1.1434769688404884
1378.5, 1.0368294457854148
1379.0000000000002, 1.0053379085490093
1379.5000000000002, 1.0216796218448252
1380, 0.9949450659775891
1380.5000000000002, 0.9606080470114335
1381.0000000000002, 0.9697946100472876
1381.5, 0.9957519490186542
1382.0000000000002, 1.0115552948446407
1382.5000000000002, 1.0274756674269554
1383, 1.046348704872969
1383.5000000000002, 1.0506991307504592
1384, 1.0336541002533153
1384.5, 1.0038815505587593
1385.0000000000002, 0.9877024341191145
1385.5, 1.019659431881493
1386, 1.0743597518195713
1386.5000000000002, 1.0950741522332805
1387, 1.055237850855761
1387.5, 0.9559230513461614
1388.0000000000002, 0.8666313737328721
1388.5, 0.8434406904651155
1389, 0.8385795449529638
1389.5000000000002, 0.817066365162816
1390, 0.8156476673608637
1390.5, 0.8496063041395985
1391.0000000000002, 0.8874784550959589
1391.5, 0.9178393964910043
1392, 0.9551006667303028
1392.5000000000002, 1.005368182580085
1393, 1.0666585639369828
1393.5000000000002, 1.1320507221589224
1394.0000000000002, 1.1914432608770085
1394.5, 1.2313205254834116
1395.0000000000002, 1.2413017069416412
1395.5000000000002, 1.230250191869942
1396, 1.2182359976194164
1396.5000000000002, 1.242632811515719
1397.0000000000002, 1.2777398720643731
1397.5, 1.165235971584579
1398.0000000000002, 0.8998286080411901
1398.5000000000002, 0.7162256114738597
1399, 0.7149511648718203
1399.5000000000002, 0.8357203530661792
1400, 0.9893733928445982
