299.5, 59.00408767785704
300, 59.02714432334184
300.5, 59.048082569618984
301, 59.03889423458733
301.5, 59.08871623721841
302, 59.15097077593195
302.5, 59.144850995434425
303, 59.1341763619516
303.5, 59.19173334828358
304, 59.26358196675573
304.5, 59.29907321797194
305, 59.320249909461204
305.5, 59.35007449485409
306, 59.39478296658965
306.5, 59.44132841036882
307, 59.458139283197575
307.5, 59.45859570903605
308, 59.49021580347946
308.5, 59.544686914065174
309, 59.58463355592769
309.5, 59.61230510639231
310, 59.64343468052263
310.5, 59.67623846972238
311, 59.70688892912143
311.5, 59.7417241990161
312, 59.77920388356187
312.5, 59.79628595469071
313, 59.81284637950527
313.5, 59.91648990373193
314, 60.06524099433765
314.5, 60.07794225214074
315, 59.988896031191764
315.5, 59.99211260640787
316, 60.08069832789441
316.5, 60.145707656499084
317, 60.18349809861682
317.5, 60.22281569953422
318, 60.24546800161145
318.5, 60.241603154833726
319, 60.26597458414595
319.5, 60.34407463064868
320, 60.41464097214484
320.5, 60.43838313281295
321, 60.4257987887899
321.5, 60.40796111640952
322, 60.43052514763333
322.5, 60.49504194197416
323, 60.569661114358404
323.5, 60.629470930350486
324, 60.66098954598012
324.5, 60.69494288115296
325, 60.761641654657964
325.5, 60.82023669621368
326, 60.83715109159904
326.5, 60.851969807348766
327, 60.896517720254586
327.5, 60.961490565025215
328, 61.02884112255068
328.5, 61.075522372563285
329, 61.089515759274256
329.5, 61.07390017174929
330, 61.08098209859247
330.5, 61.180401450528095
331, 61.29027666474556
331.5, 61.28849691538619
332, 61.26670969259989
332.5, 61.337560602511736
333, 61.398986281073036
333.5, 61.37012466851436
334, 61.36564581634404
334.5, 61.44978055131842
335, 61.53367527158459
335.5, 61.577139410888904
336, 61.62459140600418
336.5, 61.676491599276865
337, 61.69204935746993
337.5, 61.70562645521744
338, 61.7885599139767
338.5, 61.89062744112736
339, 61.924329320144416
339.5, 61.91735061923881
340, 61.92551217864904
340.5, 61.966668178584904
341, 62.039981104383656
341.5, 62.119476509000314
342, 62.17940441658054
342.5, 62.202003163767266
343, 62.197321105151445
343.5, 62.20755889942838
344, 62.24364581337559
344.5, 62.28788739372537
345, 62.33703756075314
345.5, 62.39427148611199
346, 62.43672063543992
346.5, 62.44324061473885
347, 62.460661419501925
347.5, 62.53503590133766
348, 62.637047075294014
348.5, 62.729630014828054
349, 62.79563107755444
349.5, 62.8365942055488
350, 62.87939175317583
350.5, 62.92218194181085
351, 62.930161925070024
351.5, 62.9346711969837
352, 63.01449775104717
352.5, 63.139521458546035
353, 63.22306827335402
353.5, 63.24952751578759
354, 63.23964881586931
354.5, 63.241360417760355
355, 63.28943818827704
355.5, 63.351202563225335
356, 63.40696139900202
356.5, 63.495020023213065
357, 63.61374452657972
357.5, 63.68839911339091
358, 63.68740677413026
358.5, 63.637481845673726
359, 63.61246104693698
359.5, 63.70440200944021
360, 63.83710666394391
360.5, 63.86909713027836
361, 63.85999359990072
361.5, 63.91788976503585
362, 64.00900878450071
362.5, 64.07539131422854
363, 64.10387113557047
363.5, 64.10776720455569
364, 64.13744259437634
364.5, 64.20601700199293
365, 64.26585199763969
365.5, 64.29548828188709
366, 64.30799250708247
366.5, 64.34174011485982
367, 64.4425030455482
367.5, 64.55993468696825
368, 64.61228481676353
368.5, 64.64135246945987
369, 64.7116696692292
369.5, 64.78975851852174
370, 64.84539143440088
370.5, 64.92835336685437
371, 65.05198292638804
371.5, 65.13184828317833
372, 65.14189734023412
372.5, 65.15162653955115
373, 65.19337137942848
373.5, 65.25572501042457
374, 65.33230396411066
374.5, 65.41958398034183
375, 65.49634219709213
375.5, 65.53919817558891
376, 65.5635630243178
376.5, 65.59285938386427
377, 65.62860890989884
377.5, 65.67126270083239
378, 65.73232321991726
378.5, 65.81337029698969
379, 65.89421178373733
379.5, 65.95168345388856
380, 65.96412090899875
380.5, 65.95760419727341
381, 65.99771103146328
381.5, 66.08355872653848
382, 66.17414046902061
382.5, 66.27365759480207
383, 66.39503515053397
383.5, 66.4811871630168
384, 66.48298196899721
384.5, 66.46381049197687
385, 66.48938755471104
385.5, 66.56776152320495
386, 66.68384198960739
386.5, 66.79765837244943
387, 66.87238265309954
387.5, 66.88132422701614
388, 66.85661465129914
388.5, 66.8758479895714
389, 66.94446107404431
389.5, 67.02575693372435
390, 67.11823187973404
390.5, 67.22442783846569
391, 67.28702884963747
391.5, 67.2720187343064
392, 67.2870349699005
392.5, 67.40594542269503
393, 67.55369166592246
393.5, 67.65179628132648
394, 67.65454977698404
394.5, 67.62393295312627
395, 67.73336174882456
395.5, 67.96219231125556
396, 68.13169211093724
396.5, 68.17333925430056
397, 68.10171408150963
397.5, 68.02816120936612
398, 68.06637004900463
398.5, 68.1531754657248
399, 68.21209422357853
399.5, 68.28758014143376
400, 68.41418031607573
400.5, 68.5521493616155
401, 68.66799985526879
401.5, 68.75334158093251
402, 68.80128552734936
402.5, 68.8072698913023
403, 68.81473645433759
403.5, 68.89558883720049
404, 69.02820741906555
404.5, 69.14238484809
405, 69.19851275264844
405.5, 69.19050130924637
406, 69.2044812948833
406.5, 69.30766727918646
407, 69.43625788728951
407.5, 69.52700155476789
408, 69.56843924621457
408.5, 69.57163069226816
409, 69.57188678717445
409.5, 69.62190201965845
410, 69.78165091943598
410.5, 69.98304128975667
411, 70.0807484942279
411.5, 70.10268155145108
412, 70.15270323073851
412.5, 70.23008868211058
413, 70.30848828164004
413.5, 70.41702005260098
414, 70.56713160415646
414.5, 70.681650932737
415, 70.71995640750092
415.5, 70.74226000211097
416, 70.79712349624313
416.5, 70.90019090821421
417, 71.0503655091648
417.5, 71.22748846634502
418, 71.34677889689947
418.5, 71.30505934709413
419, 71.22514925303165
419.5, 71.30145714688317
420, 71.49167736597357
420.5, 71.68061269793792
421, 71.79166624132749
421.5, 71.80521287475825
422, 71.82636825751023
422.5, 71.92022386059587
423, 72.0416483379373
423.5, 72.15748028661261
424, 72.2653575943785
424.5, 72.35799043460179
425, 72.42250107442118
425.5, 72.45768498810828
426, 72.47697791603709
426.5, 72.54635389827519
427, 72.72836055543385
427.5, 72.93748765528473
428, 73.0779290669597
428.5, 73.19088302901034
429, 73.30947084544066
429.5, 73.37214319849961
430, 73.38386675205291
430.5, 73.48627109527668
431, 73.71147053740923
431.5, 73.94230456883689
432, 74.10673761536339
432.5, 74.18402229020518
433, 74.19056235976667
433.5, 74.17066218348135
434, 74.20941875601264
434.5, 74.37408427481638
435, 74.55560755931322
435.5, 74.6529535556795
436, 74.77368692942754
436.5, 74.98262024479367
437, 75.14526890299153
437.5, 75.197769262827
438, 75.23587988778036
438.5, 75.30928514781179
439, 75.39733444313184
439.5, 75.48658897082706
440, 75.57573085713474
440.5, 75.69259608772373
441, 75.86779597762342
441.5, 76.03395348094546
442, 76.12462969495333
442.5, 76.26679403557742
443, 76.53813156452897
443.5, 76.68656758893904
444, 76.57835268717106
444.5, 76.47702196899994
445, 76.55566643685466
445.5, 76.76621470658445
446, 77.02148814062528
446.5, 77.21657521409772
447, 77.31686823160547
447.5, 77.3510146537852
448, 77.4165657933769
448.5, 77.61556086004484
449, 77.83830331038139
449.5, 77.93857559323791
450, 77.97206096234113
450.5, 78.02777602682843
451, 78.13199453720812
451.5, 78.28976156991973
452, 78.48543298569625
452.5, 78.66324813314291
453, 78.71880058825951
453.5, 78.69359559335722
454, 78.77192881409648
454.5, 78.95622297801427
455, 79.12145719955721
455.5, 79.2581918666763
456, 79.4102131886034
456.5, 79.56476962853428
457, 79.68833668838225
457.5, 79.74858466138413
458, 79.75014845398462
458.5, 79.79886239388537
459, 79.9678234053488
459.5, 80.2320860421765
460, 80.51210852965083
460.5, 80.67383674965326
461, 80.69381168147889
461.5, 80.65940624564578
462, 80.63680223071904
462.5, 80.67233363767924
463, 80.7982984771693
463.5, 81.02545193107363
464, 81.28231458294616
464.5, 81.47714809259116
465, 81.54939840999873
465.5, 81.51164339359177
466, 81.54620980821198
466.5, 81.72389778670912
467, 81.86604315327868
467.5, 81.91331453925287
468, 81.98983479638528
468.5, 82.11296343933518
469, 82.19716752756486
469.5, 82.24691384320545
470, 82.32284325392928
470.5, 82.43815255060345
471, 82.58197295465308
471.5, 82.73639611661011
472, 82.87279963093039
472.5, 82.93267076150234
473, 82.91297277857048
473.5, 82.96118362764342
474, 83.12864768189057
474.5, 83.26625212485678
475, 83.33349452408693
475.5, 83.44089773929286
476, 83.59085459351778
476.5, 83.69055932325216
477, 83.73223981634005
477.5, 83.76685306707326
478, 83.87069080208755
478.5, 84.09286700784651
479, 84.29724174489093
479.5, 84.35268618116292
480, 84.3326025090898
480.5, 84.35123293553123
481, 84.51690178079144
481.5, 84.79498208019814
482, 84.92792404760701
482.5, 84.87016622997825
483, 84.8356139870975
483.5, 84.89015411882654
484, 84.96867713407711
484.5, 85.04220729457467
485, 85.10797551228715
485.5, 85.1804580905258
486, 85.27021980850775
486.5, 85.33791073952762
487, 85.36542920682011
487.5, 85.44504076202594
488, 85.60901445431601
488.5, 85.71532456565632
489, 85.72085260712525
489.5, 85.7644693511423
490, 85.8846127611037
490.5, 85.99654893439386
491, 86.063929737914
491.5, 86.09702024868477
492, 86.14339249147947
492.5, 86.25489704328521
493, 86.38363091279946
493.5, 86.47316326964
494, 86.59703216526503
494.5, 86.79592740626899
495, 86.91337814877998
495.5, 86.88518409655282
496, 86.90526347247729
496.5, 87.04210896069416
497, 87.14198391136483
497.5, 87.14040745860441
498, 87.08334406846829
498.5, 87.02522783105604
499, 87.01787614331498
499.5, 87.06753744560439
500, 87.14951763192516
500.5, 87.19733863933075
501, 87.16671746460678
501.5, 87.16321323038117
502, 87.26418771198261
502.5, 87.36681535669965
503, 87.40043877762302
503.5, 87.41422470266095
504, 87.43362890248267
504.5, 87.43506122570561
505, 87.43084581238945
505.5, 87.46531468319833
506, 87.5000584242827
506.5, 87.45296124181884
507, 87.3651320048848
507.5, 87.31898241671894
508, 87.28649539796956
508.5, 87.22735317882817
509, 87.19782806412121
509.5, 87.22652549557569
510, 87.2128666813408
510.5, 87.11176682330799
511, 87.01456729866739
511.5, 86.98078443495112
512, 87.00595883671757
512.5, 86.99232830921123
513, 86.78383899103298
513.5, 86.5072933222398
514, 86.42705948180325
514.5, 86.42261665890102
515, 86.26455986210816
515.5, 86.0913158707969
516, 86.07013355713417
516.5, 86.05206472211594
517, 85.91727605217484
517.5, 85.78418449100464
518, 85.71771063200794
518.5, 85.63306577106009
519, 85.49817141300046
519.5, 85.36047714684987
520, 85.22919286673508
520.5, 85.07950116366462
521, 84.92392714304825
521.5, 84.7963997854385
522, 84.71301943746069
522.5, 84.67108892047261
523, 84.61539373145716
523.5, 84.49886439954746
524, 84.35347124507362
524.5, 84.2036490087779
525, 84.02013393093152
525.5, 83.80843675497532
526, 83.63972823059439
526.5, 83.52255661822434
527, 83.39073876135924
527.5, 83.24120808531511
528, 83.11977301166047
528.5, 83.00746353160032
529, 82.8548496303793
529.5, 82.66822309728519
530, 82.47380537998616
530.5, 82.2835700504132
531, 82.10870077011693
531.5, 81.97032922105294
532, 81.86604023972033
532.5, 81.74004372885715
533, 81.60351913064369
533.5, 81.57288094411209
534, 81.58800708061858
534.5, 81.40560088221301
535, 81.04646683488963
535.5, 80.73255421590613
536, 80.58290939719323
536.5, 80.6172909657813
537, 80.60775897914002
537.5, 80.34851245976566
538, 80.13191939958898
538.5, 80.19712014302456
539, 80.24644619737138
539.5, 80.05403642866517
540, 79.73487998625211
540.5, 79.43980243442395
541, 79.30528139359318
541.5, 79.30229780624299
542, 79.2467108826374
542.5, 79.13557129146501
543, 79.08627614903202
543.5, 79.06177868460313
544, 78.96070107470719
544.5, 78.78364910819343
545, 78.57517976965987
545.5, 78.40658099260082
546, 78.32357808061319
546.5, 78.28438065584383
547, 78.25435723950282
547.5, 78.2392998330077
548, 78.19315702374777
548.5, 78.00417700329778
549, 77.78489686993028
549.5, 77.83504040742194
550, 78.01833545906051
550.5, 77.9478461440455
551, 77.69667806514396
551.5, 77.52408441969342
552, 77.46143243831061
552.5, 77.45558785038081
553, 77.42949923633799
553.5, 77.3380151863774
554, 77.23153329982652
554.5, 77.14689516617429
555, 77.0696983778388
555.5, 76.98525988528105
556, 76.88691352707164
556.5, 76.79905627660713
557, 76.76948820601214
557.5, 76.79304220339436
558, 76.82824213428735
558.5, 76.82467833574262
559, 76.74712552550331
559.5, 76.65771993285645
560, 76.62353547676334
560.5, 76.62045784650739
561, 76.60410194817669
561.5, 76.52981933267559
562, 76.40599172548261
562.5, 76.32910477138338
563, 76.3471348994715
563.5, 76.43683621496636
564, 76.52832897081282
564.5, 76.52461758454243
565, 76.43197197233529
565.5, 76.32072281786635
566, 76.26059010455641
566.5, 76.29463946731472
567, 76.34140095503146
567.5, 76.32722167785464
568, 76.32559916265873
568.5, 76.38190935736269
569, 76.41123264763283
569.5, 76.39437865604711
570, 76.44175202281497
570.5, 76.55971651327731
571, 76.62905821296624
571.5, 76.62643570290429
572, 76.608408432996
572.5, 76.59324449895006
573, 76.57664311564398
573.5, 76.56109144071524
574, 76.54881272142265
574.5, 76.52791772933249
575, 76.49253738039651
575.5, 76.46731331623756
576, 76.46668972185857
576.5, 76.4714068373157
577, 76.48135592634073
577.5, 76.52950262615344
578, 76.591614340751
578.5, 76.58582342483115
579, 76.53103566033343
579.5, 76.51726554982474
580, 76.55340079613778
580.5, 76.60208802508913
581, 76.62087399621178
581.5, 76.58614128741966
582, 76.56087970950152
582.5, 76.58701423300943
583, 76.58079139109066
583.5, 76.49199268988319
584, 76.38211345028024
584.5, 76.29837434682204
585, 76.2479080541436
585.5, 76.21511872493303
586, 76.16803421441071
586.5, 76.1240951582167
587, 76.12970037341464
587.5, 76.16598527504419
588, 76.1852542279633
588.5, 76.16979153678601
589, 76.11823975600014
589.5, 76.05084230437102
590, 75.99048236696201
590.5, 75.95269350793451
591, 75.93798823314683
591.5, 75.92161993545804
592, 75.90930063548628
592.5, 75.94766633599858
593, 76.00647230471932
593.5, 75.98710141462965
594, 75.89342943673763
594.5, 75.79496383615782
595, 75.7077937661806
595.5, 75.62706659158303
596, 75.57846327886172
596.5, 75.57072545321367
597, 75.512047025921
597.5, 75.3524633441006
598, 75.20613901277807
598.5, 75.1318890741619
599, 75.04645633473031
599.5, 74.93028513562336
600, 74.85887630677958
600.5, 74.83078970927103
601, 74.77595496249796
601.5, 74.70152433829601
602, 74.6569655755819
602.5, 74.62150963213699
603, 74.54437937277407
603.5, 74.38714198653226
604, 74.15599904565278
604.5, 73.99744974841515
605, 73.99220852738725
605.5, 73.99300759908928
606, 73.91262712081536
606.5, 73.81826251091627
607, 73.71884644676321
607.5, 73.54323925477108
608, 73.34566486455799
608.5, 73.27261134013187
609, 73.26462465901395
609.5, 73.15972952626434
610, 72.97285332991666
610.5, 72.78575422278448
611, 72.63322783634965
611.5, 72.5289568981749
612, 72.46353909819119
612.5, 72.4036320076308
613, 72.2738302510185
613.5, 72.06806302185866
614, 71.89587841992675
614.5, 71.78237757440438
615, 71.65054937839626
615.5, 71.4988223594686
616, 71.3851112944502
616.5, 71.30792566955635
617, 71.23354986190775
617.5, 71.14787269545657
618, 71.0442379104955
618.5, 70.91320261854507
619, 70.75663104466473
619.5, 70.61307195381113
620, 70.51852599830366
620.5, 70.48799734613756
621, 70.48245529724306
621.5, 70.39036794515692
622, 70.20521631899462
622.5, 70.0367530200838
623, 69.9656840072732
623.5, 70.03179592917832
624, 70.14110793167077
624.5, 70.15188004327516
625, 70.07178394648156
625.5, 69.95941022502129
626, 69.8482693625537
626.5, 69.76365465979197
627, 69.7258488668224
627.5, 69.7170956420747
628, 69.64773612377657
628.5, 69.51278375348129
629, 69.43240087930529
629.5, 69.38927265015808
630, 69.233850472822
630.5, 69.0297303481547
631, 68.96898879789086
631.5, 68.98983023314763
632, 68.9293872937631
632.5, 68.79863668153206
633, 68.66755439581893
633.5, 68.59317240951597
634, 68.5837266065436
634.5, 68.52609377780637
635, 68.37430087232875
635.5, 68.24385925266051
636, 68.18599047125755
636.5, 68.14469261227535
637, 68.09994435248039
637.5, 68.07144334238883
638, 68.05919041316571
638.5, 68.04906736207302
639, 68.0298732623474
639.5, 67.99630153587887
640, 67.96645990031573
640.5, 67.95442756437926
641, 67.93097211202881
641.5, 67.86762876665246
642, 67.7629810169196
642.5, 67.63804204769613
643, 67.54496208750496
643.5, 67.49986226118558
644, 67.4700510906472
644.5, 67.42974283865769
645, 67.3614642483235
645.5, 67.23989889995752
646, 67.05454652190528
646.5, 66.94482721521291
647, 67.05239963119755
647.5, 67.18895940495344
648, 67.1579729955789
648.5, 67.0892565648173
649, 67.08782128025732
649.5, 67.03611457533037
650, 66.88360503551436
650.5, 66.7436352175057
651, 66.70259599906414
651.5, 66.78766791426551
652, 66.87032115065227
652.5, 66.7282822297031
653, 66.51946873666287
653.5, 66.56479031091094
654, 66.70220098944593
654.5, 66.64516492891937
655, 66.49527080897543
655.5, 66.40899297619326
656, 66.35207206902957
656.5, 66.29384094080743
657, 66.29538345929808
657.5, 66.34966359698538
658, 66.32792079087132
658.5, 66.22585056541548
659, 66.18079266839169
659.5, 66.1775705469192
660, 66.08912542669769
660.5, 65.951653663564
661, 65.88009175474163
661.5, 65.88283223578208
662, 65.92728866245017
662.5, 65.99013715544085
663, 66.03688555866137
663.5, 65.99218379052584
664, 65.86544270732446
664.5, 65.85614889164613
665, 66.00100617252177
665.5, 66.06690294347435
666, 65.97745008701125
666.5, 65.84191565860462
667, 65.72400316065556
667.5, 65.64423921159903
668, 65.60572799637563
668.5, 65.60211130872081
669, 65.62304935092004
669.5, 65.64725072056542
670, 65.61430802920776
670.5, 65.50416372061488
671, 65.43870768380152
671.5, 65.47667412515429
672, 65.50427621752003
672.5, 65.44244160785648
673, 65.29174262441325
673.5, 65.12286896208852
674, 65.06030423581498
674.5, 65.08953423638334
675, 65.10588133538769
675.5, 65.09826645253034
676, 65.09177628297901
676.5, 65.04138528338686
677, 64.91671509014733
677.5, 64.84017995831634
678, 64.89065033282569
678.5, 64.93417631111541
679, 64.8953736542686
679.5, 64.8709766487867
680, 64.9108745809937
680.5, 64.97862356160927
681, 65.03866517936224
681.5, 65.06539896562691
682, 65.0771407792449
682.5, 65.11145953557092
683, 65.12528507039593
683.5, 65.06230334898433
684, 65.00172077952125
684.5, 65.01917491214625
685, 65.01454172547074
685.5, 64.92334378484951
686, 64.8681568629473
686.5, 64.89740605236034
687, 64.88255978072661
687.5, 64.79058715225729
688, 64.72638100804198
688.5, 64.7354886041503
689, 64.79831954593281
689.5, 64.84402980567236
690, 64.79071344501281
690.5, 64.7057158430522
691, 64.69753865378136
691.5, 64.74497396575421
692, 64.78267967033668
692.5, 64.73293230362644
693, 64.58313417274843
693.5, 64.47852295320233
694, 64.50902295833086
694.5, 64.63503362209269
695, 64.77995117414112
695.5, 64.84328175235528
696, 64.81711872482497
696.5, 64.7672521787683
697, 64.70149468273964
697.5, 64.60110531518394
698, 64.5142803099404
698.5, 64.49741590698963
699, 64.51239997884016
699.5, 64.5127275094603
700, 64.51285857249596
700.5, 64.52268609992055
701, 64.51561137333567
701.5, 64.47859784099712
702, 64.42757598633402
702.5, 64.38737298550235
703, 64.38726822679241
703.5, 64.41487836748269
704, 64.42828168224605
704.5, 64.42290770107195
705, 64.41826544828996
705.5, 64.44962385135547
706, 64.53674693377124
706.5, 64.60478726924663
707, 64.5882781459558
707.5, 64.52682319430524
708, 64.46212954204582
708.5, 64.4002487699274
709, 64.37077171501154
709.5, 64.43907794647468
710, 64.53882077658456
710.5, 64.47759815653897
711, 64.28197739092049
711.5, 64.13323348919684
712, 64.08163210353047
712.5, 64.10123573064942
713, 64.14080320272977
713.5, 64.14486403313286
714, 64.0782680512733
714.5, 63.955851550051555
715, 63.91714842532104
715.5, 64.01927512650113
716, 64.11763337721496
716.5, 64.13229215658663
717, 64.10491135627717
717.5, 64.07097032477166
718, 64.0492171425291
718.5, 64.0352958849083
719, 64.01031911297169
719.5, 63.966903186665355
720, 63.91000519740896
720.5, 63.88064016168088
721, 63.91470220162206
721.5, 63.98012291348777
722, 64.02639332663051
722.5, 63.99793215395446
723, 63.89818744457211
723.5, 63.83857587155992
724, 63.848292584999754
724.5, 63.83777086921282
725, 63.797846371629575
725.5, 63.79771878854551
726, 63.85184188701507
726.5, 63.93141602470679
727, 63.97184402943089
727.5, 63.9211143644678
728, 63.88108977709723
728.5, 63.94622832361703
729, 64.00295280034803
729.5, 63.96705980340588
730, 63.941535576414374
730.5, 63.97531267810696
731, 63.97547348867551
731.5, 63.88720363116195
732, 63.72262476058394
732.5, 63.5386059871589
733, 63.420833804721156
733.5, 63.3745112458145
734, 63.36070966017263
734.5, 63.39466876054535
735, 63.50310753262735
735.5, 63.64864301570318
736, 63.77928733292199
736.5, 63.86055887399273
737, 63.88195674744264
737.5, 63.87995178112172
738, 63.880279623336044
738.5, 63.87992984500189
739, 63.866039019428065
739.5, 63.82166477198184
740, 63.80316594340237
740.5, 63.90893260049363
741, 64.03390882648107
741.5, 63.997641278684526
742, 63.93935766302525
742.5, 64.0555501510207
743, 64.18581727801337
743.5, 64.15322762123132
744, 64.05413643378832
744.5, 63.99310216585896
745, 63.974538477417205
745.5, 63.965666027015835
746, 63.90132149431619
746.5, 63.841956022838936
747, 63.969983974337104
747.5, 64.16436687978106
748, 64.10920834563441
748.5, 63.97125793484364
749, 64.10464163888184
749.5, 64.30742808513588
750, 64.27111770507257
750.5, 64.17809507083216
751, 64.2267903178412
751.5, 64.269993881166
752, 64.17966082334085
752.5, 63.99904701138218
753, 63.827073464744764
753.5, 63.80564409626926
754, 63.89529849994357
754.5, 63.880467018738734
755, 63.777580274443785
755.5, 63.7610652101591
756, 63.81454920849656
756.5, 63.83729149608749
757, 63.84050135105525
757.5, 63.86692209956208
758, 63.91797587486684
758.5, 63.989250999855074
759, 64.08900609671134
759.5, 64.1948234161739
760, 64.22245492170984
760.5, 64.16606076144167
761, 64.13522887864706
761.5, 64.19451052346774
762, 64.34915272120422
762.5, 64.51592397016945
763, 64.56993814869408
763.5, 64.54448885747925
764, 64.53512860894524
764.5, 64.54171797483019
765, 64.5402730932075
765.5, 64.54313626943392
766, 64.56721595485261
766.5, 64.61871754196319
767, 64.69369406497
767.5, 64.7726832570671
768, 64.83066215858942
768.5000000000001, 64.8410980143143
769, 64.8494979023315
769.5, 64.95372642210936
770.0000000000001, 65.0737947680604
770.5, 65.04196052719658
771, 64.93831190542599
771.5, 64.9197226663327
772, 64.93181042228912
772.5, 64.89869328981382
773, 64.90729777471648
773.5, 64.95479802817331
774, 65.01528551779992
774.5, 65.0662368262944
775, 65.08228106332874
775.5, 65.0232784721504
776, 65.00441985918843
776.5000000000001, 65.0600556174428
777, 65.12392369615992
777.5, 65.16699269286113
778.0000000000001, 65.18793949986866
778.5, 65.20151854923574
779, 65.22628908771006
779.5, 65.26556483531344
780, 65.30410080425183
780.5, 65.28056348960988
781, 65.18964863950639
781.5, 65.17557306792048
782, 65.27697150015521
782.5, 65.3314884808083
783, 65.3053645954725
783.5, 65.32821296830636
784, 65.41643483954603
784.5000000000001, 65.49210909650589
785, 65.55156048742857
785.5, 65.62678841200201
786.0000000000001, 65.68242673943664
786.5, 65.67497051809727
787, 65.65282107522971
787.5, 65.66005654548694
788, 65.64516058629283
788.5, 65.59444398564722
789, 65.61510332486262
789.5, 65.73338226676367
790, 65.82972942175464
790.5, 65.84553382723456
791, 65.80481302573669
791.5, 65.77010848068562
792, 65.82015276515682
792.5000000000001, 65.93092563690311
793, 66.02811500376579
793.5, 66.08337722698478
794.0000000000001, 66.09182939600424
794.5, 66.0712750123215
795, 66.04285757385917
795.5000000000001, 66.01962379210794
796, 66.00211725803878
796.5, 65.96879514207154
797, 65.9175077688871
797.5, 65.87739375379833
798, 65.86301901513635
798.5, 65.86903554126128
799, 65.85716749745646
799.5, 65.77327126972783
800, 65.63291316287135
800.5, 65.48876306362688
801, 65.395083263657
801.5, 65.38648001772599
802, 65.41671847404893
802.5, 65.44304672236206
803, 65.48802588425498
803.5, 65.55781776918184
804, 65.60673081130736
804.5, 65.63376491826027
805, 65.70365637651267
805.5, 65.81082696397758
806, 65.87962791243308
806.5, 65.87565186934955
807, 65.80587727384959
807.5, 65.7645968763668
808, 65.84519757584582
808.5, 65.89910908743725
809, 65.77715745794846
809.5, 65.64147523907849
810, 65.62693136462471
810.5, 65.60938861556515
811, 65.53492616949222
811.5, 65.54749168982462
812, 65.64265440212637
812.5, 65.61004468709346
813, 65.47621980615465
813.5, 65.4757933227411
814, 65.56818441864493
814.5, 65.55282442554773
815, 65.43466887079714
815.5, 65.30145924140147
816, 65.1668409196908
816.5, 65.0324410659435
817, 64.94234563938741
817.5, 64.90871221279619
818, 64.84417752943476
818.5, 64.71783840270905
819, 64.61873217602519
819.5, 64.58094122219678
820, 64.56011765817408
820.5, 64.55962945708887
821, 64.62050637344655
821.5, 64.69480336931261
822, 64.69106509685119
822.5, 64.60876633824451
823, 64.48972498553958
823.5, 64.38636597382613
824, 64.32177681477545
824.5, 64.21195278987071
825, 64.03729272709027
825.5, 63.97360183095268
826, 64.05982596133478
826.5, 64.07571270026108
827, 63.939517489058325
827.5, 63.751883900088544
828, 63.55354607217051
828.5, 63.34083049226946
829, 63.24509208958285
829.5, 63.41604692182266
830, 63.589308833125905
830.5, 63.44057122389604
831, 63.14898691733426
831.5, 62.96259763955494
832, 62.89959427893433
832.5, 62.90883391284768
833, 62.886468792386175
833.5, 62.77467339689185
834, 62.596540110515356
834.5, 62.39416337318818
835, 62.22227996358035
835.5, 62.12607803398519
836, 62.12884104512352
836.5, 62.12100396133666
837, 61.953881518952926
837.5, 61.692446209245425
838, 61.467877214741925
838.5, 61.34021233732895
839, 61.31325579961193
839.5, 61.28286969031559
840, 61.197403243619036
840.5, 61.14956115055358
841, 61.17300403185803
841.5, 61.193748172368366
842, 61.183198837740385
842.5, 61.16760285233439
843, 61.17038340873646
843.5, 61.20725846912919
844, 61.26040071290983
844.5, 61.29680994112466
845, 61.29651380192934
845.5, 61.252225218532736
846, 61.188099417126686
846.5, 61.12122820838423
847, 61.028217864990246
847.5, 60.89967491089256
848, 60.76617626874146
848.5, 60.670165274946996
849, 60.659071941122214
849.5, 60.67191630777828
850, 60.55931769279607
850.5, 60.38930150927367
851, 60.34327294678383
851.5, 60.27565942390842
852, 59.97002019867752
852.5, 59.70783214173395
853, 59.78297913509505
853.5, 59.90098219747219
854, 59.79739958195391
854.5, 59.63597044349938
855, 59.55174761971432
855.5, 59.50713379278506
856, 59.473725866876286
856.5, 59.45620713836873
857, 59.42672047376391
857.5, 59.330929913207754
858, 59.17692321524134
858.5, 59.013284580046054
859, 58.881100992586596
859.5, 58.810737987320756
860, 58.79697087372766
860.5, 58.80626667983684
861, 58.74620431152363
861.5, 58.606169825447566
862, 58.60142007298094
862.5, 58.792693757134366
863, 58.927734157808906
863.5, 58.91292770359276
864, 58.87780551165036
864.5, 58.86724889018608
865, 58.84468135676865
865.5, 58.80899468662068
866, 58.78122046767425
866.5, 58.77235506853275
867, 58.78127187313546
867.5, 58.77024335932322
868, 58.72182931986516
868.5, 58.720747178154795
869, 58.80353721861313
869.5, 58.85145926642903
870, 58.814949456405586
870.5, 58.787895599681434
871, 58.83338023634185
871.5, 58.96030341911688
872, 59.10479738070627
872.5, 59.15832128534865
873, 59.13751576550653
873.5, 59.12311582490031
874, 59.13241482884143
874.5, 59.163163500422
875, 59.24329918174718
875.5, 59.36817138474512
876, 59.40748558643052
876.5, 59.324154249543376
877, 59.328416229119675
877.5, 59.49662561518892
878, 59.65961665825572
878.5, 59.7496309202712
879, 59.82459730311615
879.5, 59.862180074824565
880, 59.79455763494088
880.5, 59.753516813622554
881, 59.929522669993545
881.5, 60.19295419057298
882, 60.34313827991297
882.5, 60.39902076932001
883, 60.4151128495978
883.5, 60.38186763629937
884, 60.33392703111454
884.5, 60.414906078116154
885, 60.64194390233712
885.5, 60.838089298511875
886, 60.92457132298977
886.5, 60.93721462037131
887, 60.90726963112393
887.5, 60.861036312837726
888, 60.84336508357197
888.5, 60.89701544454411
889, 60.99653369657149
889.5, 61.10560761411894
890, 61.24213748575943
890.5, 61.42645101567751
891, 61.64883667265906
891.5, 61.8541853519694
892, 61.91518027032434
892.5, 61.87300275059688
893, 61.99282328140039
893.5, 62.264690129527914
894, 62.422966837591176
894.5, 62.5043909804845
895, 62.72325186728293
895.5, 62.98904049431496
896, 63.104835452517406
896.5, 63.11119241545281
897, 63.13325104361268
897.5, 63.310550935428026
898, 63.66701912912519
898.5, 63.92622290125594
899, 63.96065756105096
899.5, 63.98881992560756
900, 64.1278141571189
900.5, 64.32089424024265
901, 64.5088075798032
901.5, 64.64378274400124
902, 64.72008923900702
902.5, 64.77028654847007
903, 64.9123046366335
903.5, 65.2370648064972
904, 65.50063575487218
904.5, 65.47716078340633
905, 65.37127402447605
905.5, 65.37274716781911
906, 65.41411983716947
906.5, 65.47912088590068
907, 65.6951933639465
907.5, 66.01719395652479
908, 66.19352169233137
908.5, 66.26551981674504
909, 66.4999755229308
909.5, 66.77066640387535
910, 66.77270739267685
910.5, 66.67040800358664
911, 66.76336195329704
911.5, 67.02691515807449
912, 67.34633515732853
912.5, 67.62827057721395
913, 67.79577342625134
913.5, 67.80068814341433
914, 67.70377194608191
914.5, 67.72650574856301
915, 67.93237528455685
915.5, 68.19192779305399
916, 68.4045605560297
916.5, 68.51606436612906
917, 68.6187675949311
917.5, 68.85152745624285
918, 69.10725614143965
918.5, 69.2401592288251
919, 69.37730584327223
919.5, 69.64511595561214
920, 69.93651904372553
920.5, 70.16466207869219
921, 70.37796211984853
921.5, 70.57068129349933
922, 70.63660191822353
922.5, 70.62775251936586
923, 70.75644100425244
923.5, 70.975049546187
924, 71.06360762014873
924.5, 71.1053744997803
925, 71.29973877809354
925.5, 71.53024260711156
926, 71.62946330188574
926.5, 71.7212122908451
927, 71.93287443193451
927.5, 72.18455664240396
928, 72.36708147463405
928.5, 72.38910523663769
929, 72.29589963621947
929.5, 72.31530404510063
930, 72.510297778899
930.5, 72.76695177412574
931, 73.01733869066327
931.5, 73.23113259471393
932, 73.36678583182052
932.5, 73.39948270188682
933, 73.43632575035537
933.5, 73.58469528386522
934, 73.76877014238379
934.5, 73.9035125728047
935, 73.99958477619194
935.5, 74.09764446171582
936, 74.26238165170432
936.5, 74.45988428578708
937, 74.53284557458448
937.5, 74.56437299597522
938, 74.83792733220295
938.5, 75.1719613398445
939, 75.14708637921565
939.5, 75.02692825382796
940, 75.28071539567934
940.5, 75.69681363853714
941, 75.93091292402845
941.5, 75.99134251886191
942, 75.98768194365073
942.5, 76.07963631770502
943, 76.31019150117571
943.5, 76.50569954674863
944, 76.60628515046184
944.5, 76.71879447074603
945, 76.87090710373236
945.5, 77.01571013802955
946, 77.17916577653723
946.5, 77.41552807780468
947, 77.62648097548954
947.5, 77.68525526318868
948, 77.67222570365104
948.5, 77.72984468791863
949, 77.98936129092465
949.5, 78.46300483828095
950, 78.88764532839288
950.5, 79.04458787518215
951, 78.86327337522395
951.5, 78.52265422913791
952, 78.46103313923786
952.5, 78.76253481575269
953, 79.19384381109089
953.5, 79.4882849652103
954, 79.44431124820247
954.5, 79.41461134296223
955, 79.80791695917094
955.5, 80.18132367755642
956, 80.11685642715103
956.5, 80.08429604782157
957, 80.41863143433591
957.5, 80.76097192111577
958, 80.94157998286373
958.5, 81.22448921984859
959, 81.57537201505868
959.5, 81.6145337863513
960, 81.47317084776347
960.5, 81.6501517739431
961, 82.07021525815482
961.5, 82.37479486987927
962, 82.54151655777112
962.5, 82.65878038374402
963, 82.70163620701945
963.5, 82.68840342116161
964, 82.86168391412923
964.5, 83.3038733718872
965, 83.67589678915945
965.5, 83.76672443656672
966, 83.6370653142133
966.5, 83.43423802035181
967, 83.3646420291925
967.5, 83.4969572386838
968, 83.78560625593909
968.5, 84.11581296278592
969, 84.3629523093411
969.5, 84.56085060188931
970, 84.76593106938233
970.5, 84.88051159799763
971, 84.86801448406445
971.5, 84.97693908648351
972, 85.35154035137768
972.5, 85.83004850622078
973, 86.17875751840705
973.5, 86.1330128729826
974, 85.87774835527433
974.5, 86.00603173553998
975, 86.5131006212255
975.5, 86.97775876339199
976, 87.19281547592784
976.5, 87.11581026528859
977, 86.99677841169681
977.5, 87.09195508460584
978, 87.28157609476114
978.5, 87.44892123154739
979, 87.7265789287345
979.5, 88.14194747465628
980, 88.45469382190414
980.5, 88.58102365189517
981, 88.67596414351044
981.5, 88.76045033519759
982, 88.7334183381718
982.5, 88.74651926241921
983, 89.06945426960569
983.5, 89.52364620612767
984, 89.78170710656043
984.5, 89.87343259588293
985, 89.93367271239724
985.5, 90.0461886901499
986, 90.24644089724265
986.5, 90.47816588728834
987, 90.67268432257552
987.5, 90.76721615948732
988, 90.80423958339907
988.5, 90.94689724415791
989, 91.17131601094691
989.5, 91.29512148727318
990, 91.3131312384388
990.5, 91.33830384680657
991, 91.49399525136202
991.5, 91.8572688168413
992, 92.25487117299606
992.5, 92.4846461923209
993, 92.511798040049
993.5, 92.40107722703351
994, 92.36555717328432
994.5, 92.49172414926768
995, 92.6245382781413
995.5, 92.69203840289177
996, 92.74774380168874
996.5, 92.8612565558031
997, 93.09326516092868
997.5, 93.33057813326037
998, 93.40790334053769
998.5, 93.52365383004093
999, 93.92960162503267
999.5, 94.40470861790871
1000, 94.66573862874384
1000.5, 94.67246493095298
1001, 94.48273136216356
1001.5, 94.2655418615534
1002, 94.28002884024237
1002.5, 94.87712923500868
1003, 95.69278143122119
1003.5, 95.63993763223381
1004, 94.92121404719518
1004.5, 94.67949816319864
1005, 94.89075857787776
1005.5, 94.95382747801384
1006, 94.91880241065373
1006.5, 95.04334105337112
1007, 95.34612651210014
1007.5, 95.70039913743837
1008, 95.74273081397719
1008.5, 95.44032470101986
1009, 95.52848523470776
1009.5, 96.20601472643887
1010, 96.75679156999047
1010.5, 96.83036239994439
1011, 96.55658804757977
1011.5, 96.33681023239265
1012, 96.66772627843514
1012.5, 97.20718999586549
1013, 97.30521393626685
1013.5, 97.17361678188477
1014, 97.22881564238789
1014.5, 97.3989736995955
1015, 97.52744261310025
1015.5, 97.57179133097195
1016, 97.55237468904026
1016.5, 97.57081148253363
1017, 97.61049105621453
1017.5, 97.49013356483295
1018, 97.31207964176956
1018.5, 97.43653852682245
1019, 97.74435277183305
1019.5, 97.82559986698509
1020, 97.76325037983382
1020.5, 97.84048899207387
1021, 98.04917391740086
1021.5, 98.28035576787563
1022, 98.43318793221873
1022.5, 98.45685810843892
1023, 98.42723867571546
1023.5, 98.4269601814518
1024, 98.510842434063
1024.5, 98.64538077820553
1025, 98.69118690768452
1025.5, 98.63057080127967
1026, 98.56753717270843
1026.5, 98.61470962731799
1027, 98.85356453437885
1027.5, 99.09902496567314
1028, 99.10162845332471
1028.5, 98.93942029323716
1029, 98.79764398732428
1029.5, 98.85784719239665
1030, 99.12219918030132
1030.5, 99.15484351011979
1031, 98.84276160571612
1031.5, 98.73855290614486
1032, 99.01121630513119
1032.5, 99.28321293474441
1033, 99.37537188491575
1033.5, 99.3230477528545
1034, 99.2574789013297
1034.5, 99.33371538701307
1035, 99.46970873402915
1035.5, 99.51445594221988
1036, 99.50095124725382
1036.5, 99.5033017672803
1037, 99.54198634585224
1037.5, 99.59643451634065
1038, 99.57801143322119
1038.5, 99.47880184088
1039, 99.43526559160898
1039.5, 99.4694432042093
1040, 99.46153695799127
1040.5, 99.42073931239621
1041, 99.45501395698055
1041.5, 99.50385209866359
1042, 99.42992382609329
1042.5, 99.27223800299912
1043, 99.14112101599054
1043.5, 99.13191154955646
1044, 99.26151584543905
1044.5, 99.31343767129202
1045, 99.17500742760478
1045.5, 99.06004776026761
1046, 99.09176889378908
1046.5, 99.18703993253813
1047, 99.27787403362815
1047.5, 99.33279295911048
1048, 99.32405248657876
1048.5, 99.23358329459572
1049, 99.12315780713874
1049.5, 99.08135620411093
1050, 99.08116979441587
1050.5, 99.0682080785264
1051, 99.06791772724355
1051.5, 99.11136513127319
1052, 99.18186542592362
1052.5, 99.24362780287306
1053, 99.24012538948935
1053.5, 99.1385403330763
1054, 98.94815230365829
1054.5, 98.77244089896597
1055, 98.78771658696789
1055.5, 98.85571258247201
1056, 98.6509427550365
1056.5, 98.30369400987301
1057, 98.13230039660115
1057.5, 98.11731781030643
1058, 98.13741641469721
1058.5, 98.16916480676205
1059, 98.20578122582504
1059.5, 98.21765232794465
1060, 98.19952289672993
1060.5, 98.19972117569597
1061, 98.2079168165082
1061.5, 98.13326447274571
1062, 98.08033730409552
1062.5, 98.31126099889744
1063, 98.54987156209125
1063.5, 98.23936688348653
1064, 97.69587881693279
1064.5, 97.54599619930976
1065, 97.69279287264744
1065.5, 97.81433575891747
1066, 97.69484095726128
1066.5, 97.30599463951562
1067, 97.04085632578276
1067.5, 97.08328687103459
1068, 97.11579466284934
1068.5, 97.02949680103002
1069, 97.04373992718762
1069.5, 97.12320531076004
1070, 96.99793010989252
1070.5, 96.677800851926
1071, 96.3608284690122
1071.5, 96.21169672305058
1072, 96.31381771596685
1072.5, 96.41539871382605
1073, 96.26584200328044
1073.5, 96.00894085743657
1074, 95.82293456673179
1074.5, 95.75381444065223
1075, 95.76979688063008
1075.5, 95.74194217941906
1076, 95.62677130116938
1076.5, 95.49759287340653
1077, 95.42846989129131
1077.5, 95.4768444591841
1078, 95.57707915275404
1078.5, 95.597237466049
1079, 95.48341315894255
1079.5, 95.25438363124334
1080, 95.11357490045178
1080.5, 95.2057625611957
1081, 95.29129081518474
1081.5, 95.19401063361673
1082, 95.06891828832488
1082.5, 95.03129320693161
1083, 95.05369276002685
1083.5, 95.03394160268016
1084, 94.8154896126588
1084.5, 94.53000531656717
1085, 94.51171622614866
1085.5, 94.68376967267379
1086, 94.75741783021263
1086.5, 94.68508246690294
1087, 94.5384874430864
1087.5, 94.47035104019481
1088, 94.55239734659634
1088.5, 94.53101152239368
1089, 94.31820570154599
1089.5, 94.31724875626209
1090, 94.56601762707298
1090.5, 94.46318519975893
1091, 93.94737805389336
1091.5, 93.58194818674839
1092, 93.52380415034519
1092.5, 93.58708132143795
1093, 93.5998658116184
1093.5, 93.44765113276526
1094, 93.29820804338594
1094.5, 93.34459243346774
1095, 93.41420197568605
1095.5, 93.33705344859509
1096, 93.23970920026521
1096.5, 93.2207594546536
1097, 93.21137925730662
1097.5, 93.17063525062342
1098, 93.12871735896178
1098.5, 93.14412502664723
1099, 93.28261780962721
1099.5, 93.37962389849152
1100, 93.1534089082429
1100.5, 92.80404876973897
1101, 92.70772716218414
1101.5, 92.77098814733188
1102, 92.77316524888482
1102.5, 92.67939952867314
1103, 92.49173770325265
1103.5, 92.1855142438907
1104, 91.82325315991307
1104.5, 91.64040376578153
1105, 91.7140573586828
1105.5, 91.87922558326538
1106, 91.99485740289047
1106.5, 91.96839719725683
1107, 91.81156377664814
1107.5, 91.61423431750025
1108, 91.52083335170407
1108.5, 91.63508348662724
1109, 91.68908062171418
1109.5, 91.43330997474715
1110, 91.17127027126278
1110.5, 91.17959732136376
1111, 91.32704532069054
1111.5, 91.44243138910184
1112, 91.40370238092468
1112.5, 91.2138714371775
1113, 91.02888963138581
1113.5, 90.97113310612585
1114, 91.10118488744307
1114.5, 91.22275342947387
1115, 91.03329300171609
1115.5, 90.70998725904077
1116, 90.57926357810284
1116.5, 90.57444677459654
1117, 90.53971045947085
1117.5, 90.45519219048624
1118, 90.33993227063512
1118.5, 90.23449820316108
1119, 90.17964967167202
1119.5, 90.20818983493665
1120, 90.25859520161895
1120.5, 90.16599906397792
1121, 89.95904374924676
1121.5, 89.82183747890228
1122, 89.72788485237517
1122.5, 89.53819850020884
1123, 89.27319402688177
1123.5, 89.03754903489194
1124, 89.00136496647823
1124.5, 89.2291274938527
1125, 89.37055171591062
1125.5, 89.18411086937095
1126, 88.87355913500592
1126.5, 88.65017862777692
1127, 88.63114718577121
1127.5, 88.74821654017778
1128, 88.73785500972761
1128.5, 88.47420553421402
1129, 87.97504318205787
1129.5, 87.47525572422552
1130, 87.28424655933955
1130.5, 87.37034455007517
1131, 87.55819987278457
1131.5, 87.66179020369002
1132, 87.56501283139086
1132.5, 87.37782342339041
1133, 87.19675461084614
1133.5, 86.99659309208444
1134, 86.83185038438008
1134.5, 86.89225330027622
1135, 87.09605064136416
1135.5, 87.07667621104346
1136, 86.8131073140613
1136.5, 86.54293515238184
1137, 86.29607544239735
1137.5, 86.00760659253659
1138, 85.76415052588297
1138.5, 85.68728410573823
1139, 85.79501545051102
1139.5, 86.00852692092931
1140, 86.04863928135806
1140.5, 85.80388067462972
1141, 85.57220848864584
1141.5, 85.45688599768991
1142, 85.22162402910787
1142.5, 84.8971425819104
1143, 84.79250464518054
1143.5, 84.89585097527332
1144, 84.96866277789854
1144.5, 84.93899136825027
1145, 84.81690168073925
1145.5, 84.5668642222521
1146, 84.18972540301786
1146.5, 83.89886768058005
1147, 83.85133929117994
1147.5, 83.90509548447979
1148, 83.9111226318172
1148.5, 83.8062107235783
1149, 83.62766132599198
1149.5, 83.52781567392526
1150, 83.48296570761899
1150.5, 83.31646023534715
1151, 83.18484578712005
1151.5, 83.40937372898884
1152, 83.72581921580918
1152.5, 83.68143051109581
1153, 83.37991993145563
1153.5, 83.07284239626388
1154, 82.85064196790411
1154.5, 82.74299009562384
1155, 82.71983180222325
1155.5, 82.7038989826033
1156, 82.55397714025173
1156.5, 82.27702869125396
1157, 82.07356659766286
1157.5, 82.05253006899994
1158, 82.20478596147524
1158.5, 82.25436038851561
1159, 81.83966430820892
1159.5, 81.26197065075752
1160, 81.03478177651438
1160.5, 81.1802468545209
1161, 81.50128168700344
1161.5, 81.5873282410754
1162, 81.22664925092818
1162.5, 80.79833830355126
1163, 80.55776810378353
1163.5, 80.4043901671153
1164, 80.30633355879972
1164.5, 80.34705288253085
1165, 80.44046180200745
1165.5, 80.36265156446274
1166, 80.05497841904489
1166.5, 79.5988536275154
1167, 79.3258886097065
1167.5, 79.526064728886
1168, 79.76804668581948
1168.5, 79.62274541014996
1169, 79.38075000500943
1169.5, 79.30039847410909
1170, 79.23333881422984
1170.5, 79.11495733986564
1171, 79.09954510774048
1171.5, 79.1993561930535
1172, 79.24471360214298
1172.5, 79.11040039977314
1173, 78.7378799703578
1173.5, 78.29375923462892
1174, 78.04655248104238
1174.5, 78.07601868103312
1175, 78.32073856999921
1175.5, 78.43372922372949
1176, 78.16073630331445
1176.5, 77.78029635857519
1177, 77.55335768380041
1177.5, 77.48384233733199
1178, 77.50898517226437
1178.5, 77.5179980337831
1179, 77.47072613583647
1179.5, 77.40275598312164
1180, 77.27805963227004
1180.5, 77.01973986510127
1181, 76.71497677522794
1181.5, 76.51859284412258
1182, 76.44099489467604
1182.5, 76.42170440477251
1183, 76.33681512866448
1183.5, 76.08545019063116
1184, 75.68213877359358
1184.5, 75.23066397928163
1185, 74.96912744558357
1185.5, 74.97223418963905
1186, 75.0570329551659
1186.5, 74.99186416678819
1187, 74.55101823469703
1187.5, 73.99935787148422
1188, 73.88424340995901
1188.5, 74.09220333217326
1189, 74.2025274914514
1189.5, 74.01892041463259
1190, 73.53836754507046
1190.5, 73.19763670233671
1191, 73.29046001985151
1191.5, 73.42936590686352
1192, 73.35746722344071
1192.5, 73.2797589250759
1193, 73.32363052716494
1193.5, 73.43824598182705
1194, 73.4726346269669
1194.5, 73.2249311713243
1195, 72.91901162564179
1195.5, 73.0010327681214
1196, 73.32580609180394
1196.5, 73.5105140870493
1197, 73.46163453564714
1197.5, 73.22051703355946
1198, 72.9624611181398
1198.5, 72.80721073497173
1199, 72.65486106275566
1199.5, 72.47071662132933
1200, 72.39368499865593
1200.5, 72.40684802349318
1201, 72.28530672869115
1201.5, 72.051798690726
1202, 71.94347923410447
1202.5, 71.92561401867775
1203, 71.80680555223046
1203.5, 71.58746196893274
1204, 71.35755595469304
1204.5, 71.2082700961291
1205, 71.16101788321478
1205.5, 70.9946387407969
1206, 70.62275497870017
1206.5, 70.40456024234665
1207, 70.48794757214326
1207.5, 70.56096815750492
1208, 70.48696289850933
1208.5, 70.38696409618339
1209, 70.28473894929114
1209.5, 70.12164737949975
1210, 69.99440875595725
1210.5, 70.0425735037757
1211, 70.02234343232185
1211.5, 69.66978947664697
1212, 69.41681877222814
1212.5, 69.65158775672559
1213, 69.94469891922186
1213.5, 69.90617549736575
1214, 69.60975801196513
1214.5, 69.21210636508914
1215, 68.89593257376622
1215.5, 68.70211830510338
1216, 68.5188719747639
1216.5, 68.40707241392599
1217, 68.53500756530835
1217.5, 68.67364140396786
1218, 68.44708408152889
1218.5, 68.04028529778877
1219, 67.77653068071294
1219.5, 67.57586609994037
1220, 67.35378935009638
1220.5, 67.35495676490306
1221, 67.63017553528111
1221.5, 67.69302978032277
1222, 67.36648013858203
1222.5, 67.02979577606347
1223, 66.82039930753015
1223.5, 66.58236139380972
1224, 66.37405113281002
1224.5, 66.39791939708081
1225, 66.56412604122505
1225.5, 66.64969959598261
1226, 66.60646469683412
1226.5, 66.44956894377911
1227, 66.17786325557822
1227.5, 65.8249620030476
1228, 65.53615371043517
1228.5, 65.43969635475042
1229, 65.58572560650806
1229.5, 65.80755758410032
1230, 65.6649996866013
1230.5, 65.18064245254156
1231, 64.84002043847376
1231.5, 64.77278431342772
1232, 64.82929081264706
1232.5, 64.80222069766162
1233, 64.52717649100114
1233.5, 64.24008660372041
1234, 64.20828520606592
1234.5, 64.26019478141183
1235, 64.19392644773339
1235.5, 64.01563457287118
1236, 63.76125170414469
1236.5, 63.4593094258876
1237, 63.20831285344829
1237.5, 63.19014070704207
1238, 63.35206720221243
1238.5, 63.4245147522648
1239, 63.300097442715426
1239.5, 62.99826277447403
1240, 62.619194298846615
1240.5, 62.28222436396635
1241, 62.00552316392289
1241.5, 61.7926279651668
1242, 61.71821852587865
1242.5, 61.77291250866732
1243, 61.69589275466975
1243.5, 61.399455761003864
1244, 61.166691467004696
1244.5, 61.11077609591632
1245, 61.088247638887665
1245.5000000000002, 61.057296654221055
1246, 61.07664958790233
1246.5, 61.13488962235718
1247.0000000000002, 61.19219116211373
1247.5, 61.352937520194004
1248, 61.69519063927882
1248.5, 61.83104450878273
1249, 61.46917583196195
1249.5, 61.15551662401297
1250, 61.27741903234435
1250.5, 61.421027449952696
1251, 61.32612686505161
1251.5, 61.17998191740424
1252, 61.07587497773603
1252.5, 60.947590163900124
1253, 60.78009177123335
1253.5, 60.6109433955483
1254, 60.488425429769066
1254.5, 60.45710300435661
1255, 60.4969340254847
1255.5, 60.564991810352716
1256, 60.64093051951994
1256.5, 60.69453181532817
1257, 60.64249778597955
1257.5, 60.47982788216847
1258, 60.39816670418879
1258.5, 60.47228563199894
1259, 60.55347685704343
1259.5, 60.56054837299271
1260.0000000000002, 60.50979744512564
1260.5, 60.40961502173311
1261, 60.25897014975464
1261.5000000000002, 60.068080848745716
1262, 59.86968830136002
1262.5, 59.80070265081635
1263.0000000000002, 59.97232050655379
1263.5, 60.196463080988266
1264, 60.282843109909216
1264.5000000000002, 60.285048897511125
1265, 60.24369157608553
1265.5, 60.0780308717175
1266, 59.83539738883471
1266.5, 59.76623905433041
1267, 59.86894082042054
1267.5, 59.87571546086195
1268, 59.798899380621314
1268.5, 59.84807821139577
1269, 59.99517496864444
1269.5, 60.09563880148015
1270, 60.09536221782314
1270.5, 59.99570859272295
1271, 59.884394433024404
1271.5, 59.84194667282245
1272, 59.86463176213713
1272.5, 59.90128758279561
1273, 59.838673531457275
1273.5, 59.6703933909185
1274, 59.545572895294846
1274.5, 59.510024125233166
1275, 59.49826438908339
1275.5, 59.49967782824996
1276.0000000000002, 59.53226932198829
1276.5, 59.491214993823654
1277, 59.270601246531996
1277.5000000000002, 59.11815265547405
1278, 59.2566994003277
1278.5, 59.324344655739736
1279.0000000000002, 59.05995563867771
1279.5, 58.84778676553468
1280, 58.91488456792902
1280.5000000000002, 59.000899957594186
1281, 58.986252066057716
1281.5, 59.00183505313304
1282, 59.04663560361345
1282.5, 58.99006193046334
1283, 58.848770563200496
1283.5, 58.73444273808789
1284, 58.69224211886493
1284.5, 58.74072851010219
1285, 58.93156614142464
1285.5, 59.26290530656293
1286, 59.49798758682409
1286.5, 59.48611865207152
1287, 59.42523092971035
1287.5, 59.471213885999
1288, 59.61046703941719
1288.5, 59.77776677772396
1289, 59.86858365278763
1289.5, 59.84933255523307
1290, 59.75937255621243
1290.5, 59.72037208748041
1291, 59.865171150543844
1291.5, 60.029748221768585
1292.0000000000002, 59.97366425333084
1292.5, 59.74568612933538
1293, 59.50302789105908
1293.5000000000002, 59.4634872536812
1294, 59.69948043752968
1294.5, 59.91293428662565
1295.0000000000002, 59.935869746358655
1295.5, 59.90201017475324
1296, 59.8889205103616
1296.5000000000002, 59.87540015664771
1297, 59.85794263503264
1297.5, 59.852807589349446
1298.0000000000002, 59.87594059835402
1298.5, 59.93159636071128
1299, 59.94675439527031
1299.5, 59.843311042830294
1300, 59.672924034816134
1300.5, 59.527156648216796
1301, 59.50319052710558
1301.5, 59.619398088936194
1302, 59.71835996812683
1302.5, 59.70547053534664
1303, 59.62358601895362
1303.5, 59.588598710365844
1304, 59.766379847984936
1304.5, 60.03527724637558
1305, 60.0781446541953
1305.5, 59.93716151120478
1306, 59.82735154248804
1306.5, 59.73765402316258
1307, 59.592030103731155
1307.5, 59.42905137729084
1308.0000000000002, 59.31260698711085
1308.5, 59.287784222103475
1309, 59.36205350840674
1309.5000000000002, 59.47138609517269
1310, 59.52558874520552
1310.5, 59.41764460048752
1311.0000000000002, 59.257166094489996
1311.5, 59.35588281414328
1312.0000000000002, 59.62462330538757
1312.5000000000002, 59.707228885745586
1313, 59.64072265724575
1313.5000000000002, 59.62388017763349
1314.0000000000002, 59.53567551712913
1314.5, 59.215107867558196
1315.0000000000002, 58.83246785555276
1315.5, 58.58216152766306
1316, 58.48631128300443
1316.5000000000002, 58.51048194657833
1317, 58.567448664380805
1317.5, 58.527678848879525
1318.0000000000002, 58.22600467525587
1318.5, 57.83178044616401
1319, 57.81073357790688
1319.5000000000002, 58.10312642934241
1320, 58.30129302632316
1320.5, 58.301970100575794
1321.0000000000002, 58.18911422909231
1321.5, 58.21412256122116
1322, 58.55927584672307
1322.5000000000002, 58.9156143826853
1323, 58.99107682073846
1323.5, 58.85164597624102
1324.0000000000002, 58.66887798551044
1324.5, 58.6954931660026
1325, 58.95313981193528
1325.5000000000002, 59.161840619899344
1326, 59.316630188568865
1326.5, 59.65082773511492
1327.0000000000002, 59.90861292681749
1327.5, 59.61093194041934
1328.0000000000002, 59.16636949746483
1328.5000000000002, 59.22969326389586
1329, 59.51041208980442
1329.5000000000002, 59.54229098780498
1330.0000000000002, 59.35395802631712
1330.5, 59.1069312561004
1331.0000000000002, 59.01347828253274
1331.5000000000002, 59.12220685188989
1332, 59.18765789193024
1332.5000000000002, 59.116093122950296
1333, 59.03815159484848
1333.5, 59.07729009893976
1334.0000000000002, 59.31211086647117
1334.5, 59.52524365400635
1335, 59.39003853203885
1335.5000000000002, 59.15273361643299
1336, 59.20037106209039
1336.5, 59.34150735306565
1337.0000000000002, 59.32778879843442
1337.5, 59.32483512882786
1338, 59.45362477901508
1338.5000000000002, 59.528003522730366
1339, 59.426682890775474
1339.5, 59.20797526866363
1340.0000000000002, 58.970154229016536
1340.5, 58.833114043195565
1341, 58.82053253055003
1341.5000000000002, 58.8706292943111
1342, 58.88351657017547
1342.5, 58.7762108364524
1343.0000000000002, 58.7281707698123
1343.5, 58.926562378759925
1344.0000000000002, 59.081226415357385
1344.5000000000002, 58.94891343789684
1345, 58.87357144834405
1345.5000000000002, 59.08114243915087
1346.0000000000002, 59.28589436325449
1346.5, 59.31750863205602
1347.0000000000002, 59.28752160031257
1347.5000000000002, 59.24688219052338
1348, 59.158878684838356
1348.5000000000002, 59.08424191640933
1349, 59.14146699671294
1349.5, 59.22347769774965
1350.0000000000002, 59.146928903772285
1350.5, 59.06273641883073
1351, 59.169147297327726
1351.5000000000002, 59.293061626452115
1352, 59.242147815876095
1352.5, 59.06764266244664
1353.0000000000002, 58.88432234513703
1353.5, 58.842229711534735
1354, 58.944403828247786
1354.5000000000002, 58.97829703769547
1355, 58.872103888566464
1355.5, 58.7178773070173
1356.0000000000002, 58.5902805413806
1356.5, 58.538116010574164
1357, 58.54630886597069
1357.5000000000002, 58.577390518128176
1358, 58.66158544016037
1358.5, 58.82829837599126
1359.0000000000002, 59.00071541886337
1359.5, 59.113019543225505
1360, 59.20529288229712
1360.5000000000002, 59.28879634359757
1361, 59.2844585354928
1361.5000000000002, 59.1735502183401
1362.0000000000002, 59.032800679743914
1362.5, 58.89051693478794
1363.0000000000002, 58.72764343753747
1363.5000000000002, 58.62250278664218
1364, 58.69032012074279
1364.5000000000002, 58.76519618372524
1365.0000000000002, 58.638627648034834
1365.5, 58.65648814756222
1366.0000000000002, 59.14448675445031
1366.5, 59.61250412883908
1367, 59.64941903204042
1367.5000000000002, 59.55933102515458
1368, 59.508052923417104
1368.5, 59.206398913197894
1369.0000000000002, 58.771357703163225
1369.5, 58.87255608863741
1370, 59.36488352009045
1370.5000000000002, 59.382179985337594
1371, 58.9612425061188
1371.5, 58.69156969641724
1372.0000000000002, 58.62536014336263
1372.5, 58.59509405948069
1373, 58.636378540986904
1373.5000000000002, 58.82044619485455
1374, 59.10633320245863
1374.5, 59.38190855016184
1375.0000000000002, 59.42420069139244
1375.5, 59.21646310848563
1376, 59.11888136587662
1376.5000000000002, 59.211399170024166
1377, 59.19712000427945
1377.5000000000002, 59.03952538586052
1378.0000000000002, 58.93706731271686
1378.5, 58.91795795296056
1379.0000000000002, 58.90931050531374
1379.5000000000002, 58.920179799886235
1380, 58.96998565890399
1380.5000000000002, 58.94672230609665
1381.0000000000002, 58.793596883625476
1381.5, 58.77348232068341
1382.0000000000002, 59.01551805856105
1382.5000000000002, 59.18722188679422
1383, 59.12013142143315
1383.5000000000002, 59.016665397561766
1384, 59.00848300981154
1384.5, 59.10215429448545
1385.0000000000002, 59.250643954069574
1385.5, 59.375521255912304
1386, 59.47547409672413
1386.5000000000002, 59.58135419817332
1387, 59.627036868910096
1387.5, 59.54244120696885
1388.0000000000002, 59.42657500757803
1388.5, 59.38677080622652
1389, 59.40348415400887
1389.5000000000002, 59.42243675642645
1390, 59.36952895978685
1390.5, 59.267614644102906
1391.0000000000002, 59.28436828661006
1391.5, 59.36443600880844
1392, 59.21777177204603
1392.5000000000002, 58.92158718243102
1393, 58.81956608452164
1393.5000000000002, 58.94635078123474
1394.0000000000002, 59.16454468315071
1394.5, 59.369348940877906
1395.0000000000002, 59.477746147167565
1395.5000000000002, 59.442324810057734
1396, 59.29335846044279
1396.5000000000002, 59.26053313289115
1397.0000000000002, 59.402525924807854
1397.5, 59.35880095968682
1398.0000000000002, 59.063083559831206
1398.5000000000002, 58.9386737202645
1399, 59.12348752504551
1399.5000000000002, 59.41985309408811
1400, 59.63570868799233
