302.5, 15.749655982141576
303, 15.66770979424895
303.5, 15.59544447240873
304, 15.735849398649663
304.5, 15.79171985521181
305, 15.813706625120346
305.5, 15.850989608575716
306, 15.86687968903533
306.5, 15.861024949302276
307, 15.883468350930485
307.5, 15.937749278847107
308, 15.988435318749708
308.5, 16.03531508887623
309, 16.096450085316363
309.5, 16.162073721980107
310, 16.214845575620103
310.5, 16.25864851755867
311, 16.30334310259309
311.5, 16.35773553745335
312, 16.423126101776774
312.5, 16.484617385836543
313, 16.533387375017924
313.5, 16.57353904409807
314, 16.60591654721037
314.5, 16.62694112512014
315, 16.641506482623413
315.5, 16.661471149292396
316, 16.69807172282148
316.5, 16.758303829159118
317, 16.824445231987085
317.5, 16.87562017735995
318, 16.92111196255999
318.5, 16.97138228893121
319, 17.015142610452997
319.5, 17.046518257472997
320, 17.079603735847442
320.5, 17.125998614927767
321, 17.1891964903853
321.5, 17.256191588013778
322, 17.299562642635294
322.5, 17.32770753650742
323, 17.374029951471627
323.5, 17.445787479611965
324, 17.532807980308235
324.5, 17.607017798710913
325, 17.645099105100854
325.5, 17.67142203527095
326, 17.713739253975362
326.5, 17.77410787127414
327, 17.842388643553875
327.5, 17.893716552609376
328, 17.923413649636274
328.5, 17.956991839139107
329, 18.00650615226077
329.5, 18.067914447751463
330, 18.13313157668891
330.5, 18.191827472023732
331, 18.23501703689803
331.5, 18.26034567292058
332, 18.299362238890055
332.5, 18.378558562050586
333, 18.45788090636978
333.5, 18.505513617155955
334, 18.55467775747975
334.5, 18.622571347442445
335, 18.677001057363853
335.5, 18.706893058001285
336, 18.736154564267693
336.5, 18.785022684571544
337, 18.86476227093732
337.5, 18.94677058806863
338, 18.985524239308532
338.5, 19.014922433247037
339, 19.089842623377535
339.5, 19.17216078321627
340, 19.21252714528009
340.5, 19.23404095445565
341, 19.264368846072173
341.5, 19.3012608323083
342, 19.3455179349818
342.5, 19.41093615466849
343, 19.494031442677837
343.5, 19.569112547401673
344, 19.630969134810982
344.5, 19.693079649341243
345, 19.75804105782987
345.5, 19.821837524340637
346, 19.88632735555194
346.5, 19.953709743219576
347, 20.01432111081789
347.5, 20.061553377904517
348, 20.111903046443317
348.5, 20.176256888095594
349, 20.240808444933336
349.5, 20.30193920424108
350, 20.378026272035825
350.5, 20.46249856141843
351, 20.52049024141587
351.5, 20.580544521665203
352, 20.714247146773104
352.5, 20.864461682576916
353, 20.917431016500757
353.5, 20.912783429077336
354, 20.939419070650473
354.5, 21.009563618051033
355, 21.10743941010749
355.5, 21.19989121528633
356, 21.26634737072058
356.5, 21.321841464620917
357, 21.38336621926247
357.5, 21.46263157276644
358, 21.546871418996332
358.5, 21.599192474415673
359, 21.625533788187028
359.5, 21.663576784877776
360, 21.715790540160157
360.5, 21.76621499270317
361, 21.812903714403618
361.5, 21.859540817950162
362, 21.909543758282666
362.5, 21.961769719503934
363, 22.00170397608163
363.5, 22.02866675791185
364, 22.075674253061607
364.5, 22.156423998391475
365, 22.249768786975295
365.5, 22.331554648461037
366, 22.38080096822418
366.5, 22.425838452077073
367, 22.52278861537181
367.5, 22.641834386205602
368, 22.719964949737374
368.5, 22.775282627528938
369, 22.84726586205305
369.5, 22.937405079311745
370, 23.029339420462023
370.5, 23.084329017277568
371, 23.103750725189713
371.5, 23.173912287490708
372, 23.311636692097622
372.5, 23.425743238301663
373, 23.483389362250875
373.5, 23.51821559954317
374, 23.568244587408557
374.5, 23.663762551483444
375, 23.76000980636418
375.5, 23.792263521763076
376, 23.797675383422686
376.5, 23.833737830440313
377, 23.897551725140616
377.5, 23.968379975023936
378, 24.017124110184497
378.5, 24.042350480260282
379, 24.095487513511898
379.5, 24.19445451770862
380, 24.30585222846372
380.5, 24.401998516351966
381, 24.46612866413173
381.5, 24.509059789605033
382, 24.560618729817136
382.5, 24.656244919460676
383, 24.81691425567068
383.5, 24.973492414104214
384, 25.06057292590181
384.5, 25.133846250112413
385, 25.244205583356006
385.5, 25.36255332942966
386, 25.4523020406524
386.5, 25.486978006161266
387, 25.50534985019084
387.5, 25.61842161392198
388, 25.795635668694644
388.5, 25.889398883734287
389, 25.900106886118607
389.5, 25.918112977815426
390, 25.983877152495452
390.5, 26.101102306717507
391, 26.205260279480754
391.5, 26.242785952677593
392, 26.268698989416336
392.5, 26.33035540979381
393, 26.40360624759323
393.5, 26.468232098751173
394, 26.5278244081412
394.5, 26.603878676250574
395, 26.732477898696175
395.5, 26.884317044208245
396, 26.983921218292423
396.5, 27.056128502747384
397, 27.172597572689227
397.5, 27.307001673686145
398, 27.40406568735068
398.5, 27.46742994895004
399, 27.516139658163212
399.5, 27.56364299888233
400, 27.622250709314486
400.5, 27.703927890047083
401, 27.80358550284906
401.5, 27.890887648334925
402, 27.967049376499176
402.5, 28.067834915151735
403, 28.184615039942614
403.5, 28.276959013561324
404, 28.352201208094968
404.5, 28.440513788917883
405, 28.541983872147057
405.5, 28.644236713716154
406, 28.733032542940094
406.5, 28.80042088409448
407, 28.858712795602102
407.5, 28.92907334809931
408, 29.042500053947833
408.5, 29.193297475379666
409, 29.32204235797576
409.5, 29.413379894697954
410, 29.501195137259458
410.5, 29.599478966535017
411, 29.704024364213637
411.5, 29.79674625229677
412, 29.86343691195431
412.5, 29.956286408463697
413, 30.120428468519876
413.5, 30.271333708289973
414, 30.34026432655827
414.5, 30.39488800220883
415, 30.48856986068401
415.5, 30.600574776529072
416, 30.70153718640408
416.5, 30.764582588127695
417, 30.82148004932226
417.5, 30.954266204885172
418, 31.144768710202484
418.5, 31.30907016547735
419, 31.420207446444337
419.5, 31.489799705275473
420, 31.581680859876087
420.5, 31.74422829321955
421, 31.89735440302134
421.5, 31.97226812803065
422, 32.0103427328777
422.5, 32.05478569804025
423, 32.119299242048584
423.5, 32.213444295230545
424, 32.34425410789942
424.5, 32.49315133661722
425, 32.62101415393262
425.5, 32.72821585314534
426, 32.84104837451338
426.5, 32.977837714262975
427, 33.143909456060086
427.5, 33.29717928555053
428, 33.400273717904525
428.5, 33.4882874379031
429, 33.596440861644155
429.5, 33.72033692373995
430, 33.85942734473329
430.5, 34.029249853354045
431, 34.21255048627842
431.5, 34.353837129899404
432, 34.4745001041496
432.5, 34.656487480556564
433, 34.875486771707614
433.5, 35.04975385112172
434, 35.17744085518865
434.5, 35.28963282910095
435, 35.402593416702246
435.5, 35.52597186097276
436, 35.662620170540876
436.5, 35.801220630478014
437, 35.90146510921167
437.5, 35.95962618102149
438, 36.03697397638163
438.5, 36.15345460408527
439, 36.2758545620038
439.5, 36.40341989776004
440, 36.56036771863136
440.5, 36.72281318224132
441, 36.844507978756525
441.5, 36.92504919777319
442, 36.99320412082761
442.5, 37.12322659582317
443, 37.35293590806132
443.5, 37.56456713865422
444, 37.672095050093
444.5, 37.72566800965728
445, 37.804141759649454
445.5, 37.99836325448342
446, 38.274020726418286
446.5, 38.46738444051482
447, 38.559475676090216
447.5, 38.645292551579274
448, 38.76817451939067
448.5, 38.92955172305222
449, 39.05947823648552
449.5, 39.09558917433299
450, 39.12865954047574
450.5, 39.24503992001218
451, 39.396008156047834
451.5, 39.52960165826279
452, 39.638635784204865
452.5, 39.743444089762626
453, 39.89333671779927
453.5, 40.063735856050464
454, 40.15973292087373
454.5, 40.211668760263464
455, 40.331887062289944
455.5, 40.51010425893181
456, 40.673993127101795
456.5, 40.774015215307145
457, 40.80203606096637
457.5, 40.8824393780212
458, 41.087311545807474
458.5, 41.251789910381945
459, 41.28188206757027
459.5, 41.29810074934968
460, 41.377491740169475
460.5, 41.50354401409721
461, 41.65142156240743
461.5, 41.795530891657066
462, 41.92024655211338
462.5, 42.02002708282316
463, 42.11485199049296
463.5, 42.2287827975761
464, 42.338382078108516
464.5, 42.41377079286316
465, 42.46313013819417
465.5, 42.519564885758534
466, 42.65671459347979
466.5, 42.86952653594949
467, 43.00080897805809
467.5, 43.00544623885075
468, 43.0003352307274
468.5, 43.022362025471914
469, 43.028365654804226
469.5, 43.025465303605586
470, 43.05398189073855
470.5, 43.137472387860754
471, 43.279645713640676
471.5, 43.423157146253644
472, 43.51393605804089
472.5, 43.57987281438977
473, 43.65564081763302
473.5, 43.74787064648031
474, 43.84812406165187
474.5, 43.930031736161666
475, 43.99109732645497
475.5, 44.059078824941054
476, 44.141725595493064
476.5, 44.22912196760018
477, 44.32791172997544
477.5, 44.448887456527046
478, 44.55508838537733
478.5, 44.610615294676116
479, 44.68769532028158
479.5, 44.84208894374899
480, 44.96532479772304
480.5, 44.984361477891994
481, 44.98539290758195
481.5, 45.020571696380195
482, 45.051710173701935
482.5, 45.06497894681009
483, 45.08345840416563
483.5, 45.11784825264234
484, 45.16584369032124
484.5, 45.214263259033785
485, 45.24788754317986
485.5, 45.279572420946856
486, 45.32280553463063
486.5, 45.3406973004042
487, 45.307779324730895
487.5, 45.27897589189305
488, 45.29293432840439
488.5, 45.319657814984595
489, 45.3469491460285
489.5, 45.40199275871118
490, 45.47228028054737
490.5, 45.50312105335225
491, 45.51257675217121
491.5, 45.56881229795166
492, 45.659052608860776
492.5, 45.735642235680146
493, 45.81980729495845
493.5, 45.93995598023231
494, 46.039705186073014
494.5, 46.0747157554888
495, 46.10214886247696
495.5, 46.1648267067029
496, 46.23869415619954
496.5, 46.292628422082814
497, 46.29839794717691
497.5, 46.26075356174006
498, 46.21592814762006
498.5, 46.16798156825108
499, 46.10066762095237
499.5, 46.037913800532046
500, 46.01743366140913
500.5, 46.032483648597754
501, 46.04879830713526
501.5, 45.987281012176986
502, 45.81817916462494
502.5, 45.67741529460775
503, 45.63525922139229
503.5, 45.5842193888854
504, 45.504019779363745
504.5, 45.51467123075884
505, 45.61162813962105
505.5, 45.66805672932994
506, 45.67131032700413
506.5, 45.68177033010366
507, 45.67618593177932
507.5, 45.6065466651356
508, 45.52026260500035
508.5, 45.467266200226256
509, 45.383695453347
509.5, 45.23115621141948
510, 45.10530193062498
510.5, 45.058041846131786
511, 45.02409540832414
511.5, 44.94822195851432
512, 44.806959469274474
512.5, 44.63787154865358
513, 44.523454066354525
513.5, 44.435120829848806
514, 44.284564612412595
514.5, 44.09492762102838
515, 43.931188983396154
515.5, 43.80423772141728
516, 43.69420594316626
516.5, 43.53478536068432
517, 43.3089504291987
517.5, 43.14266697753149
518, 43.07575506166073
518.5, 42.96792074617441
519, 42.76711336946798
519.5, 42.54965942964974
520, 42.392578776111414
520.5, 42.352360260769046
521, 42.32655631926097
521.5, 42.15127684219985
522, 41.92685626221965
522.5, 41.81658565959215
523, 41.72729329173789
523.5, 41.54997491923042
524, 41.37899892555547
524.5, 41.27704737497567
525, 41.14003441400905
525.5, 40.91419575697774
526, 40.66318287395543
526.5, 40.43681438260308
527, 40.255590109253866
527.5, 40.1181445306798
528, 40.0042622794927
528.5, 39.87114663220245
529, 39.6758083358277
529.5, 39.46036077618829
530, 39.28973865492647
530.5, 39.1736929184319
531, 39.09027672817148
531.5, 38.96815867951138
532, 38.774426119891
532.5, 38.578524717326715
533, 38.42999917735815
533.5, 38.32752724420339
534, 38.25135898604043
534.5, 38.16899024121768
535, 38.087295323104534
535.5, 38.03947015416302
536, 38.01395475211491
536.5, 37.97211061773194
537, 37.862824073785596
537.5, 37.65834735882177
538, 37.450001898139625
538.5, 37.30888543788178
539, 37.156232804865624
539.5, 36.95238548199341
540, 36.78983043252628
540.5, 36.700120395030474
541, 36.607800002022124
541.5, 36.50498312258537
542, 36.45485042199337
542.5, 36.430654196812526
543, 36.350444719378444
543.5, 36.24703897263606
544, 36.19059027542099
544.5, 36.11662414665919
545, 35.95430922619579
545.5, 35.80208592992477
546, 35.73836644603574
546.5, 35.67297648899604
547, 35.55400876279148
547.5, 35.455322628080836
548, 35.41021033550365
548.5, 35.37866308925254
549, 35.33024485697179
549.5, 35.24943534146567
550, 35.129006724422084
550.5, 34.97099069898309
551, 34.80971531324957
551.5, 34.69173347405564
552, 34.64442020897195
552.5, 34.67082341579186
553, 34.70789199427
553.5, 34.694700939576464
554, 34.615378399429574
554.5, 34.484140776175934
555, 34.355682920625696
555.5, 34.25960938754311
556, 34.18855288074897
556.5, 34.142293426364404
557, 34.1263808433327
557.5, 34.11155005466043
558, 34.05521828854154
558.5, 33.98760410431947
559, 33.95579233450873
559.5, 33.920819073826195
560, 33.841168333530874
560.5, 33.76231192394414
561, 33.717085719642256
561.5, 33.662752741229625
562, 33.57938381008097
562.5, 33.503824189998
563, 33.45632678816591
563.5, 33.43040397701169
564, 33.41636525428872
564.5, 33.40505654008973
565, 33.40835871818257
565.5, 33.44584498552261
566, 33.499746180626005
566.5, 33.53715175995835
567, 33.530452601341096
567.5, 33.475765023213285
568, 33.441351102522134
568.5, 33.47031231945671
569, 33.515622410870066
569.5, 33.52595073368852
570, 33.464941433509395
570.5, 33.358326662612484
571, 33.29615828250252
571.5, 33.290899482618656
572, 33.29446315606776
572.5, 33.31464336643779
573, 33.38064512567243
573.5, 33.441569331854964
574, 33.4329838492155
574.5, 33.37682364322589
575, 33.31716694091796
575.5, 33.291477463211166
576, 33.30933372707241
576.5, 33.324287551377196
577, 33.319736200300895
577.5, 33.33341912140452
578, 33.36974476310698
578.5, 33.394729513992246
579, 33.40772009198545
579.5, 33.430729892695396
580, 33.44407229617926
580.5, 33.415931158571226
581, 33.382815825870026
581.5, 33.39066127106969
582, 33.414778150657696
582.5, 33.42811372338147
583, 33.45009513338475
583.5, 33.48729610600674
584, 33.50463024848702
584.5, 33.4989541205115
585, 33.516188013680505
585.5, 33.52496362421083
586, 33.42292791448355
586.5, 33.2622333182519
587, 33.19142133833512
587.5, 33.20026340629502
588, 33.20758975934024
588.5, 33.202260023399774
589, 33.20236105422509
589.5, 33.240956770216016
590, 33.313641569262955
590.5, 33.3057479090932
591, 33.18202773167668
591.5, 33.089661189410165
592, 33.094813184761335
592.5, 33.12971244144492
593, 33.16069569413668
593.5, 33.19482429593573
594, 33.22685748041401
594.5, 33.24065014775445
595, 33.209218905735696
595.5, 33.118406424828606
596, 33.05157412184805
596.5, 33.09030051708653
597, 33.188238330106
597.5, 33.28055192805277
598, 33.33052975412606
598.5, 33.321369538251844
599, 33.26412110260463
599.5, 33.18071894396111
600, 33.10222672684992
600.5, 33.040206970760096
601, 32.98681185872826
601.5, 32.92008507796217
602, 32.81822496746403
602.5, 32.726165025760736
603, 32.69203489162251
603.5, 32.62537172953117
604, 32.44833638417798
604.5, 32.278272368881616
605, 32.214525389662086
605.5, 32.212938094168265
606, 32.20873702016439
606.5, 32.139538316028336
607, 32.00349762090882
607.5, 31.866818372371995
608, 31.725571148361823
608.5, 31.522520459454668
609, 31.31001369107119
609.5, 31.187282228027442
610, 31.10483667799562
610.5, 30.97319446573718
611, 30.818112826314746
611.5, 30.689654607854123
612, 30.60545408737849
612.5, 30.536082778278015
613, 30.363075555983073
613.5, 30.07347923184531
614, 29.83652383411969
614.5, 29.717743018260137
615, 29.645424674224927
615.5, 29.51393535959862
616, 29.217442532392184
616.5, 28.86300968404018
617, 28.644437560512443
617.5, 28.51934696899326
618, 28.377354883863887
618.5, 28.232242834212116
619, 28.12190853137963
619.5, 28.05228449091524
620, 28.000796314693744
620.5, 27.898754177889856
621, 27.74280723031788
621.5, 27.632792844719532
622, 27.59348617842798
622.5, 27.562860806893454
623, 27.51110941210345
623.5, 27.435839351064743
624, 27.330776314140138
624.5, 27.191919862104385
625, 27.04449226282273
625.5, 26.91912352354531
626, 26.82275359106994
626.5, 26.75323000160492
627, 26.700152920832835
627.5, 26.661406106982767
628, 26.65306988121465
628.5, 26.637986720891433
629, 26.50722420138915
629.5, 26.294823182316833
630, 26.168784034675184
630.5, 26.08712684090696
631, 25.88057043157933
631.5, 25.624667082426384
632, 25.48217735609194
632.5, 25.3890393642792
633, 25.23776996044988
633.5, 25.068113540692238
634, 24.932478621054997
634.5, 24.821012703314125
635, 24.721813895933124
635.5, 24.638123035722757
636, 24.56114205369417
636.5, 24.465071810884723
637, 24.349318544338217
637.5, 24.237695585839816
638, 24.145304140639922
638.5, 24.079671742328117
639, 24.040434370650345
639.5, 24.021628926335893
640, 24.00726339138855
640.5, 23.97135014526819
641, 23.863687003002497
641.5, 23.66980798870594
642, 23.47843965959089
642.5, 23.337098881372924
643, 23.194166384297375
643.5, 23.054817083449876
644, 23.003407627816927
644.5, 23.033826776378987
645, 23.059178418641082
645.5, 23.05107159165425
646, 23.019075930133525
646.5, 22.96173991717953
647, 22.878835986162585
647.5, 22.802836568391456
648, 22.757664929461924
648.5, 22.70295593446542
649, 22.631450821031763
649.5, 22.645461276220956
650, 22.76832850009056
650.5, 22.867678592340425
651, 22.8666131623458
651.5, 22.775233765203325
652, 22.670592209847527
652.5, 22.659366804040957
653, 22.603078339934
653.5, 22.273964617422735
654, 21.861902115050867
654.5, 21.659373096936193
655, 21.60090677388169
655.5, 21.547660491382615
656, 21.463864318655723
656.5, 21.35772635843145
657, 21.28859737979259
657.5, 21.27579049924468
658, 21.26645235037296
658.5, 21.24644209156733
659, 21.248616698180896
659.5, 21.25175478567847
660, 21.198972691132354
660.5, 21.129588334482207
661, 21.11435401596377
661.5, 21.066943804849615
662, 20.890789719062155
662.5, 20.7223909851312
663, 20.683876657085335
663.5, 20.66097391719218
664, 20.57397307696948
664.5, 20.507138584997065
665, 20.496695121304654
665.5, 20.479361553434913
666, 20.441960021595094
666.5, 20.430261571370636
667, 20.453054849675226
667.5, 20.49099490889148
668, 20.543428138038152
668.5, 20.61138993600312
669, 20.642638514452017
669.5, 20.59061324516989
670, 20.515043716191883
670.5, 20.457087650934355
671, 20.328542432851492
671.5, 20.114026929747013
672, 19.983170119182148
672.5, 19.970380096823448
673, 19.898240717264642
673.5, 19.751832175245
674, 19.68372175773895
674.5, 19.70377114176621
675, 19.72209792477173
675.5, 19.713422564583908
676, 19.686455330271016
676.5, 19.6505356905692
677, 19.614905403347066
677.5, 19.587920265489046
678, 19.572158924203322
678.5, 19.555633794721246
679, 19.54510214733041
679.5, 19.58530638574733
680, 19.673047896532182
680.5, 19.73963397043606
681, 19.781218003713704
681.5, 19.852172204564027
682, 19.917397569508367
682.5, 19.89595631194443
683, 19.835104885533838
683.5, 19.818952385973944
684, 19.79953797293662
684.5, 19.71902802078904
685, 19.64276044455451
685.5, 19.62398004199987
686, 19.616573117079497
686.5, 19.59519020738216
687, 19.59663611795706
687.5, 19.63168653479616
688, 19.671696283965318
688.5, 19.70265753028633
689, 19.724252970047985
689.5, 19.71822995859695
690, 19.662594535416588
690.5, 19.59457807561779
691, 19.565120543928572
691.5, 19.56064681910516
692, 19.551774342669646
692.5, 19.52370659315602
693, 19.47490860699746
693.5, 19.42738715981602
694, 19.384572112056915
694.5, 19.31503377683471
695, 19.228106233939684
695.5, 19.182254901046576
696, 19.1908321569787
696.5, 19.226428248602886
697, 19.257714367732945
697.5, 19.259450173541723
698, 19.259458558757927
698.5, 19.296406312477274
699, 19.35503144483458
699.5, 19.41466685013654
700, 19.4874509797269
700.5, 19.57413393908918
701, 19.636514054123722
701.5, 19.664932852225007
702, 19.700540859051927
702.5, 19.738668699746185
703, 19.723181142780135
703.5, 19.665653670517074
704, 19.626650204146316
704.5, 19.597660878784595
705, 19.539468357491828
705.5, 19.472327014575285
706, 19.430881551386193
706.5, 19.408763159266925
707, 19.39198972062971
707.5, 19.37738059012031
708, 19.370858330230135
708.5, 19.392468208644345
709, 19.431916056850753
709.5, 19.43389711234397
710, 19.395035747584416
710.5, 19.368032396140677
711, 19.374025117822427
711.5, 19.406261196965545
712, 19.438299360153493
712.5, 19.439072889539972
713, 19.410861485976397
713.5, 19.366838999362983
714, 19.31374748103545
714.5, 19.260111461034384
715, 19.22395410474509
715.5, 19.209522092481592
716, 19.191515817790076
716.5, 19.16999212698711
717, 19.18279321262405
717.5, 19.221133415384543
718, 19.230950257202636
718.5, 19.207411952637713
719, 19.180693387191923
719.5, 19.169840797921708
720, 19.182982611255085
720.5, 19.20038157579343
721, 19.201602546673797
721.5, 19.20085432948622
722, 19.213704006647205
722.5, 19.23745490955082
723, 19.268377054124826
723.5, 19.306356047756054
724, 19.353552434605476
724.5, 19.41335358785139
725, 19.463740397116652
725.5, 19.46301935367279
726, 19.42093354524016
726.5, 19.38322949552058
727, 19.40376584382942
727.5, 19.51556685785745
728, 19.62313715101064
728.5, 19.629381107719695
729, 19.583048102253542
729.5, 19.54544725143667
730, 19.527897053007038
730.5, 19.527897502802745
731, 19.532286904153892
731.5, 19.532493550278687
732, 19.527497943188663
732.5, 19.5269063065021
733, 19.547368671221705
733.5, 19.583529126008557
734, 19.620407295172782
734.5, 19.67561656612567
735, 19.76605711216945
735.5, 19.833023423390372
736, 19.82565954650063
736.5, 19.79791828458829
737, 19.804301826196735
737.5, 19.849022404178143
738, 19.906596170424564
738.5, 19.91614780706216
739, 19.86295443808831
739.5, 19.79010026548154
740, 19.74328893505688
740.5, 19.76164160133827
741, 19.821126659067943
741.5, 19.866935030045084
742, 19.890560860488023
742.5, 19.911905607654575
743, 19.99163009462535
743.5, 20.15849923005304
744, 20.303857913555433
744.5, 20.356146924913332
745, 20.38349429739931
745.5, 20.43230421758298
746, 20.48711790711033
746.5, 20.535358096120092
747, 20.57473323844542
747.5, 20.622857278854568
748, 20.707666246671337
748.5, 20.80879766046469
749, 20.8855281788845
749.5, 20.941590479204493
750, 20.989270805143633
750.5, 21.00166061892405
751, 20.959854955053572
751.5, 20.899965311524653
752, 20.851076025548906
752.5, 20.80717884655465
753, 20.771109958614574
753.5, 20.763934027823836
754, 20.78368024376813
754.5, 20.804251771039432
755, 20.818909569548254
755.5, 20.835154550910318
756, 20.851124104989225
756.5, 20.85968370433318
757, 20.852924211385485
757.5, 20.83506399260233
758, 20.860558503761098
758.5, 20.964726280354085
759, 21.094532229427443
759.5, 21.20788975307981
760, 21.313455878058434
760.5, 21.42408406344674
761, 21.548953001926918
761.5, 21.664800135843976
762, 21.722297374909346
762.5, 21.745436256466434
763, 21.80249829070422
763.5, 21.893778033406917
764, 21.986531315561592
764.5, 22.055597918012154
765, 22.094611929368668
765.5, 22.15820230050315
766, 22.27610365316923
766.5, 22.37571703390695
767, 22.41129779482722
767.5, 22.415942454740758
768, 22.4155511774771
768.5000000000001, 22.41553036036035
769, 22.415824412904627
769.5, 22.41330430668367
770.0000000000001, 22.4137001746806
770.5, 22.430913718892043
771, 22.496035294600475
771.5, 22.63238713082427
772, 22.78082989827554
772.5, 22.882216432224027
773, 22.97293017680508
773.5, 23.08637172310526
774, 23.196647120171107
774.5, 23.280903103410182
775, 23.337357721877694
775.5, 23.381701335341134
776, 23.44663902476556
776.5000000000001, 23.53098979478274
777, 23.606655039946332
777.5, 23.687524845875956
778.0000000000001, 23.806539510130875
778.5, 23.93952973459379
779, 24.042653633864262
779.5, 24.09999719257553
780, 24.105008790646792
780.5, 24.05389534204484
781, 23.96514508572143
781.5, 23.90650171861138
782, 23.897151429147414
782.5, 23.86914451474027
783, 23.83980272467015
783.5, 23.925255111685175
784, 24.088711020121693
784.5000000000001, 24.17818395152412
785, 24.20989100008353
785.5, 24.282562654856946
786.0000000000001, 24.36573592331071
786.5, 24.395069228302617
787, 24.399140626376578
787.5, 24.421783260942533
788, 24.471144296500484
788.5, 24.538582251632477
789, 24.594460041849374
789.5, 24.62603545734791
790, 24.65004282410584
790.5, 24.667694415143615
791, 24.66410543930263
791.5, 24.679719552368155
792, 24.787264363783123
792.5000000000001, 24.947042473100197
793, 25.069363167679683
793.5, 25.148075724470104
794.0000000000001, 25.205196562755816
794.5, 25.242634944095443
795, 25.254810290238055
795.5000000000001, 25.23024305535047
796, 25.1851349474276
796.5, 25.193067367832015
797, 25.265689197099945
797.5, 25.317725147943875
798, 25.32704236059982
798.5, 25.341138432650794
799, 25.35930425694889
799.5, 25.3469057085469
800, 25.306075422741785
800.5, 25.26001218813134
801, 25.239747777020696
801.5, 25.26561769247212
802, 25.30371466190124
802.5, 25.32877769398857
803, 25.376557983768294
803.5, 25.451868395261087
804, 25.48134443867056
804.5, 25.44404665892405
805, 25.401342195751624
805.5, 25.38746311791229
806, 25.402380683910337
806.5, 25.420115910070365
807, 25.40345002116338
807.5, 25.364035437427077
808, 25.337867030218405
808.5, 25.361136292313546
809, 25.44619908116769
809.5, 25.515741485157292
810, 25.523642885671748
810.5, 25.55800220737423
811, 25.622909677757264
811.5, 25.53654377019025
812, 25.29958349600072
812.5, 25.162555895540237
813, 25.171295670105764
813.5, 25.176355637705598
814, 25.13255856722367
814.5, 25.067633920688323
815, 25.00412529848066
815.5, 24.948830183789568
816, 24.84260949269691
816.5, 24.651279668751542
817, 24.50351397900606
817.5, 24.48373698899445
818, 24.482330201978513
818.5, 24.431049184488458
819, 24.38097774444465
819.5, 24.36512690971155
820, 24.37998375951254
820.5, 24.415240977603787
821, 24.454890666412027
821.5, 24.464104908372548
822, 24.406138704084597
822.5, 24.313874685563405
823, 24.236212074444836
823.5, 24.15163132417112
824, 24.03097218856155
824.5, 23.890410683806422
825, 23.75481641403705
825.5, 23.647219251922166
826, 23.56920918977346
826.5, 23.489284881591857
827, 23.405293871978415
827.5, 23.350208205749965
828, 23.323534627569742
828.5, 23.297479281206208
829, 23.263111653709075
829.5, 23.222039688720955
830, 23.169103993754888
830.5, 23.093714088858448
831, 22.97354513308005
831.5, 22.8002601486766
832, 22.619157130205593
832.5, 22.476237752462012
833, 22.395962937209447
833.5, 22.357537425553915
834, 22.278691251405306
834.5, 22.156489507919844
835, 22.073413754440708
835.5, 22.017249187404275
836, 21.905962163723302
836.5, 21.7253475822304
837, 21.50776452474858
837.5, 21.335919159097827
838, 21.279642181913474
838.5, 21.27188215191528
839, 21.222296591042195
839.5, 21.07907822665163
840, 20.85616691737853
840.5, 20.68417771846505
841, 20.58826769607589
841.5, 20.427079563064623
842, 20.172499394788247
842.5, 19.92313183683494
843, 19.742165738368413
843.5, 19.653416287526227
844, 19.60004326674232
844.5, 19.50438688070801
845, 19.410486270253074
845.5, 19.372243657267717
846, 19.30629396421233
846.5, 19.142185645983915
847, 18.93795254456188
847.5, 18.753432858886583
848, 18.609363504836736
848.5, 18.476631906220945
849, 18.269798520643505
849.5, 18.015154972359966
850, 17.842292805987952
850.5, 17.767957525540496
851, 17.731344889296366
851.5, 17.70128410864467
852, 17.659554099580276
852.5, 17.574978589411913
853, 17.43182988524663
853.5, 17.2885497296097
854, 17.1758656951407
854.5, 17.010002985276216
855, 16.78057294232204
855.5, 16.63796858015725
856, 16.606566478488077
856.5, 16.535329698654564
857, 16.409574272572087
857.5, 16.341364147696993
858, 16.342153566410374
858.5, 16.35461446406714
859, 16.322135682100168
859.5, 16.211181727716138
860, 16.102139150153732
860.5, 16.074029649029825
861, 16.07377939053515
861.5, 16.0535695765886
862, 16.047293483914387
862.5, 16.057980114984687
863, 16.017732390029977
863.5, 15.914555799617233
864, 15.810311756558193
864.5, 15.733761933421732
865, 15.68170743635865
865.5, 15.65606600744647
866, 15.65798062680713
866.5, 15.655926986797581
867, 15.619804245648993
867.5, 15.594565907856776
868, 15.622055757932586
868.5, 15.660154158997372
869, 15.66759114748072
869.5, 15.644012786529345
870, 15.596762472517923
870.5, 15.536407199020928
871, 15.471573554435224
871.5, 15.410563717586427
872, 15.39795753992071
872.5, 15.495373293252072
873, 15.636681554433935
873.5, 15.699706774788538
874, 15.686074252766943
874.5, 15.646591487764653
875, 15.624383872447467
875.5, 15.64052328965056
876, 15.655291929481663
876.5, 15.656798116894848
877, 15.716040199153042
877.5, 15.839572418678102
878, 15.923977621802024
878.5, 15.946771163425126
879, 15.977532962068665
879.5, 16.012983279797353
880, 15.998549011377776
880.5, 15.958895552815704
881, 15.950738135908509
881.5, 15.95522612867542
882, 15.947033491500733
882.5, 15.996342026773846
883, 16.14472449734572
883.5, 16.27920891357556
884, 16.337120989626897
884.5, 16.410203711198292
885, 16.49708732089752
885.5, 16.444666779751287
886, 16.26129916029781
886.5, 16.124438003054394
887, 16.1163206527728
887.5, 16.23446279170318
888, 16.390439511176695
888.5, 16.473544526067485
889, 16.496030473152004
889.5, 16.535395546716273
890, 16.751171778659312
890.5, 17.185653336195003
891, 17.510736643840502
891.5, 17.53781343143163
892, 17.458701332774993
892.5, 17.45652944089494
893, 17.637323679401703
893.5, 17.92058465327277
894, 18.0703337885315
894.5, 18.086338835735248
895, 18.12184603716328
895.5, 18.22470145044855
896, 18.382562935676276
896.5, 18.54286976089631
897, 18.655498448106968
897.5, 18.729170396726133
898, 18.781604224269984
898.5, 18.818844479421074
899, 18.84905504624109
899.5, 18.88742820913575
900, 18.9492782373884
900.5, 19.046869432961927
901, 19.148032820241795
901.5, 19.189622726817802
902, 19.216105430344058
902.5, 19.325600054373254
903, 19.488121488074313
903.5, 19.62894627630523
904, 19.746519897553156
904.5, 19.848353542097897
905, 19.892796393091345
905.5, 19.877164428343562
906, 19.916087224213584
906.5, 20.041894829277055
907, 20.12417894355677
907.5, 20.167635079480448
908, 20.34492129302805
908.5, 20.60979636949969
909, 20.740284998175696
909.5, 20.736838677436737
910, 20.72790313535434
910.5, 20.759429550494715
911, 20.841365290975048
911.5, 20.985329627377595
912, 21.177969115919907
912.5, 21.32333699507012
913, 21.371459253890407
913.5, 21.412485366542654
914, 21.49598357333508
914.5, 21.578335581928116
915, 21.65368758814975
915.5, 21.763911886819642
916, 21.881278427363895
916.5, 21.931186888095908
917, 21.955501765231332
917.5, 22.042918353217857
918, 22.14242215174326
918.5, 22.173304250539644
919, 22.17594550910141
919.5, 22.203316931087357
920, 22.243984995583858
920.5, 22.3037866682145
921, 22.449266695711373
921.5, 22.66107810328498
922, 22.786167120935275
922.5, 22.83005499686371
923, 22.96746385242014
923.5, 23.197164616565175
924, 23.386299264849015
924.5, 23.489184611996407
925, 23.519788404570775
925.5, 23.55603780428406
926, 23.66608457642718
926.5, 23.77651149810403
927, 23.81708713824375
927.5, 23.83221060540795
928, 23.862848735607102
928.5, 23.902981392725366
929, 23.960767707892956
929.5, 24.069759700662573
930, 24.206502801345962
930.5, 24.29591817838974
931, 24.369742340931737
931.5, 24.524432640229392
932, 24.734262936480945
932.5, 24.926335958295994
933, 25.12113816031541
933.5, 25.346603003751596
934, 25.52870231822115
934.5, 25.60876381657181
935, 25.636082193931628
935.5, 25.654129872536927
936, 25.661958780981536
936.5, 25.66090814041239
937, 25.662608379960787
937.5, 25.69431486794089
938, 25.792509209243377
938.5, 25.93104161870656
939, 26.0453865471802
939.5, 26.10809087552869
940, 26.124061766984298
940.5, 26.174149935278166
941, 26.3196305639415
941.5, 26.457064695645116
942, 26.5144776185856
942.5, 26.593644487904484
943, 26.75426510154847
943.5, 26.934456074241524
944, 27.082267399465948
944.5, 27.175192496837028
945, 27.2164128976208
945.5, 27.22949196918242
946, 27.22554238192747
946.5, 27.20860926988621
947, 27.19337086092179
947.5, 27.20063426533673
948, 27.257471260357462
948.5, 27.371677133518503
949, 27.478219507248113
949.5, 27.53079551087282
950, 27.564349801618903
950.5, 27.610087452953536
951, 27.67286322683951
951.5, 27.740307181494018
952, 27.786177581983566
952.5, 27.84747143893418
953, 28.005541041094972
953.5, 28.232906706415534
954, 28.44245300371132
954.5, 28.598309857807664
955, 28.686639666957973
955.5, 28.69252426228786
956, 28.63610048488401
956.5, 28.651044506746018
957, 28.800473543800024
957.5, 28.94100086636422
958, 29.01019749158776
958.5, 29.113934688895355
959, 29.282986844011347
959.5, 29.449066075557838
960, 29.571462384268898
960.5, 29.64123176550413
961, 29.70269433328032
961.5, 29.81098971432428
962, 29.8960623350318
962.5, 29.888053569146038
963, 29.940471083145667
963.5, 30.167964178414138
964, 30.382209856266996
964.5, 30.46815465660285
965, 30.581386760144568
965.5, 30.763896590903755
966, 30.844421906206094
966.5, 30.793972025494014
967, 30.746105824917294
967.5, 30.738700408202277
968, 30.736931521074865
968.5, 30.760381840652386
969, 30.845628838445805
969.5, 30.94777381874438
970, 31.013044142479302
970.5, 31.078497575233428
971, 31.19031877877066
971.5, 31.353653720839574
972, 31.53327648286745
972.5, 31.630954328706764
973, 31.65829856039592
973.5, 31.784374293014338
974, 32.028213514544845
974.5, 32.2525868146616
975, 32.39760911184962
975.5, 32.46808909068062
976, 32.5060882212983
976.5, 32.55909442422127
977, 32.60156004049014
977.5, 32.59699992794674
978, 32.56695611113558
978.5, 32.54967405736595
979, 32.59008484759079
979.5, 32.70080493286872
980, 32.832644504436246
980.5, 32.94743091326235
981, 33.03208513659956
981.5, 33.10796646377318
982, 33.22212469823634
982.5, 33.3562711017011
983, 33.457236833294175
983.5, 33.55177554734482
984, 33.68627361130028
984.5, 33.805956309285705
985, 33.8461037900162
985.5, 33.82826091958323
986, 33.80586316477314
986.5, 33.862275842537514
987, 34.01385283042373
987.5, 34.153157734621715
988, 34.22993469185511
988.5, 34.28094368249411
989, 34.344527048749214
989.5, 34.4515793955987
990, 34.587492012021244
990.5, 34.71277787243636
991, 34.817795215373366
991.5, 34.90968473011081
992, 35.01132232539325
992.5, 35.138674814377595
993, 35.26759352600229
993.5, 35.372415600465914
994, 35.44402996149161
994.5, 35.47986847761538
995, 35.48439651570507
995.5, 35.46683609272665
996, 35.44224899076687
996.5, 35.44317673041475
997, 35.508818953974185
997.5, 35.59548572104123
998, 35.63074426826532
998.5, 35.68990877655928
999, 35.8692198674255
999.5, 36.06914503757959
1000, 36.18129945813624
1000.5, 36.25159385463301
1001, 36.32323540711885
1001.5, 36.36627513761783
1002, 36.387430008324884
1002.5, 36.4628614521159
1003, 36.58663170208463
1003.5, 36.66254139567305
1004, 36.71783545599374
1004.5, 36.863683262372625
1005, 37.03123072664761
1005.5, 37.080125590593646
1006, 37.077689621282026
1006.5, 37.14474176104055
1007, 37.27258928085193
1007.5, 37.41438190268612
1008, 37.515585121059104
1008.5, 37.56001672371592
1009, 37.6131280231179
1009.5, 37.68788431026342
1010, 37.70738748150532
1010.5, 37.65153594236007
1011, 37.569750057738204
1011.5, 37.54371819736153
1012, 37.660954297291795
1012.5, 37.863097257365915
1013, 38.02298456862043
1013.5, 38.07018343578769
1014, 38.02227071949891
1014.5, 38.16953579973051
1015, 38.662429021167895
1015.5, 39.06426000065632
1016, 39.11489264679713
1016.5, 39.097445720129734
1017, 39.194255537885596
1017.5, 39.358800247147045
1018, 39.50972998952935
1018.5, 39.55980776741789
1019, 39.580883046017
1019.5, 39.729417526041686
1020, 39.91820637466278
1020.5, 39.97667533834908
1021, 39.96288871880855
1021.5, 39.979621140400276
1022, 39.99195339233688
1022.5, 39.96117035482778
1023, 39.92561374370652
1023.5, 39.91068011810716
1024, 39.895791963932524
1024.5, 39.90077638142714
1025, 39.99967005733174
1025.5, 40.158926522346675
1026, 40.251478386378075
1026.5, 40.28437275656275
1027, 40.35674214876079
1027.5, 40.56454275775752
1028, 40.95100822648058
1028.5, 41.29282989795289
1029, 41.39684564709382
1029.5, 41.49396389022277
1030, 41.75276649929838
1030.5, 41.95253641295168
1031, 41.96751699303634
1031.5, 41.93737562643292
1032, 41.91573740192145
1032.5, 41.82243847578922
1033, 41.68135486914526
1033.5, 41.61251890089251
1034, 41.696304009207374
1034.5, 41.964061144456196
1035, 42.28692105055077
1035.5, 42.50723545330021
1036, 42.67759712373389
1036.5, 42.86639137305721
1037, 42.976188918386114
1037.5, 42.95611069989896
1038, 42.944099654448536
1038.5, 43.0228238007697
1039, 43.14073275023436
1039.5, 43.25479730638549
1040, 43.348641993213946
1040.5, 43.44242040173645
1041, 43.580216452137144
1041.5, 43.74934618004145
1042, 43.90734442172882
1042.5, 44.04324441046963
1043, 44.16059014124565
1043.5, 44.26804816774076
1044, 44.3818626922904
1044.5, 44.53737854599285
1045, 44.7301340188472
1045.5, 44.861465274629836
1046, 44.902391552133466
1046.5, 44.94733176858494
1047, 44.9917232270813
1047.5, 44.92094514895155
1048, 44.79106484886407
1048.5, 44.77859887613945
1049, 44.873795508880285
1049.5, 44.977004152690554
1050, 45.09704090018205
1050.5, 45.264052721373346
1051, 45.41309104815512
1051.5, 45.47544039297822
1052, 45.448210213413745
1052.5, 45.39595290641997
1053, 45.493797677785466
1053.5, 45.74654219717932
1054, 45.899649420004764
1054.5, 45.921731116419984
1055, 46.02342445886999
1055.5, 46.240225604811435
1056, 46.47157449235824
1056.5, 46.64714612360065
1057, 46.72769309299589
1057.5, 46.75352158001546
1058, 46.78627384020591
1058.5, 46.854733781697675
1059, 46.95831932208468
1059.5, 47.03835910813594
1060, 47.07671391544544
1060.5, 47.151825573391534
1061, 47.27503889800887
1061.5, 47.354839495198156
1062, 47.40710115128189
1062.5, 47.5489619086857
1063, 47.73957249065393
1063.5, 47.84319615739864
1064, 47.88901159319197
1064.5, 47.96125427206534
1065, 47.984881741186136
1065.5, 47.875683541529924
1066, 47.72627872797287
1066.5, 47.6320916934219
1067, 47.5858637128136
1067.5, 47.57693945384852
1068, 47.61822039494673
1068.5, 47.70181439970682
1069, 47.789935078424534
1069.5, 47.853051672537696
1070, 47.877691521792705
1070.5, 47.929282063350456
1071, 48.099439704719565
1071.5, 48.276842734399
1072, 48.311270165823316
1072.5, 48.350681524174014
1073, 48.5528387455125
1073.5, 48.76280386963624
1074, 48.841991446706714
1074.5, 48.86289408774161
1075, 48.88345851611324
1075.5, 48.882404109050306
1076, 48.86186578153431
1076.5, 48.861180277333716
1077, 48.89782117177797
1077.5, 48.966904642414555
1078, 49.05114359258944
1078.5, 49.12751135603168
1079, 49.184473331133184
1079.5, 49.21585710431803
1080, 49.21662134816255
1080.5, 49.19888833597718
1081, 49.23085314018046
1081.5, 49.34403460227983
1082, 49.45888992104353
1082.5, 49.534994335600516
1083, 49.619611798921554
1083.5, 49.7210363574846
1084, 49.796196582007155
1084.5, 49.855342346257046
1085, 49.949574392833085
1085.5, 50.0690166562247
1086, 50.1706611489449
1086.5, 50.237033572207764
1087, 50.2572186204854
1087.5, 50.20073623559063
1088, 50.05933270896228
1088.5, 49.91191116395675
1089, 49.82124347726639
1089.5, 49.77828842936375
1090, 49.78431399616759
1090.5, 49.86930971116384
1091, 50.02144231922395
1091.5, 50.18233167042189
1092, 50.32368289758679
1092.5, 50.43876867254809
1093, 50.483100072510126
1093.5, 50.41619182165704
1094, 50.359040683284455
1094.5, 50.44420110057891
1095, 50.58200582468002
1095.5, 50.67511125224571
1096, 50.77907410171783
1096.5, 50.92055830096768
1097, 51.01102042752293
1097.5, 51.010230096355045
1098, 50.96764554693912
1098.5, 50.91827095254231
1099, 50.8735149705026
1099.5, 50.825525307107235
1100, 50.75578610319355
1100.5, 50.67091188594923
1101, 50.591287975494325
1101.5, 50.53967590075864
1102, 50.52591035807365
1102.5, 50.504469161959854
1103, 50.46764712904888
1103.5, 50.549568508350546
1104, 50.7790557722851
1104.5, 50.938425066328726
1105, 50.931827883484836
1105.5, 50.86666045331507
1106, 50.81793503665299
1106.5, 50.81164665361179
1107, 50.83462612850922
1107.5, 50.852255468498704
1108, 50.86765788658424
1108.5, 50.8977378024154
1109, 50.93074890424872
1109.5, 50.95538218379376
1110, 50.999359849488684
1110.5, 51.05885142795066
1111, 51.025308089501245
1111.5, 50.870435837306196
1112, 50.73997932870549
1112.5, 50.70983695684917
1113, 50.741226116755676
1113.5, 50.777913874551516
1114, 50.76056273280145
1114.5, 50.70196814201037
1115, 50.66100286073154
1115.5, 50.6835991622688
1116, 50.78685093192956
1116.5, 50.87147704763511
1117, 50.85474010854409
1117.5, 50.845271217831964
1118, 50.91068451145328
1118.5, 50.916902978649176
1119, 50.81044370536093
1119.5, 50.724760024445445
1120, 50.71536977915782
1120.5, 50.72241796410439
1121, 50.72059463683663
1121.5, 50.71994278535522
1122, 50.72030701489721
1122.5, 50.71416486013676
1123, 50.692066127877595
1123.5, 50.64801083745223
1124, 50.59664670248872
1124.5, 50.545515534249006
1125, 50.457950777847266
1125.5, 50.315497122665064
1126, 50.162277999629545
1126.5, 50.041493767099055
1127, 49.979650305219835
1127.5, 49.9688928775139
1128, 49.96496544467396
1128.5, 49.94685561873241
1129, 49.9154760934797
1129.5, 49.88291825108242
1130, 49.861306621072565
1130.5, 49.82131061433828
1131, 49.7276922957037
1131.5, 49.59629532670072
1132, 49.458454746198065
1132.5, 49.348307584900326
1133, 49.273006646924564
1133.5, 49.18097776223777
1134, 49.05044605421388
1134.5, 48.916218216413185
1135, 48.803763048427896
1135.5, 48.72206249383978
1136, 48.66225651726985
1136.5, 48.60523547382556
1137, 48.560523097196935
1137.5, 48.5427830737779
1138, 48.498210333102556
1138.5, 48.37519363436474
1139, 48.24488524676549
1139.5, 48.186553636926185
1140, 48.20712619666983
1140.5, 48.21864151742209
1141, 47.97314144739718
1141.5, 47.503199858063496
1142, 47.256774741327256
1142.5, 47.31743580172814
1143, 47.37885214612203
1143.5, 47.37886716276414
1144, 47.43123324633136
1144.5, 47.500629853193445
1145, 47.487451265662266
1145.5, 47.38455827086322
1146, 47.22031439068266
1146.5, 47.02940186737696
1147, 46.85085121479315
1147.5, 46.73092570375396
1148, 46.672958614826676
1148.5, 46.59754589192483
1149, 46.49074590579449
1149.5, 46.43661908813796
1150, 46.44651280637214
1150.5, 46.45558617122021
1151, 46.414024276540765
1151.5, 46.29549525247621
1152, 46.163090709736345
1152.5, 46.10349360128639
1153, 46.09243339673661
1153.5, 46.06488280671457
1154, 45.94574151279418
1154.5, 45.71547949963066
1155, 45.502530826767156
1155.5, 45.36709075261433
1156, 45.20698923200686
1156.5, 45.01438152496858
1157, 44.91820921586631
1157.5, 44.935574188143896
1158, 44.97722271265703
1158.5, 45.00634374509834
1159, 45.01960783206771
1159.5, 44.986994011027164
1160, 44.88255943094951
1160.5, 44.766343619105534
1161, 44.69785768880414
1161.5, 44.63812232629631
1162, 44.55457546487869
1162.5, 44.48132176822705
1163, 44.38601914740904
1163.5, 44.112340335637704
1164, 43.6833342929133
1164.5, 43.34351833641576
1165, 43.15952441522193
1165.5, 43.04106337517548
1166, 42.993284331468736
1166.5, 43.06509872521624
1167, 43.17330490105734
1167.5, 43.200373090692054
1168, 43.14208437320905
1168.5, 43.02114555338661
1169, 42.83671049603207
1169.5, 42.621177934746896
1170, 42.49174440064451
1170.5, 42.461935399665606
1171, 42.36622337533376
1171.5, 42.20018484573492
1172, 42.14806129469952
1172.5, 42.16971624564131
1173, 42.05600864970842
1173.5, 41.8324308672868
1174, 41.64137797775222
1174.5, 41.472638557137195
1175, 41.27430643543373
1175.5, 41.09111098320526
1176, 40.974887156734646
1176.5, 40.9152118925686
1177, 40.877144350356154
1177.5, 40.79954070080486
1178, 40.656054862666466
1178.5, 40.47705253375437
1179, 40.26964767079444
1179.5, 40.01380317174078
1180, 39.73479376627925
1180.5, 39.489755042261415
1181, 39.296111284632744
1181.5, 39.15370118576029
1182, 39.09170267764846
1182.5, 39.12814568914112
1183, 39.1859670834972
1183.5, 39.188689447025034
1184, 39.13418186175316
1184.5, 39.03944958414479
1185, 38.93228509734918
1185.5, 38.80019493025521
1186, 38.57447063971206
1186.5, 38.25772292444059
1187, 37.927271079232185
1187.5, 37.62762502277219
1188, 37.37641681577869
1188.5, 37.18714641434671
1189, 37.05993275135185
1189.5, 36.92757923448771
1190, 36.73206985331307
1190.5, 36.5478076811157
1191, 36.44121017900925
1191.5, 36.36853303894159
1192, 36.316125732520504
1192.5, 36.360739244847956
1193, 36.51259828543784
1193.5, 36.67799569186535
1194, 36.74303608510653
1194.5, 36.59925959452099
1195, 36.365080359357755
1195.5, 36.279981171330974
1196, 36.297072088170424
1196.5, 36.25242626067578
1197, 36.11224322710339
1197.5, 35.90164335281692
1198, 35.69945184623876
1198.5, 35.56206030534844
1199, 35.456863264305596
1199.5, 35.3293141031248
1200, 35.113256971239096
1200.5, 34.839006254271894
1201, 34.653486632688086
1201.5, 34.55916938466871
1202, 34.43023643541002
1202.5, 34.25849145797889
1203, 34.1061003341851
1203.5, 33.9655089424827
1204, 33.80967749585301
1204.5, 33.678302051714326
1205, 33.61852604782098
1205.5, 33.62945158604214
1206, 33.69122707307241
1206.5, 33.763347541213875
1207, 33.78587453047341
1207.5, 33.6748478608111
1208, 33.46309083142852
1208.5, 33.31454490846471
1209, 33.185197790633666
1209.5, 32.870497073230126
1210, 32.43628852604287
1210.5, 32.09402654038752
1211, 31.888629224080574
1211.5, 31.782523955016188
1212, 31.692215242203048
1212.5, 31.546888443871865
1213, 31.361340858054263
1213.5, 31.173004072111937
1214, 31.03042540882572
1214.5, 30.939451369085305
1215, 30.83769541669662
1215.5, 30.71851034744941
1216, 30.641316883884087
1216.5, 30.60138947380419
1217, 30.540046848292434
1217.5, 30.408994679713828
1218, 30.184877154862363
1218.5, 29.963455859029565
1219, 29.836689953905704
1219.5, 29.663831173215456
1220, 29.3411452082091
1220.5, 29.075765429398686
1221, 28.99537904861566
1221.5, 28.93581329351693
1222, 28.81375580304075
1222.5, 28.720089664365233
1223, 28.679759865106107
1223.5, 28.632498181169026
1224, 28.528084414089577
1224.5, 28.33342201356116
1225, 28.073393777563638
1225.5, 27.807522411903307
1226, 27.615399078280717
1226.5, 27.54076423156738
1227, 27.44580120143992
1227.5, 27.217846204647913
1228, 26.95222209815114
1228.5, 26.744027086984033
1229, 26.61304950394269
1229.5, 26.527132145001133
1230, 26.39559044670294
1230.5, 26.180137942594342
1231, 25.902995204718593
1231.5, 25.627802105052496
1232, 25.435431019930178
1232.5, 25.31289917661742
1233, 25.207733045653754
1233.5, 25.119077397198424
1234, 25.05542952978601
1234.5, 24.98895987405824
1235, 24.883193891081547
1235.5, 24.702688200687376
1236, 24.44605120366191
1236.5, 24.175031009905055
1237, 23.932213498474
1237.5, 23.723646716960687
1238, 23.519696630705354
1238.5, 23.265375710517816
1239, 22.985161495166082
1239.5, 22.75148708500575
1240, 22.5797177369234
1240.5, 22.451811284564158
1241, 22.32090427025392
1241.5, 22.14919491531758
1242, 21.967482220712085
1242.5, 21.805334121441746
1243, 21.649686558227145
1243.5, 21.50816611315595
1244, 21.434836415680564
1244.5, 21.414662838100682
1245, 21.34542564192209
1245.5000000000002, 21.237696093589363
1246, 21.19569629072666
1246.5, 21.170172147161466
1247.0000000000002, 21.03412310160394
1247.5, 20.836893971189
1248, 20.682769194141073
1248.5, 20.54478438119827
1249, 20.374111019478207
1249.5, 20.189482700627778
1250, 20.0274087420881
1250.5, 19.93152198635285
1251, 19.903442873452732
1251.5, 19.874409927009296
1252, 19.821697354271322
1252.5, 19.779722416752307
1253, 19.68479209261247
1253.5, 19.40930177842897
1254, 19.068674423333277
1254.5, 18.885400260839404
1255, 18.786639287855593
1255.5, 18.62156765633685
1256, 18.472100627734292
1256.5, 18.437505939935846
1257, 18.45071143543329
1257.5, 18.417510854186702
1258, 18.259669621952597
1258.5, 18.010274835427722
1259, 17.868974320451272
1259.5, 17.885929010179964
1260.0000000000002, 17.93101004451823
1260.5, 17.941685319877564
1261, 17.91940658646186
1261.5000000000002, 17.883365886623267
1262, 17.8585714085595
1262.5, 17.848273403536155
1263.0000000000002, 17.84270821844683
1263.5, 17.81341646076166
1264, 17.746641211373017
1264.5000000000002, 17.68857207210658
1265, 17.661840263627155
1265.5, 17.616669255253754
1266, 17.54439815570889
1266.5, 17.509257230772718
1267, 17.530849947042512
1267.5, 17.572974404834014
1268, 17.568256222903017
1268.5, 17.439565708527155
1269, 17.2198303710815
1269.5, 16.99384084812992
1270, 16.798579977179486
1270.5, 16.65806860330227
1271, 16.618361286667508
1271.5, 16.69257034785936
1272, 16.784367213640877
1272.5, 16.831365365658087
1273, 16.875303978619115
1273.5, 16.906486234933553
1274, 16.831502207244142
1274.5, 16.68506591711386
1275, 16.62237939755464
1275.5, 16.604486575212775
1276.0000000000002, 16.475083016493357
1276.5, 16.300763144738283
1277, 16.230332056185162
1277.5000000000002, 16.225490997973836
1278, 16.20704672669254
1278.5, 16.19610074072658
1279.0000000000002, 16.221697535769096
1279.5, 16.269045088859542
1280, 16.319307751111268
1280.5000000000002, 16.359603460268872
1281, 16.378049366707742
1281.5, 16.363560261877126
1282, 16.312087498353534
1282.5, 16.229832490057404
1283, 16.168161316512823
1283.5, 16.19369619158587
1284, 16.252339902778928
1284.5, 16.253797039193344
1285, 16.224843129864368
1285.5, 16.201747451069224
1286, 16.11314178036436
1286.5, 15.934313242789031
1287, 15.81767483652169
1287.5, 15.836178234084372
1288, 15.877439039422427
1288.5, 15.900830695119637
1289, 15.974397384981359
1289.5, 16.080363795655586
1290, 16.128705471919062
1290.5, 16.15319586571779
1291, 16.24925125953824
1291.5, 16.369034395903697
1292.0000000000002, 16.41547892804344
1292.5, 16.3712957107318
1293, 16.25874710876022
1293.5000000000002, 16.149563580585706
1294, 16.086756315361853
1294.5, 16.02140845980432
1295.0000000000002, 15.9343896330477
1295.5, 15.876645292470798
1296, 15.864327109751429
1296.5000000000002, 15.865676263442424
1297, 15.86532503787572
1297.5, 15.864231517575604
1298.0000000000002, 15.864572480895404
1298.5, 15.867625779074302
1299, 15.865471911688743
1299.5, 15.85040969213668
1300, 15.834056124042633
1300.5, 15.835313080132693
1301, 15.87811993848932
1301.5, 15.954614296873103
1302, 15.985113576692456
1302.5, 15.936147884657203
1303, 15.861295245053526
1303.5, 15.810288090742006
1304, 15.816543583048542
1304.5, 15.856735007662877
1305, 15.866567219385928
1305.5, 15.818315325864077
1306, 15.715610084075777
1306.5, 15.626165175789382
1307, 15.615022440558391
1307.5, 15.62380105104097
1308.0000000000002, 15.61085975962743
1308.5, 15.685857276100748
1309, 15.889480104071637
1309.5000000000002, 16.06173126989637
1310, 16.133960504077166
1310.5, 16.204780034226374
1311.0000000000002, 16.2647442782323
1311.5, 16.189249866983687
1312.0000000000002, 16.04065237206477
1312.5000000000002, 16.00466169510011
1313, 16.06618861741586
1313.5000000000002, 16.10992416832441
1314.0000000000002, 16.07611571734259
1314.5, 15.946631515585167
1315.0000000000002, 15.787294057801802
1315.5, 15.656731158526867
1316, 15.532791714922638
1316.5000000000002, 15.408954498302379
1317, 15.336111013570118
1317.5, 15.324348818363674
1318.0000000000002, 15.320383729677928
1318.5, 15.331665881266744
1319, 15.421251284213454
1319.5000000000002, 15.524839318075365
1320, 15.505641070128632
1320.5, 15.397046222036437
1321.0000000000002, 15.309125472624544
1321.5, 15.29449093956653
1322, 15.365083615463618
1322.5000000000002, 15.454971693082797
1323, 15.50813104535031
1323.5, 15.54425412300371
1324.0000000000002, 15.588542029397956
1324.5, 15.65286912560805
1325, 15.722909028431985
1325.5000000000002, 15.753387142614528
1326, 15.731303941651447
1326.5, 15.674869311037739
1327.0000000000002, 15.588315901356538
1327.5, 15.470768508347277
1328.0000000000002, 15.36182303440772
1328.5000000000002, 15.318627549839874
1329, 15.389012320963289
1329.5000000000002, 15.5807753886357
1330.0000000000002, 15.768637191409226
1330.5, 15.858921126824939
1331.0000000000002, 15.910485522662128
1331.5000000000002, 15.954768099047755
1332, 15.936355240789325
1332.5000000000002, 15.849374234847275
1333, 15.759294362677196
1333.5, 15.71456916676064
1334.0000000000002, 15.74199874397462
1334.5, 15.83910166062249
1335, 15.979991640399106
1335.5000000000002, 16.099775466857665
1336, 16.129944073029648
1336.5, 16.069916903544296
1337.0000000000002, 15.952393582600536
1337.5, 15.85129447984039
1338, 15.813247125730115
1338.5000000000002, 15.801170842739353
1339, 15.795251930586517
1339.5, 15.822519723803524
1340.0000000000002, 15.876303892571173
1340.5, 15.906562562144856
1341, 15.883955188981687
1341.5000000000002, 15.804247843861546
1342, 15.722607400676083
1342.5, 15.713602758738816
1343.0000000000002, 15.74369173655009
1343.5, 15.749919346710897
1344.0000000000002, 15.744778206670617
1344.5000000000002, 15.749082857613033
1345, 15.740515107331177
1345.5000000000002, 15.699013057260231
1346.0000000000002, 15.628379069641198
1346.5, 15.544591454312979
1347.0000000000002, 15.47720343123315
1347.5000000000002, 15.445470365608628
1348, 15.454792858211718
1348.5000000000002, 15.492334404416198
1349, 15.534234996553465
1349.5, 15.584644087418383
1350.0000000000002, 15.653495156003544
1350.5, 15.685148373712508
1351, 15.627940026846915
1351.5000000000002, 15.560562350570038
1352, 15.555832774383134
1352.5, 15.563813290453822
1353.0000000000002, 15.54576036243958
1353.5, 15.532163347817118
1354, 15.513034276327787
1354.5000000000002, 15.410845985235
1355, 15.251540941521185
1355.5, 15.16555454424855
1356.0000000000002, 15.149681918460246
1356.5, 15.110806675587469
1357, 15.081521618142347
1357.5000000000002, 15.140412215021456
1358, 15.233521386887872
1358.5, 15.280557489709281
1359.0000000000002, 15.295425515538156
1359.5, 15.29587971296715
1360, 15.243746647513206
1360.5000000000002, 15.13785976839533
1361, 15.06695862162114
1361.5000000000002, 15.080862364379058
1362.0000000000002, 15.160947545011325
1362.5, 15.27834361595356
1363.0000000000002, 15.399090464169404
1363.5000000000002, 15.49041557278322
1364, 15.532661302882715
1364.5000000000002, 15.608200922558922
1365.0000000000002, 15.804984524909258
1365.5, 15.955825875149827
1366.0000000000002, 15.8801641464229
1366.5, 15.686473696256684
1367, 15.532018015860316
1367.5000000000002, 15.520089668085078
1368, 15.647073027220955
1368.5, 15.732651164076017
1369.0000000000002, 15.719427071157881
1369.5, 15.728608215869173
1370, 15.755490934807668
1370.5000000000002, 15.679229858358823
1371, 15.5323434839394
1371.5, 15.438865076943728
1372.0000000000002, 15.41434541866326
1372.5, 15.424354571960848
1373, 15.44505196615286
1373.5000000000002, 15.461425920061842
1374, 15.477260297382458
1374.5, 15.488214277693714
1375.0000000000002, 15.4600173967182
1375.5, 15.390235440979993
1376, 15.338135013867372
1376.5000000000002, 15.325413930209834
1377, 15.321363514615086
1377.5000000000002, 15.3205012060657
1378.0000000000002, 15.340471515133515
1378.5, 15.376798728141935
1379.0000000000002, 15.412301718322581
1379.5000000000002, 15.442426858941289
1380, 15.470112849367823
1380.5000000000002, 15.507125896775591
1381.0000000000002, 15.558821416555219
1381.5, 15.600075206297106
1382.0000000000002, 15.616111586829163
1382.5000000000002, 15.630603916776451
1383, 15.650948569780468
1383.5000000000002, 15.649737609174807
1384, 15.616076545842517
1384.5, 15.56265979488444
1385.0000000000002, 15.513537204486056
1385.5, 15.497350063675526
1386, 15.503555894443465
1386.5000000000002, 15.5111947352393
1387, 15.58755786556317
1387.5, 15.790305258810434
1388.0000000000002, 15.962794756424898
1388.5, 15.967203981941765
1389, 15.918309276058963
1389.5000000000002, 15.900962916160026
1390, 15.828456942711128
1390.5, 15.685652254485802
1391.0000000000002, 15.598449230235516
1391.5, 15.594058723396842
1392, 15.582670806867569
1392.5000000000002, 15.544538328281917
1393, 15.516613148129196
1393.5000000000002, 15.505385052854024
1394.0000000000002, 15.501053124763231
1394.5, 15.504204400565783
1395.0000000000002, 15.521953947056105
1395.5000000000002, 15.571666158936324
1396, 15.656098684089685
1396.5000000000002, 15.726954175974342
1397.0000000000002, 15.749759540776239
1397.5, 15.737562107239953
1398.0000000000002, 15.705584945259176
1398.5000000000002, 15.663522065823344
1399, 15.615242232580513
1399.5000000000002, 15.561137312155978
1400, 15.53163019325116
