205.12489563668728, 0.1199484696516202
205.12489563668728, 0.1158953105510846
205.87105562683038, 0.11082886167541506
205.12489563668728, 0.1088022821251472
207.3633756071166, 0.10576241279974541
207.3633756071166, 0.1017092536992098
206.6172156169735, 0.09866938437380801
208.1095355972597, 0.11386873100081674
208.8556955874028, 0.1088022821251472
210.348015567689, 0.10474912302461148
213.58137552497584, 0.10981557190028113
212.58649553811836, 0.10677570257487934
216.31729548883388, 0.10778899235001327
216.31729548883388, 0.10373583324947755
217.8096154691201, 0.1199484696516202
217.8096154691201, 0.1158953105510846
217.8096154691201, 0.11184215145054888
217.06345547897698, 0.09968267414894194
217.06345547897698, 0.09664280482354015
218.5557754592632, 0.12805478785269153
218.5557754592632, 0.12400162875215592
219.3019354494063, 0.10829563723758018
220.0480954395494, 0.11184215145054888
221.04297542640688, 0.10373583324947755
220.7942554296925, 0.09968267414894194
223.77889539026495, 0.10576241279974541
227.01225534755173, 0.10373583324947755
226.76353535083734, 0.09917602926137503
229.7481753114098, 0.10373583324947755
229.7481753114098, 0.10018931903650885
231.240495291696, 0.11082886167541506
230.4943353015529, 0.10778899235001327
233.47897526212535, 0.10981557190028113
233.47897526212535, 0.10576241279974541
233.47897526212535, 0.10272254347434373
235.96617522926903, 0.10002043740731992
234.97129524241154, 0.09664280482354015
237.20977521284084, 0.10576241279974541
238.7020951931271, 0.1017092536992098
238.7020951931271, 0.09866938437380801
240.44313517012768, 0.10576241279974541
240.9405751635564, 0.11184215145054888
241.6867351536995, 0.09968267414894194
243.17905513398568, 0.10272254347434373
244.67137511427194, 0.09765609459867408
246.16369509455814, 0.10069596392407587
246.16369509455814, 0.09512287016083931
249.14833505513053, 0.09968267414894194
249.14833505513053, 0.09562951504840622
249.14833505513053, 0.09208300083543752
249.89449504527363, 0.10778899235001327
250.64065503541678, 0.10272254347434373
249.89449504527363, 0.08853648662246882
252.38169501241737, 0.09765609459867408
251.38681502555988, 0.0946162252732724
254.37145498613228, 0.09968267414894194
255.11761497627538, 0.09562951504840622
255.11761497627538, 0.09208300083543752
254.37145498613228, 0.08853648662246882
258.1022549368478, 0.09866938437380801
257.35609494670473, 0.09360293549813847
259.594574917134, 0.10272254347434373
261.0868948974202, 0.0981627394862411
262.8279348744208, 0.09427846201489432
265.56385483827887, 0.09562951504840622
265.56385483827887, 0.09157635594787061
265.56385483827887, 0.087523196847335
268.5484947988513, 0.09765609459867408
268.5484947988513, 0.09360293549813847
268.5484947988513, 0.09056306617273668
270.0408147791375, 0.10069596392407587
271.7818547561381, 0.09562951504840622
271.5331347594237, 0.09056306617273668
271.5331347594237, 0.08701655195976798
272.2792947495668, 0.1017092536992098
273.77161472985307, 0.09765609459867408
274.51777471999617, 0.09360293549813847
274.51777471999617, 0.09056306617273668
277.75113467728295, 0.09394069875651645
280.7357746378554, 0.09562951504840622
280.487054641141, 0.09056306617273668
283.4716946017134, 0.09258964572300454
282.7255346115703, 0.08954977639760275
286.7050545590002, 0.09562951504840622
285.71017457214276, 0.09157635594787061
287.20249455242896, 0.1017092536992098
288.69481453271516, 0.09360293549813847
289.44097452285826, 0.09005642128516977
290.9332945031445, 0.08650990707220108
292.4256144834307, 0.09360293549813847
292.4256144834307, 0.08954977639760275
293.9179344637169, 0.08600326218463406
295.4102544440031, 0.09056306617273668
294.66409445386, 0.08245674797166536
297.64873441443245, 0.09157635594787061
298.39489440457555, 0.08802984173490191
300.13593438157613, 0.08380780100517726
301.37953436514795, 0.08954977639760275
302.8718543454342, 0.08701655195976798
304.6128943224347, 0.08380780100517726
307.3488142862928, 0.08347003774679929
308.84113426657905, 0.07941687864626368
310.33345424686524, 0.08650990707220108
310.33345424686524, 0.08245674797166536
312.0744942238658, 0.07806582561275166
312.57193421729454, 0.087523196847335
313.31809420743764, 0.08245674797166536
315.0591341844382, 0.07806582561275166
316.5514541647244, 0.08347003774679929
317.0488941581532, 0.07739029909599582
319.2873741285825, 0.08650990707220108
319.2873741285825, 0.08245674797166536
318.5412141384394, 0.0804301684213975
321.02841410558307, 0.07739029909599582
323.76433406944113, 0.08448332752193322
323.76433406944113, 0.0804301684213975
323.76433406944113, 0.07637700932086189
323.76433406944113, 0.0733371399954601
326.7489740300136, 0.08954977639760275
326.7489740300136, 0.08549661729706715
326.7489740300136, 0.08195010308409845
326.0028140398705, 0.07840358887112975
327.4951340201567, 0.1017092536992098
327.4951340201567, 0.09765609459867408
327.4951340201567, 0.09360293549813847
329.733613990586, 0.087523196847335
329.733613990586, 0.08347003774679929
329.733613990586, 0.07941687864626368
332.71825395115843, 0.08448332752193322
332.71825395115843, 0.0804301684213975
331.97209396101533, 0.07840358887112975
333.46441394130153, 0.07536371954572796
335.9516139084452, 0.08347003774679929
337.1952138920171, 0.07891023375869666
338.6875338723033, 0.08347003774679929
338.6875338723033, 0.07587036443329487
337.9413738821602, 0.07232385022032617
340.4285738493038, 0.07941687864626368
341.67217383287567, 0.08549661729706715
340.9260138427326, 0.07435042977059403
343.41321380987625, 0.08144345819653143
342.41833382301877, 0.07840358887112975
346.1491337737343, 0.07941687864626368
346.1491337737343, 0.07536371954572796
346.1491337737343, 0.07232385022032617
349.3824937310211, 0.07941687864626368
352.3671336915935, 0.07941687864626368
352.1184136948791, 0.07435042977059403
351.37225370473607, 0.07131056044519235
354.35689366530846, 0.08347003774679929
355.10305365545156, 0.07941687864626368
355.10305365545156, 0.07536371954572796
354.35689366530846, 0.07232385022032617
358.08769361602396, 0.07941687864626368
358.08769361602396, 0.07536371954572796
359.5800135963102, 0.07283049510789319
361.0723335765964, 0.08144345819653143
361.0723335765964, 0.07739029909599582
362.5646535568826, 0.0733371399954601
362.5646535568826, 0.06928398089492449
361.8184935667395, 0.06523082179438877
361.8184935667395, 0.06219095246898709
365.54929351745506, 0.07536371954572796
365.54929351745506, 0.07131056044519235
365.54929351745506, 0.06776404623222354
364.80313352731196, 0.06421753201925484
368.53393347802745, 0.0733371399954601
368.53393347802745, 0.07029727067005842
370.02625345831365, 0.0804301684213975
370.02625345831365, 0.07637700932086189
370.7724134484568, 0.07131056044519235
373.0108934188861, 0.07637700932086189
372.264733428743, 0.07435042977059403
374.7519333958867, 0.07164832370357033
373.7570534090292, 0.06827069111979056
377.7365733564591, 0.0777280623543738
376.74169336960165, 0.0733371399954601
380.7212133170315, 0.07739029909599582
380.47249332031714, 0.07232385022032617
380.47249332031714, 0.06877733600735747
383.4571332808896, 0.07637700932086189
383.4571332808896, 0.07232385022032617
382.7109732907465, 0.06928398089492449
386.441773241462, 0.07536371954572796
385.6956132513189, 0.07131056044519235
385.6956132513189, 0.06827069111979056
387.93409322174824, 0.07840358887112975
389.67513319874877, 0.07401266651221605
391.167453179035, 0.08347003774679929
390.91873318232064, 0.07840358887112975
392.41105316260683, 0.07384378488302712
393.9033731428931, 0.07637700932086189
393.9033731428931, 0.07080391555762533
396.1418531133224, 0.07536371954572796
396.8880131034655, 0.07029727067005842
396.8880131034655, 0.06725740134465663
399.87265306403793, 0.06928398089492449
399.87265306403793, 0.06573746668195579
402.8572930246103, 0.06928398089492449
403.6034530147534, 0.07739029909599582
404.3496130048965, 0.07232385022032617
405.8419329851828, 0.0662441115695227
405.8419329851828, 0.06320424224412102
409.07529294246956, 0.0733371399954601
408.8265729457552, 0.06827069111979056
408.8265729457552, 0.06472417690682186
408.0804129556121, 0.06117766269385316
411.0650529161845, 0.07739029909599582
411.8112129063276, 0.07232385022032617
411.0650529161845, 0.06928398089492449
411.0650529161845, 0.0662441115695227
414.7958528669, 0.07029727067005842
414.0496928767569, 0.06827069111979056
417.7804928274725, 0.06928398089492449
417.7804928274725, 0.06523082179438877
419.27281280775867, 0.07637700932086189
419.27281280775867, 0.07232385022032617
421.01385278475925, 0.06725740134465663
422.25745276833106, 0.06168430758142007
423.99849274533165, 0.06928398089492449
423.0036127584742, 0.06523082179438877
425.2420927289035, 0.07536371954572796
426.7344127091897, 0.07131056044519235
428.4754526861903, 0.06793292786141258
431.21137265004836, 0.07131056044519235
431.21137265004836, 0.06725740134465663
430.46521265990526, 0.06421753201925484
434.1960126106208, 0.0733371399954601
434.1960126106208, 0.06928398089492449
435.688332590907, 0.06523082179438877
437.1806525711932, 0.06928398089492449
437.9268125613363, 0.0662441115695227
440.16529253176566, 0.07536371954572796
440.16529253176566, 0.07131056044519235
443.14993249233805, 0.0733371399954601
443.14993249233805, 0.06928398089492449
443.89609248248115, 0.0662441115695227
446.1345724529105, 0.07435042977059403
445.38841246276735, 0.06928398089492449
447.6268924331967, 0.07840358887112975
449.3679324101973, 0.0733371399954601
448.3730524233398, 0.07029727067005842
450.6115323937691, 0.06725740134465663
450.6115323937691, 0.06320424224412102
452.10385237405535, 0.07435042977059403
452.10385237405535, 0.07029727067005842
453.59617235434155, 0.06725740134465663
455.08849233462774, 0.07131056044519235
455.83465232477084, 0.07941687864626368
456.58081231491394, 0.07435042977059403
456.58081231491394, 0.06877733600735747
459.5654522754864, 0.07131056044519235
458.8192922853433, 0.06827069111979056
461.0577722557726, 0.07435042977059403
462.5500922360588, 0.07080391555762533
464.04241221634504, 0.07435042977059403
465.53473219663124, 0.06928398089492449
465.53473219663124, 0.06573746668195579
464.78857220648814, 0.06219095246898709
467.2757721736318, 0.07367490325383819
470.0116921374899, 0.07637700932086189
470.0116921374899, 0.07232385022032617
471.7527321144904, 0.06793292786141258
474.4886520783485, 0.06827069111979056
475.98097205863473, 0.0733371399954601
476.72713204877783, 0.07029727067005842
479.2143320159215, 0.07739029909599582
478.96561201920713, 0.07283049510789319
482.19897197649397, 0.07739029909599582
481.9502519797796, 0.07232385022032617
485.18361193706636, 0.07536371954572796
484.934891940352, 0.07131056044519235
486.42721192063823, 0.08549661729706715
486.42721192063823, 0.08144345819653143
487.9195319009244, 0.07739029909599582
488.6656918910675, 0.08549661729706715
489.4118518812106, 0.08144345819653143
490.1580118713537, 0.07739029909599582
492.3964918417831, 0.08600326218463406
491.6503318516399, 0.08144345819653143
493.8888118220693, 0.09360293549813847
493.8888118220693, 0.08954977639760275
495.38113180235547, 0.08600326218463406
497.1221717793561, 0.09765609459867408
496.87345178264167, 0.09258964572300454
496.12729179249857, 0.08954977639760275
497.61961177278476, 0.10373583324947755
500.1068117399285, 0.09799385785705217
499.111931753071, 0.09360293549813847
499.111931753071, 0.09056306617273668
501.3504117235003, 0.10373583324947755
503.09145170050095, 0.10778899235001327
502.0965717136434, 0.09968267414894194
506.07609166107335, 0.11420649425919482
505.08121167421587, 0.11082886167541506
507.31969164464516, 0.1199484696516202
509.0607316216458, 0.1243393920105339
508.06585163478826, 0.11690860032621853
510.553051601932, 0.1300813674029594
511.0504915953607, 0.12501491852728985
513.28897156579, 0.1341345265034951
513.28897156579, 0.13109465717809332
515.0300115427907, 0.13818768560403072
516.2736115263625, 0.1442674242548342
518.0146515033631, 0.1483205833553699
517.0197715165056, 0.14021426515429858
517.0197715165056, 0.13616110605376286
520.7505714672211, 0.15642690155644123
520.7505714672211, 0.15237374245590551
522.2428914475073, 0.16098670554454386
523.7352114277935, 0.1726395379585839
523.7352114277935, 0.16858637885804817
523.7352114277935, 0.16453321975751256
526.719851388366, 0.1726395379585839
526.719851388366, 0.16858637885804817
526.719851388366, 0.16503986464507947
528.4608913653666, 0.18074585615965522
528.2121713686522, 0.1761860521715526
529.9532113456528, 0.18682559481045868
531.1968113292246, 0.18074585615965522
531.1968113292246, 0.1766926970591195
531.1968113292246, 0.1731461828461508
534.181451289797, 0.1837857254850569
533.435291299654, 0.17871927660938736
535.6737712700832, 0.19695849256179787
535.6737712700832, 0.19290533346126215
534.9276112799402, 0.18885217436072654
538.6584112306557, 0.20101165166233348
538.6584112306557, 0.19695849256179787
537.9122512405125, 0.19290533346126215
537.9122512405125, 0.18986546413586047
541.6430511912281, 0.2050648107628692
541.6430511912281, 0.20101165166233348
541.6430511912281, 0.19695849256179787
541.6430511912281, 0.19341197834882917
544.8764111485149, 0.2050648107628692
544.6276911518005, 0.19999836188719955
543.8815311616573, 0.1979717823369318
546.8661711222298, 0.20709139031313706
547.6123311123729, 0.20303823121260134
547.6123311123729, 0.19898507211206573
547.6123311123729, 0.19543855789909692
550.5969710729454, 0.2050648107628692
550.5969710729454, 0.20101165166233348
550.5969710729454, 0.1979717823369318
553.5816110335178, 0.20303823121260134
553.5816110335178, 0.19898507211206573
552.8354510433746, 0.19493191301153
555.8200910039471, 0.20709139031313706
555.8200910039471, 0.20303823121260134
555.8200910039471, 0.19898507211206573
556.5662509940902, 0.19493191301153
556.5662509940902, 0.1913853987985613
557.3124109842333, 0.1878388845855926
559.5508909546626, 0.19391862323639608
559.5508909546626, 0.18986546413586047
561.0432109349488, 0.18581230503532475
562.5355309152351, 0.18986546413586047
564.0278508955213, 0.18530566014775784
565.5201708758075, 0.18074585615965522
565.5201708758075, 0.1766926970591195
564.7740108856643, 0.1726395379585839
566.2663308659505, 0.19290533346126215
566.2663308659505, 0.18885217436072654
566.2663308659505, 0.18479901526019082
567.7586508462368, 0.18074585615965522
568.5048108363799, 0.1766926970591195
569.9971308166661, 0.1726395379585839
569.9971308166661, 0.16858637885804817
569.9971308166661, 0.16503986464507947
570.7432908068092, 0.1766926970591195
571.4894507969523, 0.16098670554454386
572.2356107870954, 0.1726395379585839
572.2356107870954, 0.16858637885804817
572.9817707772385, 0.16351992998237863
573.230490773953, 0.15642690155644123
575.2202507476678, 0.1625066402072447
575.966410737811, 0.15744019133157516
575.966410737811, 0.15338703223103944
575.966410737811, 0.14933387313050384
577.4587307180972, 0.1447740691424012
578.2048907082402, 0.1483205833553699
579.1997706950978, 0.14021426515429858
581.9356906589558, 0.13818768560403072
583.428010639242, 0.1341345265034951
584.9203306195283, 0.1300813674029594
585.6664906096713, 0.1341345265034951
586.4126505998145, 0.12602820830242378
587.1588105899575, 0.1300813674029594
587.1588105899575, 0.12197504920188806
587.1588105899575, 0.11893517987648639
589.3972905603869, 0.1158953105510846
589.3972905603869, 0.11184215145054888
590.1434505505299, 0.1199484696516202
590.8896105406731, 0.10930892701271411
592.3819305209593, 0.10576241279974541
592.3819305209593, 0.10221589858677671
594.1229704979598, 0.10981557190028113
594.1229704979598, 0.09833162111543003
594.6204104913886, 0.10373583324947755
596.1127304716748, 0.09968267414894194
596.1127304716748, 0.09562951504840622
596.858890461818, 0.09157635594787061
598.5999304388185, 0.087523196847335
598.3512104421042, 0.08296339285923238
600.5896904125334, 0.08954977639760275
601.3358504026766, 0.08448332752193322
601.3358504026766, 0.08144345819653143
604.320490363249, 0.08144345819653143
604.320490363249, 0.07739029909599582
606.0615303402495, 0.0733371399954601
605.8128103435351, 0.06928398089492449
608.0512903139645, 0.07536371954572796
608.0512903139645, 0.07131056044519235
608.7974503041075, 0.06725740134465663
608.7974503041075, 0.06421753201925484
611.0359302745369, 0.06928398089492449
611.78209026468, 0.06421753201925484
611.78209026468, 0.06067101780628614
611.0359302745369, 0.058137793368451374
614.7667302252524, 0.058137793368451374
614.7667302252524, 0.054084634267915765
614.7667302252524, 0.05053812005494707
617.7513701858248, 0.056111213818183514
617.0052101956818, 0.054084634267915765
619.9898501562542, 0.057124503593317444
620.7360101463972, 0.052058054717647906
622.2283301266835, 0.04749825072954528
625.2129700872559, 0.04395173651657658
625.2129700872559, 0.03989857741604086
624.4668100971128, 0.03787199786577311
628.1976100478283, 0.04091186719117479
628.1976100478283, 0.03736535297820609
631.4309700051151, 0.057124503593317444
631.1822500084007, 0.052058054717647906
631.1822500084007, 0.04800489561711219
631.1822500084007, 0.04395173651657658
631.1822500084007, 0.04040522230360788
630.4360900182577, 0.03787199786577311
631.9284099985439, 0.06725740134465663
631.9284099985439, 0.06320424224412102
634.1668899689732, 0.03888528764090704
634.1668899689732, 0.03483212854037132
635.6592099492594, 0.030778969439835713
634.9130499591163, 0.027739100114433923
637.40024992626, 0.03483212854037132
638.6438499098318, 0.030272324552268692
640.136169890118, 0.03787199786577311
640.136169890118, 0.03381883876523739
640.3848898868324, 0.026725810339299994
643.1208098506904, 0.028752389889567853
643.1208098506904, 0.024699230789032134
644.6131298309766, 0.03280554899010346
646.1054498112629, 0.028752389889567853
645.3592898211198, 0.025712520564166064
647.5977697915491, 0.03179225921496953
649.0900897718353, 0.028752389889567853
650.5824097521215, 0.03179225921496953
652.0747297324077, 0.027739100114433923
651.3285697422647, 0.022672651238764385
654.3132097028371, 0.026725810339299994
655.0593696929801, 0.021659361463630455
654.3132097028371, 0.019632781913362596
655.8055296831233, 0.016592912587960806
658.0440096535526, 0.026725810339299994
657.2978496634095, 0.022672651238764385
657.2978496634095, 0.019632781913362596
661.028649614125, 0.028752389889567853
661.028649614125, 0.024699230789032134
662.5209695944112, 0.021659361463630455
664.2620095714118, 0.024699230789032134
664.7594495648406, 0.019632781913362596
666.9979295352698, 0.026725810339299994
666.9979295352698, 0.023685941013898315
667.744089525413, 0.030778969439835713
669.9825694958423, 0.026725810339299994
669.9825694958423, 0.022672651238764385
671.4748894761285, 0.019126137025795686
672.9672094564147, 0.022672651238764385
674.4595294367009, 0.026725810339299994
673.7133694465577, 0.019632781913362596
675.9518494169871, 0.022672651238764385
677.4441693972733, 0.026725810339299994
678.9364893775595, 0.023685941013898315
679.6826493677027, 0.03280554899010346
679.6826493677027, 0.028752389889567853
681.921129338132, 0.022672651238764385
681.921129338132, 0.018619492138228666
681.1749693479888, 0.015579622812826988
684.9057692987044, 0.024699230789032134
684.9057692987044, 0.020646071688496526
684.1596093085612, 0.017606202363094736
688.1391292559912, 0.023010414497142362
688.63656924942, 0.028752389889567853
690.8750492198492, 0.023685941013898315
690.8750492198492, 0.020139426800929505
690.1288892297061, 0.017606202363094736
693.1135291902785, 0.03280554899010346
693.8596891804217, 0.028752389889567853
693.8596891804217, 0.024699230789032134
696.8443291409941, 0.030778969439835713
696.8443291409941, 0.026725810339299994
700.0776890982809, 0.028752389889567853
699.8289691015665, 0.024192585901465224
702.0674490719958, 0.03685870809063918
702.8136090621389, 0.03179225921496953
702.0674490719958, 0.029765679664701783
703.559769052282, 0.026725810339299994
706.0469690194258, 0.03280554899010346
705.0520890325682, 0.029765679664701783
708.7828889832838, 0.03736535297820609
708.0367289931406, 0.03280554899010346
708.0367289931406, 0.029765679664701783
710.5239289602844, 0.04091186719117479
711.0213689537131, 0.03584541831550525
713.5085689208568, 0.043276209999820625
712.5136889339993, 0.03989857741604086
716.2444888847149, 0.04547167117927742
715.4983288945717, 0.04192515696630872
716.9906488748579, 0.049018185392246116
719.4778488420017, 0.06320424224412102
719.2291288452873, 0.058137793368451374
718.4829688551441, 0.055097924043049695
718.4829688551441, 0.052058054717647906
719.9752888354303, 0.07739029909599582
719.9752888354303, 0.0733371399954601
719.9752888354303, 0.06928398089492449
722.2137688058597, 0.06016437291871923
722.2137688058597, 0.056617858705750534
725.1984087664321, 0.06523082179438877
725.1984087664321, 0.06117766269385316
724.452248776289, 0.058137793368451374
728.1830487270046, 0.06725740134465663
727.4368887368614, 0.06320424224412102
729.6753687072908, 0.07435042977059403
729.6753687072908, 0.07080391555762533
732.9087286645776, 0.07739029909599582
731.91384867772, 0.0733371399954601
731.91384867772, 0.06928398089492449
735.89336862515, 0.08144345819653143
734.8984886382925, 0.07840358887112975
737.3856886054363, 0.087523196847335
740.1216085692943, 0.09056306617273668
740.1216085692943, 0.08650990707220108
740.1216085692943, 0.08347003774679929
743.1062485298667, 0.09157635594787061
743.1062485298667, 0.08802984173490191
744.5985685101529, 0.09562951504840622
743.8524085200098, 0.08347003774679929
746.090888490439, 0.09866938437380801
746.3396084871534, 0.09191411920624859
745.344728500296, 0.08853648662246882
749.0755284510115, 0.1017092536992098
749.0755284510115, 0.09765609459867408
750.5678484312978, 0.0946162252732724
752.3088884082983, 0.10576241279974541
752.060168411584, 0.10120260881164278
751.3140084214408, 0.09765609459867408
755.2935283688707, 0.10981557190028113
755.0448083721564, 0.10474912302461148
755.0448083721564, 0.10069596392407587
756.5371283524426, 0.09613615993597324
758.0294483327287, 0.1158953105510846
758.0294483327287, 0.11184215145054888
758.0294483327287, 0.10778899235001327
758.0294483327287, 0.10424247813704457
757.2832883425857, 0.09968267414894194
761.0140882933011, 0.11184215145054888
760.2679283031581, 0.10778899235001327
762.5064082735875, 0.11488202077595067
763.9987282538737, 0.11032221678784804
765.4910482341598, 0.11792189010135246
765.4910482341598, 0.11386873100081674
766.983368214446, 0.12197504920188806
766.983368214446, 0.11032221678784804
768.7244081914466, 0.11792189010135246
768.4756881947322, 0.1128554412256828
769.2218481848754, 0.12400162875215592
771.709048152019, 0.11386873100081674
771.4603281553046, 0.10930892701271411
774.4449681158771, 0.1158953105510846
774.4449681158771, 0.11184215145054888
773.698808125734, 0.10778899235001327
773.698808125734, 0.10474912302461148
775.1911281060202, 0.1199484696516202
777.4296080764495, 0.1158953105510846
777.4296080764495, 0.11184215145054888
777.4296080764495, 0.10829563723758018
779.1706480534501, 0.1199484696516202
779.6680880468789, 0.12602820830242378
780.6629680337363, 0.11386873100081674
780.4142480370219, 0.10930892701271411
783.3988879975943, 0.11488202077595067
783.3988879975943, 0.11082886167541506
785.139927974595, 0.1061001760581235
784.1450479877375, 0.10272254347434373
786.3835279581668, 0.122988338977022
786.3835279581668, 0.11893517987648639
786.3835279581668, 0.11488202077595067
786.3835279581668, 0.11082886167541506
789.3681679187392, 0.11386873100081674
789.3681679187392, 0.10981557190028113
792.3528078793116, 0.1128554412256828
792.3528078793116, 0.10981557190028113
795.337447839884, 0.11184215145054888
794.591287849741, 0.10778899235001327
796.8297678201703, 0.11488202077595067
800.0631277774571, 0.1158953105510846
799.8144077807427, 0.11082886167541506
800.5605677708858, 0.12197504920188806
800.5605677708858, 0.10576241279974541
802.7990477413151, 0.1158953105510846
802.7990477413151, 0.11184215145054888
802.7990477413151, 0.1088022821251472
805.7836877018875, 0.1158953105510846
805.7836877018875, 0.11184215145054888
807.5247276788882, 0.1199484696516202
809.0170476591744, 0.11420649425919482
810.2606476427462, 0.12805478785269153
810.2606476427462, 0.12400162875215592
809.5144876526031, 0.1199484696516202
813.494007600033, 0.12636597156080176
812.4991276131755, 0.12197504920188806
813.9914475934618, 0.13616110605376286
814.7376075836048, 0.13210794695322725
815.483767573748, 0.12805478785269153
815.483767573748, 0.12501491852728985
817.9709675408916, 0.1341345265034951
817.7222475441772, 0.1300813674029594
819.2145675244635, 0.14021426515429858
820.7068875047497, 0.13616110605376286
819.9607275146066, 0.13210794695322725
819.9607275146066, 0.12906807762782546
822.1992074850359, 0.1483205833553699
822.1992074850359, 0.1447740691424012
821.4530474948928, 0.14021426515429858
825.1838474456083, 0.15744019133157516
825.1838474456083, 0.15338703223103944
824.4376874554652, 0.15034716290563777
824.4376874554652, 0.14730729358023598
828.1684874061807, 0.16655979930778042
828.1684874061807, 0.16301328509481172
827.4223274160377, 0.1584534811067091
827.4223274160377, 0.15440032200617337
829.6608073864669, 0.17061295840831603
831.1531273667532, 0.17466611750885175
831.1531273667532, 0.16655979930778042
831.1531273667532, 0.16301328509481172
832.6454473470394, 0.17061295840831603
834.38648732404, 0.17466611750885175
834.1377673273256, 0.16858637885804817
835.6300873076118, 0.18479901526019082
835.6300873076118, 0.18074585615965522
837.122407287898, 0.1766926970591195
837.122407287898, 0.1726395379585839
836.376247297755, 0.1695996686331821
838.6147272681842, 0.1878388845855926
838.6147272681842, 0.18429237037262391
837.8685672780412, 0.18074585615965522
841.5993672287566, 0.18479901526019082
841.5993672287566, 0.18175914593478915
843.837847199186, 0.19898507211206573
844.5840071893291, 0.19391862323639608
844.5840071893291, 0.18986546413586047
844.5840071893291, 0.18581230503532475
843.837847199186, 0.18277243570992308
843.837847199186, 0.1797325663845213
847.5686471499015, 0.19391862323639608
847.5686471499015, 0.18986546413586047
847.5686471499015, 0.18581230503532475
850.5532871104739, 0.19493191301153
850.5532871104739, 0.1908787539109944
850.5532871104739, 0.18682559481045868
849.8071271203308, 0.18277243570992308
849.8071271203308, 0.1797325663845213
853.7866470677608, 0.19290533346126215
853.5379270710463, 0.1878388845855926
854.2840870611894, 0.1837857254850569
855.7764070414756, 0.20101165166233348
855.7764070414756, 0.19695849256179787
856.5225670316188, 0.19189204368612822
856.5225670316188, 0.18834552947315952
859.5072069921912, 0.19290533346126215
859.5072069921912, 0.18885217436072654
859.5072069921912, 0.18530566014775784
860.9995269724774, 0.19695849256179787
860.2533669823343, 0.18074585615965522
862.4918469527636, 0.19290533346126215
862.4918469527636, 0.18885217436072654
862.4918469527636, 0.18530566014775784
865.4764869133361, 0.19189204368612822
865.4764869133361, 0.1878388845855926
865.4764869133361, 0.18479901526019082
868.7098468706228, 0.18682559481045868
867.7149668837653, 0.1837857254850569
871.4457668344809, 0.1878388845855926
871.4457668344809, 0.1837857254850569
871.4457668344809, 0.1802392112720882
873.6842468049102, 0.18074585615965522
874.4304067950533, 0.1766926970591195
874.4304067950533, 0.1726395379585839
874.4304067950533, 0.1690930237456152
875.9227267753395, 0.16453321975751256
875.1765667851964, 0.16149335043211077
877.66376675234, 0.1766926970591195
877.4150467556258, 0.17162624818344996
877.4150467556258, 0.16807973397048126
879.653526726055, 0.17061295840831603
879.653526726055, 0.16757308908291424
881.8920066964844, 0.16351992998237863
881.8920066964844, 0.1594667708818429
881.8920066964844, 0.1559202566688742
884.8766466570568, 0.15642690155644123
884.8766466570568, 0.15237374245590551
884.8766466570568, 0.1483205833553699
884.8766466570568, 0.14528071402996812
885.6228066471999, 0.16048006065697684
887.1151266274861, 0.15440032200617337
887.1151266274861, 0.15034716290563777
887.8612866176292, 0.14528071402996812
887.8612866176292, 0.1412275549294325
887.8612866176292, 0.1376810407164638
890.0997665880585, 0.14629400380510205
890.0997665880585, 0.14224084470456644
890.0997665880585, 0.13818768560403072
891.5920865683447, 0.1341345265034951
892.3382465584879, 0.1300813674029594
892.3382465584879, 0.12602820830242378
894.5767265289172, 0.12805478785269153
895.3228865190603, 0.12400162875215592
896.0690465092034, 0.1199484696516202
896.8152064993465, 0.1164019554386515
898.556246476347, 0.11251767796730483
899.0536864697758, 0.11792189010135246
901.2921664402052, 0.10981557190028113
901.2921664402052, 0.10576241279974541
903.0332064172056, 0.10238478021596564
903.5306464106344, 0.1158953105510846
903.5306464106344, 0.11184215145054888
904.2768064007776, 0.10677570257487934
905.7691263810638, 0.10069596392407587
905.7691263810638, 0.09664280482354015
905.0229663909206, 0.0946162252732724
907.5101663580642, 0.09157635594787061
910.2460863219223, 0.08954977639760275
910.2460863219223, 0.08549661729706715
911.7384063022087, 0.08144345819653143
913.4794462792091, 0.08549661729706715
913.4794462792091, 0.07806582561275166
913.9768862726379, 0.09157635594787061
916.2153662430673, 0.08245674797166536
916.2153662430673, 0.07840358887112975
917.9564062200677, 0.07367490325383819
919.2000062036396, 0.07840358887112975
919.9461661937828, 0.0733371399954601
920.6923261839258, 0.06827069111979056
922.184646164212, 0.06371088713168793
923.9256861412126, 0.06759516460303461
925.9154461149276, 0.06523082179438877
926.6616061050707, 0.06168430758142007
928.4026460820712, 0.057124503593317444
927.4077660952138, 0.053071344492781836
931.1385660459293, 0.059151083143585304
931.1385660459293, 0.055097924043049695
931.8847260360725, 0.06320424224412102
934.3719260032161, 0.053071344492781836
934.1232060065017, 0.04851154050467921
937.3565659637885, 0.051044764942513976
937.1078459670742, 0.04648496095441135
940.0924859276466, 0.050031475167380046
940.0924859276466, 0.04699160584197837
943.077125888219, 0.052058054717647906
943.077125888219, 0.04800489561711219
943.077125888219, 0.04395173651657658
943.077125888219, 0.04091186719117479
946.0617658487914, 0.04496502629171051
946.0617658487914, 0.04091186719117479
946.0617658487914, 0.03685870809063918
948.3002458192208, 0.049018185392246116
949.0464058093639, 0.04496502629171051
949.0464058093639, 0.04091186719117479
950.5387257896501, 0.03837864275334002
951.2848857797932, 0.04293844674144265
952.2797657666506, 0.0351698917987493
951.2848857797932, 0.03179225921496953
954.2695257403657, 0.03888528764090704
955.0156857305087, 0.03381883876523739
955.0156857305087, 0.029765679664701783
954.2695257403657, 0.027739100114433923
958.2490456877955, 0.030778969439835713
958.0003256910812, 0.026725810339299994
961.2336856483679, 0.03685870809063918
960.9849656516536, 0.03179225921496953
960.9849656516536, 0.027739100114433923
960.9849656516536, 0.024699230789032134
963.2234456220829, 0.04091186719117479
963.2234456220829, 0.03685870809063918
963.969605612226, 0.03280554899010346
963.969605612226, 0.029765679664701783
966.9542455727984, 0.030778969439835713
968.4465655530846, 0.027232455226867014
970.1876055300852, 0.030778969439835713
971.4312055136571, 0.03685870809063918
972.9235254939433, 0.03280554899010346
972.9235254939433, 0.028752389889567853
975.9081654545157, 0.03179225921496953
975.9081654545157, 0.027739100114433923
975.1620054643726, 0.024699230789032134
978.8928054150881, 0.029765679664701783
978.1466454249451, 0.027739100114433923
979.6389654052313, 0.024699230789032134
981.1312853855175, 0.03483212854037132
981.8774453756606, 0.029765679664701783
981.8774453756606, 0.026725810339299994
985.1108053329473, 0.02909015314794583
984.1159253460899, 0.024699230789032134
986.3544053165192, 0.03483212854037132
987.8467252968054, 0.030778969439835713
987.8467252968054, 0.027232455226867014
989.587765273806, 0.023348177755520227
990.8313652573778, 0.028752389889567853
992.5724052343784, 0.02503699404741022
991.577525247521, 0.020646071688496526
993.8160052179503, 0.029765679664701783
995.3083251982365, 0.026219165451733084
996.0544851883795, 0.03483212854037132
996.0544851883795, 0.030778969439835713
998.5416851555232, 0.026725810339299994
998.2929651588089, 0.021659361463630455
1000.5314451292383, 0.03685870809063918
1000.5314451292383, 0.03280554899010346
1001.2776051193813, 0.028752389889567853
1001.2776051193813, 0.024699230789032134
1002.0237651095244, 0.020646071688496526
1004.5109650766681, 0.03111673269821369
1005.75456506024, 0.03584541831550525
1007.2468850405262, 0.030778969439835713
1007.2468850405262, 0.026725810339299994
1007.2468850405262, 0.022672651238764385
1006.500725050383, 0.019632781913362596
1010.2315250010986, 0.027232455226867014
1013.216164961671, 0.026725810339299994
1013.216164961671, 0.023179296126331295
1016.2008049222435, 0.030778969439835713
1016.2008049222435, 0.026725810339299994
1016.2008049222435, 0.023179296126331295
1015.4546449321003, 0.019632781913362596
1016.9469649123865, 0.03483212854037132
1019.1854448828159, 0.030778969439835713
1019.1854448828159, 0.026725810339299994
1020.6777648631021, 0.023685941013898315
1022.1700848433883, 0.030778969439835713
1022.1700848433883, 0.026725810339299994
1022.9162448335314, 0.023685941013898315
1025.1547248039608, 0.030778969439835713
1025.1547248039608, 0.026725810339299994
1028.1393647645332, 0.029765679664701783
1027.3932047743901, 0.027739100114433923
1029.8804047415338, 0.02503699404741022
1028.8855247546762, 0.021659361463630455
1032.616324705392, 0.027232455226867014
1031.8701647152486, 0.023685941013898315
1034.108644685678, 0.029765679664701783
1035.8496846626786, 0.024699230789032134
1038.5856046265367, 0.03179225921496953
1038.5856046265367, 0.028245745002000833
1037.8394446363936, 0.025712520564166064
1041.570244587109, 0.029765679664701783
1041.570244587109, 0.025712520564166064
1041.570244587109, 0.021659361463630455
1044.5548845476815, 0.027739100114433923
1044.5548845476815, 0.023685941013898315
1043.8087245575384, 0.021659361463630455
1045.3010445378247, 0.018619492138228666
1046.7933645181108, 0.03685870809063918
1046.7933645181108, 0.03280554899010346
1047.5395245082539, 0.028752389889567853
1047.5395245082539, 0.024699230789032134
1047.5395245082539, 0.021152716576063435
1050.7728844655408, 0.030778969439835713
1051.2703244589695, 0.03685870809063918
1053.5088044293989, 0.028752389889567853
1053.5088044293989, 0.025205875676599154
1052.7626444392556, 0.020646071688496526
1056.4934443899713, 0.027232455226867014
1059.726804347258, 0.026725810339299994
1058.7319243604006, 0.022672651238764385
1062.462724311116, 0.03280554899010346
1062.462724311116, 0.028752389889567853
1062.462724311116, 0.025205875676599154
1061.716564320973, 0.020646071688496526
1063.208884301259, 0.03685870809063918
1065.6960842684027, 0.028752389889567853
1065.4473642716885, 0.024699230789032134
1068.4320042322609, 0.030778969439835713
1068.4320042322609, 0.026725810339299994
1067.6858442421178, 0.023685941013898315
1071.4166441928332, 0.030778969439835713
1071.4166441928332, 0.026725810339299994
1074.4012841534059, 0.028752389889567853
1076.1423241304062, 0.02503699404741022
1075.147444143549, 0.021659361463630455
1078.8782440942643, 0.027232455226867014
1078.1320841041213, 0.023685941013898315
1079.6244040844076, 0.030778969439835713
1081.8628840548367, 0.026725810339299994
1081.8628840548367, 0.023179296126331295
1084.8475240154091, 0.03179225921496953
1084.8475240154091, 0.028245745002000833
1084.101364025266, 0.025712520564166064
1087.8321639759818, 0.029765679664701783
1087.8321639759818, 0.025712520564166064
1087.8321639759818, 0.021659361463630455
1087.0860039858385, 0.019632781913362596
1090.8168039365542, 0.027739100114433923
1090.8168039365542, 0.023685941013898315
1090.8168039365542, 0.020646071688496526
1093.8014438971265, 0.026725810339299994
1093.0552839069835, 0.022672651238764385
1093.0552839069835, 0.019632781913362596
1095.5424838741271, 0.030778969439835713
1096.039923867556, 0.03685870809063918
1096.786083857699, 0.024699230789032134
1098.2784038379853, 0.029765679664701783
1097.532243847842, 0.020646071688496526
1100.5168838084144, 0.03685870809063918
1101.2630437985576, 0.03179225921496953
1100.5168838084144, 0.029765679664701783
1102.7553637788437, 0.026725810339299994
1102.7553637788437, 0.023179296126331295
1102.0092037887007, 0.019632781913362596
1103.501523768987, 0.030778969439835713
1105.7400037394161, 0.027232455226867014
1108.7246436999887, 0.026725810339299994
1108.7246436999887, 0.023179296126331295
1111.7092836605611, 0.030778969439835713
1111.7092836605611, 0.026725810339299994
1111.7092836605611, 0.022672651238764385
1110.9631236704179, 0.019632781913362596
1112.4554436507042, 0.03483212854037132
1114.9426436178478, 0.028752389889567853
1114.6939236211335, 0.024699230789032134
1117.678563581706, 0.030778969439835713
1117.678563581706, 0.026725810339299994
1117.678563581706, 0.023685941013898315
1120.6632035422783, 0.030778969439835713
1120.6632035422783, 0.026725810339299994
1123.6478435028507, 0.029765679664701783
1122.9016835127077, 0.027739100114433923
1125.3888834798513, 0.02503699404741022
1124.3940034929938, 0.021659361463630455
1128.1248034437094, 0.027232455226867014
1127.3786434535662, 0.023685941013898315
1128.8709634338525, 0.030778969439835713
1131.1094434042818, 0.026725810339299994
1131.1094434042818, 0.023179296126331295
1134.0940833648542, 0.03179225921496953
1134.0940833648542, 0.028245745002000833
1133.3479233747112, 0.025712520564166064
1137.0787233254266, 0.029765679664701783
1137.0787233254266, 0.025712520564166064
1137.0787233254266, 0.021659361463630455
1136.3325633352836, 0.019632781913362596
1140.063363285999, 0.028752389889567853
1140.063363285999, 0.024699230789032134
1140.063363285999, 0.021152716576063435
1140.809523276142, 0.017606202363094736
1142.3018432564284, 0.03685870809063918
1142.3018432564284, 0.03280554899010346
1143.0480032465714, 0.028752389889567853
1143.0480032465714, 0.024699230789032134
1143.0480032465714, 0.021659361463630455
1146.2813632038583, 0.030778969439835713
1146.778803197287, 0.03685870809063918
1149.2660031644307, 0.02909015314794583
1148.2711231775731, 0.024699230789032134
1148.2711231775731, 0.020646071688496526
1152.0019231282888, 0.027232455226867014
1155.2352830855755, 0.026725810339299994
1154.240403098718, 0.022672651238764385
1158.2199230461479, 0.03280554899010346
1157.9712030494336, 0.027739100114433923
1157.2250430592906, 0.024699230789032134
1157.2250430592906, 0.020646071688496526
1161.2045630067203, 0.028752389889567853
1160.955843010006, 0.024699230789032134
1163.9404829705784, 0.030778969439835713
1163.9404829705784, 0.026725810339299994
1163.1943229804353, 0.023685941013898315
1166.9251229311508, 0.030778969439835713
1166.9251229311508, 0.026725810339299994
1169.9097628917232, 0.028752389889567853
1171.6508028687238, 0.02503699404741022
1170.6559228818664, 0.021659361463630455
1174.3867228325819, 0.027232455226867014
1173.6405628424388, 0.023685941013898315
1175.132882822725, 0.030778969439835713
1177.3713627931543, 0.026725810339299994
1177.3713627931543, 0.023179296126331295
1179.1124027701549, 0.030778969439835713
1180.3560027537267, 0.026725810339299994
1181.848322734013, 0.030778969439835713
1183.5893627110136, 0.026725810339299994
1183.340642714299, 0.021659361463630455
1182.594482724156, 0.019632781913362596
1186.3252826748717, 0.027739100114433923
1186.3252826748717, 0.023685941013898315
1186.3252826748717, 0.019632781913362596
1189.309922635444, 0.028752389889567853
1189.309922635444, 0.025205875676599154
1188.5637626453008, 0.020646071688496526
1188.5637626453008, 0.017606202363094736
1190.8022426157302, 0.03280554899010346
1191.5484026058734, 0.03685870809063918
1192.2945625960165, 0.028752389889567853
1192.2945625960165, 0.025205875676599154
1193.0407225861595, 0.021659361463630455
1195.2792025565889, 0.027232455226867014
1196.025362546732, 0.022672651238764385
