301, 2.143533698950449
301.5, 2.1601066214937674
302, 2.1729269527298953
302.5, 2.192072556467224
303, 2.2273259326781982
303.5, 2.2564494223961162
304, 2.259852928468675
304.5, 2.250290703434942
305, 2.2472348701843856
305.5, 2.2706069913072184
306, 2.307483375517137
306.5, 2.3203764053963596
307, 2.314320490318991
307.5, 2.312231815942738
308, 2.3143097099441263
308.5, 2.315193550001709
309, 2.3126750059937393
309.5, 2.3110054317917985
310, 2.322318533437226
310.5, 2.3408591124276654
311, 2.3471664826468697
311.5, 2.344171143733547
312, 2.343651874387973
312.5, 2.3439197174368616
313, 2.342726457781481
313.5, 2.3463587293558135
314, 2.3618280131760514
314.5, 2.3941615438852466
315, 2.428902215671698
315.5, 2.439148266903487
316, 2.434316809778821
316.5, 2.440074288998531
317, 2.471433423910142
317.5, 2.5256487870870217
318, 2.5638732409114766
318.5, 2.5766289327849847
319, 2.6023656196752825
319.5, 2.6387502501617632
320, 2.6506034811343255
320.5, 2.6447465332880427
321, 2.643684006099548
321.5, 2.6443841757736237
322, 2.6425518976510745
322.5, 2.6481976927332767
323, 2.665409979498321
323.5, 2.6867230428901507
324, 2.7027840823927107
324.5, 2.705549396200624
325, 2.7045677203203837
325.5, 2.715117100917354
326, 2.7399670575978092
326.5, 2.774493493140696
327, 2.8046368069049805
327.5, 2.8215849075628228
328, 2.8261320807938404
328.5, 2.824864224499663
329, 2.826645244302256
329.5, 2.825063651122221
330, 2.810563285746781
330.5, 2.7917734731130395
331, 2.7844318682247717
331.5, 2.8090031558711672
332, 2.862489971817567
332.5, 2.9101901304394175
333, 2.9401099529846277
333.5, 2.9601322920664614
334, 2.9749094327793983
334.5, 2.988529971397824
335, 3.010258839151902
335.5, 3.043873102569961
336, 3.0771388572293574
336.5, 3.0955183913642657
337, 3.086337460349597
337.5, 3.0668654431356117
338, 3.072507713749644
338.5, 3.0951042368682664
339, 3.1124516322275326
339.5, 3.128978352278125
340, 3.1482631143135222
340.5, 3.1564738497756224
341, 3.1541822633586634
341.5, 3.1628770500575456
342, 3.181991247157015
342.5, 3.1959640237717792
343, 3.2154019984905915
343.5, 3.252634047614933
344, 3.2777855452227698
344.5, 3.274871562964762
345, 3.282719750566258
345.5, 3.3183404113929242
346, 3.3606668605259387
346.5, 3.392046525637369
347, 3.401734800706052
347.5, 3.3958501473771037
348, 3.389112691114576
348.5, 3.400575665182501
349, 3.4353828506309014
349.5, 3.465983724455967
350, 3.4810631625433217
350.5, 3.495133227887564
351, 3.5126488492599037
351.5, 3.52966946477693
352, 3.5462444364089407
352.5, 3.563458007329686
353, 3.579205085622206
353.5, 3.5942360944928
354, 3.61706661243835
354.5, 3.6510435718605976
355, 3.691055034814255
355.5, 3.72299344276675
356, 3.730520047870172
356.5, 3.7264106695773336
357, 3.72832041675305
357.5, 3.724072599003108
358, 3.706185644495349
358.5, 3.692334389110826
359, 3.692895202078091
359.5, 3.704938297569626
360, 3.7230198608021112
360.5, 3.741023246933665
361, 3.756766745501821
361.5, 3.771373127932023
362, 3.7920506487621566
362.5, 3.823931656173812
363, 3.8644543877013717
363.5, 3.899975403148119
364, 3.9074572403642804
364.5, 3.904712286773517
365, 3.9310583426722587
365.5, 3.967553116381225
366, 3.9844206368473465
366.5, 4.002859352011285
367, 4.037861838923703
367.5, 4.067584853635509
368, 4.0828203675215775
368.5, 4.094928115478055
369, 4.112986007343963
369.5, 4.1421810869460245
370, 4.178390653825417
370.5, 4.214090262432393
371, 4.243222188546696
371.5, 4.261776900151119
372, 4.269319506219347
372.5, 4.26855606692709
373, 4.265438718198951
373.5, 4.266375640574324
374, 4.27716845018719
374.5, 4.2983954847221355
375, 4.328727638949573
375.5, 4.367497053216027
376, 4.405811884951362
376.5, 4.419095067017068
377, 4.414664302282901
377.5, 4.435286654483519
378, 4.473102146625095
378.5, 4.4920868105681535
379, 4.5090035900267225
379.5, 4.546059837218976
380, 4.570375441971251
380.5, 4.566651050129082
381, 4.576829182089142
381.5, 4.61378110770778
382, 4.650991771557756
382.5, 4.683053761240842
383, 4.718065964763127
383.5, 4.749497753154159
384, 4.768873769153146
384.5, 4.78107074712004
385, 4.795313723001868
385.5, 4.823086235496447
386, 4.858770944124558
386.5, 4.878273437477631
387, 4.871551929246522
387.5, 4.844512488240298
388, 4.839633724305301
388.5, 4.888283262318467
389, 4.937493639238085
389.5, 4.95274710605463
390, 4.967847264295031
390.5, 5.00285218968331
391, 5.053097908557433
391.5, 5.1031180985359015
392, 5.136754088954774
392.5, 5.171720690991705
393, 5.224770271431197
393.5, 5.267222792901094
394, 5.283064861191846
394.5, 5.296843341625234
395, 5.315137769041755
395.5, 5.321629623984151
396, 5.3192911597396915
396.5, 5.324255368188005
397, 5.352199762840343
397.5, 5.405824456499047
398, 5.446669455452991
398.5, 5.459577093693028
399, 5.486434987935283
399.5, 5.540228192120168
400, 5.59716023249841
400.5, 5.644639244675318
401, 5.680229324313913
401.5, 5.712417906914638
402, 5.7480430908067035
402.5, 5.776220303936725
403, 5.792252178941325
403.5, 5.8085570263217505
404, 5.826200985419504
404.5, 5.833398336282613
405, 5.830654462296181
405.5, 5.826686491387164
406, 5.830939819445888
406.5, 5.847596672924297
407, 5.863773268528533
407.5, 5.877141556097527
408, 5.909276628128538
408.5, 5.962437178055936
409, 6.017180918418703
409.5, 6.065408045552132
410, 6.105777563463832
410.5, 6.132119962484381
411, 6.145057060406117
411.5, 6.1712865252887354
412, 6.222443757505886
412.5, 6.275770506204367
413, 6.324648405304345
413.5, 6.38019361377718
414, 6.427734709571766
414.5, 6.4457583232973406
415, 6.464151517305069
415.5, 6.512445076530568
416, 6.565339108518842
416.5, 6.60044277523123
417, 6.618690221866444
417.5, 6.633816167946719
418, 6.666543605686627
418.5, 6.699725946660877
419, 6.703484362637255
419.5, 6.702463999711938
420, 6.721554531274407
420.5, 6.731553334548039
421, 6.725723606132092
421.5, 6.750244335817399
422, 6.806224924580349
422.5, 6.849150945157902
423, 6.878759746549775
423.5, 6.915295793836634
424, 6.943828072991309
424.5, 6.954576816901707
425, 6.986910607960127
425.5, 7.056248588313792
426, 7.1242250148007145
426.5, 7.17175392315184
427, 7.204626942615818
427.5, 7.238675594744365
428, 7.288720009347998
428.5, 7.337099670667996
429, 7.3688598159041305
429.5, 7.407035314461481
430, 7.459871145023598
430.5, 7.5022602284239355
431, 7.550252978403321
431.5, 7.653664447433314
432, 7.775207062040266
432.5, 7.844272531277966
433, 7.876979614203719
433.5, 7.908271420953042
434, 7.947031934834499
434.5, 7.984665773613202
435, 7.993836743712194
435.5, 7.989667471128328
436, 8.022594985767356
436.5, 8.079904823497344
437, 8.121065658521815
437.5, 8.14689048843151
438, 8.166476097522391
438.5, 8.175741168857016
439, 8.186692681123233
439.5, 8.23760495831975
440, 8.310311867350165
440.5, 8.340990781821674
441, 8.3524593802223
441.5, 8.398871340578054
442, 8.449377445237744
442.5, 8.468397180181185
443, 8.4791940382799
443.5, 8.497167107546758
444, 8.51092956286412
444.5, 8.526928980815214
445, 8.566797307614266
445.5, 8.621435364948866
446, 8.670709017938037
446.5, 8.722936313679156
447, 8.788341225057508
447.5, 8.859033203421873
448, 8.926610440441465
448.5, 8.986526741184164
449, 9.035177140041029
449.5, 9.070823021494505
450, 9.10352956666317
450.5, 9.14296276468464
451, 9.167178067954438
451.5, 9.164215359758572
452, 9.172657372195829
452.5, 9.208536311446466
453, 9.24303052747375
453.5, 9.275074688990202
454, 9.32869732254133
454.5, 9.402103688121372
455, 9.47803375973082
455.5, 9.532064930606836
456, 9.551603965713
456.5, 9.559775209522186
457, 9.57563917741578
457.5, 9.603323662509496
458, 9.638191839301086
458.5, 9.670605677434551
459, 9.704910954474627
459.5, 9.75043094816796
460, 9.8059629090194
460.5, 9.86179974483143
461, 9.89489824486509
461.5, 9.90739789926208
462, 9.93917055277852
462.5, 9.993925312259577
463, 10.042808059497958
463.5, 10.067096839196452
464, 10.058796224570997
464.5, 10.032871166717314
465, 10.018459614932226
465.5, 10.062707830216581
466, 10.155729980384365
466.5, 10.206932976482932
467, 10.21400282435387
467.5, 10.24657607214857
468, 10.305692701907944
468.5, 10.361590194252656
469, 10.403850569691457
469.5, 10.434942891112811
470, 10.475201463946846
470.5, 10.527823494139
471, 10.56942587932997
471.5, 10.600409698734794
472, 10.638575294796127
472.5, 10.668026206760544
473, 10.668224459244797
473.5, 10.671057130398097
474, 10.702899132951472
474.5, 10.74267418317693
475, 10.77571703053097
475.5, 10.806112445144777
476, 10.839999306643193
476.5, 10.883445066888982
477, 10.93756780297926
477.5, 10.996228673821676
478, 11.032474221762612
478.5, 11.032984707602964
479, 11.029563464283157
479.5, 11.045699528016655
480, 11.083983426938701
480.5, 11.137109803552718
481, 11.191599292906986
481.5, 11.23873684203754
482, 11.274548963015746
482.5, 11.305179911303057
483, 11.337604215967275
483.5, 11.374370769023486
484, 11.409525191394081
484.5, 11.428286840237092
485, 11.44362407294851
485.5, 11.485358882889514
486, 11.539435135243593
486.5, 11.578421479529325
487, 11.60443900047943
487.5, 11.62332798381729
488, 11.63207822971519
488.5, 11.631398094293516
489, 11.62845923185148
489.5, 11.62909631850134
490, 11.637848637565298
490.5, 11.660008040656479
491, 11.70094868451578
491.5, 11.7648942243367
492, 11.848613361099154
492.5, 11.932872847800155
493, 12.00071569025988
493.5, 12.042609374012017
494, 12.073233483136491
494.5, 12.117487441578945
495, 12.14093706058334
495.5, 12.107433535086216
496, 12.079838517836336
496.5, 12.10880396171315
497, 12.16386198858396
497.5, 12.215221711066022
498, 12.248621476570719
498.5, 12.260865347761055
499, 12.258311929469727
499.5, 12.261283723717426
500, 12.288684242875362
500.5, 12.330319644930782
501, 12.36834445973031
501.5, 12.384661299407881
502, 12.39575478585779
502.5, 12.456544499437612
503, 12.547535003928914
503.5, 12.601725790782012
504, 12.62199609495417
504.5, 12.637040390227597
505, 12.656760037103979
505.5, 12.68692257312594
506, 12.733662158351947
506.5, 12.78663741014384
507, 12.818552142869962
507.5, 12.851555885832568
508, 12.931714040226183
508.5, 13.0136094509826
509, 13.038633730432394
509.5, 13.045506557109661
510, 13.066039064098632
510.5, 13.070292570349267
511, 13.05042700341005
511.5, 13.034300734422573
512, 13.038987089148733
512.5, 13.068654634417356
513, 13.10335575665988
513.5, 13.122077322588751
514, 13.136553283912775
514.5, 13.155271595061762
515, 13.164824943767044
515.5, 13.16320049167453
516, 13.165342057818023
516.5, 13.186352036690451
517, 13.235216502895014
517.5, 13.284090543453331
518, 13.304092579476546
518.5, 13.317128354309261
519, 13.347005583723941
519.5, 13.397422099514614
520, 13.450819137163009
520.5, 13.472059601265755
521, 13.48683609966541
521.5, 13.546126034370175
522, 13.583062735670737
522.5, 13.530878375515982
523, 13.492580528327991
523.5, 13.540993112327058
524, 13.614183634595705
524.5, 13.664057738733845
525, 13.680637661905735
525.5, 13.697119406039945
526, 13.763674875614555
526.5, 13.858069018310317
527, 13.936599627140296
527.5, 13.981470026796117
528, 13.996361094854677
528.5, 14.01471289538624
529, 14.035008254009838
529.5, 14.016512641567303
530, 13.977915329930482
530.5, 13.969135942482069
531, 13.974038773933856
531.5, 13.967471750231212
532, 13.982181157984812
532.5, 14.034173033680588
533, 14.084139749839537
533.5, 14.11525166899743
534, 14.141355273775972
534.5, 14.154866390614245
535, 14.136648720591225
535.5, 14.091212723921515
536, 14.041643306258635
536.5, 14.04242839322255
537, 14.111230231036743
537.5, 14.185214762805245
538, 14.248022324812695
538.5, 14.338430298069696
539, 14.419419831663944
539.5, 14.421780842646768
540, 14.393953117759338
540.5, 14.397085609234878
541, 14.38774158093598
541.5, 14.346895133341746
542, 14.339283597375285
542.5, 14.379446212406563
543, 14.418711826351867
543.5, 14.426967992051303
544, 14.395923563924228
544.5, 14.363644985020699
545, 14.370154611545658
545.5, 14.406543727976725
546, 14.446304698162905
546.5, 14.450130054447698
547, 14.411575034433568
547.5, 14.361369630987397
548, 14.334608278230945
548.5, 14.357726153148349
549, 14.397175153775152
549.5, 14.415286423343034
550, 14.430326695964524
550.5, 14.451088145991463
551, 14.45040816756628
551.5, 14.429857042896103
552, 14.422209647915594
552.5, 14.425047345958205
553, 14.41981309187922
553.5, 14.426735865618994
554, 14.45589609448399
554.5, 14.442548824334636
555, 14.357490722529008
555.5, 14.259732483223402
556, 14.19466789223334
556.5, 14.179739492674969
557, 14.185154232344345
557.5, 14.17004335246962
558, 14.189907101523204
558.5, 14.284011796569587
559, 14.338697809042102
559.5, 14.29947610860016
560, 14.262856650697216
560.5, 14.252590522220927
561, 14.209986754223593
561.5, 14.1575547003291
562, 14.15539994661026
562.5, 14.187896827134267
563, 14.22230497789522
563.5, 14.253367078335089
564, 14.274057700192273
564.5, 14.266206363757107
565, 14.228933214727078
565.5, 14.177614033723131
566, 14.103882224843105
566.5, 13.996568248429
567, 13.9080672042097
567.5, 13.883555540130459
568, 13.883357192394541
568.5, 13.88037107125892
569, 13.894423591862846
569.5, 13.930912698185622
570, 13.975437488449899
570.5, 14.003456633321719
571, 13.993844354981377
571.5, 13.972527024464839
572, 13.968929974886478
572.5, 13.977130473656288
573, 13.980844887328843
573.5, 13.958699041088067
574, 13.921530451763033
574.5, 13.907833172512497
575, 13.913549431402373
575.5, 13.914678431643367
576, 13.914259206246257
576.5, 13.917320521839756
577, 13.909371992851234
577.5, 13.889691270370761
578, 13.884169309095881
578.5, 13.8869724555328
579, 13.864042333979029
579.5, 13.82645656562535
580, 13.808437295005476
580.5, 13.82870681171049
581, 13.883493938127685
581.5, 13.920702405880618
582, 13.929742131142888
582.5, 13.976433029056125
583, 14.050633565775911
583.5, 14.071970128645418
584, 14.037894344438072
584.5, 13.990983072424314
585, 13.975370282195485
585.5, 14.009452400367039
586, 14.040136862331067
586.5, 14.038425062221549
587, 14.032644076896261
587.5, 14.051633386198077
588, 14.113932224645538
588.5, 14.181348597141948
589, 14.198969990792449
589.5, 14.181450948913593
590, 14.15305827047034
590.5, 14.105886651098615
591, 14.03822568823378
591.5, 13.966084719778806
592, 13.899964843286355
592.5, 13.843503153458727
593, 13.796534974119211
593.5, 13.757897806307568
594, 13.730847761191242
594.5, 13.722443297840428
595, 13.745800050720973
595.5, 13.785917233592812
596, 13.78621071388325
596.5, 13.74495993830783
597, 13.708022833932716
597.5, 13.675827656737624
598, 13.6293833979923
598.5, 13.575907405523552
599, 13.52561089875742
599.5, 13.476018152298082
600, 13.4255651554857
600.5, 13.377678933714307
601, 13.345891482524664
601.5, 13.348642522384097
602, 13.371897676539533
602.5, 13.390374515318058
603, 13.40555233128778
603.5, 13.422868158455913
604, 13.437441998428596
604.5, 13.427369216695709
605, 13.352008018118852
605.5, 13.243544325170319
606, 13.184864913336
606.5, 13.136308379454775
607, 13.028423256113584
607.5, 12.94641954896936
608, 12.959969928807936
608.5, 12.98781814163506
609, 12.97153502427588
609.5, 12.920391489417426
610, 12.850076397035195
610.5, 12.7768553543293
611, 12.714036930530654
611.5, 12.666832789175189
612, 12.61080138360576
612.5, 12.536557629387943
613, 12.491854416164855
613.5, 12.481960035274753
614, 12.442353646192316
614.5, 12.368285246718955
615, 12.303253187470261
615.5, 12.233976752914884
616, 12.132985387436577
616.5, 12.037435533061199
617, 11.98182234006751
617.5, 11.950103359737128
618, 11.906270783218702
618.5, 11.801209024589852
619, 11.658908482716129
619.5, 11.557215677175236
620, 11.510527038206035
620.5, 11.501505523729193
621, 11.512377771521884
621.5, 11.512408921514975
622, 11.441586704546836
622.5, 11.31272627365685
623, 11.239473663500974
623.5, 11.237311377560545
624, 11.244115127968954
624.5, 11.268438342991104
625, 11.335995417906616
625.5, 11.397166230302858
626, 11.41455295538303
626.5, 11.426303839971155
627, 11.446580318967875
627.5, 11.443201846129924
628, 11.402818537077579
628.5, 11.330939879918546
629, 11.2407916062771
629.5, 11.149731769118702
630, 11.078224666387626
630.5, 11.030726723872647
631, 10.97320709838688
631.5, 10.888526735465149
632, 10.78947936951171
632.5, 10.688750665328328
633, 10.596653085875346
633.5, 10.518760569943282
634, 10.458988407851436
634.5, 10.423225808663148
635, 10.399308903238065
635.5, 10.33447426345758
636, 10.240477519781265
636.5, 10.21444479971096
637, 10.244017802313962
637.5, 10.23787985460892
638, 10.187743775415498
638.5, 10.121225446994032
639, 10.054851475732335
639.5, 10.00057996830887
640, 9.96594945152684
640.5, 9.936621653632471
641, 9.874826860205133
641.5, 9.805217561740136
642, 9.789181028209015
642.5, 9.796894475887285
643, 9.77854530512279
643.5, 9.767834241015649
644, 9.788099799862124
644.5, 9.794544591665996
645, 9.746159378106043
645.5, 9.622529461464751
646, 9.463688888859167
646.5, 9.346000823231094
647, 9.285684682954908
647.5, 9.261266314733973
648, 9.209168462995535
648.5, 9.11219788456961
649, 9.073168244825851
649.5, 9.116568850963091
650, 9.153549165706053
650.5, 9.163935429144956
651, 9.17634112288907
651.5, 9.16520617554059
652, 9.10151043128863
652.5, 9.03388166497885
653, 8.999732249200278
653.5, 8.973216893731475
654, 8.924686100150268
654.5, 8.83347599085296
655, 8.729808920998536
655.5, 8.668869249896105
656, 8.623622359239349
656.5, 8.553158699218486
657, 8.495887853019298
657.5, 8.48842216618668
658, 8.523872506696506
658.5, 8.563368319686461
659, 8.540908988013086
659.5, 8.46036489436166
660, 8.375001959304498
660.5, 8.32368106793119
661, 8.321659805253645
661.5, 8.321314747578086
662, 8.288649503791873
662.5, 8.24666334345919
663, 8.198794130898023
663.5, 8.120290103483029
664, 8.034696803848803
664.5, 7.990126908900848
665, 7.962497104438867
665.5, 7.908087621899384
666, 7.819847693462208
666.5, 7.713784009114221
667, 7.635359691243451
667.5, 7.619695003916348
668, 7.679479521116306
668.5, 7.74922507093892
669, 7.730564828587802
669.5, 7.6605674717553995
670, 7.602239524293026
670.5, 7.516760109850637
671, 7.381003234840918
671.5, 7.247152444026327
672, 7.148575231096331
672.5, 7.083736737582129
673, 7.016466316746133
673.5, 6.902327414140686
674, 6.787556800950654
674.5, 6.7284853536180265
675, 6.691843065478608
675.5, 6.653047389251668
676, 6.641650259255513
676.5, 6.662338758369316
677, 6.685688106313918
677.5, 6.700090360737164
678, 6.709644431126236
678.5, 6.733644946299236
679, 6.784450822194387
679.5, 6.831165922623171
680, 6.860291273032914
680.5, 6.908275811241637
681, 6.979253514067125
681.5, 7.037712594381873
682, 7.084875372183447
682.5, 7.137669743369088
683, 7.150785591453413
683.5, 7.087398307400292
684, 7.018769164386043
684.5, 6.98897108103202
685, 6.9490971323699995
685.5, 6.878652403898272
686, 6.800131611307549
686.5, 6.737601300930194
687, 6.706005204498069
687.5, 6.667711947074096
688, 6.593400626975651
688.5, 6.545478219606835
689, 6.561423004858369
689.5, 6.597626587637663
690, 6.61449911713018
690.5, 6.589145794698794
691, 6.529986723042924
691.5, 6.462438124945294
692, 6.396510123481875
692.5, 6.338983000600649
693, 6.3047945455492
693.5, 6.302070472645099
694, 6.323944253512408
694.5, 6.375036587408616
695, 6.469547670274764
695.5, 6.57153248572186
696, 6.624872412910264
696.5, 6.642398057889039
697, 6.643254999187775
697.5, 6.587584664503993
698, 6.477577609495
698.5, 6.4094333957429654
699, 6.4183425516082195
699.5, 6.465276401401411
700, 6.516297882097163
700.5, 6.546384387259849
701, 6.550747081090151
701.5, 6.535263899004747
702, 6.5166722735966545
702.5, 6.501866965475102
703, 6.477181968113129
703.5, 6.441945914979399
704, 6.409517586547651
704.5, 6.375565913554723
705, 6.328236935587569
705.5, 6.276444313602198
706, 6.229006560253424
706.5, 6.172411216894417
707, 6.114292513281342
707.5, 6.104409711411179
708, 6.145429575105695
708.5, 6.191907748035192
709, 6.243815196336115
709.5, 6.3187489288865635
710, 6.373631032543614
710.5, 6.367451523833523
711, 6.328119044140578
711.5, 6.2797406560652576
712, 6.218313131657155
712.5, 6.149788070150464
713, 6.091385454318626
713.5, 6.044728767863518
714, 6.000664727660066
714.5, 5.943319324220184
715, 5.86961823088501
715.5, 5.820554279929382
716, 5.8191988786079065
716.5, 5.844371312691578
717, 5.8623190754145185
717.5, 5.837623921907451
718, 5.8014795438526505
718.5, 5.812366617785955
719, 5.86747562363864
719.5, 5.939875062644347
720, 5.992113680736338
720.5, 6.008510596749602
721, 6.010498663284167
721.5, 5.976323202286679
722, 5.852174536584386
722.5, 5.71703437894098
723, 5.691230559969
723.5, 5.7104001332915715
724, 5.700096170709543
724.5, 5.727804436223849
725, 5.818460969870088
725.5, 5.889686131711443
726, 5.91582231037178
726.5, 5.930454842973816
727, 5.922923168348959
727.5, 5.867027806525002
728, 5.791408585824556
728.5, 5.733200442786469
729, 5.704028834733364
729.5, 5.7035374852118395
730, 5.719224005164762
730.5, 5.736751017896651
731, 5.746694032506781
731.5, 5.793021210060374
732, 5.918892677827969
732.5, 6.015676266351804
733, 5.992035211611409
733.5, 5.934362016280247
734, 5.9032101688043355
734.5, 5.8712142330194155
735, 5.818537887442517
735.5, 5.745544206131385
736, 5.70884342414702
736.5, 5.766539647063382
737, 5.8353315818514915
737.5, 5.838065430137576
738, 5.830864139192855
738.5, 5.826113857871093
739, 5.740242274338215
739.5, 5.611277165212741
740, 5.580146403731177
740.5, 5.644399183706554
741, 5.735550064769043
741.5, 5.847180871678944
742, 5.973866852716142
742.5, 6.062959130443389
743, 6.082241211837896
743.5, 6.043910576935829
744, 5.989258926004965
744.5, 5.976227538400764
745, 6.007790714582512
745.5, 6.054110147332352
746, 6.068712102416654
746.5, 6.032177883093198
747, 6.007402482720266
747.5, 6.0140982203138265
748, 5.991451925223657
748.5, 5.9526510591963415
749, 5.970044194268581
749.5, 6.009438882119255
750, 5.997396775275945
750.5, 5.939829826410971
751, 5.867727704812026
751.5, 5.816463794234522
752, 5.800373013896348
752.5, 5.8008659498404285
753, 5.78269632666489
753.5, 5.705883868283863
754, 5.594492907746897
754.5, 5.497844910534326
755, 5.43112160408441
755.5, 5.401999439463708
756, 5.423402052131252
756.5, 5.479189587064809
757, 5.512181586084424
757.5, 5.505026601065865
758, 5.478920122550662
758.5, 5.468942957275004
759, 5.501052124103893
759.5, 5.53197829622674
760, 5.545633212784665
760.5, 5.638985246880509
761, 5.807220488509714
761.5, 5.8850268591613
762, 5.86460973420418
762.5, 5.8666098363544705
763, 5.889780593912633
763.5, 5.8836808490732295
764, 5.854506506385519
764.5, 5.828460716709344
765, 5.841467900290368
765.5, 5.895787181657184
766, 5.946108009447187
766.5, 5.975556754365016
767, 5.993765420119445
767.5, 6.009905085497351
768, 6.029086053701988
768.5, 6.041503928726797
769, 6.0329635544670595
769.5, 5.989202605734988
770, 5.931660185621965
770.5, 5.926765298709327
771, 5.97048137283349
771.5, 6.006326658778207
772, 6.039552782097672
772.5, 6.092907262982749
773, 6.135530441456709
773.5, 6.14029354591095
774, 6.122436332066215
774.5, 6.1035201348920225
775, 6.104173573180702
775.5, 6.12496689083541
776, 6.1525337635250565
776.5, 6.1900505342359935
777, 6.237316066751603
777.5, 6.247106915892189
778, 6.187676842622594
778.5, 6.091507834714321
779, 6.003091448180854
779.5, 5.966441210886799
780, 5.956396520222938
780.5, 5.907197714141091
781, 5.860228091454104
781.5, 5.8808155410352185
782, 5.928412636416908
782.5, 5.9524412364226436
783, 5.941611144971915
783.5, 5.90535749082423
784, 5.871356002111469
784.5, 5.838674000413619
785, 5.790942131925618
785.5, 5.76993690396165
786, 5.822153347285649
786.5, 5.906589505518028
787, 5.959880551568062
787.5, 5.919984591292732
788, 5.807215847182704
788.5, 5.741285765120509
789, 5.738731249141438
789.5, 5.739633375954298
790, 5.739940351065954
790.5, 5.754744995177262
791, 5.77326880987944
791.5, 5.7878932846880105
792, 5.811299357039459
792.5, 5.8322458208741494
793, 5.809096165839804
793.5, 5.750929474554866
794, 5.699768836010151
794.5, 5.649103929585721
795, 5.5811733020856735
795.5, 5.518076995906455
796, 5.471464378165649
796.5, 5.410630093092095
797, 5.338775758144763
797.5, 5.305344859593589
798, 5.315088217868805
798.5, 5.338103291253347
799, 5.34919520644938
799.5, 5.3347718007617
800, 5.316210189210381
800.5, 5.304281047346379
800.9999999999999, 5.27058896049509
801.5, 5.21614429926413
802, 5.181673976056928
802.5, 5.1704422523915525
803, 5.1587888446725145
803.4999999999999, 5.138282195782637
804, 5.113467791691804
804.5, 5.112158040998864
805, 5.1366926373341215
805.5, 5.126604870743435
806, 5.07021507078467
806.5, 5.021511602494925
806.9999999999999, 4.992953277863748
807.5, 4.965420531377291
808, 4.927156038986382
808.5, 4.875572629758665
809, 4.829276975545724
809.4999999999999, 4.78791025019342
810, 4.70395057146375
810.5, 4.579891997620052
811, 4.481169884382368
811.5, 4.424400866483609
812, 4.3862285766807645
812.5, 4.324317878387959
813, 4.210255082161879
813.5, 4.092200874399467
814, 4.01684944548407
814.5, 3.991952794407837
815, 3.9821490813260993
815.4999999999999, 3.9151921776147276
816, 3.825649680052692
816.5, 3.8013987313177893
817, 3.784462310188914
817.5, 3.7003666548392573
818, 3.6239320596806124
818.5, 3.5984883431921446
819, 3.5423860983103452
819.5, 3.4494432377947533
820, 3.4104442381260185
820.5, 3.4236215712407585
821, 3.4292942963766677
821.4999999999999, 3.425862016367134
822, 3.421716281204013
822.5, 3.3792604441606784
823, 3.280297597487447
823.5, 3.1635653533435004
824, 3.062803201597575
824.5, 2.9961414529745696
825, 2.951668747306641
825.5, 2.902639787988903
826, 2.852448053011912
826.5, 2.813727070667966
827, 2.7904159208186172
827.4999999999999, 2.776317789032916
828, 2.7502178863462916
828.5, 2.714064702715916
829, 2.6929458483991056
829.5, 2.6552465170624373
829.9999999999999, 2.548560697766959
830.5, 2.4283742888588193
831, 2.358604483655469
831.5, 2.2940388838820667
832, 2.2057834182670604
832.5, 2.1370607480698993
833, 2.09183906861405
833.4999999999999, 2.0270850496023485
834, 1.959584519100872
834.5, 1.937650329038192
835, 1.9552244330344877
835.5, 1.994595051469787
835.9999999999999, 2.0668609811109206
836.5, 2.1593301336707924
837, 2.2070190383440007
837.5, 2.2150934916540734
838, 2.26289769548859
838.5, 2.336570166336827
839, 2.3752592792132106
839.5, 2.4075972753637416
840, 2.4859045492733287
840.5, 2.6316881049091165
841, 2.8241019454489447
841.5, 2.9788793442563843
841.9999999999999, 3.071259446806451
842.5, 3.1459422619743975
843, 3.233103799500711
843.5, 3.3459487356405475
844, 3.4647580611355835
844.5, 3.5611590811264904
845, 3.616747046026674
845.5, 3.6221678729071556
846, 3.581224172918013
846.5, 3.51030537700359
847, 3.433061953661266
847.5, 3.323280194054803
847.9999999999999, 3.142787671529021
848.5, 2.9626300461294477
849, 2.86065418724867
849.5, 2.8154524438221955
850, 2.7972461923351517
850.4999999999999, 2.7952914273989222
851, 2.7965297104626785
851.5, 2.7853881410758703
852, 2.7665829647361306
852.5, 2.7528321590454112
853, 2.732004985336417
853.5, 2.702008216920163
853.9999999999999, 2.717310463817384
854.5, 2.7904117772785355
855, 2.8447610277186897
855.5, 2.8551078975057465
856, 2.855225267049235
856.4999999999999, 2.8551736763908764
857, 2.840662013212423
857.5, 2.750673682779066
858, 2.566817897682938
858.5, 2.444668696668657
859, 2.4526703275406447
859.5, 2.459406165391613
859.9999999999999, 2.4177235548149554
860.5, 2.381441512697762
861, 2.373306580031084
861.5, 2.390395844814833
862, 2.4043754977484753
862.4999999999999, 2.384606994617741
863, 2.3188627501243104
863.5, 2.227460942599791
864, 2.177981470147529
864.5, 2.2031328254115294
865, 2.292780106212433
865.5, 2.3964393950872847
866, 2.456912151710469
866.5, 2.499716992984432
867, 2.5624681865979397
867.5, 2.6390162330095706
868, 2.732935804173323
868.4999999999999, 2.873961783013513
869, 3.030529487661184
869.5, 3.119017738887351
870, 3.152820614834141
870.5, 3.192943753462629
871, 3.253584480757766
871.5, 3.3257460333186515
872, 3.378524577929099
872.5, 3.407472209337115
873, 3.456144688967399
873.5, 3.54483330626789
874, 3.6626677549147217
874.4999999999999, 3.7529059588404152
875, 3.767831633797911
875.5, 3.8331297301807155
876, 4.038707927249121
876.5, 4.222409500752931
876.9999999999999, 4.298786719433366
877.5, 4.3710119807869035
878, 4.477496607133546
878.5, 4.580971766092119
879, 4.654357477704153
879.5, 4.68411575325689
880, 4.68815442411929
880.4999999999999, 4.710139339068206
881, 4.835920799641997
881.5, 5.053860903233485
882, 5.19582798359329
882.5, 5.2445925027710985
882.9999999999999, 5.322396635631719
883.5, 5.432379414542126
884, 5.52236955015654
884.5, 5.6003105855689626
885, 5.691406633018659
885.5, 5.816816325789873
886, 5.971273185425673
886.4999999999999, 6.112148429384661
887, 6.242451769077476
887.5, 6.400769742588096
888, 6.544835284012549
888.5, 6.615687123219118
888.9999999999999, 6.685216602488012
889.5, 6.8102136668747875
890, 6.904449676512101
890.5, 6.943866257937174
891, 7.028755926389792
891.5, 7.155735971181457
892, 7.233431859166018
892.5, 7.297381589089042
893, 7.4283379162617535
893.5, 7.597862810083839
894, 7.75626529683754
894.5, 7.883417210152388
894.9999999999999, 7.99383114349223
895.5, 8.143722224601646
896, 8.33547943334652
896.5, 8.523068374563636
897, 8.678475382083178
897.4999999999999, 8.799307256152815
898, 8.954715503435537
898.5, 9.180198139584064
899, 9.373401463228802
899.5, 9.473581987534843
900, 9.51477298443173
900.5, 9.563487705983391
900.9999999999999, 9.690903706200857
901.5, 9.823383809930561
902, 9.863327290945719
902.5, 9.939197125192791
903, 10.145462809246908
903.4999999999999, 10.33110614870705
904, 10.410653659139442
904.5, 10.446826551515016
905, 10.479599804604831
905.5, 10.519473062815294
906, 10.575738825952584
906.5, 10.653926342391145
906.9999999999999, 10.743327070925332
907.5, 10.830027910214852
908, 10.903687577402223
908.5, 10.968135616199177
909, 11.046029416827722
909.4999999999999, 11.150703688232042
910, 11.280705676268738
910.5, 11.387496925312831
911, 11.429831013498344
911.5, 11.498854269875238
912, 11.678836404180899
912.5, 11.948219639439586
912.9999999999999, 12.229833676409385
913.5, 12.398584291358318
914, 12.460392231575312
914.5, 12.527924676807828
915, 12.676691634669169
915.4999999999999, 12.929523046489294
916, 13.166543871267706
916.5, 13.310666873442017
917, 13.475673849022272
917.5, 13.676439188034081
918, 13.767925065850747
918.5, 13.841309871173124
919, 14.141885113646268
919.5, 14.53878090276281
920, 14.782767828467982
920.5, 14.888532785492586
921, 14.95287086669957
921.4999999999999, 15.098046530753606
922, 15.330607926090664
922.5, 15.502863989537133
923, 15.58439693948435
923.5, 15.63839433450731
923.9999999999999, 15.657188329280572
924.5, 15.625467779985712
925, 15.638363823395025
925.5, 15.754252324496449
926, 15.882210408035817
926.5, 15.977733152272606
927, 16.083583721036348
927.4999999999999, 16.204011288911687
928, 16.314371349408802
928.5, 16.43745010338867
929, 16.601781092982975
929.5, 16.76925712489232
929.9999999999999, 16.914744207655133
930.5, 17.07956894662469
931, 17.255249012110298
931.5, 17.36123578068313
932, 17.396023054879322
932.5, 17.41917878481118
933, 17.460121528575257
933.4999999999999, 17.520830711695865
934, 17.55101522889173
934.5, 17.538069393939935
935, 17.58020499174799
935.5, 17.705598002071994
935.9999999999999, 17.836450291563196
936.5, 17.94916311274801
937, 18.06416545120129
937.5, 18.182066224869246
938, 18.286916158458126
938.5, 18.334467753366752
939, 18.332223723098096
939.4999999999999, 18.412683440906733
940, 18.594754817390438
940.5, 18.740192188537875
941, 18.826822726032802
941.5, 18.919223135751295
941.9999999999999, 19.02409083726039
942.5, 19.12585371306278
943, 19.223943497121866
943.5, 19.331770781573823
944, 19.48340833953492
944.4999999999999, 19.659069152374897
945, 19.772976711810898
945.5, 19.804807992165976
946, 19.79383541510508
946.5, 19.83618243245364
947, 20.00588725583765
947.5, 20.203666192133483
947.9999999999999, 20.342502411588967
948.5, 20.448255624546505
949, 20.561896168021306
949.5, 20.721526946214837
950, 20.912911479450813
950.4999999999999, 21.087266583587777
951, 21.21920213559727
951.5, 21.311072863266318
952, 21.430165241498585
952.5, 21.595138687027102
953, 21.69583682044818
953.5, 21.7311409720606
953.9999999999999, 21.838388992234968
954.5, 21.98179620274314
955, 22.030878526684134
955.5, 22.092153485693018
956, 22.293372319637683
956.4999999999999, 22.479387084684376
957, 22.533233287886944
957.5, 22.546576741806433
958, 22.58143780541299
958.5, 22.634449113295517
959, 22.70546101292807
959.5, 22.80066895298846
959.9999999999999, 22.9354165437107
960.5, 23.12164801143281
961, 23.345871840838527
961.5, 23.574288939519278
962, 23.745189617624874
962.4999999999999, 23.83945305671419
963, 23.89068947700322
963.5, 23.918506349930396
964, 23.929316403713116
964.5, 23.920421977803443
965, 23.91346951919911
965.5, 24.027369507314816
965.9999999999999, 24.290678906175444
966.5, 24.515308164181988
967, 24.620575161293445
967.5, 24.678063142359576
968, 24.7480296233217
968.4999999999999, 24.864193512889273
969, 24.97732621326783
969.5, 25.03966564949603
970, 25.119846141690758
970.5, 25.24729726796504
970.9999999999999, 25.328986008437184
971.5, 25.33700524269105
972, 25.330433946975646
972.5, 25.332822583933662
973, 25.34218255529977
973.5, 25.36560945033996
974, 25.410179752829976
974.4999999999999, 25.47074150504632
975, 25.57872353681175
975.5, 25.83344524717812
976, 26.142848254713726
976.5, 26.22563921805576
976.9999999999999, 26.196508062528622
977.5, 26.369662727675973
978, 26.64039633344261
978.5, 26.80096653220204
979, 26.83437072113597
979.5, 26.823306506645125
980, 26.954896568324486
980.4999999999999, 27.198817820690238
981, 27.29631767983014
981.5, 27.261154675382556
982, 27.255167043780503
982.5, 27.22100314401682
982.9999999999999, 27.100802704370125
983.5, 27.10335933430825
984, 27.306543018819383
984.5, 27.454385542627563
985, 27.499072428530383
985.5, 27.637121791159572
986, 27.837388153458832
986.4999999999999, 27.941696523567884
987, 27.946362876044518
987.5, 27.91380140863697
988, 27.934143586890116
988.5, 28.038491145757874
988.9999999999999, 28.14202738690041
989.5, 28.18824306658493
990, 28.168769484508573
990.5, 28.130598011501746
991, 28.148172850762165
991.4999999999999, 28.261966817410425
992, 28.460214774458052
992.5, 28.60623378440131
993, 28.624831305403404
993.5, 28.59308576504496
994, 28.559714914438956
994.5, 28.52851653090339
994.9999999999999, 28.517832704518767
995.5, 28.546855315944967
996, 28.58114427712158
996.5, 28.591650500747647
997, 28.624357795826015
997.4999999999999, 28.707118784036325
998, 28.810198936185586
998.5, 28.894349443930096
999, 28.925172856076884
999.5, 28.960910645783258
1000, 29.08615636254119
1000.5, 29.21928822855918
1000.9999999999999, 29.266401072141022
1001.5, 29.271673554905007
1002, 29.27439559064412
1002.5, 29.261243947570293
1003, 29.241832553511387
1003.4999999999999, 29.2497060657209
1004, 29.269580444583582
1004.5, 29.27516629261889
1005, 29.343119329047525
1005.5, 29.519940640327704
1006, 29.658376036577934
1006.5, 29.685172365579092
1006.9999999999999, 29.70973679794288
1007.5, 29.749821054571882
1008, 29.726508026160445
1008.5, 29.690586484489785
1009, 29.74530113551785
1009.4999999999999, 29.852612164741686
1010, 29.944926051366892
1010.5, 30.00770303380051
1011, 30.06455040114659
1011.5, 30.179990889902186
1012, 30.272427828100874
1012.5, 30.144418633383424
1012.9999999999999, 29.916666266637236
1013.5, 29.84503404359036
1014, 29.912568562092005
1014.5, 30.02115207237199
1015, 30.09916548141375
1015.4999999999999, 30.116579996977052
1016, 30.10637304487625
1016.5, 30.157209434735165
1017, 30.380597340966318
1017.5, 30.638401727835983
1017.9999999999999, 30.71338671802478
1018.5, 30.716633106509036
1019, 30.779868768727383
1019.5, 30.793543083533066
1020, 30.691869814576904
1020.5, 30.546639120594918
1021, 30.39616165464193
1021.4999999999999, 30.239376964749425
1022, 30.11806104838375
1022.5, 30.0845068791713
1023, 30.118271125485506
1023.5, 30.189394060386277
1023.9999999999999, 30.30483313158848
1024.5, 30.42273164005941
1025, 30.42050442622211
1025.5, 30.31731486989301
1026, 30.260364032599355
1026.5, 30.287677255893954
1027, 30.369419424533177
1027.5, 30.450838369665945
1028, 30.49093131256528
1028.5, 30.506853600329862
1029, 30.52152806277087
1029.5, 30.550350076382372
1030, 30.585777124612434
1030.5, 30.59994713983731
1031, 30.567181705410647
1031.5, 30.4752375736049
1032, 30.369694800062888
1032.5, 30.295550621382645
1033, 30.24923293551261
1033.5, 30.24102970518686
1034, 30.309322983180422
1034.5, 30.38339685234456
1035, 30.31562160493273
1035.5, 30.178389719245573
1036, 30.122870985860644
1036.5, 30.108899628838913
1037, 30.07357250106857
1037.5, 30.0459055025171
1038, 30.058509679122608
1038.5, 30.124483326675318
1039, 30.213722348457196
1039.5, 30.266585182596017
1040, 30.29092169499573
1040.5, 30.3178624076469
1041, 30.319186312069263
1041.5, 30.27207630539803
1042, 30.21282676716315
1042.5, 30.163866200054215
1043, 30.113603974388354
1043.5, 30.062916239790937
1044, 30.02636389257954
1044.5, 30.020976986854038
1045, 30.054158095981762
1045.5, 30.0841052412579
1046, 30.082001733929403
1046.5, 30.08779830099398
1047, 30.122730933121687
1047.5, 30.163301627637935
1048, 30.158277190660996
1048.5, 30.05018434211621
1049, 29.906474609717804
1049.5, 29.831494009623995
1050, 29.809400395741662
1050.5, 29.780843863963682
1051, 29.665242657903818
1051.5, 29.48110113394351
1052, 29.385869113866434
1052.5, 29.38913354089756
1053, 29.379254213726554
1053.5, 29.36069260731881
1054, 29.37813816675461
1054.5, 29.38944525806015
1055, 29.36575485740451
1055.5, 29.36911393808252
1056, 29.397930554682247
1056.5, 29.347938887836023
1057, 29.23341145680496
1057.5, 29.16761492948558
1058, 29.20733238635985
1058.5, 29.349877652628564
1059, 29.46023928331374
1059.5, 29.447446364978518
1060, 29.41269001657163
1060.5, 29.40326522977017
1061, 29.356113103398513
1061.5, 29.282600852318623
1062, 29.255937471935127
1062.5, 29.29874242500992
1063, 29.383429034425205
1063.5, 29.375592574338995
1064, 29.215871622642794
1064.5, 29.087886030822744
1065, 29.053238374507202
1065.5, 28.96720758632661
1066, 28.83904278473294
1066.5, 28.796357348585474
1067, 28.819301052028607
1067.5, 28.82113252068011
1068, 28.734375339867327
1068.5, 28.55625994973188
1069, 28.420449856132436
1069.5, 28.365210687433205
1070, 28.2800541452405
1070.5, 28.153570653910563
1071, 28.055709822400885
1071.5, 28.008587176457752
1072, 28.004343973125756
1072.5, 28.007684799324508
1073, 28.009659232116164
1073.5, 28.076133494393773
1074, 28.203874148753343
1074.5, 28.289190572467547
1075, 28.308849081851378
1075.5, 28.303645343821316
1076, 28.279005098504697
1076.5, 28.23019908919902
1077, 28.180110176043073
1077.5, 28.145965624893122
1078, 28.116174436420636
1078.5, 28.06896395869437
1079, 27.978163599190353
1079.5, 27.8740274207361
1080, 27.81714089396361
1080.5, 27.767855079784752
1081, 27.66868736039669
1081.5, 27.57200970709829
1082, 27.521050502507933
1082.5, 27.478256879912195
1083, 27.412087647941007
1083.5, 27.314984724154797
1084, 27.21302832692784
1084.5, 27.154107228185325
1085, 27.167281782534957
1085.5, 27.25219477707296
1086, 27.32704382796814
1086.5, 27.332897510901873
1087, 27.30343221255015
1087.5, 27.25518669887235
1088, 27.171196258437803
1088.5, 27.086565481242843
1089, 27.0587626685263
1089.5, 27.015397053352473
1090, 26.867069729129142
1090.5, 26.676661714967253
1091, 26.526467204017266
1091.5, 26.460409239059373
1092, 26.468138123321538
1092.5, 26.481168956333775
1093, 26.47715148388029
1093.5, 26.467664527404807
1094, 26.444976460131087
1094.5, 26.404494320508377
1095, 26.38566349366215
1095.5, 26.40577747359758
1096, 26.41465704548206
1096.5, 26.394327880519555
1097, 26.3747976315734
1097.5, 26.359199238659173
1098, 26.334567622494944
1098.5, 26.325739637620487
1099, 26.345800402429646
1099.5, 26.305427694087996
1100, 26.16597617242931
1100.5, 26.040263926643362
1101, 25.965101128678995
1101.5, 25.869307876025772
1102, 25.766829558036918
1102.5, 25.72440861635691
1103, 25.724523579823824
1103.5, 25.73096850704802
1104, 25.76733122930598
1104.5, 25.820366180087547
1105, 25.777542290082053
1105.5, 25.62955643780758
1106, 25.49820859162267
1106.5, 25.429862236953028
1107, 25.408618189380533
1107.5, 25.392710356643732
1108, 25.35224372797235
1108.5, 25.334970006982957
1109, 25.359296547559367
1109.5, 25.35214216891218
1110, 25.295169559650333
1110.5, 25.24245926470924
1111, 25.19350220108855
1111.5, 25.115579773592273
1112, 25.029866244460678
1112.5, 24.97000203336995
1113, 24.936775919896334
1113.5, 24.871373437382317
1114, 24.619614028223197
1114.5, 24.253796393980124
1115, 24.09150415259373
1115.5, 24.102129567539237
1116, 24.048897561527028
1116.5, 23.946848690126586
1117, 23.8901022704504
1117.5, 23.90036494639999
1118, 23.966775955002007
1118.5, 24.046323906015445
1119, 24.11253183144555
1119.5, 24.161749443832093
1120, 24.189768885007155
1120.5, 24.187793682662814
1121, 24.125942465917277
1121.5, 23.99850594263272
1122, 23.90819864688042
1122.5, 23.909694081050006
1123, 23.923573949214784
1123.5, 23.88859817041957
1124, 23.784626527727355
1124.5, 23.64058560169198
1125, 23.503052383143995
1125.5, 23.338005114116868
1126, 23.108582834946617
1126.5, 22.869805113863748
1127, 22.676682189178223
1127.5, 22.548014132296558
1128, 22.486340463814358
1128.5, 22.476696112630066
1129, 22.457023624250468
1129.5, 22.35653296622243
1130, 22.23110666286462
1130.5, 22.1356203082602
1131, 21.969329229551917
1131.5, 21.714084180175533
1132, 21.55634035455823
1132.5, 21.54212696666704
1133, 21.54531342718886
1133.5, 21.474514906379056
1134, 21.289009558304727
1134.5, 21.083579017541467
1135, 20.949690288527293
1135.5, 20.811592898068653
1136, 20.622730478870096
1136.5, 20.44888393766736
1137, 20.336180114247625
1137.5, 20.296669717510554
1138, 20.335146517084738
1138.5, 20.440414726775984
1139, 20.529439391345775
1139.5, 20.52937718567766
1140, 20.479914419737327
1140.5, 20.427319994230828
1141, 20.389329982997324
1141.5, 20.35835896591557
1142, 20.30777852576591
1142.5, 20.258289667925183
1143, 20.238223289495394
1143.5, 20.151059183309002
1144, 19.935976646012776
1144.5, 19.77663109481628
1145, 19.766960835146293
1145.5, 19.76451056303381
1146, 19.690066434492252
1146.5, 19.557943882313296
1147, 19.424658319558162
1147.5, 19.34644511806583
1148, 19.250457360483423
1148.5, 19.07565974953077
1149, 18.9312363678347
1149.5, 18.88192251204579
1150, 18.86110533777091
1150.5, 18.8098140143356
1151, 18.694552123789563
1151.5, 18.529877706558253
1152, 18.35937254942216
1152.5, 18.23224138345317
1153, 18.16104932687945
1153.5, 18.045024175974717
1154, 17.850972767220526
1154.5, 17.692011648500923
1155, 17.602234040032158
1155.5, 17.52599906248507
1156, 17.43911486001224
1156.5, 17.34406371332973
1157, 17.275118436437594
1157.5, 17.262276104461094
1158, 17.292170006848295
1158.5, 17.33216768714682
1159, 17.3328732151501
1159.5, 17.29260894879222
1160, 17.254248610813306
1160.5, 17.222814032676524
1161, 17.17787651372332
1161.5, 17.085761619808338
1162, 16.934758490950315
1162.5, 16.787513830209306
1163, 16.651477258038554
1163.5, 16.428710586809643
1164, 16.164189869471855
1164.5, 16.029335032124536
1165, 15.991177551907285
1165.5, 15.922803547304
1166, 15.825867656789626
1166.5, 15.736221235632527
1167, 15.668207292620224
1167.5, 15.60816064842885
1168, 15.506692286076444
1168.5, 15.383114861627291
1169, 15.314091749743355
1169.5, 15.271147076561718
1170, 15.175740986827265
1170.5, 14.999374499647942
1171, 14.779876850119962
1171.5, 14.691434587646384
1172, 14.716117468098133
1172.5, 14.513269864510818
1173, 14.120070165236982
1173.5, 13.914782075647622
1174, 13.911589380650327
1174.5, 13.927761444614617
1175, 13.83102318343289
1175.5, 13.609387969548322
1176, 13.53075350887535
1176.5, 13.684564760519109
1177, 13.815181856397317
1177.5, 13.793502442462682
1178, 13.641325307489055
1178.5, 13.444753833849504
1179, 13.297440945669692
1179.5, 13.17552628721252
1180, 13.025495553828478
1180.5, 12.811578922435217
1181, 12.575427502094897
1181.5, 12.463090522533705
1182, 12.432831544343898
1182.5, 12.293990086240314
1183, 12.117911419679288
1183.5, 12.065050285284315
1184, 12.04335332534059
1184.5, 11.93205084249071
1185, 11.734679054511815
1185.5, 11.506360119015667
1186, 11.343947739407014
1186.5, 11.239246502229193
1187, 11.102197644862628
1187.5, 10.973427095363576
1188, 10.94403249698425
1188.5, 11.014766853244055
1189, 11.156582210976225
1189.5, 11.33184598156869
1190, 11.478600518597403
1190.5, 11.503457611905034
1191, 11.3609620216221
1191.5, 11.059121369811479
1192, 10.685573004255943
1192.5, 10.356038665580712
1193, 10.131485100688366
1193.5, 10.022211300055588
1194, 9.95127895125215
1194.5, 9.892255218592538
1195, 9.906358198505146
1195.5, 9.94863477534021
1196, 9.896757314633987
1196.5, 9.799843929619769
1197, 9.765295307183422
1197.5, 9.766897874380959
1198, 9.739752841028292
1198.5, 9.618525794681005
1199, 9.408663891197435
1199.5, 9.212731436115263
1200, 9.05337225376934
1200.5, 8.887970962197471
1201, 8.748605854979317
1201.5, 8.656150123820083
1202, 8.413159894090427
1202.5, 7.951712659473316
1203, 7.663782112661266
1203.5, 7.690705120298574
1204, 7.733174401225767
1204.5, 7.680851469047553
1205, 7.6004080517928685
1205.5, 7.487052999608636
1206, 7.323201037168545
1206.5, 7.198865368292957
1207, 7.1765169589393025
1207.5, 7.182296970598969
1208, 7.164935734931703
1208.5, 7.131817488156358
1209, 7.078607423491221
1209.5, 6.993732622603417
1210, 6.913228162793203
1210.5, 6.872147161562808
1211, 6.803327637832695
1211.5, 6.657060364639378
1212, 6.489446234236937
1212.5, 6.352694104936916
1213, 6.270412546379589
1213.5, 6.228626095583451
1214, 6.1901329119355495
1214.5, 6.160884445201219
1215, 6.153219542635483
1215.5, 6.119593842808868
1216, 6.025224542050978
1216.5, 5.900994938777458
1217, 5.754770393117795
1217.5, 5.555887865378153
1218, 5.352244010375642
1218.5, 5.233279335571609
1219, 5.110667434511711
1219.5, 4.878280173882047
1220, 4.698263307228203
1220.5, 4.691504216876297
1221, 4.728138814281053
1221.5, 4.738704062982649
1222, 4.775923036728486
1222.5, 4.830725220808972
1223, 4.847844265394869
1223.5, 4.838385625698422
1224, 4.820464417632294
1224.5, 4.716166181260576
1225, 4.503351540386447
1225.5, 4.337555537209312
1226, 4.293954707479514
1226.5, 4.3080666089700514
1227, 4.265352148461147
1227.5, 4.056899615750865
1228, 3.84639130358417
1228.5, 3.8236256442428243
1229, 3.797722604575654
1229.5, 3.6413153987855367
1230, 3.5720748616437703
1230.5, 3.6614040538279937
1231, 3.742104751951274
1231.5, 3.766544646153619
1232, 3.7810247373741532
1232.5, 3.7690324985579196
1233, 3.7025395574058138
1233.5, 3.6204322060289797
1234, 3.5545558307990888
1234.5, 3.4858456938968345
1235, 3.387701722540001
1235.5, 3.231623708358171
1236, 2.977369758329374
1236.5, 2.6060568269393087
1237, 2.311643499630719
1237.5, 2.263552586171784
1238, 2.186265073841355
1238.5, 1.912051271324998
1239, 1.7250030794154867
1239.5, 1.7297485565049016
1240, 1.745088046125204
1240.5, 1.7181491212002271
1241, 1.693967886640877
1241.5, 1.6514637496517963
1242, 1.5638493625968408
1242.5, 1.4919872613887293
1243, 1.4660565249214272
1243.5, 1.4118928163868674
1244, 1.362837325625037
1244.5, 1.481768926686044
1245, 1.6876034808792895
1245.5, 1.7545304502464063
1246, 1.7115519670095694
1246.5, 1.6703977973669737
1247, 1.6498347806317497
1247.5, 1.6472181723056138
1248, 1.6607614108470727
1248.5, 1.7084566032883401
1249, 1.8244420846074263
1249.5, 1.9429275541651236
1250, 1.9501452528650418
1250.5, 1.8914527646604569
1251, 1.858252045860425
1251.5, 1.870115583528019
1252, 1.9100371971514392
1252.5, 1.92199234648848
1253, 1.9139452465435483
1253.5, 1.9659726256595036
1254, 2.038410530091056
1254.5, 2.0248715461358984
1255, 1.9502850715163476
1255.5, 1.878414193045728
1256, 1.8204729383282228
1256.5, 1.771513426556666
1257, 1.719227958572489
1257.5, 1.6970112595268603
1258, 1.7815134355067102
1258.5, 1.9097511870076005
1259, 1.9465880524269323
1259.5, 1.9222565121961566
1260, 1.9077023105271564
1260.5, 1.885046907647137
1261, 1.845476322831928
1261.5, 1.834586476857524
1262, 1.8567762072218414
1262.5, 1.8643653911690592
1263, 1.8394513331327147
1263.5, 1.7925401021360017
1264, 1.7738161938087558
1264.5, 1.826424152244627
1265, 1.9170382630854306
1265.5, 2.005003823056583
1266, 2.0676880390676473
1266.5, 2.098631445077828
1267, 2.1073790904531506
1267.5, 2.104404642395451
1268, 2.096880446806068
1268.5, 2.0712460518183917
1269, 2.019012680421781
1269.5, 1.97534473063466
1270, 1.9698177258737246
1270.5, 2.003330312788009
1271, 2.0571934465654493
1271.5, 2.0917200196311683
1272, 2.0339242600833387
1272.5, 1.8210172222699157
1273, 1.5804705520055364
1273.5, 1.4611023773257017
1274, 1.4455672086026254
1274.5, 1.4812816731845828
1275, 1.5163292630064404
1275.5, 1.5617202250801796
1276, 1.6856109556217262
1276.5, 1.8223363421214458
1277, 1.8428358115864256
1277.5, 1.7661165829773466
1278, 1.66027947542959
1278.5, 1.5735884408651089
1279, 1.5343490814880028
1279.5, 1.5406402584108037
1280, 1.5620534957246122
1280.5, 1.5482502242977176
1281, 1.5308701830489184
1281.5, 1.581038969772493
1282, 1.6927436750360698
1282.5, 1.8174858051569487
1283, 1.8621898794484792
1283.5, 1.804397834501387
1284, 1.7604624320768352
1284.5, 1.7366740339650732
1285, 1.631129589029399
1285.5, 1.605101379030799
1286, 1.8987650828662908
1286.5, 2.2431621327925058
1287, 2.357794878643844
1287.5, 2.494280370231351
1288, 2.7757076702960575
1288.5, 2.9216989930936137
1289, 2.858737891603269
1289.5, 2.759302606974316
1290, 2.658542403995696
1290.5, 2.524894139810371
1291, 2.4660545203318947
1291.5, 2.56281457464209
1292, 2.6632886385919505
1292.5, 2.6967683367024478
1293, 2.805125832560506
1293.5, 2.972427099450485
1294, 3.0156244794331997
1294.5, 2.9278685142511023
1295, 2.8122911112256617
1295.5, 2.7658844894531143
1296, 2.8381065213365133
1296.5, 2.9433297196897854
1297, 3.0238704665742944
1297.5, 3.1117446683979324
1298, 3.1983724970697693
1298.5, 3.232866852822667
1299, 3.242994971676154
1299.5, 3.291894180484647
1300, 3.3748718475548145
1300.5, 3.4642914555901854
1301, 3.5331586229156073
1301.5, 3.568296127162455
1302, 3.5789825551053127
1302.5, 3.560340573609082
1303, 3.4968592410832713
1303.5, 3.429760800631584
1304, 3.4168433658851285
1304.5, 3.426102647913453
1305, 3.406570822306989
1305.5, 3.3395090893922514
1306, 3.235402105061368
1306.5, 3.1415170283824807
1307, 3.0616904574282273
1307.5, 2.963725927335986
1308, 2.9131190473684825
1308.5, 2.995484418537515
1309, 3.1034703678740527
1309.5, 3.1271098932334525
1310, 3.128512570990722
1310.5, 3.1268247636143798
1311, 3.025702748516224
1311.5, 2.8254376715163545
1312, 2.6208083950901653
1312.5, 2.42160515734399
1313, 2.203804826872201
1313.5, 2.0276128311993773
1314, 1.931599620983377
1314.5, 1.8181228063650536
1314.9999999999998, 1.6323912148642563
1315.5, 1.4254432031685838
1316, 1.226134087160787
1316.5, 1.0397555757639907
1317, 0.9335235264570088
1317.5, 0.9751896087917942
1318, 1.0591977690301775
1318.4999999999998, 1.0732389088606737
1319, 1.0375572351272808
1319.5, 1.0212659535715574
1320, 1.128263034072873
1320.5, 1.3307980843511302
1321, 1.4928744477008706
1321.5, 1.6400546567200678
1321.9999999999998, 1.8480160240409873
1322.5, 1.992159097457062
1323, 1.9775966208717648
1323.5, 1.9570984270944365
1324, 2.0262645397824173
1324.5, 2.127599838726198
1325, 2.2096219618761097
1325.5, 2.2460550375135853
1326, 2.279976144430293
1326.5, 2.36641102761736
1326.9999999999998, 2.439794176090004
1327.5, 2.4425165585996353
1328, 2.4354201770165815
1328.5, 2.4668491402279784
1329, 2.5345241365830447
1329.5, 2.603704143722993
1330, 2.622582609907667
1330.4999999999998, 2.6144777565590687
1331, 2.6241882777685106
1331.5, 2.6080028930837926
1332, 2.536144164090075
1332.5, 2.4834799868206687
1333, 2.4743935369882593
1333.5, 2.4355643025969016
1334, 2.3612357187822113
1334.5, 2.30972413404983
1335, 2.3121046612454847
1335.4999999999998, 2.3771314385966775
1336, 2.480864392323582
1336.5, 2.573453924775521
1337, 2.5643399094033157
1337.5, 2.4394076610091275
1338, 2.302447489967662
1338.5, 2.172150971105637
1338.9999999999998, 1.9996054179033251
1339.5, 1.8659728219515728
1340, 1.8800201111138506
1340.5, 1.9664347609586628
1341, 2.0276059154584942
1341.5, 2.0436040020406807
1342, 2.011661343876213
1342.4999999999998, 1.9385672204982
1343, 1.8702006917627898
1343.5, 1.8740475418999267
1344, 1.921612956094691
1344.5, 1.9491102568652252
1345, 1.9529761647102504
1345.5, 1.957365897083875
1346, 2.012165539693612
1346.5, 2.1318030447074676
1347, 2.273847973204127
1347.4999999999998, 2.3874568376486565
1348, 2.423636708001723
1348.5, 2.3769102805800486
1349, 2.2686449944991125
1349.5, 2.1437975447740314
1350, 2.0389187313075894
1350.5, 1.9539456277625504
1350.9999999999998, 1.873532104096725
1351.5, 1.771400549165108
1352, 1.6695581395759689
1352.5, 1.6230066337435005
1353, 1.622553327636865
1353.5, 1.6299380344521666
1354, 1.6185462296757436
1354.5, 1.6072607745999505
1355, 1.7135765019338862
1355.5, 1.9329851266449367
1355.9999999999998, 2.0801627866269143
1356.5, 2.106689117285896
1357, 2.0829169298839076
1357.5, 2.044379323906597
1358, 1.9971256139991453
1358.5, 1.899797326213502
1359, 1.7417950377919311
1359.4999999999998, 1.6134022291977033
1360, 1.5516443223410334
1360.5, 1.505427375930978
1361, 1.4931092023531107
1361.5, 1.5791810103457635
1362, 1.7111677687875755
1362.5, 1.8049710462466493
1362.9999999999998, 1.8769212741178478
1363.5, 1.9749320685151162
1364, 2.156855656073404
1364.5, 2.3897832214707506
1365, 2.5247846784116206
1365.5, 2.532322476506394
1366, 2.482623176516938
1366.5, 2.4344677144537314
1367, 2.4157536349962356
1367.5, 2.354722036612202
1367.9999999999998, 2.2235286100169844
1368.5, 2.150293499975305
1369, 2.176996242763181
1369.5, 2.20481017638285
1370, 2.157288790471739
1370.5, 2.0006801335294426
1371, 1.8335023650317055
1371.4999999999998, 1.7732780169485096
1372, 1.773980935822081
1372.5, 1.7832467827972351
1373, 1.8258279865386697
1373.5, 1.884378262759597
1374, 1.879011375157745
1374.5, 1.8159147629990855
1374.9999999999998, 1.7639819159416845
1375.5, 1.742986712159123
1376, 1.7551371895112737
1376.5, 1.822741629595356
1377, 1.9614278950540438
1377.5, 2.159438268982555
1378, 2.340737601886275
1378.5, 2.364253311910744
1379, 2.270305469945157
1379.5, 2.2137549488999184
1379.9999999999998, 2.1629257918025786
1380.5, 2.0594155942831094
1381, 2.063386582238735
1381.5, 2.246059927272043
1382, 2.3765073981381732
1382.5, 2.403871494135373
1383, 2.53633546433403
1383.4999999999998, 2.738045061505076
1384, 2.8093554226070836
1384.5, 2.763706898252579
1385, 2.693307736116566
1385.5, 2.6335917123834918
1386, 2.597282694989147
1386.5, 2.577288022765032
1387, 2.5477009650395246
1387.5, 2.469665950891354
1388, 2.404224591463773
1388.4999999999998, 2.4649304936023952
1389, 2.6181441343926224
1389.5, 2.779445922271293
1390, 2.9100037150032136
1390.5, 2.9878745332440815
1391, 3.0040638474757912
1391.5, 2.9526018296508028
1391.9999999999998, 2.8329045256495675
1392.5, 2.6943115214724287
1393, 2.619857634806621
1393.5, 2.678612540992475
1394, 2.8554152666048225
1394.5, 2.849349506842543
1395, 2.5405505064423153
1395.4999999999998, 2.3094622927935973
1396, 2.3308421468175737
1396.5, 2.4500804646346808
1397, 2.3945310132523048
1397.5, 2.1572818972074828
1398, 1.8700190158259034
1398.5, 1.5937807774214576
1399, 1.3910578284529294
1399.5, 1.4259356490485686
1400, 1.530495721775452
