297.5, 69.76875942543178
298, 69.69973027618869
298.5, 69.61954909995782
299, 69.53126141364031
299.5, 69.43791273413734
300, 69.34254857835003
300.5, 69.24821446317955
301, 69.15795590552703
301.5, 69.07481842229363
302, 69.00184753038053
302.5, 68.94208874668885
303, 68.9082717053474
303.5, 68.88228399217365
304, 68.86363636463146
304.5, 68.86363496948812
305, 68.86390721825505
305.5, 68.8639438765242
306, 68.85885285463856
306.5, 68.84977381631776
307, 68.85589044958714
307.5, 68.86435303301589
308, 68.8815185358295
308.5, 68.89725224666567
309, 68.91583030362396
309.5, 68.92713554522103
310, 68.93656286567055
310.5, 68.93914456593988
311, 68.93902536747403
311.5, 68.95314546887559
312, 68.9698915799663
312.5, 68.99581435449777
313, 69.01764545205425
313.5, 69.03627884549952
314, 69.0538580267643
314.5, 69.08200199779029
315, 69.09986887200334
315.5, 69.11763838522673
316, 69.11929008371065
316.5, 69.11993199550434
317, 69.13710692666872
317.5, 69.15458007801223
318, 69.18250997421588
318.5, 69.20090494500778
319, 69.21967030917244
319.5, 69.23512686755313
320, 69.25294718413764
320.5, 69.2616565969992
321, 69.26989727083635
321.5, 69.27843514379435
322, 69.28814393229938
322.5, 69.30679605739923
323, 69.32124600333316
323.5, 69.33998991221047
324, 69.35547468869194
324.5, 69.37324467250615
325, 69.38917502743548
325.5, 69.40556032005436
326, 69.42290377404824
326.5, 69.43857726953532
327, 69.45723526458445
327.5, 69.47167375979996
328, 69.49043885256116
328.5, 69.50051376019216
329, 69.50927545198803
329.5, 69.51727842532937
330, 69.5258634496827
330.5, 69.54348927971414
331, 69.5551947838704
331.5, 69.55514956784296
332, 69.55141670579815
332.5, 69.54199296068087
333, 69.5506741112804
333.5, 69.56868499703295
334, 69.57732423440184
334.5, 69.58458555232802
335, 69.57540190540647
335.5, 69.57565836965841
336, 69.60375704047027
336.5, 69.62911207850108
337, 69.66656836329904
337.5, 69.69206605872847
338, 69.71844341014379
338.5, 69.73510829918077
339, 69.75137289399602
339.5, 69.76885700177586
340, 69.7844755123479
340.5, 69.80318759548479
341, 69.82108142264467
341.5, 69.84913855179589
342, 69.87243780497666
342.5, 69.89885539053924
343, 69.91551343515741
343.5, 69.93123775331682
344, 69.94019875618439
344.5, 69.94383993407237
345, 69.93448970280564
345.5, 69.93413377031811
346, 69.94339175041398
346.5, 69.96813633516172
347, 70.00357035437287
347.5, 70.03586312873448
348, 70.06704633908774
348.5, 70.0845917458356
349, 70.10020879362087
349.5, 70.11892003213327
350, 70.13322587661611
350.5, 70.15190759623056
351, 70.17319622046212
351.5, 70.19958752614166
352, 70.21630240081626
352.5, 70.23242536396275
353, 70.25004493028281
353.5, 70.26557225256433
354, 70.28425483602419
354.5, 70.29112510938813
355, 70.29113387992656
355.5, 70.30270552200487
356, 70.32038592521798
356.5, 70.336600747535
357, 70.35137309774049
357.5, 70.35113834367039
358, 70.35567610167239
358.5, 70.37445161677628
359, 70.38901577353847
359.5, 70.40770713423399
360, 70.41751059636331
360.5, 70.42611309847467
361, 70.43422704017999
361.5, 70.4415369371745
362, 70.44131611416253
362.5, 70.44596121481031
363, 70.4648008673771
363.5, 70.49081862568426
364, 70.53744442936804
364.5, 70.56475445188839
365, 70.59061631560044
365.5, 70.60743099883732
366, 70.62553926204546
366.5, 70.67004106292565
367, 70.70634124720677
367.5, 70.7437597116666
368, 70.76469001477915
368.5, 70.78337427951139
369, 70.80502521875626
369.5, 70.83112102346254
370, 70.85553774548814
370.5, 70.87824700595019
371, 70.88737921580407
371.5, 70.89235239937742
372, 70.89239341259426
372.5, 70.90014951781546
373, 70.91873967323389
373.5, 70.94041039564421
374, 70.96645456935337
374.5, 70.98306351811486
375, 70.99846266318717
375.5, 71.00762033841443
376, 71.01720014080533
376.5, 71.03603781679715
377, 71.05465832372673
377.5, 71.08258467163199
378, 71.09400581538945
378.5, 71.1024192635633
379, 71.1025774101112
379.5, 71.10359301918038
380, 71.1126891367694
380.5, 71.12249157725475
381, 71.14135199902307
381.5, 71.16383693611338
382, 71.20101032771257
382.5, 71.23859855574145
383, 71.28167107038273
383.5, 71.31447819396385
384, 71.34698243044019
384.5, 71.3834655361543
385, 71.41283023444191
385.5, 71.45050276089961
386, 71.47558710169326
386.5, 71.50350148472488
387, 71.5209649004888
387.5, 71.53799864129007
388, 71.5463715461609
388.5, 71.55450049433514
389, 71.56363595095605
389.5, 71.57098358031902
390, 71.5804235478404
390.5, 71.59167973746726
391, 71.61023714059206
391.5, 71.63849451183265
392, 71.67288464442204
392.5, 71.69775539764223
393, 71.72094679493942
393.5, 71.73935344812642
394, 71.76141923309356
394.5, 71.80852902046975
395, 71.84508336986526
395.5, 71.8914709833592
396, 71.91216046685662
396.5, 71.92881996858762
397, 71.95343614173257
397.5, 71.97646102633175
398, 71.99481377093092
398.5, 72.00937902825613
399, 72.02823882362792
399.5, 72.0427209531078
400, 72.06126775430907
400.5, 72.08353745843749
401, 72.10905136762862
401.5, 72.15017598773714
402, 72.18917704107902
402.5, 72.22585447333452
403, 72.24987062875572
403.5, 72.26878450408196
404, 72.29189421443242
404.5, 72.32889825145492
405, 72.36701574480522
405.5, 72.40945499331986
406, 72.43420432784396
406.5, 72.46084309822866
407, 72.5067410861352
407.5, 72.54343173981259
408, 72.5905726486223
408.5, 72.61859803065319
409, 72.6463568772142
409.5, 72.64431832786259
410, 72.63543705132625
410.5, 72.6266757752494
411, 72.62378269895679
411.5, 72.65132949328033
412, 72.67626432274763
412.5, 72.71399052999013
413, 72.74305922225354
413.5, 72.78003219084687
414, 72.81844896506198
414.5, 72.86055906823155
415, 72.90220832626706
415.5, 72.94222939255664
416, 72.98826902399915
416.5, 73.02199184806089
417, 73.0597178304832
417.5, 73.07997407923125
418, 73.0984815595055
418.5, 73.11446408104231
419, 73.13120405449666
419.5, 73.14791958627933
420, 73.16391443711181
420.5, 73.18241265552285
421, 73.20262893461357
421.5, 73.24035632959797
422, 73.27420342087025
422.5, 73.32023351786091
423, 73.34685639877027
423.5, 73.37165602128889
424, 73.37999098401697
424.5, 73.38804029320139
425, 73.39734915343341
425.5, 73.4132401746204
426, 73.45096305056481
426.5, 73.4892190188001
427, 73.5444246696162
427.5, 73.59921299551766
428, 73.65752259564597
428.5, 73.7166585176424
429, 73.76947453663608
429.5, 73.81572850167456
430, 73.85203993534145
430.5, 73.8992323799026
431, 73.9452105055012
431.5, 74.00947387277749
432, 74.05203926753346
432.5, 74.09304566698839
433, 74.1096336573786
433.5, 74.12861705627796
434, 74.16564898321464
434.5, 74.19786712743631
435, 74.24499444118226
435.5, 74.27216529691421
436, 74.29976053599418
436.5, 74.32396268921087
437, 74.34892301517195
437.5, 74.39110060406237
438, 74.43379394393624
438.5, 74.49859810018279
439, 74.54363218088884
439.5, 74.59078431739209
440, 74.61315574292638
440.5, 74.63157032694731
441, 74.64776662467499
441.5, 74.66448705851518
442, 74.6986374522077
442.5, 74.72868034844811
443, 74.75653248845899
443.5, 74.78097252172863
444, 74.81839632223004
444.5, 74.8592010906657
445, 74.9133832766007
445.5, 74.94671390906458
446, 74.98015543602777
446.5, 75.01425300060706
447, 75.04588263097321
447.5, 75.08302098921597
448, 75.11194782449932
448.5, 75.14953907803
449, 75.17015667362223
449.5, 75.18792356721293
450, 75.19675158738237
450.5, 75.20568664037762
451, 75.23984301694978
451.5, 75.27303354767558
452, 75.3195199614813
452.5, 75.35864291952606
453, 75.41486166183599
453.5, 75.46625127417732
454, 75.52907208427584
454.5, 75.57724450589374
455, 75.62679586123913
455.5, 75.66976993891817
456, 75.70746745977534
456.5, 75.74465003828811
457, 75.77038129758787
457.5, 75.79862965236886
458, 75.80627524489203
458.5, 75.80593668411579
459, 75.83426295967807
459.5, 75.86828153250663
460, 75.9374031732232
460.5, 75.9966859333171
461, 76.05249028197429
461.5, 76.08921312667447
462, 76.12681172980994
462.5, 76.14726417571521
463, 76.16488293834216
463.5, 76.1950132197828
464, 76.22851314790351
464.5, 76.28031837284476
465, 76.3273853780136
465.5, 76.38322181403028
466, 76.41670257200994
466.5, 76.44493441777146
467, 76.45755579613177
467.5, 76.46624159416099
468, 76.48137426345104
468.5, 76.49809440749304
469, 76.52385099760723
469.5, 76.55110229926
470, 76.59773649693808
470.5, 76.63388503888837
471, 76.68077049983809
471.5, 76.7141342864072
472, 76.74954476446935
472.5, 76.78868637356062
473, 76.82997632081675
473.5, 76.88216359394242
474, 76.92719090328558
474.5, 76.97374948692642
475, 76.99620166155411
475.5, 77.00566593250927
476, 77.00814485566008
476.5, 77.00797801268627
477, 77.04457488331214
477.5, 77.08607019680551
478, 77.14711520368945
478.5, 77.1998635002851
479, 77.25586765704979
479.5, 77.29880106513318
480, 77.35494344928344
480.5, 77.41250292778324
481, 77.48342838674141
481.5, 77.54751190580197
482, 77.61173453949299
482.5, 77.66415300683342
483, 77.70902889615205
483.5, 77.75564703591184
484, 77.77791219860575
484.5, 77.78746022251241
485, 77.76752767885836
485.5, 77.73171547147145
486, 77.70705237362375
486.5, 77.68459140482135
487, 77.69318854710534
487.5, 77.70501101852943
488, 77.7330863846039
488.5, 77.75483837792105
489, 77.78293276668832
489.5, 77.80073421420371
490, 77.81817919456645
490.5, 77.856774576885
491, 77.8971772081691
491.5, 77.94144881136872
492, 77.97197578581141
492.5, 77.98125302650081
493, 77.98792171817486
493.5, 77.99719793796328
494, 78.02774288463331
494.5, 78.07199432948373
495, 78.13506628683609
495.5, 78.19839579171362
496, 78.25111665742683
496.5, 78.29785895884524
497, 78.35399994947937
497.5, 78.39724374880538
498, 78.45336824376444
498.5, 78.48870961257788
499, 78.52350442259784
499.5, 78.55594646642025
500, 78.58872244726213
500.5, 78.63290926818841
501, 78.6695212753856
501.5, 78.706905046004
502, 78.72806327899453
502.5, 78.74675885412589
503, 78.7740232832018
503.5, 78.80912010592668
504, 78.85699540530582
504.5, 78.90443631354447
505, 78.94870143889679
505.5, 78.9852881880701
506, 79.02272167764161
506.5, 79.05134009247449
507, 79.0886770473019
507.5, 79.12583154643522
508, 79.1694506640733
508.5, 79.21801315481136
509, 79.26666521364557
509.5, 79.32887649178241
510, 79.37849443794845
510.5, 79.42522924863123
511, 79.44976789362629
511.5, 79.46851268486263
512, 79.47239667019365
512.5, 79.4721775280231
513, 79.47230585523144
513.5, 79.47583107017705
514, 79.52006792524355
514.5, 79.56337256212755
515, 79.62900790408744
515.5, 79.67580420320712
516, 79.73180196290748
516.5, 79.76095437430335
517, 79.78662017963521
517.5, 79.80274507950979
518, 79.82185137801602
518.5, 79.86719893452944
519, 79.9110399073655
519.5, 79.98628733977573
520, 80.04059941351053
520.5, 80.10586439223394
521, 80.14876381939307
521.5, 80.19174872213176
522, 80.2168559135133
522.5, 80.23946683521903
523, 80.24866608837073
523.5, 80.2581573422831
524, 80.27697945509345
524.5, 80.29156925449062
525, 80.31019633038196
525.5, 80.3198738428644
526, 80.32835325135706
526.5, 80.3440868573035
527, 80.36229781008532
527.5, 80.39860559223759
528, 80.42342253895706
528.5, 80.44221419073504
529, 80.44067626742533
529.5, 80.42215785939973
530, 80.40651118397656
530.5, 80.3892823311431
531, 80.39648232792649
531.5, 80.40658156456563
532, 80.43388366695045
532.5, 80.45610315597992
533, 80.48440294267975
533.5, 80.51438367927094
534, 80.56081619747768
534.5, 80.60017699576284
535, 80.64302846493699
535.5, 80.65987204600204
536, 80.67723264094954
536.5, 80.70464110470354
537, 80.72916047433739
537.5, 80.76682311787249
538, 80.7876259149577
538.5, 80.80624528457815
539, 80.82212147277232
539.5, 80.83913848142357
540, 80.87169699986936
540.5, 80.90284061910485
541, 80.93027280395796
541.5, 80.9471538796064
542, 80.95658772122437
542.5, 80.95977161563033
543, 80.95979089689732
543.5, 80.95348436038213
544, 80.94486738163414
544.5, 80.93652779749554
545, 80.92962178504351
545.5, 80.92959484222735
546, 80.92967665804723
546.5, 80.92967744366531
547, 80.92982694981812
547.5, 80.92981443953927
548, 80.91701584221661
548.5, 80.89988237654667
549, 80.86696706402005
549.5, 80.83604461296191
550, 80.80856195306235
550.5, 80.79453104440036
551, 80.79451213564019
551.5, 80.79877702437736
552, 80.80801190550568
552.5, 80.81597491535966
553, 80.8244009114111
553.5, 80.84100394801499
554, 80.85576614668125
554.5, 80.86485282832172
555, 80.85879660251796
555.5, 80.82113221872929
556, 80.79611769385636
556.5, 80.76839078190953
557, 80.77036779412404
557.5, 80.7793434846248
558, 80.75480746845943
558.5, 80.728292015809
559, 80.68234069012372
559.5, 80.6483820429049
560, 80.61064465491253
560.5, 80.58581359242731
561, 80.55808785464926
561.5, 80.54068646667338
562, 80.52403927659404
562.5, 80.49904008391357
563, 80.4750597445741
563.5, 80.44741437507447
564, 80.42552799482453
564.5, 80.39723553731454
565, 80.37967422761315
565.5, 80.36122590489114
566, 80.35843675521443
566.5, 80.35869116156309
567, 80.35064533720562
567.5, 80.33854092501775
568, 80.30163151663012
568.5, 80.26661451583745
569, 80.21005413189525
569.5, 80.17519498827149
570, 80.13831806293281
570.5, 80.11962883325516
571, 80.10318555380155
571.5, 80.08582727989679
572, 80.07700229130245
572.5, 80.10469835584243
573, 80.13264878213448
573.5, 80.17976064343057
574, 80.20264412085999
574.5, 80.22108685041518
575, 80.22363493752447
575.5, 80.22333144223283
576, 80.20655466536972
576.5, 80.18922339535749
577, 80.16148954805385
577.5, 80.13956738224572
578, 80.1112774751372
578.5, 80.09391564190531
579, 80.07552946291837
579.5, 80.066271011823
580, 80.05817812928989
580.5, 80.05843011424174
581, 80.05536044628947
581.5, 80.03678919986952
582, 80.01312477727015
582.5, 79.96598193656173
583, 79.91978550671776
583.5, 79.85565895479597
584, 79.82002586171977
584.5, 79.78796955010812
585, 79.8048361327358
585.5, 79.82363858092957
586, 79.86065184490985
586.5, 79.88383899874887
587, 79.90270896368389
587.5, 79.90801497041753
588, 79.90801289612455
588.5, 79.89416321688677
589, 79.87721102795823
589.5, 79.84303954839868
590, 79.81303770752295
590.5, 79.78524698636369
591, 79.76966437166925
591.5, 79.7602163681065
592, 79.75755842165096
592.5, 79.75764883003544
593, 79.76456429240865
593.5, 79.77288892214017
594, 79.78186730178345
594.5, 79.78317031152503
595, 79.75527629482825
595.5, 79.72736580105504
596, 79.68057658058818
596.5, 79.63170200807762
597, 79.56874719589926
597.5, 79.46502917673106
598, 79.34943502206367
598.5, 79.25460197245347
599, 79.17960896616361
599.5, 79.14256234944051
600, 79.13279045630314
600.5, 79.15135004380419
601, 79.18195561155827
601.5, 79.22712370958914
602, 79.19639062155296
602.5, 79.15476252350682
603, 79.09431531695137
603.5, 79.0444284970874
604, 79.0072244452653
604.5, 78.97865014413658
605, 78.94114354803304
605.5, 78.9102584224425
606, 78.87451274968177
606.5, 78.84287868108107
607, 78.80984944813015
607.5, 78.77564046077512
608, 78.74061926867283
608.5, 78.68478991431697
609, 78.64792755384163
609.5, 78.61039315631655
610, 78.57940533471813
610.5, 78.54375903173388
611, 78.49770505508228
611.5, 78.44773632478821
612, 78.3785296406977
612.5, 78.31758075240526
613, 78.25238549464575
613.5, 78.2056836230145
614, 78.14957747425115
614.5, 78.07645420728204
615, 77.9780868660638
615.5, 77.88351074253309
616, 77.78709541069212
616.5, 77.73516023936631
617, 77.68977844495195
617.5, 77.6430614135344
618, 77.59072591418344
618.5, 77.49718820270166
619, 77.40371255528501
619.5, 77.28795188761475
620, 77.21343144184243
620.5, 77.14149252680971
621, 77.10577079930832
621.5, 77.09361226110177
622, 77.14979176153264
622.5, 77.20761552666279
623, 77.30143823130203
623.5, 77.33520041463684
624, 77.35216549308116
624.5, 77.324060299438
625, 77.29075622447878
625.5, 77.23838346375923
626, 77.1934992426273
626.5, 77.14686525104543
627, 77.11786712705907
627.5, 77.08973808324524
628, 77.06630665415035
628.5, 77.03986637337607
629, 76.97891825738479
629.5, 76.91442169846076
630, 76.85301976072063
630.5, 76.80436477197709
631, 76.766998101744
631.5, 76.73153704481862
632, 76.67543096556888
632.5, 76.62330295353377
633, 76.56146943366105
633.5, 76.52014039255184
634, 76.48099755066853
634.5, 76.46343941628442
635, 76.4497735900713
635.5, 76.44032774686391
636, 76.41220585691512
636.5, 76.3469013408769
637, 76.27009588539416
637.5, 76.17289579080368
638, 76.11421904479755
638.5, 76.05857218913566
639, 76.01484069681099
639.5, 75.97371195513804
640, 75.9175545087992
640.5, 75.87058566368121
641, 75.80508179321632
641.5, 75.76769428924244
642, 75.73286995527702
642.5, 75.73081912671137
643, 75.73077387913061
643.5, 75.73140673275621
644, 75.71838943164954
644.5, 75.66208063030746
645, 75.61095401819193
645.5, 75.53612804174807
646, 75.50250788448021
646.5, 75.47674966116253
647, 75.47540571819724
647.5, 75.47659974710265
648, 75.49489076118952
648.5, 75.49707505696229
649, 75.45945640788054
649.5, 75.42292166333925
650, 75.36690546176905
650.5, 75.32017626401075
651, 75.26774400345117
651.5, 75.25751881941756
652, 75.25265501080158
652.5, 75.28880418959864
653, 75.30385338104239
653.5, 75.27553363626603
654, 75.2424603379739
654.5, 75.18653682720127
655, 75.12195492560527
655.5, 75.04338798508533
656, 74.93898788874544
656.5, 74.83719368877004
657, 74.74832326986407
657.5, 74.67766060483585
658, 74.61215948849409
658.5, 74.56161592334114
659, 74.49624270842845
659.5, 74.47697316210227
660, 74.46889393244236
660.5, 74.48407388777089
661, 74.49708900357379
661.5, 74.47948730723948
662, 74.45934614877412
662.5, 74.42176896161526
663, 74.38500616704474
663.5, 74.32908772034187
664, 74.29408291236331
664.5, 74.25961344886562
665, 74.25816186561016
665.5, 74.258963287267
666, 74.26797438664521
666.5, 74.27308813184787
667, 74.27298041843922
667.5, 74.24592836787339
668, 74.18089611836268
668.5, 74.08984469196218
669, 73.97695193671879
669.5, 73.8944740045697
670, 73.8177204634249
670.5, 73.77212481803953
671, 73.74273102387113
671.5, 73.72390857024396
672, 73.71750298286868
672.5, 73.71747134379576
673, 73.69913101407947
673.5, 73.67302926974375
674, 73.63293457033666
674.5, 73.59234018061962
675, 73.54678246560768
675.5, 73.51007207754635
676, 73.4630212996445
676.5, 73.43885579804711
677, 73.42018700806811
677.5, 73.3982228535775
678, 73.37240063019735
678.5, 73.33969414284269
679, 73.31042249472188
679.5, 73.30132797599981
680, 73.30633016182259
680.5, 73.3440084619506
681, 73.38120968956937
681.5, 73.43692734883602
682, 73.48419762056544
682.5, 73.53557343371163
683, 73.56148384963959
683.5, 73.5782640658989
684, 73.54189523040277
684.5, 73.5095498601479
685, 73.46247344207869
685.5, 73.43870907230199
686, 73.42006556422675
686.5, 73.39164165867572
687, 73.35736056294877
687.5, 73.30813225351702
688, 73.2631022455343
688.5, 73.23560452670111
689, 73.21888714460805
689.5, 73.2094238605066
690, 73.19798712039078
690.5, 73.17945313847056
691, 73.1573220160792
691.5, 73.13168889653983
692, 73.11498291206978
692.5, 73.10001072622644
693, 73.09086832743982
693.5, 73.08881149750744
694, 73.09827900516439
694.5, 73.12257731965967
695, 73.16881723341915
695.5, 73.20839904533715
696, 73.25080844957166
696.5, 73.27588836752564
697, 73.29885156493039
697.5, 73.3171606892483
698, 73.32381757458889
698.5, 73.3143764261726
699, 73.29425571079922
699.5, 73.2572907191672
700, 73.21913441080645
700.5, 73.17674942535058
701, 73.15142308258376
701.5, 73.13105897979459
702, 73.13106927427044
702.5, 73.13931894270648
703, 73.16758730292477
703.5, 73.18971285730697
704, 73.21740792948282
704.5, 73.2152030932715
705, 73.2064059836034
705.5, 73.17325010780354
706, 73.14128246652587
706.5, 73.10451029893053
707, 73.08075075775022
707.5, 73.06187088550732
708, 73.05177002164102
708.5, 73.04249606535258
709, 73.02792671977005
709.5, 73.01106177661067
710, 72.98615413134686
710.5, 72.96084005150863
711, 72.92398756643165
711.5, 72.89471426961379
712, 72.85697363234684
712.5, 72.82763630478505
713, 72.79076797784366
713.5, 72.77204857037555
714, 72.75555823457739
714.5, 72.73893275433436
715, 72.72157887220185
715.5, 72.69390723841742
716, 72.67193459780484
716.5, 72.64361706884657
717, 72.6170923940751
717.5, 72.58028166454898
718, 72.55497332649396
718.5, 72.53010532601631
719, 72.5131022940775
719.5, 72.50003908980781
720, 72.50016004355724
720.5, 72.51769261446594
721, 72.57431600189703
721.5, 72.65536758462622
722, 72.7838639185203
722.5, 72.85531998435248
723, 72.92049885966536
723.5, 72.87850409026167
724, 72.83316653784415
724.5, 72.74995654784406
725, 72.68413214883869
725.5, 72.59927484943731
726, 72.5517121006417
726.5, 72.50577790909063
727, 72.49958557542612
727.5, 72.5002369050187
728, 72.50904998953827
728.5, 72.51244182308149
729, 72.49404027703252
729.5, 72.49124359278454
730, 72.5100948139205
730.5, 72.54378788315832
731, 72.59866805331369
731.5, 72.62628075483637
732, 72.65025730350318
732.5, 72.64224717738695
733, 72.62661582294939
733.5, 72.57107175214607
734, 72.53314387393165
734.5, 72.49542422189626
735, 72.48051049922121
735.5, 72.47124191652937
736, 72.45621498263962
736.5, 72.43952462590133
737, 72.41408917045231
737.5, 72.3887607245861
738, 72.35164859811756
738.5, 72.32269452878805
739, 72.28513789541425
739.5, 72.25947856765804
740, 72.23257871708462
740.5, 72.23672356127683
741, 72.24529065807462
741.5, 72.27082710799918
742, 72.29614410308888
742.5, 72.33331571005729
743, 72.36527089376163
743.5, 72.41214962163654
744, 72.45067851391958
744.5, 72.49553061416522
745, 72.53480641485011
745.5, 72.57572635102935
746, 72.59311914120309
746.5, 72.60384775648704
747, 72.59448356094569
747.5, 72.57763526585985
748, 72.54013489998361
748.5, 72.51450271504785
749, 72.48773618913683
749.5, 72.47102460381554
750, 72.45370739676282
750.5, 72.41093379938403
751, 72.368131129763
751.5, 72.302994221336
752, 72.25230280123293
752.5, 72.18656508601396
753, 72.14832979202984
753.5, 72.11283951776937
754, 72.12383185859443
754.5, 72.14075623103524
755, 72.17579855197712
755.5, 72.19819214062994
756, 72.18875036949107
756.5, 72.16516747466018
757, 72.10906097163658
757.5, 72.05232623566204
758, 71.980741064718
758.5, 71.96743179796432
759, 71.96059325643488
759.5, 71.995565862439
760, 72.02134397504199
760.5, 72.03068308194932
761, 72.04405714056082
761.5, 72.07205144741008
762, 72.11134750170896
762.5, 72.16498109688244
763, 72.2343454127739
763.5, 72.30745085796654
764, 72.36902698501987
764.5, 72.40695895419285
765, 72.38818250349574
765.5, 72.36626822207805
766, 72.32870712185563
766.5, 72.31946720891425
767, 72.31981670915476
767.5, 72.35624011438347
768, 72.3970265407086
768.5, 72.44099829960105
769, 72.47045488305463
769.5, 72.47035918563961
770, 72.46330044528618
770.5, 72.44462535341842
771, 72.42365080878683
771.5, 72.39700110763555
772, 72.36570656546922
772.5, 72.33393510857276
773, 72.31611771789557
773.5, 72.30838785098899
774, 72.3271765635467
774.5, 72.35202926717932
775, 72.39874894714187
775.5, 72.44852885625485
776, 72.51058646693653
776.5, 72.55182016122416
777, 72.58988922102337
777.5, 72.58256173719478
778, 72.54641797717898
778.5, 72.40592403691426
779, 72.27576958256026
779.5, 72.07915475870946
780, 71.95526425482363
780.5, 71.83249869628877
781, 71.80224059206104
781.5, 71.782575883884
782, 71.84391622795785
782.5, 71.90032332957209
783, 71.97511676695324
783.5, 72.02924652290582
784, 72.09479879767613
784.5, 72.13790308242635
785, 72.18170613263783
785.5, 72.18441081009837
786, 72.18396552116975
786.5, 72.17464412618232
787, 72.17749437598505
787.5, 72.21496957314906
788, 72.23707703514765
788.5, 72.25589251143896
789, 72.24870432356452
789.5, 72.23076200872502
790, 72.20692671920007
790.5, 72.18219929719427
791, 72.14688060002582
791.5, 72.11794559336948
792, 72.08985501117576
792.5, 72.06116760141148
793, 72.0145065014475
793.5, 71.96403018171726
794, 71.90259644654957
794.5, 71.85345222159323
795, 71.80640475532778
795.5, 71.77083092939961
796, 71.74639926644981
796.5, 71.7371427142828
797, 71.73757812218115
797.5, 71.74688084366903
798, 71.75465071152102
798.5, 71.76338891195199
799, 71.76374397165996
799.5, 71.76185292212752
800, 71.73549245612855
800.5, 71.70773987827683
800.9999999999999, 71.66086138989179
801.5, 71.62500111317023
802, 71.5783600090898
802.5, 71.52165513899234
803, 71.45174012723318
803.4999999999999, 71.39423450430658
804, 71.34037485036659
804.5, 71.30516268526324
805, 71.26943032267565
805.5, 71.21314464887071
806, 71.1658600196936
806.5, 71.10054629335934
806.9999999999999, 71.06353266269242
807.5, 71.02913139837945
808, 71.01203583565528
808.5, 70.99607817144256
809, 70.97851446301142
809.4999999999999, 70.9582758266263
810, 70.92071653221468
810.5, 70.88836685526658
811, 70.84182249261804
811.5, 70.76663548061126
812, 70.67088138153494
812.5, 70.56583981723684
813, 70.46533149179174
813.5, 70.40144468926974
814, 70.3458567264454
814.5, 70.26114318320123
815, 70.1916944156581
815.4999999999999, 70.09854582521348
816, 70.0321007677947
816.5, 69.96329082662265
817, 69.91376170263761
817.5, 69.8677423725501
818, 69.84032810873012
818.5, 69.8184517703683
819, 69.79010471994661
819.5, 69.74455523936331
820, 69.66092245043895
820.5, 69.57195505969007
821, 69.46833671933867
821.4999999999999, 69.40944615291195
822, 69.3584827675136
822.5, 69.34923291933917
823, 69.34947930610795
823.5, 69.36824855820012
824, 69.37102992972358
824.5, 69.36180562459022
825, 69.31693349452775
825.5, 69.25629410070293
826, 69.18322117375311
826.5, 69.11135163315357
827, 69.03833861711848
827.4999999999999, 68.98454976450746
828, 68.92798752922721
828.5, 68.88425201262595
829, 68.82849878745415
829.5, 68.78739429714186
829.9999999999999, 68.74472629533985
830.5, 68.71991532523296
831, 68.69450975747557
831.5, 68.65804577372418
832, 68.63605768821174
832.5, 68.6266025519645
833, 68.61964824460426
833.4999999999999, 68.61035090390955
834, 68.57107554350094
834.5, 68.51936938401762
835, 68.47770481915353
835.5, 68.44186690944488
835.9999999999999, 68.43275194552314
836.5, 68.44090704212194
837, 68.48799310909678
837.5, 68.52458762608549
838, 68.57093984148078
838.5, 68.58535667535133
839, 68.59326493389986
839.5, 68.64980132631324
840, 68.70963834718488
840.5, 68.80152063414539
841, 68.90071945656456
841.5, 69.08922687369545
841.9999999999999, 69.2314659845058
842.5, 69.40742297536119
843, 69.46871882400777
843.5, 69.50942397043427
844, 69.5668212559444
844.5, 69.62549322448491
845, 69.70806954628418
845.5, 69.77137666465941
846, 69.84679669131873
846.5, 69.88814687100619
847, 69.92521530195084
847.5, 69.92458877916755
847.9999999999999, 69.91574860051155
848.5, 69.85017562320563
849, 69.78238151444499
849.5, 69.68139286712868
850, 69.61148301152444
850.4999999999999, 69.5453977768239
851, 69.49440337443687
851.5, 69.42967896195061
852, 69.36749187138209
852.5, 69.3000206444094
853, 69.25663924719338
853.5, 69.23612087320886
853.9999999999999, 69.32803840310723
854.5, 69.41575041310527
855, 69.55705889469372
855.5, 69.61376325253586
856, 69.64163212728192
856.4999999999999, 69.60642072304319
857, 69.55516703453148
857.5, 69.47980181383406
858, 69.41064722001508
858.5, 69.34622598063835
859, 69.31212963910995
859.5, 69.30274636569553
859.9999999999999, 69.34028475547494
860.5, 69.42305772459999
861, 69.5013450744296
861.5, 69.58511995879137
862, 69.60257463751944
862.4999999999999, 69.60762241786198
863, 69.55242708811986
863.5, 69.51667517589804
864, 69.48843871741335
864.5, 69.50710371534124
865, 69.56223801701253
865.5, 69.64367693270397
866, 69.73583286074778
866.5, 69.82872276204745
867, 69.91065059984437
867.5, 69.9755124521508
868, 70.04067064891127
868.4999999999999, 70.15381395801
869, 70.24166597526703
869.5, 70.35199254038912
870, 70.42791800296487
870.5, 70.50205562520017
871, 70.54468091828768
871.5, 70.5771962657387
872, 70.57743707088702
872.5, 70.60061402769723
873, 70.67599088812764
873.5, 70.7439659914206
874, 70.83571237033655
874.4999999999999, 70.89566434999101
875, 70.95321023309057
875.5, 71.01253756864722
876, 71.0666299680198
876.5, 71.12235402298685
876.9999999999999, 71.1840725066109
877.5, 71.29727754048677
878, 71.43262045290652
878.5, 71.6340867676459
879, 71.78359628050926
879.5, 71.93078747821578
880, 72.03170275495344
880.4999999999999, 72.13799144216668
881, 72.31416584132663
881.5, 72.45897644407836
882, 72.65691404183869
882.5, 72.78255993731011
882.9999999999999, 72.9199315673305
883.5, 72.99265667347373
884, 73.0581535355776
884.5, 73.159629063815
885, 73.26574110064844
885.5, 73.4418940937843
886, 73.55831336073005
886.4999999999999, 73.67112124339641
887, 73.74371900785007
887.5, 73.81508299689268
888, 73.9821402172997
888.5, 74.17679607539681
888.9999999999999, 74.53712174639338
889.5, 74.84999172792729
890, 75.13766558858204
890.5, 75.31696834308055
891, 75.47661688400429
891.5, 75.60803698863934
892, 75.76039437605192
892.5, 75.95059916772838
893, 76.16187849627622
893.5, 76.53148881420657
894, 76.85639692237758
894.5, 77.18159415543695
894.9999999999999, 77.40167953938256
895.5, 77.63631316745101
896, 77.82408029638758
896.5, 78.03876791419188
897, 78.20006687173081
897.4999999999999, 78.36549429086345
898, 78.52959246108743
898.5, 78.66526362933705
899, 78.76779395810269
899.5, 78.87484397601536
900, 79.06209135442909
900.5, 79.23719602195399
900.9999999999999, 79.45199860787375
901.5, 79.57105566600755
902, 79.68684893804554
902.5, 79.80748433769381
903, 79.91754385380288
903.4999999999999, 80.0478887060013
904, 80.14210945885306
904.5, 80.25463704006626
905, 80.34747063791255
905.5, 80.45437342779306
906, 80.55679707437749
906.5, 80.66369325222604
906.9999999999999, 80.77625439218501
907.5, 80.87461292166643
908, 80.97712001780037
908.5, 81.0554844361012
909, 81.15828738647592
909.4999999999999, 81.29698456570624
910, 81.48468620221007
910.5, 81.65182281049425
911, 81.82181474738032
911.5, 81.95115291110676
912, 82.0783602204842
912.5, 82.26491191423942
912.9999999999999, 82.40233640787126
913.5, 82.5710272685955
914, 82.71071946179326
914.5, 82.8702703354505
915, 83.07211892825613
915.4999999999999, 83.28284103755496
916, 83.47427929852087
916.5, 83.64078253616952
917, 83.81812497957127
917.5, 83.96091982611807
918, 84.15743079887469
918.5, 84.35335908835943
919, 84.59277989156553
919.5, 84.87465757517751
920, 85.16099644164423
920.5, 85.33672175305996
921, 85.46166693983167
921.4999999999999, 85.49894697856179
922, 85.5508100909648
922.5, 85.65367383794158
923, 85.73902755387795
923.5, 85.83613332095635
923.9999999999999, 85.92460483836298
924.5, 86.01676921572592
925, 86.16539564581448
925.5, 86.2979789593327
926, 86.45688693179703
926.5, 86.58638637280607
927, 86.76428801966343
927.4999999999999, 86.88394983847645
928, 87.00677949493925
928.5, 87.08228726431506
929, 87.15887256568456
929.5, 87.29935397005939
929.9999999999999, 87.41970490720105
930.5, 87.55049358462435
931, 87.63626123491485
931.5, 87.72975035141306
932, 87.84721757117524
932.5, 87.99725316988585
933, 88.14956134398035
933.4999999999999, 88.30133668614815
934, 88.44191805093331
934.5, 88.56436531018815
935, 88.70453847461339
935.5, 88.787253122563
935.9999999999999, 88.86227920729799
936.5, 88.89641693387604
937, 88.92202661457418
937.5, 89.01473413951835
938, 89.11404603692834
938.5, 89.26421143896147
939, 89.38752126008835
939.4999999999999, 89.5090488140181
940, 89.59106598607045
940.5, 89.68454667379962
941, 89.77413391494328
941.5, 89.87922848648299
941.9999999999999, 89.96905937576811
942.5, 90.05742218239634
943, 90.15461124466422
943.5, 90.237805273018
944, 90.33139046001047
944.4999999999999, 90.3988033580271
945, 90.48274643047512
945.5, 90.61118610529542
946, 90.77794450248376
946.5, 90.89395380570598
947, 90.99953011840526
947.5, 91.0339578807294
947.9999999999999, 91.08358057256201
948.5, 91.1963247691422
949, 91.31386173506918
949.5, 91.50047878574973
950, 91.60983774955496
950.4999999999999, 91.7133326703862
951, 91.78812109305314
951.5, 91.86290092406868
952, 91.9787416271389
952.5, 92.0677748176776
953, 92.14266258216611
953.5, 92.21467554286076
953.9999999999999, 92.32644819611188
954.5, 92.46794823692193
955, 92.64220071121402
955.5, 92.79818093313506
956, 92.94514376065159
956.4999999999999, 93.06102408248549
957, 93.15236607183384
957.5, 93.23673377242763
958, 93.33214271224425
958.5, 93.49041011650404
959, 93.6416135729816
959.5, 93.8149374937455
959.9999999999999, 93.93049894638361
960.5, 94.0411286742411
961, 94.13202695357202
961.5, 94.19392832472303
962, 94.24109988610695
962.4999999999999, 94.29288600127305
963, 94.37659742796275
963.5, 94.48351166294489
964, 94.61356053698123
964.5, 94.69566861406028
965, 94.7811080726573
965.5, 94.9083652387379
965.9999999999999, 95.00925030036136
966.5, 95.13158774471329
967, 95.20165512283053
967.5, 95.2669158571321
968, 95.35881381170756
968.4999999999999, 95.4711540376733
969, 95.59311821016007
969.5, 95.71083246537916
970, 95.81118394381053
970.5, 95.88447994279296
970.9999999999999, 95.95984240349054
971.5, 96.00950229174168
972, 96.06533390048189
972.5, 96.14982748283113
973, 96.2532063889799
973.5, 96.39162745866257
974, 96.52184018837073
974.4999999999999, 96.61314932724817
975, 96.66400366678548
975.5, 96.67344809095337
976, 96.66384791570522
976.5, 96.63607477270575
976.9999999999999, 96.6593462524961
977.5, 96.69845136636742
978, 96.79863185852022
978.5, 96.89680203395329
979, 96.99483381985131
979.5, 97.06958807133742
980, 97.15649624698916
980.4999999999999, 97.24571063715719
981, 97.38026371433062
981.5, 97.48735472929083
982, 97.60052410002889
982.5, 97.69446952855819
982.9999999999999, 97.78753306969537
983.5, 97.89909202069867
984, 97.9764011419964
984.5, 98.0465799410256
985, 98.09156566539562
985.5, 98.14043779537725
986, 98.18536541731841
986.4999999999999, 98.23413401365877
987, 98.31553838419259
987.5, 98.39861891868952
988, 98.51226446467197
988.5, 98.58436966489558
988.9999999999999, 98.63268499695639
989.5, 98.63070771298833
990, 98.5940896501315
990.5, 98.59723221278146
991, 98.60957614217169
991.4999999999999, 98.6728649881156
992, 98.73585123493106
992.5, 98.81441924801219
993, 98.86506461800383
993.5, 98.90295912252495
994, 98.90270864787925
994.5, 98.8769796926715
994.9999999999999, 98.85596194631262
995.5, 98.83382771342413
996, 98.82518980585478
996.5, 98.81723933188913
997, 98.81014321213448
997.4999999999999, 98.81570602813092
998, 98.847686933281
998.5, 98.88397436494849
999, 98.93817604817052
999.5, 98.92719181375453
1000, 98.90084158514102
1000.5, 98.91646317088428
1000.9999999999999, 98.94295924803941
1001.5, 99.03565075452646
1002, 99.10685465274105
1002.5, 99.19169468005022
1003, 99.22699708640474
1003.4999999999999, 99.24464404140222
1004, 99.15805821253116
1004.5, 99.04213167474222
1005, 98.99915402261556
1005.5, 98.97471176339207
1006, 99.03542106218389
1006.5, 99.08838551425764
1006.9999999999999, 99.16384048221389
1007.5, 99.21845774820612
1008, 99.28286383771024
1008.5, 99.27366847910824
1009, 99.2491954159587
1009.4999999999999, 99.20214988907124
1010, 99.16045090166637
1010.5, 99.12689342222211
1011, 99.11432267619708
1011.5, 99.12567258257086
1012, 99.15464864141018
1012.5, 99.20675219267764
1012.9999999999999, 99.26349593129744
1013.5, 99.32499209106184
1014, 99.3653055452145
1014.5, 99.40084889543071
1015, 99.42857692275054
1015.4999999999999, 99.4473650968366
1016, 99.46621106814187
1016.5, 99.4669661761021
1017, 99.45784522966477
1017.5, 99.44986488912289
1017.9999999999999, 99.441626379939
1018.5, 99.44153725521728
1019, 99.44300245119648
1019.5, 99.45224702781981
1020, 99.4595928279974
1020.5, 99.46901454732242
1021, 99.47156729796731
1021.4999999999999, 99.47161602528776
1022, 99.47838998570573
1022.5, 99.48659783642104
1023, 99.47865233535961
1023.5, 99.46306416698737
1023.9999999999999, 99.40744933694836
1024.5, 99.35495298171757
1025, 99.27190703147429
1025.5, 99.20807422268535
1026, 99.12911365645888
1026.5, 99.08432941396507
1027, 99.04337401993443
1027.5, 99.00877657529777
1028, 98.96597207561729
1028.5, 98.86980307377866
1029, 98.79120013425987
1029.5, 98.68503141515762
1030, 98.6250220805706
1030.5, 98.56440391599656
1031, 98.49963801999739
1031.5, 98.43192115649019
1032, 98.37543620568549
1032.5, 98.3324193966897
1033, 98.32241862714532
1033.5, 98.32164359024263
1034, 98.3317774099882
1034.5, 98.33652259693054
1035, 98.33987743660357
1035.5, 98.3422389836271
1036, 98.34432852340218
1036.5, 98.32797493582606
1037, 98.3004554247872
1037.5, 98.21663958276865
1038, 98.12314583310982
1038.5, 97.95425176645938
1039, 97.84665124665051
1039.5, 97.73957425473549
1040, 97.72902014185829
1040.5, 97.7286803399117
1041, 97.72890597346598
1041.5, 97.72543351670448
1042, 97.70674694786295
1042.5, 97.67991232426374
1043, 97.62388200279075
1043.5, 97.55174719615634
1044, 97.45282031366317
1044.5, 97.39407449393359
1045, 97.33632042681424
1045.5, 97.28487005649355
1046, 97.23589603416526
1046.5, 97.1708693598978
1047, 97.13950938819065
1047.5, 97.1299710970396
1048, 97.13251172505619
1048.5, 97.141712200939
1049, 97.09978621312311
1049.5, 97.04959496647399
1050, 96.97106322598118
1050.5, 96.91485108900585
1051, 96.90547890818804
1051.5, 96.88299927390624
1052, 96.82705550969433
1052.5, 96.74357628509269
1053, 96.62707941151349
1053.5, 96.53098260751797
1054, 96.43335259502024
1054.5, 96.35635800167326
1055, 96.27263000608923
1055.5, 96.12341918001823
1056, 96.00692642883193
1056.5, 95.85651112125754
1057, 95.81866896466902
1057.5, 95.82022108921856
1058, 95.87098940076409
1058.5, 95.92673561698955
1059, 95.95333446397522
1059.5, 95.96541001253344
1060, 95.93714247252318
1060.5, 95.87864982929055
1061, 95.74785946603872
1061.5, 95.60159813763764
1062, 95.41465159454046
1062.5, 95.27577296228166
1063, 95.13315778122161
1063.5, 94.90660393308465
1064, 94.70934883128832
1064.5, 94.49496450574804
1065, 94.37743110787409
1065.5, 94.29281188582289
1066, 94.23932078763205
1066.5, 94.18654554424135
1067, 94.1532463585024
1067.5, 94.12061589032517
1068, 94.08574270991308
1068.5, 94.05448216547363
1069, 94.01711991653825
1069.5, 93.98843608563931
1070, 93.95100871386249
1070.5, 93.91441873356975
1071, 93.87018406166442
1071.5, 93.83740582491356
1072, 93.80446323144932
1072.5, 93.76117061919243
1073, 93.71391843184195
1073.5, 93.62962470677796
1074, 93.54388620708053
1074.5, 93.40372148266643
1075, 93.25922179756856
1075.5, 93.08260106895048
1076, 92.95153383279276
1076.5, 92.82495207805866
1077, 92.73729494815231
1077.5, 92.66132862532731
1078, 92.5772421816753
1078.5, 92.5229767315999
1079, 92.4666788395247
1079.5, 92.45379180792403
1080, 92.45447288248701
1080.5, 92.43185360794607
1081, 92.40660950550264
1081.5, 92.36243609699518
1082, 92.32785343391092
1082.5, 92.29982503080828
1083, 92.27826402239997
1083.5, 92.25018095370261
1084, 92.23831868365369
1084.5, 92.22971192565565
1085, 92.25198588582204
1085.5, 92.2749024478773
1086, 92.28421035634037
1086.5, 92.2810019236092
1087, 92.24334499378482
1087.5, 92.19271430882594
1088, 92.09950776078294
1088.5, 91.97529817119654
1089, 91.81721865760711
1089.5, 91.67092177768018
1090, 91.52770789725967
1090.5, 91.38635195673166
1091, 91.26428556969411
1091.5, 91.12383305695325
1092, 91.01188737155756
1092.5, 90.86239172691535
1093, 90.77830660432308
1093.5, 90.70054212146768
1094, 90.68091699956445
1094.5, 90.65552831704714
1095, 90.51445348069026
1095.5, 90.37475127612426
1096, 90.15930075491328
1096.5, 90.03092829725827
1097, 89.90930434952001
1097.5, 89.85467898010275
1098, 89.81202555089251
1098.5, 89.81017170387587
1099, 89.81083484034458
1099.5, 89.8204400092252
1100, 89.81170492678831
1100.5, 89.75518310179481
1101, 89.68764888674987
1101.5, 89.57573151297805
1102, 89.55904537404759
1102.5, 89.56911770773705
1103, 89.5789347964411
1103.5, 89.57359966021386
1104, 89.44710845429034
1104.5, 89.33598648328613
1105, 89.17612603322216
1105.5, 89.07208340834072
1106, 88.96012638907874
1106.5, 88.87178975581577
1107, 88.77692774721564
1107.5, 88.6642332490458
1108, 88.55388972450554
1108.5, 88.4626955546743
1109, 88.378003619863
1109.5, 88.23687787016364
1110, 88.13904482569602
1110.5, 88.02716794578593
1111, 87.99960349590937
1111.5, 87.99212459639219
1112, 88.01550496254393
1112.5, 88.03880863267005
1113, 88.05694853270391
1113.5, 88.06220013726796
1114, 88.0433980646232
1114.5, 88.02892159579399
1115, 88.0103112295176
1115.5, 87.99446162721671
1116, 87.9773618070137
1116.5, 87.93020200642559
1117, 87.87541602039354
1117.5, 87.76599554098232
1118, 87.66052710899854
1118.5, 87.48146035517097
1119, 87.31420812381506
1119.5, 87.07262524162466
1120, 86.92973318030023
1120.5, 86.79357723214302
1121, 86.75851639635714
1121.5, 86.72470399890052
1122, 86.67900825145655
1122.5, 86.63733396381409
1123, 86.57134559391994
1123.5, 86.51192127356603
1124, 86.42837173026854
1124.5, 86.38233210761092
1125, 86.34002166827061
1125.5, 86.32458339669617
1126, 86.29392146797676
1126.5, 86.15702930200366
1127, 86.04115377407506
1127.5, 85.88106632047999
1128, 85.80384226728808
1128.5, 85.74788751125246
1129, 85.66245615540603
1129.5, 85.55970859333715
1130, 85.44425950344001
1130.5, 85.33823747836749
1131, 85.26474904725949
1131.5, 85.20410480643184
1132, 85.11924683836544
1132.5, 85.0539792028289
1133, 84.97052459593466
1133.5, 84.88004624966992
1134, 84.77795289154724
1134.5, 84.66206405092896
1135, 84.55652659452345
1135.5, 84.4829465052779
1136, 84.4222323412915
1136.5, 84.3372845231491
1137, 84.24984296051134
1137.5, 84.12035276407957
1138, 84.04791432421385
1138.5, 83.98077092535452
1139, 83.97253332619198
1139.5, 83.95804275883495
1140, 83.90267139280012
1140.5, 83.82134670548766
1141, 83.63284950523743
1141.5, 83.49085355253881
1142, 83.31517281535761
1142.5, 83.23527246317612
1143, 83.1690950354742
1143.5, 83.10270155883813
1144, 83.03854943202647
1144.5, 82.96499520410649
1145, 82.91193480789622
1145.5, 82.85529199487206
1146, 82.80719896507017
1146.5, 82.74252651418131
1147, 82.68018821801046
1147.5, 82.61289604293009
1148, 82.53806687768906
1148.5, 82.46470940447611
1149, 82.3725785440932
1149.5, 82.29681942291171
1150, 82.19312513816404
1150.5, 82.13954228809327
1151, 82.09327593697577
1151.5, 82.06618773134603
1152, 82.04161704528052
1152.5, 81.91637347846465
1153, 81.79281245433137
1153.5, 81.62712439165794
1154, 81.52931149083823
1154.5, 81.47264888633897
1155, 81.46510256281056
1155.5, 81.483288658742
1156, 81.47916012231647
1156.5, 81.47048885293728
1157, 81.42799604272972
1157.5, 81.39391245999845
1158, 81.38479329435371
1158.5, 81.39776121623282
1159, 81.45424386448033
1159.5, 81.48495153767117
1160, 81.51247147412609
1160.5, 81.47598148379508
1161, 81.42491623675025
1161.5, 81.33190113138097
1162, 81.24873934041725
1162.5, 81.17449779210449
1163, 81.08725767490982
1163.5, 80.91751357972808
1164, 80.757957996681
1164.5, 80.53753144991016
1165, 80.37203639929149
1165.5, 80.20694466941623
1166, 80.06304129671317
1166.5, 79.93383719055132
1167, 79.81342329433862
1167.5, 79.71311667854218
1168, 79.57165481954874
1168.5, 79.46172269382446
1169, 79.3240678309379
1169.5, 79.22407503716339
1170, 79.12597631865545
1170.5, 79.08356374523201
1171, 79.04679533546876
1171.5, 79.01896011439563
1172, 78.99428795716496
1172.5, 78.9566021874724
1173, 78.93756909980381
1173.5, 78.91894122498087
1174, 78.8403905866724
1174.5, 78.74689846240334
1175, 78.5254024932909
1175.5, 78.32312487212153
1176, 78.10076466544753
1176.5, 77.96079322174813
1177, 77.83862144201059
1177.5, 77.74841756927019
1178, 77.64967606061013
1178.5, 77.54974059441605
1179, 77.44161560289199
1179.5, 77.34767644098451
1180, 77.26394218305451
1180.5, 77.18046937751186
1181, 77.12787246630359
1181.5, 77.08084263038413
1182, 77.05235249970228
1182.5, 77.0256498582321
1183, 76.97417329356689
1183.5, 76.91491113162049
1184, 76.80452456332175
1184.5, 76.68859645849703
1185, 76.49345491965225
1185.5, 76.34200932820002
1186, 76.14527786736386
1186.5, 75.95236969462225
1187, 75.70989279465
1187.5, 75.47645347186625
1188, 75.23209884456188
1188.5, 75.13705755556458
1189, 75.06710241283722
1189.5, 75.05773433917904
1190, 75.03874817637272
1190.5, 74.99199717330421
1191, 74.94308671049778
1191.5, 74.88028042942595
1192, 74.83893626266003
1192.5, 74.79647436520173
1193, 74.7187518571158
1193.5, 74.65171381300625
1194, 74.58690397292536
1194.5, 74.58819748364377
1195, 74.67241527351511
1195.5, 74.72570604260619
1196, 74.77906545493465
1196.5, 74.74109947380137
1197, 74.69230817351156
1197.5, 74.64919282170266
1198, 74.60990511386946
1198.5, 74.5633866659446
1199, 74.53709480391319
1199.5, 74.51823747206973
1200, 74.51318088257513
1200.5, 74.51347395715065
1201, 74.45545775541989
1201.5, 74.38322715922432
1202, 74.14005989354193
1202.5, 73.9303995379712
1203, 73.71642511822515
1203.5, 73.61822869581172
1204, 73.59002956953856
1204.5, 73.51812579646663
1205, 73.41065640544434
1205.5, 73.30074475743065
1206, 73.1905712851228
1206.5, 73.17279087711177
1207, 73.168213905138
1207.5, 73.2053935480499
1208, 73.2013025715442
1208.5, 73.14545516617511
1209, 73.06090967247516
1209.5, 72.94503484117651
1210, 72.81168534528334
1210.5, 72.67095838726814
1211, 72.479260419291
1211.5, 72.31134643095687
1212, 72.12498523566973
1212.5, 72.03831630775925
1213, 72.00942300887444
1213.5, 72.0955861125174
1214, 72.2480894478158
1214.5, 72.31042830692544
1215, 72.3606605799306
1215.5, 72.28274694547247
1216, 72.19674932014361
1216.5, 72.03782104554837
1217, 71.9146136859144
1217.5, 71.75527550853565
1218, 71.66776650832072
1218.5, 71.58913334922254
1219, 71.56891872484603
1219.5, 71.55251295062351
1220, 71.53523844884505
1220.5, 71.51545759458125
1221, 71.47792269381722
1221.5, 71.42831302619336
1222, 71.33499139987956
1222.5, 71.21793809262364
1223, 71.06766948538123
1223.5, 70.91544874044078
1224, 70.75911866868529
1224.5, 70.54784651306726
1225, 70.37584724027083
1225.5, 70.21727376003709
1226, 70.14888656169344
1226.5, 70.12976541415972
1227, 70.1536614823185
1227.5, 70.19831843641211
1228, 70.22350298161949
1228.5, 70.24389487523878
1229, 70.20884036217096
1229.5, 70.17357238227926
1230, 70.11739092676423
1230.5, 70.07401608957726
1231, 70.01788932558746
1231.5, 69.98259509671365
1232, 69.9477652122907
1232.5, 69.93056170651738
1233, 69.91393057158974
1233.5, 69.88842222219921
1234, 69.84527699114113
1234.5, 69.73271225734129
1235, 69.63859452509895
1235.5, 69.50783803201705
1236, 69.39248446777306
1236.5, 69.26159093654375
1237, 69.06307683571806
1237.5, 68.86777979207486
1238, 68.71666865400759
1238.5, 68.60697259257914
1239, 68.54159583911891
1239.5, 68.47764971823104
1240, 68.37515931119557
1240.5, 68.2251502612297
1241, 68.03224257660776
1241.5, 67.93057799575064
1242, 67.84569047839165
1242.5, 67.88997317289494
1243, 67.93293100406024
1243.5, 67.9985434081252
1244, 68.04552398454987
1244.5, 68.10158991319078
1245, 68.11905571905339
1245.5, 68.12721181235197
1246, 68.1280392790985
1246.5, 68.13990151138917
1247, 68.28935579879688
1247.5, 68.458113356992
1248, 68.76759023763262
1248.5, 68.96062145102623
1249, 69.15684761823867
1249.5, 69.22614117089176
1250, 69.26779161769069
1250.5, 69.26214235199458
1251, 69.25048657109357
1251.5, 69.20518399372347
1252, 69.16114884142117
1252.5, 69.08573183841466
1253, 68.9919318545553
1253.5, 68.83365676516992
1254, 68.74270203988526
1254.5, 68.65685573721704
1255, 68.68479526061678
1255.5, 68.71796219404972
1256, 68.76338516235037
1256.5, 68.80022445804828
1257, 68.84723373188706
1257.5, 68.86769741530114
1258, 68.87709632069917
1258.5, 68.8850258838075
1259, 68.89361161130488
1259.5, 68.91013159239694
1260, 68.92139024950527
1260.5, 68.89408883167192
1261, 68.85755830871643
1261.5, 68.7729174386781
1262, 68.72720801275948
1262.5, 68.68986464210131
1263, 68.70123556548033
1263.5, 68.72778543794706
1264, 68.74479593671097
1264.5, 68.75691753568367
1265, 68.7387292465474
1265.5, 68.71651218008286
1266, 68.6694416525043
1266.5, 68.63706492785107
1267, 68.59985878837524
1267.5, 68.5807036866362
1268, 68.5637884273942
1268.5, 68.55564902826842
1269, 68.54534340088578
1269.5, 68.51783783521648
1270, 68.4810273641993
1270.5, 68.3963594853306
1271, 68.35928636077378
1271.5, 68.34056900622386
1272, 68.38088302450275
1272.5, 68.44170328212493
1273, 68.46769171329382
1273.5, 68.48532514398642
1274, 68.4578923657044
1274.5, 68.42042311373865
1275, 68.33567198931479
1275.5, 68.28248175924116
1276, 68.22676281845895
1276.5, 68.21077353026831
1277, 68.20285456762662
1277.5, 68.18644799420105
1278, 68.17151029951067
1278.5, 68.16234496868447
1279, 68.15770675233229
1279.5, 68.15775396724547
1280, 68.17458396963868
1280.5, 68.21157881301403
1281, 68.25611164776272
1281.5, 68.30711771553361
1282, 68.38909174390923
1282.5, 68.47063446215681
1283, 68.571361394917
1283.5, 68.63105899289351
1284, 68.65943057479122
1284.5, 68.67716293141966
1285, 68.69569739339316
1285.5, 68.70497907235846
1286, 68.71348464169616
1286.5, 68.66420363599411
1287, 68.61750255998129
1287.5, 68.57180699738828
1288, 68.56459407788468
1288.5, 68.62109785639754
1289, 68.67376492153268
1289.5, 68.74765532505332
1290, 68.77882925105997
1290.5, 68.8035583795871
1291, 68.81963330474278
1291.5, 68.8421580422507
1292, 68.90657817147172
1292.5, 68.968894480605
1293, 69.07257506611957
1293.5, 69.13542507717504
1294, 69.20012658036224
1294.5, 69.22314230768957
1295, 69.23943547575443
1295.5, 69.23112235665616
1296, 69.22320387662755
1296.5, 69.21401498841978
1297, 69.20964432332424
1297.5, 69.21938243899675
1298, 69.24665706199434
1298.5, 69.2759771109551
1299, 69.29812543007854
1299.5, 69.13436013967201
1300, 69.06602872136693
1300.5, 69.01992554152078
1301, 69.06590564482929
1301.5, 69.10903101221261
1302, 69.1750672398136
1302.5, 69.23114104201854
1303, 69.30473990437652
1303.5, 69.32862009991226
1304, 69.3445910594893
1304.5, 69.31940449735555
1305, 69.2942083198706
1305.5, 69.25732165399756
1306, 69.23385381351717
1306.5, 69.2149942172497
1307, 69.21420576820998
1307.5, 69.2233147408988
1308, 69.22453424167163
1308.5, 69.22435075561158
1309, 69.20757737273276
1309.5, 69.1902248027938
1310, 69.16241958139253
1310.5, 69.13165845894886
1311, 69.07503900423167
1311.5, 69.00790776350458
1312, 68.90694478999129
1312.5, 68.82551684340267
1313, 68.74309981454519
1313.5, 68.69307683338096
1314, 68.63774285548021
1314.5, 68.53589988502539
1314.9999999999998, 68.44954093748926
1315.5, 68.32700115103336
1316, 68.25511830358039
1316.5, 68.18165334547967
1317, 68.14463707987387
1317.5, 68.11219445649301
1318, 68.08746156229131
1318.4999999999998, 68.05439937052594
1319, 67.97126224551906
1319.5, 67.93574415549352
1320, 67.94517636347953
1320.5, 68.01862191265327
1321, 68.15588684986643
1321.5, 68.3110328859318
1321.9999999999998, 68.47495168432587
1322.5, 68.57007049705463
1323, 68.63182381800817
1323.5, 68.5855273609024
1324, 68.5509882669941
1324.5, 68.51321547493205
1325, 68.51285647577858
1325.5, 68.53135598334151
1326, 68.60884207222438
1326.5, 68.69816628285068
1326.9999999999998, 68.68170254506717
1327.5, 68.6532460623223
1328, 68.56087149870197
1328.5, 68.55241459002383
1329, 68.65518577852578
1329.5, 68.74968949301726
1330, 68.86664120888378
1330.4999999999998, 68.90633846891524
1331, 68.93967793568602
1331.5, 68.96587894767094
1332, 68.981099403162
1332.5, 68.9624275065398
1333, 68.93589718602487
1333.5, 68.88011463207577
1334, 68.77210593356567
1334.5, 68.60966031733348
1335, 68.50327154806419
1335.4999999999998, 68.40154072143869
1336, 68.51341986877856
1336.5, 68.61853664440093
1337, 68.75778102220329
1337.5, 68.82231228621944
1338, 68.83235246319418
1338.5, 68.77253716567054
1338.9999999999998, 68.66394658266644
1339.5, 68.59735784706695
1340, 68.53329473030175
1340.5, 68.53290142019435
1341, 68.5416633501983
1341.5, 68.58836713667915
1342, 68.64435933046191
1342.4999999999998, 68.74758356644516
1343, 68.80065866660485
1343.5, 68.84475091784464
1344, 68.81288286464105
1344.5, 68.77138141396686
1345, 68.71092151259903
1345.5, 68.65601020401584
1346, 68.5908481789041
1346.5, 68.55002042585365
1347, 68.51232507508914
1347.4999999999998, 68.50821080877726
1348, 68.51751771792198
1348.5, 68.59060547341068
1349, 68.67592810031688
1349.5, 68.85022550720839
1350, 68.98979434628134
1350.5, 69.09191610216855
1350.9999999999998, 69.1107767816861
1351.5, 69.04560037829613
1352, 68.97003215422872
1352.5, 68.8719555971993
1353, 68.7843331491937
1353.5, 68.69614885663317
1354, 68.64340206594254
1354.5, 68.60968145034609
1355, 68.6189449187372
1355.5, 68.60301804625355
1355.9999999999998, 68.54696139714954
1356.5, 68.49511992837571
1357, 68.43298589296715
1357.5, 68.39178468320571
1358, 68.35297335037082
1358.5, 68.35262804198291
1359, 68.36038742963798
1359.4999999999998, 68.39778567872165
1360, 68.42661726847726
1360.5, 68.46400475733444
1361, 68.51159505941617
1361.5, 68.573749023362
1362, 68.63720827088176
1362.5, 68.70090980453998
1362.9999999999998, 68.74460340366667
1363.5, 68.7817245089584
1364, 68.8191012802761
1364.5, 68.85139178931168
1365, 68.89822391246881
1365.5, 68.92589787285543
1366, 68.95216213342428
1366.5, 68.96137517079853
1367, 68.96953165489704
1367.5, 68.97817615725148
1367.9999999999998, 68.98802473513317
1368.5, 69.00670001416248
1369, 69.0142491820195
1369.5, 69.01434924277363
1370, 68.99731000152167
1370.5, 68.97072935649133
1371, 68.88632954468422
1371.4999999999998, 68.79495175172505
1372, 68.65418778653564
1372.5, 68.53609008918586
1373, 68.41470496647378
1373.5, 68.34946877038647
1374, 68.30233214106408
1374.5, 68.33149772745433
1374.9999999999998, 68.39414191966654
1375.5, 68.46595281454154
1376, 68.53733648244553
1376.5, 68.5988680418389
1377, 68.65347644751601
1377.5, 68.71914609125955
1378, 68.8022933005474
1378.5, 68.95168280049863
1379, 69.07611629969249
1379.5, 69.21628847822747
1379.9999999999998, 69.25447801957172
1380.5, 69.28522890456215
1381, 69.29452743129448
1381.5, 69.29128718675757
1382, 69.25368937174531
1382.5, 69.2168241535471
1383, 69.1607201219789
1383.4999999999998, 69.14867003793775
1384, 69.14929677934481
1384.5, 69.15698087508174
1385, 69.16371939030122
1385.5, 69.15507018595657
1386, 69.1426786570597
1386.5, 69.11428105664524
1387, 69.03963181849846
1387.5, 68.88112520106228
1388, 68.77797849271329
1388.4999999999998, 68.67379098595836
1389, 68.70786331240163
1389.5, 68.7528204226086
1390, 68.86840221249093
1390.5, 68.96195668905348
1391, 69.05538776039279
1391.5, 69.0893634126568
1391.9999999999998, 69.08962935280319
1392.5, 69.05409175468652
1393, 69.0014730740199
1393.5, 68.90556532157977
1394, 68.8128588177765
1394.5, 68.74125341517609
1395, 68.6934067408569
1395.4999999999998, 68.67489996426775
1396, 68.67560220453935
1396.5, 68.69407716406215
1397, 68.77544342098264
1397.5, 68.88913196878887
1398, 69.00320173153489
1398.5, 69.10645263368461
1399, 69.12475606354653
1399.5, 69.10918457733715
1400, 69.00595558381536
