303, 40.26972487851074
303.5, 40.27843375085874
304, 40.286029742734854
304.5, 40.29521395284043
305, 40.30285405405032
305.5, 40.312202731682476
306, 40.31940251926508
306.5, 40.328564879163075
307, 40.343760159502864
307.5, 40.360423297651494
308, 40.386552315209
308.5, 40.40783920442146
309, 40.42631619648064
309.5, 40.43824757289676
310, 40.44752966413762
310.5, 40.454694275212276
311, 40.46384363804177
311.5, 40.47905851169427
312, 40.49517617265072
312.5, 40.503922064688965
313, 40.5131195765291
313.5, 40.531535741925516
314, 40.54680250189771
314.5, 40.565487023975756
315, 40.58495050595304
315.5, 40.61229823392589
316, 40.65099089113311
316.5, 40.69085894996457
317, 40.708294811905695
317.5, 40.7218636556729
318, 40.731004844359155
318.5, 40.74212881219147
319, 40.7608564549066
319.5, 40.77551832403544
320, 40.79368703536011
320.5, 40.810010570307476
321, 40.82618448769321
321.5, 40.84378473846558
322, 40.860580474205456
322.5, 40.88827423299577
323, 40.911117112842035
323.5, 40.93907898218236
324, 40.950746030226036
324.5, 40.959867683535
325, 40.968056202885364
325.5, 40.97611514290304
326, 40.984894997812624
326.5, 40.99065804403482
327, 40.99050398771718
327.5, 40.99768057166298
328, 41.01645133204433
328.5, 41.03119024479882
329, 41.049295678143594
329.5, 41.06572122120469
330, 41.08220790808018
330.5, 41.10869500647348
331, 41.12954024650601
331.5, 41.14812685114995
332, 41.159752925140126
332.5, 41.168988870304545
333, 41.170850929812055
333.5, 41.170973654801664
334, 41.18580089687522
334.5, 41.20204776157595
335, 41.219729044813015
335.5, 41.232924092413334
336, 41.242115000427106
336.5, 41.25344868500645
337, 41.27212528756708
337.5, 41.286776246619624
338, 41.30486422114742
338.5, 41.32880686586024
339, 41.35288709466614
339.5, 41.37946309385209
340, 41.39823226965681
340.5, 41.40743814542295
341, 41.418878745075844
341.5, 41.43755132337707
342, 41.46307295773963
342.5, 41.49902177000057
343, 41.53197775046407
343.5, 41.562799886832764
344, 41.58051318673013
344.5, 41.59173828956862
345, 41.591747616049446
345.5, 41.59180106561102
346, 41.59180523588195
346.5, 41.597153511331186
347, 41.60616503476721
347.5, 41.622054620647816
348, 41.63862432170399
348.5, 41.665429581319465
349, 41.6898774311393
349.5, 41.727178006776185
350, 41.749966072257195
350.5, 41.76837514545999
351, 41.782892633247805
351.5, 41.80093740329675
352, 41.832762675634406
352.5, 41.86347125215022
353, 41.88129911168039
353.5, 41.894247841170134
354, 41.90348252928988
354.5, 41.91501616082218
355, 41.93362438858641
355.5, 41.9428008419921
356, 41.95183911212614
356.5, 41.96810138505004
357, 41.98917031087335
357.5, 42.07909121228086
358, 42.168050672410125
358.5, 42.326641476099915
359, 42.43221678654953
359.5, 42.53357030262654
360, 42.547935812162635
360.5, 42.53902502555211
361, 42.49190005758474
361.5, 42.444063528463154
362, 42.390168381154574
362.5, 42.345369201764875
363, 42.28927814459025
363.5, 42.25562464836706
364, 42.22812221467592
364.5, 42.22837890130231
365, 42.23737388956262
365.5, 42.269189716852175
366, 42.30094699335795
366.5, 42.33687385045103
367, 42.36014404158668
367.5, 42.36942147091342
368, 42.381174771645725
368.5, 42.39972902626294
369, 42.41453685017511
369.5, 42.432382327656796
370, 42.457080116923116
370.5, 42.48222314929962
371, 42.52729901893406
371.5, 42.56003341517985
372, 42.58809882506485
372.5, 42.60690095274917
373, 42.625274759393584
373.5, 42.640139750096665
374, 42.65787358916228
374.5, 42.67467085823376
375, 42.690258638421604
375.5, 42.7079838400156
376, 42.72587576983785
376.5, 42.75401579856779
377, 42.77185232827976
377.5, 42.79050963164393
378, 42.79947830043402
378.5, 42.80850421265746
379, 42.832922850867355
379.5, 42.856443190690904
380, 42.88303923954002
380.5, 42.91119404115189
381, 42.95814494839523
381.5, 42.99463271428578
382, 43.04117226779635
382.5, 43.0611035527926
383, 43.078766509284236
383.5, 43.08754081518256
384, 43.09342038296448
384.5, 43.08415192583324
385, 43.0841470467138
385.5, 43.10305674059609
386, 43.130274849972324
386.5, 43.176697561588895
387, 43.208631340516746
387.5, 43.2436374275794
388, 43.253092436874766
388.5, 43.25862663691879
389, 43.24914754541447
389.5, 43.25447445317423
390, 43.292206094257
390.5, 43.33008043073268
391, 43.38575620735163
391.5, 43.42496159502945
392, 43.46890311080105
392.5, 43.511315904259106
393, 43.54899430580608
393.5, 43.585036336728386
394, 43.61320735198238
394.5, 43.641292052592405
395, 43.65887387743154
395.5, 43.677444256513034
396, 43.69855796944547
396.5, 43.724893437257556
397, 43.758628275406565
397.5, 43.78857282019186
398, 43.81567973018705
398.5, 43.83607875761663
399, 43.85478261856782
399.5, 43.86501962941802
400, 43.87430306583882
400.5, 43.887836536626224
401, 43.90545751961513
401.5, 43.93907681063135
402, 43.96900683118242
402.5, 43.996163863649805
403, 44.016533304042085
403.5, 44.035278715870085
404, 44.05862349719435
404.5, 44.095577301134284
405, 44.126005008339476
405.5, 44.16076851038431
406, 44.18659225000155
406.5, 44.20734703299419
407, 44.21637332165969
407.5, 44.22415344418647
408, 44.2335881873237
408.5, 44.25873465056434
409, 44.304821736323724
409.5, 44.35553921104047
410, 44.416121940667786
410.5, 44.459379254851136
411, 44.497383663726666
411.5, 44.54257361645213
412, 44.58377895550847
412.5, 44.640061107137846
413, 44.67504312342447
413.5, 44.71198280349391
414, 44.74869314439162
414.5, 44.79209121787191
415, 44.843557539017574
415.5, 44.8883187826169
416, 44.933863491314085
416.5, 44.96641439987596
417, 44.99442056402634
417.5, 45.0071703637016
418, 45.01642731573358
418.5, 45.02387092596943
419, 45.03271364485948
419.5, 45.05842027635233
420, 45.08264548282106
420.5, 45.119002655459475
421, 45.14964910063466
421.5, 45.18714419746257
422, 45.21645816223597
422.5, 45.25324559269028
423, 45.27749024019832
423.5, 45.303246221774
424, 45.320684375286454
424.5, 45.33695854937715
425, 45.36409053220004
425.5, 45.39309308022967
426, 45.4400754479107
426.5, 45.486214914570915
427, 45.550439874022395
427.5, 45.59747459505807
428, 45.64922354752659
428.5, 45.70991683212801
429, 45.76440286646918
429.5, 45.83762286486088
430, 45.88967776334501
430.5, 45.936352395556625
431, 45.96823038945062
431.5, 46.004911715931605
432, 46.04232022326516
432.5, 46.084940042019376
433, 46.11987458638222
433.5, 46.15131318751805
434, 46.196892464996765
434.5, 46.23821755249333
435, 46.2944398980022
435.5, 46.32900995715335
436, 46.36566813063158
436.5, 46.38994913977469
437, 46.41538811158502
437.5, 46.43299026187461
438, 46.45068683764963
438.5, 46.4871911712307
439, 46.520895327569015
439.5, 46.56774805559218
440, 46.599781261516036
440.5, 46.63633791835417
441, 46.673803565659895
441.5, 46.71664528054719
442, 46.76905693742716
442.5, 46.814348939510786
443, 46.86939934045015
443.5, 46.912045653428265
444, 46.958765920648176
444.5, 46.99069117924715
445, 47.027180328124466
445.5, 47.06508931416303
446, 47.10695134381116
446.5, 47.13340550179437
447, 47.15423772051652
447.5, 47.17241337378155
448, 47.19428253077411
448.5, 47.231829663440784
449, 47.27076150004695
449.5, 47.3255543098902
450, 47.37411543557177
450.5, 47.42320492080628
451, 47.47538823189427
451.5, 47.52271570701802
452, 47.58735916816434
452.5, 47.62752051147832
453, 47.65531536023507
453.5, 47.67190118696497
454, 47.6902451253427
454.5, 47.720670077052446
455, 47.75399214443841
455.5, 47.80633693378409
456, 47.85196638230842
456.5, 47.907327420206784
457, 47.94637182548645
457.5, 47.98360174992703
458, 48.002722245541406
458.5, 48.0209973602428
459, 48.03738042914086
459.5, 48.05473499516856
460, 48.10729595745329
460.5, 48.15434508021489
461, 48.218902649583164
461.5, 48.268916423197346
462, 48.3248836660308
462.5, 48.37369937059141
463, 48.437347887854514
463.5, 48.494287266840196
464, 48.55009795951951
464.5, 48.585049627418684
465, 48.612176024641876
465.5, 48.63070481483937
466, 48.642543810923414
466.5, 48.65181706826043
467, 48.663928503471624
467.5, 48.6821868796074
468, 48.72027994005845
468.5, 48.76136483202476
469, 48.81409589678802
469.5, 48.857743598409314
470, 48.903914810679915
470.5, 48.94209070245521
471, 48.988711713277816
471.5, 49.0254057833078
472, 49.070688278611016
472.5, 49.104299615623965
473, 49.13641668122873
473.5, 49.17164423459509
474, 49.20009445882668
474.5, 49.22783052543596
475, 49.25075578605891
475.5, 49.2787142694194
476, 49.30592361700052
476.5, 49.34209278409624
477, 49.37495416945344
477.5, 49.40793051000729
478, 49.46101455794668
478.5, 49.50792478848468
479, 49.57270620387911
479.5, 49.626073375294894
480, 49.691237385828
480.5, 49.737708319444
481, 49.7917343060422
481.5, 49.81137061391902
482, 49.826955942576305
482.5, 49.844732082492605
483, 49.86337062727167
483.5, 49.9003471105809
484, 49.934503950515264
484.5, 49.98107989680294
485, 50.01281516900446
485.5, 50.048749641242026
486, 50.05923803742233
486.5, 50.066404473843164
487, 50.06641719305574
487.5, 50.06827109991492
488, 50.077467222400124
488.5, 50.08881097400294
489, 50.10746498737634
489.5, 50.11665818353231
490, 50.125792331413365
490.5, 50.149254490515744
491, 50.17550529529935
491.5, 50.23797253921536
492, 50.29606200650044
492.5, 50.388882373732315
493, 50.46508457540731
493.5, 50.55793509045139
494, 50.626508550837634
494.5, 50.70718245872249
495, 50.75878086169016
495.5, 50.803831916356835
496, 50.82168089513383
496.5, 50.84065443242985
497, 50.87781347884183
497.5, 50.908234677105106
498, 50.94532780878981
498.5, 50.9583474245781
499, 50.96739288517287
499.5, 50.975760619074165
500, 50.984899746696414
500.5, 51.011765292839996
501, 51.034196365108755
501.5, 51.06223826309076
502, 51.07728657049849
502.5, 51.0864027533306
503, 51.09345556857737
503.5, 51.10258326455507
504, 51.13420225012349
504.5, 51.169371291350394
505, 51.250159383013305
505.5, 51.319279616314255
506, 51.41249559955575
506.5, 51.480747480429955
507, 51.554638743192754
507.5, 51.59163036994882
508, 51.6272425098948
508.5, 51.6372864716311
509, 51.64484427771909
509.5, 51.65385824971743
510, 51.663405490116965
510.5, 51.68202979466483
511, 51.69728947819181
511.5, 51.71578640852855
512, 51.73613531203241
512.5, 51.762952524178324
513, 51.80376140815405
513.5, 51.8447122152283
514, 51.90772439028736
514.5, 51.95556783982505
515, 52.002461340313765
515.5, 52.02431766675398
516, 52.03323673351827
516.5, 52.040449639322986
517, 52.049401756014426
517.5, 52.06576660413282
518, 52.08384867902881
518.5, 52.128980046887094
519, 52.163864841772856
519.5, 52.20125504716279
520, 52.227681245301454
520.5, 52.25527777341398
521, 52.28321678642148
521.5, 52.31878485809485
522, 52.368270829152486
522.5, 52.41455527606437
523, 52.459630935578176
523.5, 52.48605182320289
524, 52.48591020313435
524.5, 52.489713615012086
525, 52.499009172420116
525.5, 52.518422332920096
526, 52.544742324467826
526.5, 52.55399322419692
527, 52.56154419366943
527.5, 52.57037948895149
528, 52.58062703697304
528.5, 52.59944811664348
529, 52.6223106671058
529.5, 52.659492459329854
530, 52.68954395119743
530.5, 52.72483203102101
531, 52.75868079516178
531.5, 52.791479978377886
532, 52.845425937827926
532.5, 52.88653528442726
533, 52.92394648356342
533.5, 52.94464802671229
534, 52.96328166813975
534.5, 52.978454146038494
535, 52.99597391817639
535.5, 53.00475714266855
536, 53.011479496097536
536.5, 53.01147186377441
537, 53.011480945631824
537.5, 53.0114651154477
538, 53.00725312104266
538.5, 52.99799082013263
539, 52.99630305823979
539.5, 52.99644044007911
540, 53.01283849933288
540.5, 53.02943135643946
541, 53.05641392697429
541.5, 53.07946730566181
542, 53.1075759303897
542.5, 53.12093848163623
543, 53.130253756679465
543.5, 53.150131757447774
544, 53.17625096461649
544.5, 53.19343101206213
545, 53.20469841812831
545.5, 53.186361998154446
546, 53.17920205726531
546.5, 53.18873246516409
547, 53.204848918083556
547.5, 53.23258851611566
548, 53.24306888920053
548.5, 53.2517719511692
549, 53.25195336016702
549.5, 53.249822846003084
550, 53.231946913523146
550.5, 53.21114394798466
551, 53.17358563630971
551.5, 53.15748514574694
552, 53.14816270798167
552.5, 53.1533933217929
553, 53.161673561967454
553.5, 53.13676295378536
554, 53.11223727554104
554.5, 53.075776065912414
555, 53.05347702534586
555.5, 53.04421660383871
556, 53.032559400811124
556.5, 53.01412058296637
557, 52.98615739407011
557.5, 52.951664422006374
558, 52.934127352025236
558.5, 52.917970766669896
559, 52.89097114437955
559.5, 52.8623180120728
560, 52.81540924245796
560.5, 52.801362003784476
561, 52.80122929062581
561.5, 52.8265694918224
562, 52.86109063065936
562.5, 52.895384140650506
563, 52.92017601811423
563.5, 52.9114476117703
564, 52.89224086655296
564.5, 52.845172962907405
565, 52.80834703971294
565.5, 52.76230491012918
566, 52.73022703447327
566.5, 52.69595058280271
567, 52.68707064496271
567.5, 52.6821696644462
568, 52.69126916849714
568.5, 52.69887995480268
569, 52.70824099733771
569.5, 52.71094372197357
570, 52.71096791337091
570.5, 52.71097328311427
571, 52.71097412163583
571.5, 52.711004565800074
572, 52.712274059733225
572.5, 52.72147585731229
573, 52.726057866497726
573.5, 52.72597051241882
574, 52.7118493558906
574.5, 52.68438766391093
575, 52.66129667572948
575.5, 52.63569967975765
576, 52.61823591060074
576.5, 52.603163996555686
577, 52.58483101263739
577.5, 52.57261458703149
578, 52.56332272621689
578.5, 52.56552004102392
579, 52.57463392005636
579.5, 52.58251363364228
580, 52.5906738437526
580.5, 52.58212038099796
581, 52.57303498845768
581.5, 52.55476155017209
582, 52.539475834808535
582.5, 52.52074644738622
583, 52.506031255481766
583.5, 52.48773660181684
584, 52.472227023335904
584.5, 52.455381877662276
585, 52.44656151739354
585.5, 52.439119090405434
586, 52.42996989946544
586.5, 52.42230591871804
587, 52.41293400797688
587.5, 52.40063842079655
588, 52.382422318284185
588.5, 52.34666592183791
589, 52.30471862344948
589.5, 52.27840252644222
590, 52.26170025339811
590.5, 52.27086857635182
591, 52.278404016970285
591.5, 52.28774084298015
592, 52.285225615202165
592.5, 52.27617667037916
593, 52.255124955943714
593.5, 52.22909638331208
594, 52.185467893777556
594.5, 52.152062638428404
595, 52.13354311433962
595.5, 52.124693942866855
596, 52.12477355406399
596.5, 52.10551642460171
597, 52.069005756276304
597.5, 52.02261815579498
598, 51.97354348313814
598.5, 51.93011020712639
599, 51.89351485124793
599.5, 51.856758967253214
600, 51.82616677067867
600.5, 51.78877092809271
601, 51.755022018844464
601.5, 51.70929432381771
602, 51.64042728085587
602.5, 51.56686861086549
603, 51.497200054358785
603.5, 51.44097291418799
604, 51.39479819429859
604.5, 51.36333884348961
605, 51.335447269527016
605.5, 51.318641857925854
606, 51.3003994471314
606.5, 51.28415704582258
607, 51.26818351616173
607.5, 51.25940326040179
608, 51.24884155775698
608.5, 51.22185814139909
609, 51.17142494616551
609.5, 51.068192255662844
610, 50.9669544245035
610.5, 50.8308079733336
611, 50.73744831464522
611.5, 50.649735755198776
612, 50.579764760431516
612.5, 50.527289712668974
613, 50.499446961890676
613.5, 50.48338697574425
614, 50.47416492452853
614.5, 50.45169076409154
615, 50.415417517757156
615.5, 50.37547054576592
616, 50.334621157875766
616.5, 50.28183246784455
617, 50.23645562727755
617.5, 50.180880776864115
618, 50.14223502687452
618.5, 50.10509717778432
619, 50.091306018939115
619.5, 50.082207549004494
620, 50.08117922694989
620.5, 50.079334771331325
621, 50.035013000512855
621.5, 49.988743533349606
622, 49.89629052042186
622.5, 49.82015477975035
623, 49.727021000565514
623.5, 49.67441782822676
624, 49.62012866369481
624.5, 49.585630194441855
625, 49.55373580834165
625.5, 49.51836854945102
626, 49.48818861910204
626.5, 49.45100756073305
627, 49.42781883315432
627.5, 49.4093462595665
628, 49.4002861350498
628.5, 49.3910836434214
629, 49.36052283442295
629.5, 49.32769904357555
630, 49.28328064973716
630.5, 49.240276270829774
631, 49.16622899623707
631.5, 49.101587588362705
632, 49.0178224042255
632.5, 48.9623695972496
633, 48.89917950662408
633.5, 48.83385707506318
634, 48.767878743009675
634.5, 48.66120939701443
635, 48.57294386425338
635.5, 48.47045719065103
636, 48.40913268450963
636.5, 48.36310604318902
637, 48.33199077981992
637.5, 48.29593691851417
638, 48.2554471251425
638.5, 48.21770141227225
639, 48.20891165786107
639.5, 48.205393572846894
640, 48.21510516737965
640.5, 48.19977267807501
641, 48.15291264083687
641.5, 48.110346443882264
642, 48.056514045304404
642.5, 48.00679123200621
643, 47.95859581347062
643.5, 47.89621495418289
644, 47.85364170538798
644.5, 47.83481440528241
645, 47.83098409338345
645.5, 47.840458093864754
646, 47.81546714092852
646.5, 47.77043212085402
647, 47.67527900502759
647.5, 47.58015201976957
648, 47.48185478848162
648.5, 47.409690622863174
649, 47.35363779905593
649.5, 47.31958233622809
650, 47.29201915001681
650.5, 47.27531650441173
651, 47.25753666753735
651.5, 47.256343307414035
652, 47.2565426804112
652.5, 47.25640704735945
653, 47.24611737780588
653.5, 47.1996694552549
654, 47.157648543392526
654.5, 47.10204184209038
655, 47.0633456781043
655.5, 47.018589960974694
656, 46.96132215010812
656.5, 46.90668554599386
657, 46.85275814534417
657.5, 46.8081223717337
658, 46.75228532778743
658.5, 46.70252286938904
659, 46.637738579529376
659.5, 46.602625391381196
660, 46.56707465654076
660.5, 46.54926818073512
661, 46.53303626093231
661.5, 46.50596737289778
662, 46.48141272322185
662.5, 46.4439256426587
663, 46.42573611149662
663.5, 46.416743901245866
664, 46.42101022980325
664.5, 46.42976261445614
665, 46.430089811370095
665.5, 46.42609183795602
666, 46.3808166485851
666.5, 46.337277258760906
667, 46.26278557848782
667.5, 46.19341650168898
668, 46.101018958937914
668.5, 46.00859199819085
669, 45.893797845865336
669.5, 45.81635907596739
670, 45.74663862382178
670.5, 45.66635284249607
671, 45.59685399677857
671.5, 45.51253776341287
672, 45.46327123449345
672.5, 45.41661286147201
673, 45.37904903254457
673.5, 45.334853398817906
674, 45.292735773648765
674.5, 45.2546919396146
675, 45.21884177027507
675.5, 45.19048840073956
676, 45.16243973074042
676.5, 45.15311258648902
677, 45.15305065852417
677.5, 45.18299408694965
678, 45.22669591965563
678.5, 45.2444948375037
679, 45.25341035494133
679.5, 45.20776372152497
680, 45.18990378425709
680.5, 45.218387709962336
681, 45.257336210579446
681.5, 45.32230424362053
682, 45.33913422552513
682.5, 45.34802775982415
683, 45.3483742780026
683.5, 45.348267116849044
684, 45.34826830890422
684.5, 45.34824178811003
685, 45.34821003573595
685.5, 45.3396151520579
686, 45.321099562240285
686.5, 45.26998114711033
687, 45.199719837374055
687.5, 45.10725315368715
688, 45.02493196349428
688.5, 44.952799074662984
689, 44.896546383786635
689.5, 44.84043935841598
690, 44.82265357087861
690.5, 44.822511995562785
691, 44.85925384643905
691.5, 44.91149248746824
692, 44.954290827461186
692.5, 44.990680974248754
693, 45.017801278337544
693.5, 45.038194046409906
694, 45.056896872584176
694.5, 45.067077882931876
695, 45.07635986808486
695.5, 45.07776975785812
696, 45.0777992744648
696.5, 45.077741623007775
697, 45.075678824266475
697.5, 45.05770326589912
698, 45.039581085406176
698.5, 45.01137188092222
699, 44.98051912020258
699.5, 44.93434394609745
700, 44.88343688649909
700.5, 44.82302769989901
701, 44.80506507878713
701.5, 44.795718311375516
702, 44.82307502098884
702.5, 44.8403499608764
703, 44.84961253036172
703.5, 44.84792499945065
704, 44.838733002256376
704.5, 44.84382805038279
705, 44.852351263677484
705.5, 44.85238985918739
706, 44.84770108402216
706.5, 44.811055935714
707, 44.79192875265764
707.5, 44.792125547469055
708, 44.79678075366241
708.5, 44.805991085337915
709, 44.788691871158655
709.5, 44.76235152553162
710, 44.694037571479605
710.5, 44.63126057449688
711, 44.54899311640633
711.5, 44.497535404004594
712, 44.46972321297895
712.5, 44.45727235773352
713, 44.448010402451644
713.5, 44.45960223389102
714, 44.47677463339446
714.5, 44.49405289754313
715, 44.50923860808528
715.5, 44.52733808549743
716, 44.545567430655076
716.5, 44.573671849508166
717, 44.57241050527119
717.5, 44.5541749883185
718, 44.5068254641993
718.5, 44.44630635887164
719, 44.360010505474555
719.5, 44.28622837743353
720, 44.21290313791826
720.5, 44.16687784352401
721, 44.13916927787033
721.5, 44.17381245259346
722, 44.25609732589565
722.5, 44.326602115934556
723, 44.40124735402061
723.5, 44.35055797435521
724, 44.304875367477955
724.5, 44.258990735917465
725, 44.22991585114557
725.5, 44.211339877741786
726, 44.19686579451197
726.5, 44.17852377880382
727, 44.18931905642042
727.5, 44.206732266873836
728, 44.24139877923357
728.5, 44.27188966977558
729, 44.308709889894885
729.5, 44.32985409087466
730, 44.338998684738215
730.5, 44.322101991906784
731, 44.28565494589345
731.5, 44.24799301597334
732, 44.20582934006985
732.5, 44.17944448781473
733, 44.156973160192976
733.5, 44.12933989848699
734, 44.11283761982592
734.5, 44.10364348624385
735, 44.12081829479076
735.5, 44.15718395634248
736, 44.208515941700554
736.5, 44.26717318563876
737, 44.30231799485404
737.5, 44.32505652475501
738, 44.31614307126222
738.5, 44.298922527011925
739, 44.26134653795879
739.5, 44.24166266228895
740, 44.223355790232354
740.5, 44.2350650017152
741, 44.251609878437684
741.5, 44.2604714480438
742, 44.26785538445797
742.5, 44.27695019319916
743, 44.28784862710334
743.5, 44.30659055811226
744, 44.31158304440926
744.5, 44.31157056535503
745, 44.297486857795164
745.5, 44.280703374845324
746, 44.25460653408085
746.5, 44.23328077370625
747, 44.21481357613739
747.5, 44.202872982738974
748, 44.193597179738
748.5, 44.19138777079535
749, 44.19132619187659
749.5, 44.18397402014907
750, 44.173460875536804
750.5, 44.086150464622335
751, 44.01794386912069
751.5, 43.97118023639303
752, 43.96340516428641
752.5, 44.00130049040414
753, 44.01620177814019
753.5, 44.025242008245854
754, 44.00467560074485
754.5, 43.97871706323976
755, 43.91740608090834
755.5, 43.86588037060288
756, 43.810177549635995
756.5, 43.781658046859825
757, 43.77267348387982
757.5, 43.78574650472701
758, 43.81295504395618
758.5, 43.84460899314357
759, 43.87710972377246
759.5, 43.91223971372725
760, 43.9441003848547
760.5, 43.99007353736849
761, 44.035205167344685
761.5, 44.100626398710546
762, 44.14722811929422
762.5, 44.20149542469128
763, 44.214101610236206
763.5, 44.22054135820284
764, 44.20291784366632
764.5, 44.189548701375124
765, 44.180229422552884
765.5, 44.17613652956425
766, 44.17620343972768
766.5, 44.17641750855804
767, 44.17632907933527
767.5, 44.161673659014184
768, 44.145359939091534
768.5, 44.12777054946406
769, 44.11611487164451
769.5, 44.11595403060194
770, 44.12312045614887
770.5, 44.141879108292855
771, 44.15156604441804
771.5, 44.16054285973993
772, 44.15401119110507
772.5, 44.14619286756592
773, 44.146126736507355
773.5, 44.14079415525805
774, 44.11317764190658
774.5, 44.08317058657771
775, 44.03655207658146
775.5, 44.04706364500296
776, 44.0831176127228
776.5, 44.14565954905245
777, 44.20821459687719
777.5, 44.24342770068089
778, 44.260811246183856
778.5, 44.23325664145134
779, 44.199466152998205
779.5, 44.14349795110531
780, 44.13673035934014
780.5, 44.14554454060553
781, 44.153677391242596
781.5, 44.16012484092046
782, 44.14221379070702
782.5, 44.12155857396477
783, 44.07503339546666
783.5, 44.04458468485957
784, 44.01688109725363
784.5, 44.021831415014674
785, 44.03973068307147
785.5, 44.063809825946315
786, 44.08778224619781
786.5, 44.11443557836294
787, 44.13117375712352
787.5, 44.13133507608014
788, 44.12368102393777
788.5, 44.10495578800772
789, 44.07406287415053
789.5, 44.02905462302238
790, 43.957319942721746
790.5, 43.88901333167009
791, 43.86249468867025
791.5, 43.85401259933953
792, 43.891582593992794
792.5, 43.898597213220214
793, 43.87959030132232
793.5, 43.84219631972122
794, 43.788759969325014
794.5, 43.761944626401416
795, 43.73790699724323
795.5, 43.70210427888339
796, 43.67422949070472
796.5, 43.646174265483545
797, 43.63109627193672
797.5, 43.62197423130597
798, 43.59823415373795
798.5, 43.562328327817504
799, 43.498039956616495
799.5, 43.43382780720923
800, 43.35315582969037
800.5, 43.29422258498772
800.9999999999999, 43.24729850004036
801.5, 43.22901641700162
802, 43.22939719233659
802.5, 43.21854258594309
803, 43.20057521776215
803.4999999999999, 43.160549247272854
804, 43.12229096482486
804.5, 43.09538827345704
805, 43.07730840049188
805.5, 43.06804163730294
806, 43.05636518261401
806.5, 43.03780712904998
806.9999999999999, 43.034244930604196
807.5, 43.03425264815352
808, 43.041865416970445
808.5, 43.043861240724134
809, 42.98059732602686
809.4999999999999, 42.922219931639624
810, 42.82892346341053
810.5, 42.75674592578019
811, 42.673733792788624
811.5, 42.601200003074695
812, 42.51232872922256
812.5, 42.41256432190054
813, 42.31761660909438
813.5, 42.20018613031723
814, 42.10368442131656
814.5, 41.98224039298295
815, 41.89136507745106
815.4999999999999, 41.79010053510648
816, 41.71960724053311
816.5, 41.64000153450809
817, 41.58035767446225
817.5, 41.529247295751595
818, 41.50241570401534
818.5, 41.481581830347494
819, 41.46281198710018
819.5, 41.43605751790375
820, 41.3895591334867
820.5, 41.351468808709896
821, 41.307751340397594
821.4999999999999, 41.31380792373496
822, 41.323102380613534
822.5, 41.3413005468217
823, 41.34904119976782
823.5, 41.33941341350191
824, 41.294690986212224
824.5, 41.20186450495283
825, 41.12038325600019
825.5, 41.02377972783364
826, 40.96309992172163
826.5, 40.9083568280796
827, 40.83645564238537
827.4999999999999, 40.7798951544852
828, 40.72364620581889
828.5, 40.66740535776573
829, 40.58385309792208
829.5, 40.51014303269412
829.9999999999999, 40.422173620766934
830.5, 40.329238303237425
831, 40.243988381185304
831.5, 40.14451736082149
832, 40.078191341853575
832.5, 40.04101605058172
833, 40.03346184181382
833.4999999999999, 40.042633535920714
834, 40.04408005926418
834.5, 40.04411099594505
835, 40.044226765235535
835.5, 40.04796070416611
835.9999999999999, 40.08330359292894
836.5, 40.13274521578835
837, 40.23622958422343
837.5, 40.32548971034804
838, 40.44593187936865
838.5, 40.52646501514022
839, 40.61349901091778
839.5, 40.6490283195417
840, 40.67494261607731
840.5, 40.67395317940568
841, 40.70134745015907
841.5, 40.79562852635367
841.9999999999999, 40.89108054571651
842.5, 41.029800263025244
843, 41.14925183791238
843.5, 41.289159744435935
844, 41.458962264798735
844.5, 41.6036269045821
845, 41.704172237297605
845.5, 41.752728394711326
846, 41.73330849175399
846.5, 41.68692633169171
847, 41.60391067859912
847.5, 41.50447522145181
847.9999999999999, 41.38273193873712
848.5, 41.254525762107676
849, 41.146063769076804
849.5, 41.06417998599339
850, 41.009085152759084
850.4999999999999, 40.97181280708963
851, 40.94734398475165
851.5, 40.91962560259206
852, 40.915111226881756
852.5, 40.91559441391926
853, 40.96620748034778
853.5, 41.011604993171105
853.9999999999999, 41.0573964534006
854.5, 41.08134101586542
855, 41.08105478249918
855.5, 41.062638942125176
856, 41.025868395035516
856.4999999999999, 40.994892926103816
857, 40.96077587470659
857.5, 40.9686381335151
858, 40.970902815184544
858.5, 40.93464586713419
859, 40.90114777791916
859.5, 40.8542254133824
859.9999999999999, 40.81755901410329
860.5, 40.77154141052303
861, 40.745578928381825
861.5, 40.72031260081414
862, 40.74570575604176
862.4999999999999, 40.77142716976012
863, 40.81646436099222
863.5, 40.86965610158485
864, 40.96362890032578
864.5, 41.03717173526061
865, 41.12906667922939
865.5, 41.179910257298936
866, 41.23136021117263
866.5, 41.26629014170042
867, 41.29884726558555
867.5, 41.353165656896564
868, 41.411247160174014
868.4999999999999, 41.50517460768877
869, 41.58822318427317
869.5, 41.69825064585856
870, 41.78369836697796
870.5, 41.8782746394032
871, 41.98241619011081
871.5, 42.069575256653536
872, 42.152332004626885
872.5, 42.199696007758014
873, 42.21806979746762
873.5, 42.237372773251046
874, 42.264768497810664
874.4999999999999, 42.339872440561265
875, 42.43544734328858
875.5, 42.600250231424894
876, 42.74052900500711
876.5, 42.88704281856165
876.9999999999999, 43.00013577822115
877.5, 43.12171465873753
878, 43.226831020100676
878.5, 43.3639251603773
879, 43.45269640363225
879.5, 43.547167517207775
880, 43.660734091070324
880.4999999999999, 43.76455245745934
881, 43.92053899964489
881.5, 44.037682004170506
882, 44.159118558093674
882.5, 44.249860389677735
882.9999999999999, 44.359376842789146
883.5, 44.45874486753111
884, 44.56960551871252
884.5, 44.69220202249729
885, 44.7977018244769
885.5, 44.92648600030489
886, 45.017293576199314
886.4999999999999, 45.101210453550536
887, 45.17243392070486
887.5, 45.26344992254439
888, 45.374848569514135
888.5, 45.5019705689444
888.9999999999999, 45.63366145236576
889.5, 45.741946332179666
890, 45.85262891204514
890.5, 45.92456819811173
891, 45.98030016445285
891.5, 46.017739054428674
892, 46.06384763065827
892.5, 46.19604044955938
893, 46.34516114757507
893.5, 46.52797088335434
894, 46.68318585229545
894.5, 46.848844149573836
894.9999999999999, 46.9796427894941
895.5, 47.129009949787545
896, 47.23001613474976
896.5, 47.34890555197981
897, 47.511335721249175
897.4999999999999, 47.68318173398182
898, 47.866251924606004
898.5, 48.00996567048126
899, 48.11107453563514
899.5, 48.20212474068401
900, 48.32368372660936
900.5, 48.43387010854713
900.9999999999999, 48.57936527530024
901.5, 48.69526163588946
902, 48.808670965473624
902.5, 48.931316412660934
903, 49.04069120877649
903.4999999999999, 49.18825597733259
904, 49.306818978128646
904.5, 49.446716330133476
905, 49.53083421165253
905.5, 49.621883631792
906, 49.71084629540676
906.5, 49.80160968066223
906.9999999999999, 49.9421028655389
907.5, 50.05809291109269
908, 50.17823315968795
908.5, 50.270645729585766
909, 50.37318875847436
909.4999999999999, 50.50509920159458
910, 50.695257051221375
910.5, 50.852167633667385
911, 51.00305257449505
911.5, 51.117677407870424
912, 51.23276145627705
912.5, 51.444544730321034
912.9999999999999, 51.65216880512016
913.5, 51.95111348995583
914, 52.25353402517358
914.5, 52.660652139178765
915, 53.0212316243297
915.4999999999999, 53.36449864645832
916, 53.52211768987466
916.5, 53.60739900624723
917, 53.5054115102906
917.5, 53.437001445204444
918, 53.372262674483395
918.5, 53.472152113569685
919, 53.67085019905703
919.5, 53.94732512596306
920, 54.22549930717145
920.5, 54.455277383677995
921, 54.64015940880832
921.4999999999999, 54.82509528639305
922, 54.9922737228693
922.5, 55.215809232196065
923, 55.329944356472524
923.5, 55.4377909424727
923.9999999999999, 55.424764018866775
924.5, 55.39913799920129
925, 55.37272061357585
925.5, 55.36307896570551
926, 55.40005698609632
926.5, 55.43415003250858
927, 55.48070474184377
927.4999999999999, 55.51181038411861
928, 55.548072438169
928.5, 55.61152402329381
929, 55.68246756530513
929.5, 55.869422113806365
929.9999999999999, 56.02487277639011
930.5, 56.210911177108585
931, 56.34080673125264
931.5, 56.47043144241772
932, 56.58433279462249
932.5, 56.72801541757549
933, 56.852822390170466
933.4999999999999, 56.97311083799751
934, 57.12476968352735
934.5, 57.256061078895975
935, 57.43296882029163
935.5, 57.55469586215198
935.9999999999999, 57.67486697737881
936.5, 57.73213391393718
937, 57.78619823860841
937.5, 57.84368611336365
938, 57.90108147263248
938.5, 57.99049499108508
939, 58.06529744599881
939.4999999999999, 58.1585498607779
940, 58.21930258437155
940.5, 58.27464155656332
941, 58.33494499306353
941.5, 58.41577701077769
941.9999999999999, 58.53683762295972
942.5, 58.65866765820705
943, 58.82913490746309
943.5, 58.987277935057165
944, 59.23881672046108
944.4999999999999, 59.42464327212958
945, 59.62796647052753
945.5, 59.712758353110054
946, 59.784286908989245
946.5, 59.81234205146846
947, 59.83816591143303
947.5, 59.90122387658986
947.9999999999999, 59.96573928022455
948.5, 60.0866969824227
949, 60.18970069972151
949.5, 60.31928602646213
950, 60.400075321331485
950.4999999999999, 60.48964001622624
951, 60.61236969300082
951.5, 60.73445209745866
952, 60.914463582790326
952.5, 61.06318770408594
953, 61.249722182656846
953.5, 61.394060615170034
953.9999999999999, 61.56021804334653
954.5, 61.64806579209818
955, 61.737286006644915
955.5, 61.82917578129579
956, 61.92234257571608
956.4999999999999, 62.10278025375194
957, 62.25099366677055
957.5, 62.437335370627686
958, 62.60215251597843
958.5, 62.81466302606111
959, 62.935388795376696
959.5, 63.05878833027519
959.9999999999999, 63.057489732037304
960.5, 63.04966100676202
961, 63.05877121190702
961.5, 63.07038463580937
962, 63.09804655068938
962.4999999999999, 63.14188055195172
963, 63.21604394330112
963.5, 63.310906907079016
964, 63.43465584195683
964.5, 63.55252601002902
965, 63.66327894823292
965.5, 63.806950101298625
965.9999999999999, 63.91054225430491
966.5, 63.985144135192456
967, 64.00638261145929
967.5, 63.99727416877722
968, 64.07203661826945
968.4999999999999, 64.1867297796451
969, 64.3284199513121
969.5, 64.45660767718286
970, 64.56402580205102
970.5, 64.65413994896741
970.9999999999999, 64.7571641143326
971.5, 64.81228751283606
972, 64.85891602125179
972.5, 64.866026329076
973, 64.86681351377929
973.5, 64.93178473568092
974, 64.99902406288672
974.4999999999999, 65.1155184357696
975, 65.21823371998681
975.5, 65.349592223351
976, 65.45592790856058
976.5, 65.59523975071149
976.9999999999999, 65.70084848349236
977.5, 65.82513616538886
978, 66.06622215489892
978.5, 66.28930243269457
979, 66.52442240817373
979.5, 66.68255364810541
980, 66.77561329139976
980.4999999999999, 66.81347206396887
981, 66.83220396127236
981.5, 66.80973602842286
982, 66.77587639342404
982.5, 66.84046600374757
982.9999999999999, 66.9026596714537
983.5, 66.9671121565587
984, 66.9808214051514
984.5, 66.9052465015013
985, 66.86359413802974
985.5, 66.82641313275442
986, 66.89343250272219
986.4999999999999, 66.99865009626838
987, 67.17547462412317
987.5, 67.3379897082851
988, 67.52816032265963
988.5, 67.6676751945411
988.9999999999999, 67.78915689813893
989.5, 67.84868285715167
990, 67.89513006170343
990.5, 67.92699477403163
991, 67.96181326558703
991.4999999999999, 67.98769040320316
992, 68.01063301378971
992.5, 68.03793183966972
993, 68.05539881194085
993.5, 68.06467620546394
994, 68.06734874947207
994.5, 68.0673839072753
994.9999999999999, 68.03590193847657
995.5, 67.99276706913821
996, 67.96700175717926
996.5, 67.95623937918954
997, 68.02825316207023
997.4999999999999, 68.10357354137794
998, 68.22565496546096
998.5, 68.30291591032412
999, 68.38608278908804
999.5, 68.3979687285053
1000, 68.39805274927707
1000.5, 68.38124555036543
1000.9999999999999, 68.36917745849705
1001.5, 68.37816863542731
1002, 68.38865156764277
1002.5, 68.4074379613437
1003, 68.41758951822654
1003.4999999999999, 68.4268271767024
1004, 68.43426155165085
1004.5, 68.44310851597865
1005, 68.46878620276772
1005.5, 68.49315121158597
1006, 68.5300446068708
1006.5, 68.5430970075209
1006.9999999999999, 68.52409742124486
1007.5, 68.5230749256101
1008, 68.53217354210368
1008.5, 68.57782053680265
1009, 68.63870943887744
1009.4999999999999, 68.75044590909604
1010, 68.84520957838218
1010.5, 68.92827547500899
1011, 68.95849993447317
1011.5, 68.92042314315987
1012, 68.91383607765455
1012.5, 68.92287249186312
1012.9999999999999, 68.95700035039188
1013.5, 68.99910288070669
1014, 68.9994926999298
1014.5, 68.99521176687772
1015, 68.96794481319363
1015.4999999999999, 68.94207344381411
1016, 68.90461684932016
1016.5, 68.90365117744484
1017, 68.92180917366633
1017.5, 68.97628252967995
1017.9999999999999, 69.04505089525597
1018.5, 69.13134355462398
1019, 69.18518167692567
1019.5, 69.12238629814028
1020, 69.02892271657808
1020.5, 68.84092912936151
1021, 68.70311789099391
1021.4999999999999, 68.53819246945815
1022, 68.503900531109
1022.5, 68.48984207522423
1023, 68.6102521303974
1023.5, 68.70666264252976
1023.9999999999999, 68.76159718367863
1024.5, 68.8045180159215
1025, 68.851273536954
1025.5, 68.88818381438755
1026, 68.93382643908393
1026.5, 69.01945707232171
1027, 69.1207809431472
1027.5, 69.19930477504838
1028, 69.24605240486459
1028.5, 69.19195131938592
1029, 69.11445318477404
1029.5, 68.96422432979345
1030, 68.88049604848165
1030.5, 68.79808996402555
1031, 68.84416034673957
1031.5, 68.90846023478414
1032, 68.88284748224527
1032.5, 68.84762433227772
1033, 68.74656903884072
1033.5, 68.66913967837728
1034, 68.58505641197853
1034.5, 68.51381764800698
1035, 68.42277759392871
1035.5, 68.35866675268244
1036, 68.29141926349311
1036.5, 68.23863384176224
1037, 68.19972483256844
1037.5, 68.18118968695315
1038, 68.17243523617609
1038.5, 68.1725472714251
1039, 68.16831171845836
1039.5, 68.15897621084305
1040, 68.10125749135675
1040.5, 68.03335630568438
1041, 67.89415286083454
1041.5, 67.790736358065
1042, 67.75303792199541
1042.5, 67.75897507855788
1043, 67.82491294582968
1043.5, 67.79683352310082
1044, 67.71525904777089
1044.5, 67.64983776125567
1045, 67.58961871918892
1045.5, 67.67731811533771
1046, 67.75151051714741
1046.5, 67.83521039132047
1047, 67.86965707038024
1047.5, 67.85961915602537
1048, 67.80774513750758
1048.5, 67.7164820294273
1049, 67.54183570511438
1049.5, 67.35382600000838
1050, 67.15252743624467
1050.5, 66.98935471531688
1051, 66.84109230461681
1051.5, 66.75020457786565
1052, 66.68553825986477
1052.5, 66.68612009160933
1053, 66.71287062054805
1053.5, 66.69376891464336
1054, 66.66716882391577
1054.5, 66.59694046918415
1055, 66.54482261002097
1055.5, 66.51688069150906
1056, 66.50441119708347
1056.5, 66.50458735434091
1057, 66.48979768944272
1057.5, 66.4624147643587
1058, 66.39411278142349
1058.5, 66.32051173182643
1059, 66.23249394714485
1059.5, 66.1620562176218
1060, 66.09703942996585
1060.5, 66.05789682662224
1061, 66.0302162809703
1061.5, 66.01411614850973
1062, 65.99571210380407
1062.5, 65.93506444565665
1063, 65.86802751223274
1063.5, 65.75302319675279
1064, 65.64841585470984
1064.5, 65.49174812790848
1065, 65.33326274598569
1065.5, 65.09999372054135
1066, 64.97274463336332
1066.5, 64.8466561090136
1067, 64.84260775269927
1067.5, 64.85048238526582
1068, 64.82379116435924
1068.5, 64.7976442737507
1069, 64.75118519926583
1069.5, 64.72053700531293
1070, 64.69279358170262
1070.5, 64.69724198576905
1071, 64.71524432055605
1071.5, 64.74645593188464
1072, 64.77570489997345
1072.5, 64.75752099474121
1073, 64.72037546713696
1073.5, 64.59061277519088
1074, 64.48418503434945
1074.5, 64.35408230445903
1075, 64.2941389459381
1075.5, 64.2398549770387
1076, 64.18262465557984
1076.5, 64.12412818400065
1077, 64.01746012783357
1077.5, 63.940678567238514
1078, 63.89365587981407
1078.5, 63.88556047702505
1079, 63.913949764765555
1079.5, 63.87754330198311
1080, 63.805371051608645
1080.5, 63.65600439682601
1081, 63.5083206703811
1081.5, 63.41059588782723
1082, 63.34771638809659
1082.5, 63.33858849237605
1083, 63.31923225668391
1083.5, 63.28190055184237
1084, 63.251805860520875
1084.5, 63.216233589129175
1085, 63.22124964942623
1085.5, 63.22910042485702
1086, 63.22894457815548
1086.5, 63.21871556530529
1087, 63.17175775572482
1087.5, 63.16104227483495
1088, 63.18010472670073
1088.5, 63.19642341468367
1089, 63.213464186886135
1089.5, 63.12194887192509
1090, 63.019214009927666
1090.5, 62.8221484175383
1091, 62.674507190875715
1091.5, 62.543891684983855
1092, 62.452591485256804
1092.5, 62.36026637239172
1093, 62.223825587991456
1093.5, 62.03717005671332
1094, 61.92479420661636
1094.5, 61.835394032455014
1095, 61.88050155336773
1095.5, 61.91566871739161
1096, 61.95367735055728
1096.5, 61.94004723754499
1097, 61.87444840093139
1097.5, 61.82166777796729
1098, 61.75963576809559
1098.5, 61.74027676058088
1099, 61.72579915882744
1099.5, 61.716757325008345
1100, 61.705220200859024
1100.5, 61.677603747223934
1101, 61.634357369880206
1101.5, 61.560047599092044
1102, 61.48866726341242
1102.5, 61.40004331838302
1103, 61.33976264457367
1103.5, 61.28135084188512
1104, 61.17275172805819
1104.5, 61.05942250432416
1105, 60.84457096547489
1105.5, 60.69423279403685
1106, 60.537862225527704
1106.5, 60.49251540154063
1107, 60.465511803044414
1107.5, 60.44013914674557
1108, 60.412837020386796
1108.5, 60.34148400156015
1109, 60.27985894964945
1109.5, 60.2050102256095
1110, 60.183251378236754
1110.5, 60.192384663105344
1111, 60.22425655898948
1111.5, 60.267557475312266
1112, 60.221628713799504
1112.5, 60.17204692356615
1113, 60.09998308962893
1113.5, 60.05303427213504
1114, 60.03427932364996
1114.5, 59.97079489707089
1115, 59.84073481966803
1115.5, 59.72839136522092
1116, 59.59710174014432
1116.5, 59.583298417540504
1117, 59.57875913350501
1117.5, 59.587923869841056
1118, 59.590518896018
1118.5, 59.58107097411363
1119, 59.57363238038673
1119.5, 59.564333265651356
1120, 59.54534729736142
1120.5, 59.51858974932904
1121, 59.452520457090934
1121.5, 59.386588693499625
1122, 59.27961421906119
1122.5, 59.1690969130816
1123, 58.990683584477274
1123.5, 58.86434496819605
1124, 58.71568860635545
1124.5, 58.58917315683609
1125, 58.43971755087801
1125.5, 58.278852705150676
1126, 58.124238601624725
1126.5, 57.88062939545297
1127, 57.696974491894345
1127.5, 57.52888726482363
1128, 57.50906718112998
1128.5, 57.58269156991564
1129, 57.619857873940354
1129.5, 57.65390347102978
1130, 57.580806792639656
1130.5, 57.50503893357887
1131, 57.3779651189826
1131.5, 57.29734498467895
1132, 57.26031770317208
1132.5, 57.257582545205906
1133, 57.27598082509644
1133.5, 57.273709975259116
1134, 57.26408843164931
1134.5, 57.16433010272455
1135, 57.06899247920426
1135.5, 56.94285662602618
1136, 56.829817927125106
1136.5, 56.679723944205556
1137, 56.580512675199
1137.5, 56.46938327109529
1138, 56.46605076473622
1138.5, 56.48232002910448
1139, 56.43229494515334
1139.5, 56.37287808123466
1140, 56.21085738329297
1140.5, 56.05045883723267
1141, 55.80626501229919
1141.5, 55.61590664953813
1142, 55.37569212963072
1142.5, 55.25221693823595
1143, 55.13121136468855
1143.5, 55.1036951854925
1144, 55.08848236760809
1144.5, 55.11549528200161
1145, 55.14404079149111
1145.5, 55.19096418059335
1146, 55.20942097008489
1146.5, 55.218778745887484
1147, 55.15166881843494
1147.5, 55.05553602775855
1148, 54.859569541468254
1148.5, 54.6919395687591
1149, 54.55524953496721
1149.5, 54.460272008163805
1150, 54.385583830012976
1150.5, 54.3227910920298
1151, 54.23991962551387
1151.5, 54.17753153527016
1152, 54.108455304728786
1152.5, 54.04775620374735
1153, 53.987357144734695
1153.5, 53.868910090441105
1154, 53.77841820447279
1154.5, 53.68500379196481
1155, 53.67626726238446
1155.5, 53.7127645361001
1156, 53.672840593938666
1156.5, 53.61222331218641
1157, 53.50902102899119
1157.5, 53.4236874355106
1158, 53.3604377251003
1158.5, 53.291700473783735
1159, 53.179005849127236
1159.5, 53.09551863157408
1160, 52.99445336744231
1160.5, 52.96210754962566
1161, 52.93623205566041
1161.5, 52.91845615514228
1162, 52.88969076849322
1162.5, 52.77237970979238
1163, 52.63035144815882
1163.5, 52.37671751389181
1164, 52.19698274783258
1164.5, 51.9859394898901
1165, 51.933635387924554
1165.5, 51.89954581493687
1166, 51.89905268459219
1166.5, 51.89440138300765
1167, 51.858664626134484
1167.5, 51.80001914410225
1168, 51.67767149041792
1168.5, 51.53380454696611
1169, 51.3235394161672
1169.5, 51.18484366696067
1170, 51.042576324614586
1170.5, 51.015265952686775
1171, 50.99989326748484
1171.5, 51.01044865842131
1172, 50.967419563679464
1172.5, 50.82607835700564
1173, 50.70008753854186
1173.5, 50.53579923273062
1174, 50.32351234056838
1174.5, 50.07620004088805
1175, 49.805836265205336
1175.5, 49.60445594707737
1176, 49.530509735349035
1176.5, 49.494644922124166
1177, 49.49514737016332
1177.5, 49.51509995781634
1178, 49.55149920300152
1178.5, 49.56248640447643
1179, 49.57017258991171
1179.5, 49.55268770393544
1180, 49.52764088732588
1180.5, 49.4464412071705
1181, 49.3255654199786
1181.5, 49.09081688997472
1182, 48.91304111652472
1182.5, 48.69362308805123
1183, 48.49948810599448
1183.5, 48.304133421598436
1184, 48.139460670685004
1184.5, 48.012549863171984
1185, 47.94824639397278
1185.5, 47.894574026657104
1186, 47.829170333538684
1186.5, 47.79344898619077
1187, 47.75666269309108
1187.5, 47.68174028929138
1188, 47.59902454927561
1188.5, 47.494273938563694
1189, 47.39687205188235
1189.5, 47.24960961029561
1190, 47.131020980503855
1190.5, 46.99102872693934
1191, 46.931901032518894
1191.5, 46.88589875051519
1192, 46.80937443103969
1192.5, 46.72560448211933
1193, 46.576920251220514
1193.5, 46.450927478607134
1194, 46.311865124502056
1194.5, 46.235029608013996
1195, 46.19839842428199
1195.5, 46.18519695687583
1196, 46.17583528045317
1196.5, 46.13186329392021
1197, 46.083886392063285
1197.5, 46.0662140047933
1198, 46.03845783453754
1198.5, 45.94769954832627
1199, 45.8089244969012
1199.5, 45.54651032395199
1200, 45.34976842588211
1200.5, 45.11427904271739
1201, 45.02534205954309
1201.5, 44.956889452014344
1202, 44.939263867960825
1202.5, 44.91403470388142
1203, 44.840501584122215
1203.5, 44.76529860111671
1204, 44.65307920738898
1204.5, 44.52320760381281
1205, 44.342410264273624
1205.5, 44.23037520833544
1206, 44.132487140550644
1206.5, 44.15929364594303
1207, 44.186820653465645
1207.5, 44.24251476461241
1208, 44.277343184168465
1208.5, 44.305040653712844
1209, 44.28564114919398
1209.5, 44.24037823297381
1210, 44.162684040994044
1210.5, 44.083046136758036
1211, 44.02139126255123
1211.5, 43.9776939935733
1212, 43.95970829696388
1212.5, 43.91880075906727
1213, 43.83450540521044
1213.5, 43.747332696631986
1214, 43.629865768269724
1214.5, 43.50084812321371
1215, 43.373726482505056
1215.5, 43.258925916338455
1216, 43.18140051844306
1216.5, 43.16343625914677
1217, 43.118324545153975
1217.5, 43.024714529358455
1218, 42.92405990797882
1218.5, 42.78905713575589
1219, 42.68033236516963
1219.5, 42.574739290182244
1220, 42.42383161652012
1220.5, 42.30517505108025
1221, 42.19282447929079
1221.5, 42.153711143905674
1222, 42.17330030447761
1222.5, 42.18944896605363
1223, 42.20691430668658
1223.5, 42.14778378871775
1224, 42.078191168190735
1224.5, 41.92676252579095
1225, 41.803029144212196
1225.5, 41.66296713830567
1226, 41.590481756819315
1226.5, 41.55416763022877
1227, 41.557589505145664
1227.5, 41.57549663170004
1228, 41.606639557832956
1228.5, 41.62723499405778
1229, 41.48409937737116
1229.5, 41.36030552484629
1230, 41.191773061326074
1230.5, 41.124013290638366
1231, 41.12534789893521
1231.5, 41.1317707576977
1232, 41.14053788822849
1232.5, 41.12583545837077
1233, 41.1090446088444
1233.5, 41.08206217994088
1234, 41.04980151342741
1234.5, 40.975716792752806
1235, 40.89883873244551
1235.5, 40.78726592852728
1236, 40.61010622728644
1236.5, 40.35959273222617
1237, 40.05755222491897
1237.5, 39.770102521488475
1238, 39.51923515813959
1238.5, 39.31389981103316
1239, 39.07104410149724
1239.5, 38.92061487546732
1240, 38.79198556501337
1240.5, 38.78399060815178
1241, 38.810480613521754
1241.5, 38.85862330204833
1242, 38.9027961723163
1242.5, 38.91174524798678
1243, 38.92128767360805
1243.5, 38.93970732400356
1244, 38.96713515684003
1244.5, 39.0136224036125
1245, 39.084761840413584
1245.5, 39.1826751695865
1246, 39.29022777283832
1246.5, 39.391172493646415
1247, 39.49038999720673
1247.5, 39.58706225176258
1248, 39.75449044667309
1248.5, 39.91189382611653
1249, 40.12470598603604
1249.5, 40.22238135157253
1250, 40.31076327732627
1250.5, 40.29973896042742
1251, 40.27817525512508
1251.5, 40.20589065350449
1252, 40.14435387637714
1252.5, 40.060267851596684
1253, 39.999956882591185
1253.5, 39.93554616310542
1254, 39.91181246564248
1254.5, 39.894445897307364
1255, 39.93312975578168
1255.5, 39.96903202444787
1256, 39.96968507384448
1256.5, 39.952651040687314
1257, 39.886800954957174
1257.5, 39.83562969393667
1258, 39.770422578706004
1258.5, 39.78758195573689
1259, 39.83197107659487
1259.5, 39.930062345490875
1260, 40.02256253169968
1260.5, 40.112396132606676
1261, 40.177099019675474
1261.5, 40.223734513055206
1262, 40.23930693918548
1262.5, 40.23941293953602
1263, 40.24012297009697
1263.5, 40.23957611121501
1264, 40.18284589239927
1264.5, 40.11988010250589
1265, 39.97583619005025
1265.5, 39.870585688983574
1266, 39.786587306307254
1266.5, 39.76319407476535
1267, 39.77227428099087
1267.5, 39.815423893155625
1268, 39.877012366806326
1268.5, 39.95256266125182
1269, 40.02335587097098
1269.5, 40.11329660764932
1270, 40.18488930382078
1270.5, 40.25953395587186
1271, 40.23312185444561
1271.5, 40.122153698219606
1272, 40.00040845313897
1272.5, 39.852318898267164
1273, 39.806281670797794
1273.5, 39.77271252302627
1274, 39.76364687889767
1274.5, 39.75868454766651
1275, 39.75892355306231
1275.5, 39.81472539399414
1276, 39.93497753029715
1276.5, 40.04641924469647
1277, 40.176752070111135
1277.5, 40.21337545128453
1278, 40.22831364636595
1278.5, 40.12978583167569
1279, 40.02671678298037
1279.5, 39.85777582015745
1280, 39.778118988773805
1280.5, 39.72227006769279
1281, 39.70735344685572
1281.5, 39.698645523272155
1282, 39.70676016400904
1282.5, 39.716731561009176
1283, 39.74391826088857
1283.5, 39.76414428534198
1284, 39.78281693954572
1284.5, 39.784086381313706
1285, 39.77491797540587
1285.5, 39.736242064319185
1286, 39.68413863418731
1286.5, 39.63321345819961
1287, 39.603096994953944
1287.5, 39.68343373841035
1288, 39.78588125136842
1288.5, 39.983329961235405
1289, 40.12853536636916
1289.5, 40.304074338259795
1290, 40.40528486343567
1290.5, 40.50907400040461
1291, 40.55304787171023
1291.5, 40.58496963347168
1292, 40.58494231200814
1292.5, 40.585101490112656
1293, 40.58515483546778
1293.5, 40.60319390176342
1294, 40.63998918887406
1294.5, 40.68628199566728
1295, 40.689294312789535
1295.5, 40.68805632891002
1296, 40.68663787229502
1296.5, 40.68506331725909
1297, 40.683357038116746
1297.5, 40.681543409182545
1298, 40.67964680477101
1298.5, 40.6776915991967
1299, 40.67570216677413
1299.5, 40.67370288181783
1300, 40.671718118642374
1300.5, 40.669772251562286
1301, 40.66788965489208
1301.5, 40.666094702946324
1302, 40.66441177003954
1302.5, 40.66286523048626
1303, 40.66147945860105
1303.5, 40.66027882869841
1304, 40.645116531189224
1304.5, 40.6364844553036
1305, 40.62993930669104
1305.5, 40.631497040077974
1306, 40.63689815139875
1306.5, 40.643454781389586
1307, 40.65080727013349
1307.5, 40.658595957713416
1308, 40.66646118421236
1308.5, 40.67404328971331
1309, 40.680982614299246
1309.5, 40.68691949805315
1310, 40.67583690964352
1310.5, 40.63307767909036
1311, 40.595574489453114
1311.5, 40.57537444943558
1312, 40.55706546987594
1312.5, 40.46363495220902
1313, 40.3422889681963
1313.5, 40.14286347339887
1314, 39.96815417253889
1314.5, 39.75804261846692
1314.9999999999998, 39.58217726643317
1315.5, 39.3669036910482
1316, 39.245927451666276
1316.5, 39.126697815958266
1317, 39.0853482784467
1317.5, 39.05302836429595
1318, 39.09613671475277
1318.4999999999998, 39.14704108208067
1319, 39.274970597804824
1319.5, 39.388141983700244
1320, 39.53797606147405
1320.5, 39.63147403349227
1321, 39.73209310553464
1321.5, 39.77777114089355
1321.9999999999998, 39.81810965425982
1322.5, 39.78366174485371
1323, 39.74228887372262
1323.5, 39.64002032149744
1324, 39.611045913481796
1324.5, 39.66829040559127
1325, 39.77727224082871
1325.5, 39.95015151112599
1326, 40.0903712803812
1326.5, 40.243297313125325
1326.9999999999998, 40.40106091682055
1327.5, 40.52623081135734
1328, 40.62784453092856
1328.5, 40.68574785787203
1329, 40.7132755829348
1329.5, 40.70574163563646
1330, 40.67838147121811
1330.4999999999998, 40.633004110161984
1331, 40.583184186062056
1331.5, 40.51357487424099
1332, 40.45263411501391
1332.5, 40.37895262302417
1333, 40.32467931769168
1333.5, 40.26882709800209
1334, 40.283903455022404
1334.5, 40.33854133995547
1335, 40.429526042449844
1335.4999999999998, 40.527050470626335
1336, 40.59662485041526
1336.5, 40.651624321355605
1337, 40.689259174472944
1337.5, 40.686031573337694
1338, 40.629345678678945
1338.5, 40.57482049902828
1338.9999999999998, 40.502138854688916
1339.5, 40.46566819086516
1340, 40.43388750531288
1340.5, 40.40770152314115
1341, 40.386764155035365
1341.5, 40.368990582858736
1342, 40.32619514690132
1342.4999999999998, 40.23232075642971
1343, 40.152784065851066
1343.5, 40.053276557295064
1344, 40.05729954161403
1344.5, 40.07621242065679
1345, 40.12893873548838
1345.5, 40.17622987693069
1346, 40.24160395620075
1346.5, 40.26006666295027
1347, 40.23140764860961
1347.4999999999998, 40.19303996902667
1348, 40.13897435029699
1348.5, 40.14813787713976
1349, 40.166586966783946
1349.5, 40.219457784016214
1350, 40.26684418282985
1350.5, 40.33260024905999
1350.9999999999998, 40.336321813375605
1351.5, 40.270106040857044
1352, 40.197085423878626
1352.5, 40.097761004362845
1353, 40.05193322490169
1353.5, 40.01660028488869
1354, 40.06979084476279
1354.5, 40.120548704830505
1355, 40.20508154440088
1355.5, 40.212482605843945
1355.9999999999998, 40.13678811239046
1356.5, 40.0617708872886
1357, 39.96233324947447
1357.5, 39.872151667687426
1358, 39.78469192232133
1358.5, 39.705466685803266
1359, 39.656943382838534
1359.4999999999998, 39.67473051028837
1360, 39.72258359959924
1360.5, 39.82557841289997
1361, 39.88618963185567
1361.5, 39.94916969296634
1362, 39.9549894228932
1362.5, 39.9583907048865
1362.9999999999998, 40.038419239430276
1363.5, 40.113218957265566
1364, 40.23381920371349
1364.5, 40.32536155972302
1365, 40.427487432118944
1365.5, 40.466549456980296
1366, 40.49323802548416
1366.5, 40.435655125423445
1367, 40.37159365166256
1367.5, 40.31851140717695
1367.9999999999998, 40.286529166335086
1368.5, 40.295700964425194
1369, 40.306895611369576
1369.5, 40.325534748214366
1370, 40.31959644867689
1370.5, 40.30117606912659
1371, 40.209139005769465
1371.4999999999998, 40.111984486322456
1372, 39.996321515173726
1372.5, 39.908581459207646
1373, 39.834276926843984
1373.5, 39.773202682016596
1374, 39.69894160805497
1374.5, 39.65057086303144
1374.9999999999998, 39.59682778054859
1375.5, 39.57025040879185
1376, 39.55256171751879
1376.5, 39.61550387795291
1377, 39.689418403069496
1377.5, 39.85692936783945
1378, 39.9783672527172
1378.5, 40.10788099512873
1379, 40.155816577584275
1379.5, 40.192047409953496
1379.9999999999998, 40.2407993282703
1380.5, 40.29220216443719
1381, 40.39959600609695
1381.5, 40.483565133648256
1382, 40.5683478646956
1382.5, 40.57823689767511
1383, 40.52152474068746
1383.4999999999998, 40.497720639697846
1384, 40.48052427853737
1384.5, 40.564068271898016
1385, 40.64705253355663
1385.5, 40.673583415214864
1386, 40.67545387978905
1386.5, 40.61028340381591
1387, 40.561092059249965
1387.5, 40.50564111169589
1388, 40.47819058341764
1388.4999999999998, 40.45128286692052
1389, 40.41863861011295
1389.5, 40.391211690981606
1390, 40.409345501256986
1390.5, 40.43055002569444
1391, 40.47731634814247
1391.5, 40.5032321745473
1391.9999999999998, 40.52147900368236
1392.5, 40.51354102280087
1393, 40.495786449383196
1393.5, 40.47140458005929
1394, 40.45216590722626
1394.5, 40.47944889606102
1395, 40.5167733495272
1395.4999999999998, 40.610028208988446
1396, 40.681951176423205
1396.5, 40.76496496892366
