303.5, 21.12401857864927
304, 21.114577492839757
304.5, 21.141341004577825
305, 21.19795148238137
305.5, 21.223886350166666
306, 21.217109930007382
306.5, 21.225901005155166
307, 21.24590818674858
307.5, 21.250918433771588
308, 21.245831696754877
308.5, 21.24314334700078
309, 21.251000005672225
309.5, 21.26878674873494
310, 21.284662758870084
310.5, 21.300886634558836
311, 21.330482659121515
311.5, 21.36539819191445
312, 21.389124857579347
312.5, 21.39709551640398
313, 21.394485009113694
313.5, 21.40203602081145
314, 21.421764810216402
314.5, 21.42665213273453
315, 21.42424201873952
315.5, 21.448414053114945
316, 21.485794310693677
316.5, 21.50685856980931
317, 21.519277363635894
317.5, 21.535540439623404
318, 21.553708295666198
318.5, 21.570642544047175
319, 21.58503362718433
319.5, 21.601846788393402
320, 21.629855241904522
320.5, 21.666065988212253
321, 21.702076653740278
321.5, 21.731745154516176
322, 21.751007695689438
322.5, 21.759383208150368
323, 21.759071506568105
323.5, 21.755426435644793
324, 21.755904789578054
324.5, 21.76802370419135
325, 21.78704757116462
325.5, 21.804346215440972
326, 21.820471319623636
326.5, 21.837277842665628
327, 21.853720651830443
327.5, 21.870113404895363
328, 21.888846708278237
328.5, 21.905428322662758
329, 21.91097757527642
329.5, 21.90792110868702
330, 21.904446076430247
330.5, 21.909822089417958
331, 21.92691968670553
331.5, 21.943059054701095
332, 21.957684677732075
332.5, 21.98818611164367
333, 22.02324657729251
333.5, 22.03257658903702
334, 22.02802949664148
334.5, 22.036684767898976
335, 22.064672889741132
335.5, 22.102956906360617
336, 22.120785480726866
336.5, 22.116597788138947
337, 22.130301078293755
337.5, 22.168908010391505
338, 22.21114719172428
338.5, 22.2382308083303
339, 22.240440279687505
339.5, 22.239229171517323
340, 22.253721603913704
340.5, 22.278994895672994
341, 22.29849680530981
341.5, 22.28769088597079
342, 22.268212766217033
342.5, 22.28902798161637
343, 22.328386166174866
343.5, 22.346565167877202
344, 22.363395368786385
344.5, 22.39739724123247
345, 22.430157211782074
345.5, 22.447095433015534
346, 22.446527804073497
346.5, 22.44603969805644
347, 22.471853500716733
347.5, 22.50888511030645
348, 22.530744167130024
348.5, 22.540369653094857
349, 22.55189396017012
349.5, 22.587284597072383
350, 22.641475289247992
350.5, 22.675746372360138
351, 22.68732962318508
351.5, 22.69999350496802
352, 22.719370783304527
352.5, 22.740478803354435
353, 22.749363535259135
353.5, 22.7451173160716
354, 22.759204904734602
354.5, 22.796190106146966
355, 22.82325470812303
355.5, 22.836772775132786
356, 22.853741278198484
356.5, 22.869614701241247
357, 22.873591625625338
357.5, 22.8676246289062
358, 22.86263834535005
358.5, 22.88138206595626
359, 22.91887283327975
359.5, 22.93629142283025
360, 22.930991666603475
360.5, 22.92628027574979
361, 22.929723692551264
361.5, 22.942237320309573
362, 22.965925540440026
362.5, 22.99943756461431
363, 23.033757274481957
363.5, 23.066502887756883
364, 23.103539919222882
364.5, 23.136140459563066
365, 23.15031678287083
365.5, 23.170939531531985
366, 23.222417291858577
366.5, 23.26711287143172
367, 23.281775130249983
367.5, 23.30180169848056
368, 23.338111281730235
368.5, 23.364976921006743
369, 23.378458144268933
369.5, 23.39108945661313
370, 23.411226639397455
370.5, 23.442609217324573
371, 23.47899384481437
371.5, 23.513435468513066
372, 23.542102265524107
372.5, 23.559093164022897
373, 23.557656783650557
373.5, 23.5578279553623
374, 23.58929166152562
374.5, 23.621335814144132
375, 23.619833341385203
375.5, 23.62581162215895
376, 23.66284242630536
376.5, 23.687086808551882
377, 23.683585965472403
377.5, 23.678961495792734
378, 23.680549363341754
378.5, 23.681591396339385
379, 23.680812073485882
379.5, 23.67976658118772
380, 23.681922008054073
380.5, 23.694494195759077
381, 23.730586828012363
381.5, 23.7837694689093
382, 23.82643821119551
382.5, 23.856682528468014
383, 23.88868625662164
383.5, 23.92298817870541
384, 23.956196821473313
384.5, 23.990141486847193
385, 24.024621399833464
385.5, 24.05333894800232
386, 24.06979189113129
386.5, 24.06974205193717
387, 24.069743775017443
387.5, 24.094532125390046
388, 24.133842750530007
388.5, 24.169082538605906
389, 24.19917705191682
389.5, 24.23022117709202
390, 24.274290797295635
390.5, 24.32661731047162
391, 24.365319739068255
391.5, 24.396863320052006
392, 24.43911014647827
392.5, 24.4621983662104
393, 24.442330132573673
393.5, 24.43546302376575
394, 24.471715186895736
394.5, 24.503363093688662
395, 24.51650755554421
395.5, 24.541123866510887
396, 24.577734521765265
396.5, 24.610200488655934
397, 24.64534537554708
397.5, 24.6933437619155
398, 24.747222688166673
398.5, 24.79848089641216
399, 24.8422672246774
399.5, 24.875037361745598
400, 24.895099452570406
400.5, 24.910630536815432
401, 24.935145851300106
401.5, 24.976966469180425
402, 25.032879440568152
402.5, 25.069159122802077
403, 25.06927553482319
403.5, 25.058591066384807
404, 25.05874832446885
404.5, 25.081116156773646
405, 25.118682078946037
405.5, 25.15519467412021
406, 25.185685931225436
406.5, 25.20755333430469
407, 25.212951498926742
407.5, 25.208535836479626
408, 25.227068017067978
408.5, 25.26481429974129
409, 25.282489956354524
409.5, 25.29929301936589
410, 25.35839087412542
410.5, 25.429057258421352
411, 25.469960508091148
411.5, 25.487638237353778
412, 25.50100855983122
412.5, 25.533609157819583
413, 25.586883042003905
413.5, 25.640500665151464
414, 25.68919351356203
414.5, 25.737422765326585
415, 25.789653207206314
415.5, 25.8444974667583
416, 25.88315474418694
416.5, 25.899068698760416
417, 25.911861731381904
417.5, 25.929451866705293
418, 25.945993849320303
418.5, 25.962842565239683
419, 25.983221685733284
419.5, 25.995201212125423
420, 25.99238544320133
420.5, 25.999980932892285
421, 26.03287469554722
421.5, 26.078799336167393
422, 26.12944246948966
422.5, 26.182576508980546
423, 26.23121968779482
423.5, 26.267944116645353
424, 26.298642100356247
424.5, 26.331236394825666
425, 26.366563901740065
425.5, 26.401248235582287
426, 26.427993193679313
426.5, 26.46034019807162
427, 26.526412262942543
427.5, 26.592369941041824
428, 26.60857917805845
428.5, 26.63169921274006
429, 26.714358218496244
429.5, 26.79809535974975
430, 26.846431427328284
430.5, 26.89106142153453
431, 26.959959087621
431.5, 27.065476342373486
432, 27.161733093708406
432.5, 27.19066719516354
433, 27.199559665563967
433.5, 27.23686050392905
434, 27.259333661074166
434.5, 27.253131400231567
435, 27.27508662861956
435.5, 27.331639221824403
436, 27.378798753355866
436.5, 27.405798700099695
437, 27.422102581929934
437.5, 27.440127099872086
438, 27.469953301340638
438.5, 27.512724999505522
439, 27.563786012815285
439.5, 27.61166884514715
440, 27.64356764437686
440.5, 27.65109876889575
441, 27.67383719785292
441.5, 27.7559793391615
442, 27.834739780357864
442.5, 27.853881197752216
443, 27.86475134665271
443.5, 27.900028866372708
444, 27.935278800313853
444.5, 27.94961676094836
445, 27.936163960896323
445.5, 27.944971219393082
446, 28.03280834402372
446.5, 28.141116352728417
447, 28.210210075322806
447.5, 28.270883790560745
448, 28.34065272430145
448.5, 28.394621113355328
449, 28.424213568533617
449.5, 28.439602403145997
450, 28.45755257370284
450.5, 28.49132240591497
451, 28.522455024439836
451.5, 28.537290280383402
452, 28.559275168770696
452.5, 28.59540113216525
453, 28.620190290169887
453.5, 28.634372107972283
454, 28.661358459045374
454.5, 28.697692494011704
455, 28.72995598686815
455.5, 28.765683060294137
456, 28.81368297374189
456.5, 28.870002186424628
457, 28.922799204237634
457.5, 28.9529154725395
458, 28.96610782280436
458.5, 28.988404063510586
459, 29.027865154583793
459.5, 29.079942455296603
460, 29.126130325573115
460.5, 29.157216558982938
461, 29.19723954594167
461.5, 29.2506692160772
462, 29.28805466036286
462.5, 29.319012245660375
463, 29.381521875180724
463.5, 29.448853838089136
464, 29.475667306742977
464.5, 29.482127310443545
465, 29.496468419689336
465.5, 29.52075404194018
466, 29.553831869147686
466.5, 29.595743073701684
467, 29.64741843867168
467.5, 29.707548941465504
468, 29.750620888061505
468.5, 29.753139129922772
469, 29.75359926251187
469.5, 29.78510369597825
470, 29.82588309327876
470.5, 29.87200392423395
471, 29.95290642982316
471.5, 30.03953110689453
472, 30.063568659688073
472.5, 30.05198528797628
473, 30.062914804307127
473.5, 30.085342743113003
474, 30.10114071425103
474.5, 30.12049669150531
475, 30.153239062693658
475.5, 30.201926588703344
476, 30.253100555329596
476.5, 30.285843607835716
477, 30.321204469547936
477.5, 30.38683745134132
478, 30.452214287811685
478.5, 30.48887439117712
479, 30.50998075144045
479.5, 30.526795620158936
480, 30.540150643955172
480.5, 30.557265930374996
481, 30.588398365514948
481.5, 30.622399678629748
482, 30.647915256794803
482.5, 30.6951201901024
483, 30.771545060306835
483.5, 30.808037710647625
484, 30.78533223349001
484.5, 30.763698598678246
485, 30.769061911756637
485.5, 30.7951657834182
486, 30.832818242297762
486.5, 30.87618433558292
487, 30.937085454387287
487.5, 31.01189554069981
488, 31.052306833729247
488.5, 31.04765362635598
489, 31.042831236747716
489.5, 31.04470273844288
490, 31.034175173922492
490.5, 31.043435080217236
491, 31.10708152302871
491.5, 31.173845135093003
492, 31.20556696301263
492.5, 31.241560394933018
493, 31.295184478825377
493.5, 31.33472906358834
494, 31.36579260123797
494.5, 31.417595710789726
495, 31.464369037543605
495.5, 31.470948513471257
496, 31.463655137113562
496.5, 31.46563643380081
497, 31.460022013693077
497.5, 31.45541142590905
498, 31.496099554747005
498.5, 31.570815698591915
499, 31.633632931377775
499.5, 31.70550960442459
500, 31.81395666353737
500.5, 31.8960000313498
501, 31.91245916196199
501.5, 31.922773377826147
502, 31.958558288450234
502.5, 32.00025886597152
503, 32.03153683247453
503.5, 32.04254328406036
504, 32.03507980783701
504.5, 32.022772343661686
505, 32.045284149811664
505.5, 32.115310275337734
506, 32.17624091223311
506.5, 32.22019947853791
507, 32.305215636185025
507.5, 32.410925239136105
508, 32.46786266238799
508.5, 32.48636084507943
509, 32.50250987756034
509.5, 32.51987822711456
510, 32.53633757836782
510.5, 32.55379512107487
511, 32.57099438169128
511.5, 32.58203845602351
512, 32.578911661512336
512.5, 32.557231375833325
513, 32.546395937207166
513.5, 32.58025829413121
514, 32.6570885103676
514.5, 32.75940263852182
515, 32.85453803686789
515.5, 32.92087577143451
516, 32.953624906658206
516.5, 32.9652974906044
517, 32.97774236407345
517.5, 32.99773550105908
518, 33.02085417151041
518.5, 33.02497347955645
519, 33.0049959357608
519.5, 32.99767059122016
520, 33.016996186000625
520.5, 33.04525895360901
521, 33.08016340330164
521.5, 33.12864502230035
522, 33.179033278372614
522.5, 33.21662724508232
523, 33.24298718369704
523.5, 33.27091252490568
524, 33.327099765482075
524.5, 33.39926986620354
525, 33.43192124054043
525.5, 33.421130538179725
526, 33.39875397243114
526.5, 33.38763016942312
527, 33.39988507729939
527.5, 33.42377979925702
528, 33.453395104162595
528.5, 33.50335696206474
529, 33.55771605014657
529.5, 33.567452260650995
530, 33.541728308457394
530.5, 33.52293032469528
531, 33.50669904491818
531.5, 33.48253379026572
532, 33.48194586791543
532.5, 33.517553331971115
533, 33.54969107511393
533.5, 33.579032668851724
534, 33.652153376135686
534.5, 33.73936722517858
535, 33.773395209669445
535.5, 33.77889346643998
536, 33.79750259819703
536.5, 33.80886403495539
537, 33.804295418287595
537.5, 33.82060943078173
538, 33.8585509229312
538.5, 33.87638711518278
539, 33.8700054885371
539.5, 33.857828331797975
540, 33.836554436757396
540.5, 33.80791921421158
541, 33.8174892370462
541.5, 33.88467484389652
542, 33.96409315086039
542.5, 34.0296323348105
543, 34.08261136609549
543.5, 34.10875744884558
544, 34.08947380992444
544.5, 34.045646134034044
545, 34.000696064280234
545.5, 33.939186378437526
546, 33.87532685894965
546.5, 33.88854730976807
547, 33.967776285908215
547.5, 34.00568793700397
548, 33.99146229234992
548.5, 33.97215499186241
549, 33.957576651512184
549.5, 33.942993401246554
550, 33.921509032470695
550.5, 33.8890951273095
551, 33.84814272985527
551.5, 33.81358875526938
552, 33.81034673369882
552.5, 33.83469082587477
553, 33.863535704844566
553.5, 33.86701555350544
554, 33.831973567829664
554.5, 33.80444613034969
555, 33.80731289882148
555.5, 33.80317639223091
556, 33.783388193063345
556.5, 33.773630912902036
557, 33.7774893641688
557.5, 33.7834367473359
558, 33.77680786905066
558.5, 33.74785533244027
559, 33.705053001065195
559.5, 33.65577858909097
560, 33.599905237829006
560.5, 33.5488976968315
561, 33.52530411614504
561.5, 33.53505155624303
562, 33.569803139917354
562.5, 33.59957750188288
563, 33.60173146255178
563.5, 33.59787297483334
564, 33.600149378165014
564.5, 33.59106881588757
565, 33.572093583064955
565.5, 33.564590940029674
566, 33.567616379021004
566.5, 33.568731207699685
567, 33.567879210431556
567.5, 33.567915156001604
568, 33.5676409389675
568.5, 33.556000399968894
569, 33.50821810905903
569.5, 33.43631093452983
570, 33.385896622364456
570.5, 33.35964302629871
571, 33.33862961034636
571.5, 33.327097232194646
572, 33.328850572548774
572.5, 33.32398259357363
573, 33.305355425811754
573.5, 33.293494078412664
574, 33.295498122004474
574.5, 33.302234588704025
575, 33.29884965594222
575.5, 33.276074925461685
576, 33.268927544607706
576.5, 33.302686601620664
577, 33.333854662083425
577.5, 33.334010596458185
578, 33.31908705999335
578.5, 33.30191706142463
579, 33.287323204316735
579.5, 33.26940365886706
580, 33.24327904855765
580.5, 33.23942160856468
581, 33.27538265648637
581.5, 33.30099685278296
582, 33.28490480306776
582.5, 33.24534630887534
583, 33.211179049413246
583.5, 33.21250131572735
584, 33.23576434416357
584.5, 33.25133829773891
585, 33.27091468413168
585.5, 33.30632855154039
586, 33.333939593109776
586.5, 33.33568324363806
587, 33.31243417271219
587.5, 33.2765404941312
588, 33.248328666075366
588.5, 33.23739086249398
589, 33.24200676609915
589.5, 33.23441942693323
590, 33.19121664438474
590.5, 33.12263194668046
591, 33.051555994866746
591.5, 33.01013267723573
592, 32.998676891224264
592.5, 32.9912779104701
593, 32.99565431565732
593.5, 33.03271028576131
594, 33.09704259164603
594.5, 33.16245127978449
595, 33.16965149354836
595.5, 33.11247175812635
596, 33.0708005784886
596.5, 33.06049458710358
597, 33.03766390533609
597.5, 32.99923634797592
598, 32.962464177651995
598.5, 32.93318565436651
599, 32.90589995244355
599.5, 32.855001464322925
600, 32.78299084348174
600.5, 32.73738647658392
601, 32.72695542332845
601.5, 32.722991651866195
602, 32.69870442054825
602.5, 32.63792626887091
603, 32.566284406788554
603.5, 32.51151040879306
604, 32.474947943306475
604.5, 32.43204985744349
605, 32.33097418958428
605.5, 32.20680002450018
606, 32.15779183672997
606.5, 32.155974071212185
607, 32.12769457290341
607.5, 32.090854194526415
608, 32.07307115740171
608.5, 32.05955062890007
609, 32.01670221167346
609.5, 31.896906946808258
610, 31.718136940240612
610.5, 31.55187933739309
611, 31.437393616670448
611.5, 31.38743592181423
612, 31.372365826534804
612.5, 31.35862860659583
613, 31.332770465007442
613.5, 31.29725682998263
614, 31.270914358006593
614.5, 31.237683529543332
615, 31.16002809887098
615.5, 31.075674977677664
616, 31.038216224847176
616.5, 31.005493948318872
617, 30.93857589526972
617.5, 30.870459095112622
618, 30.80853540541426
618.5, 30.71288128357253
619, 30.609048818135093
619.5, 30.56801462527895
620, 30.563083009304208
620.5, 30.535493291448304
621, 30.496292384443393
621.5, 30.472035500212925
622, 30.480387038354223
622.5, 30.516835801942065
623, 30.549043235375336
623.5, 30.562264018146095
624, 30.55753488014757
624.5, 30.53343055461174
625, 30.49389228582065
625.5, 30.471608184318015
626, 30.486568878228297
626.5, 30.511093194911822
627, 30.527304931508397
627.5, 30.540218061910736
628, 30.557577005283008
628.5, 30.58151698555662
629, 30.56369262400625
629.5, 30.45857396724844
630, 30.331169988542584
630.5, 30.24270689230829
631, 30.178814439771514
631.5, 30.127805586246865
632, 30.09346331012449
632.5, 30.041207537638797
633, 29.916617467487768
633.5, 29.752734265887625
634, 29.609327588954798
634.5, 29.489052061405246
635, 29.393354273818133
635.5, 29.35338410812828
636, 29.360009353199175
636.5, 29.349001451087148
637, 29.30923006992421
637.5, 29.270840206577944
638, 29.240538117785263
638.5, 29.216998282001683
639, 29.211376243293515
639.5, 29.22774513542447
640, 29.247243679752827
640.5, 29.249025817826407
641, 29.214642012124855
641.5, 29.139451945507247
642, 29.033683626649932
642.5, 28.93970203904449
643, 28.89665085177043
643.5, 28.87490100904141
644, 28.842981354369527
644.5, 28.803055191555345
645, 28.767790526107262
645.5, 28.75575574990465
646, 28.75942731001524
646.5, 28.7535437075269
647, 28.72925674337219
647.5, 28.685840673668807
648, 28.625385852467744
648.5, 28.547031626150385
649, 28.442954494470115
649.5, 28.336818450088145
650, 28.287805230302453
650.5, 28.281102503238316
651, 28.255094692509985
651.5, 28.218236960754624
652, 28.19897564214338
652.5, 28.184942176327
653, 28.156787714422478
653.5, 28.10137149066979
654, 28.016352478899577
654.5, 27.91262757048294
655, 27.813024232239442
655.5, 27.744585418884938
656, 27.707253819892472
656.5, 27.688727647528026
657, 27.674008666903816
657.5, 27.64651274184557
658, 27.58864120804104
658.5, 27.516532433634254
659, 27.482575336867612
659.5, 27.47171885951137
660, 27.426731751651843
660.5, 27.344563035282107
661, 27.25028919203568
661.5, 27.187798701709255
662, 27.172948739791693
662.5, 27.156627814315584
663, 27.134683884717973
663.5, 27.16107039085425
664, 27.219076700007037
664.5, 27.249257825137192
665, 27.257306078341657
665.5, 27.25870994634863
666, 27.207117948038714
666.5, 27.096577706815097
667, 27.027794308710526
667.5, 27.006193269475943
668, 26.920101148976087
668.5, 26.792478984884
669, 26.724465026411067
669.5, 26.683858643090446
670, 26.613137361118703
670.5, 26.557100993451755
671, 26.543457687185324
671.5, 26.521878329876827
672, 26.4687885907599
672.5, 26.402026620675613
673, 26.335197440190882
673.5, 26.27701375573932
674, 26.233668407080387
674.5, 26.197765390075304
675, 26.118389761873374
675.5, 25.990082799351484
676, 25.911866012474448
676.5, 25.905054167272226
677, 25.895606960613947
677.5, 25.898453940394347
678, 25.972940288905562
678.5, 26.05795791515969
679, 26.086841551696594
679.5, 26.134278276607162
680, 26.230949550595057
680.5, 26.268234621816887
681, 26.22334932129864
681.5, 26.18579468305454
682, 26.22152478179966
682.5, 26.352150756476547
683, 26.44684819256203
683.5, 26.3903520590833
684, 26.31286162826727
684.5, 26.292532618181298
685, 26.215921473415108
685.5, 26.069316014475206
686, 25.965798588643125
686.5, 25.934942001127993
687, 25.9466046266635
687.5, 25.965545202182838
688, 25.966947935264443
688.5, 25.96534228656222
689, 25.97858762367636
689.5, 26.01460501292273
690, 26.05155763252992
690.5, 26.04177889136902
691, 25.99981268468936
691.5, 25.969951334315823
692, 25.930695894698786
692.5, 25.85896907761152
693, 25.805264763202757
693.5, 25.803057068374315
694, 25.827928124819692
694.5, 25.862171819514927
695, 25.901176901371585
695.5, 25.93233362463684
696, 25.94114504323646
696.5, 25.933954161009467
697, 25.926863885493603
697.5, 25.942729509470382
698, 25.98092446051919
698.5, 25.9974177977455
699, 25.976413544755218
699.5, 25.937297397402133
700, 25.906426974174096
700.5, 25.904750307686413
701, 25.90349512682785
701.5, 25.87286636730751
702, 25.834747348789307
702.5, 25.803382259647478
703, 25.76239787784465
703.5, 25.71026876076634
704, 25.66376700833007
704.5, 25.635782577631502
705, 25.63200141600916
705.5, 25.633961072581158
706, 25.628234306639584
706.5, 25.64207540301662
707, 25.669504604797183
707.5, 25.636473219161815
708, 25.542571358837748
708.5, 25.462822874249625
709, 25.400997033736317
709.5, 25.330546017412672
710, 25.305454417878906
710.5, 25.367865944562325
711, 25.44127803375298
711.5, 25.474105338900216
712, 25.494449914851486
712.5, 25.51187048141152
713, 25.512395619127076
713.5, 25.512668239676174
714, 25.536169806432184
714.5, 25.542098753901442
715, 25.495080514404933
715.5, 25.439548050977507
716, 25.40655759884308
716.5, 25.38080563411573
717, 25.36383229695528
717.5, 25.37445678136382
718, 25.393169896013006
718.5, 25.385784871720375
719, 25.36094481515238
719.5, 25.332295802549766
720, 25.287010346662214
720.5, 25.23118384101072
721, 25.207244295473004
721.5, 25.1959825266983
722, 25.126128405586016
722.5, 25.038242344040924
723, 25.016843802713865
723.5, 25.035349844674982
724, 25.050119083473803
724.5, 25.072106092220096
725, 25.107102124895604
725.5, 25.13715612057642
726, 25.152056706898193
726.5, 25.152496236939044
727, 25.15274199974877
727.5, 25.16845522379664
728, 25.18461606064895
728.5, 25.185830640674723
729, 25.182992912714738
729.5, 25.18353407063232
730, 25.181670662074808
730.5, 25.163811510888777
731, 25.114908437012573
731.5, 25.065437950609123
732, 25.057305509289662
732.5, 25.063084295412466
733, 25.056583460144154
733.5, 25.074384149573206
734, 25.128104669216214
734.5, 25.17415601000529
735, 25.186567778768776
735.5, 25.162894448417944
736, 25.12553796661328
736.5, 25.1032679597066
737, 25.09192470498195
737.5, 25.07839450064671
738, 25.052989369689584
738.5, 25.017676161412666
739, 24.990818564318616
739.5, 24.976239681186755
740, 24.96552939028068
740.5, 24.971597904679072
741, 25.012151422722482
741.5, 25.071692239448993
742, 25.127141702089673
742.5, 25.162240337558657
743, 25.17710403761143
743.5, 25.1938554363647
744, 25.211597743326124
744.5, 25.209259361637137
745, 25.185282619964127
745.5, 25.15005615520171
746, 25.120035419417206
746.5, 25.111604337578072
747, 25.13605640359988
747.5, 25.188283316288448
748, 25.240228536539348
748.5, 25.270840899349153
749, 25.26926516550843
749.5, 25.24503155181968
750, 25.21446964105212
750.5, 25.177215838861343
751, 25.129591052043835
751.5, 25.07215763220971
752, 25.0181261433589
752.5, 24.9947086775707
753, 24.963131666748026
753.5, 24.84368583371017
754, 24.706782762212256
754.5, 24.6653173078967
755, 24.673517895178193
755.5, 24.679350828302418
756, 24.728482074331197
756.5, 24.820893860847093
757, 24.87290147096003
757.5, 24.880205337117587
758, 24.904404839225904
758.5, 24.941858364263837
759, 24.963193757365843
759.5, 24.975093315228207
760, 24.99035575143698
760.5, 25.011280380887072
761, 25.01757686684479
761.5, 24.963054956272288
762, 24.870915295154347
762.5, 24.817568889575725
763, 24.821864998071163
763.5, 24.868494822745262
764, 24.920346697637044
764.5, 24.961305309734897
765, 25.039529895368915
765.5, 25.149586052509463
766, 25.20221508612586
766.5, 25.18905324025772
767, 25.170884292459192
767.5, 25.182571873121987
768, 25.233151929320528
768.5, 25.278747569234426
769, 25.283658453313805
769.5, 25.265579205584572
770, 25.23395469702207
770.5, 25.178439103718347
771, 25.12775646766461
771.5, 25.134852263870243
772, 25.18245846004426
772.5, 25.225549991217378
773, 25.244749083827585
773.5, 25.241679959178555
774, 25.250381928958888
774.5, 25.272217756951477
775, 25.26204329881365
775.5, 25.241732654865714
776, 25.2768425237346
776.5, 25.333184350376115
777, 25.34711931760269
777.5, 25.32932690304844
778, 25.29948413377484
778.5, 25.253534855403814
779, 25.20033504768041
779.5, 25.16744088316169
780, 25.135318604117728
780.5, 25.057479686441482
781, 24.973555311511063
781.5, 24.93804179276097
782, 24.90288318938792
782.5, 24.84951244329892
783, 24.883014335975616
783.5, 25.000045729473015
784, 25.043563582000928
784.5, 25.029126713226617
785, 25.088154724746644
785.5, 25.153390493246405
786, 25.1095575994961
786.5, 25.01508996630882
787, 24.942597182341913
787.5, 24.898675511257295
788, 24.88200469627884
788.5, 24.89266071813249
789, 24.931830852381935
789.5, 24.997938257303332
790, 25.063503953612923
790.5, 25.096015542870703
791, 25.088493852024882
791.5, 25.052508606039595
792, 25.025564939174203
792.5, 25.012874080614367
793, 24.977021434117077
793.5, 24.922396635583766
794, 24.879212697399836
794.5, 24.82196678682203
795, 24.72105991191475
795.5, 24.626258861026812
796, 24.574680954939154
796.5, 24.5350720772348
797, 24.48472658131125
797.5, 24.42435127304725
798, 24.376520349118906
798.5, 24.372894883240463
799, 24.40274187424957
799.5, 24.43956134571799
800, 24.466597271506643
800.5, 24.481101804118396
800.9999999999999, 24.503750171300368
801.5, 24.510701871153074
802, 24.428052599601244
802.5, 24.29958288399358
803, 24.237802122165377
803.4999999999999, 24.22135195669938
804, 24.184818917361085
804.5, 24.11194010215098
805, 24.010205656464635
805.5, 23.912388498119228
806, 23.845192929078607
806.5, 23.82082222279034
806.9999999999999, 23.807014583320736
807.5, 23.75156110651548
808, 23.67903442758069
808.5, 23.628734068692538
809, 23.576620521878368
809.4999999999999, 23.506784483331145
810, 23.44915806764257
810.5, 23.41768548709777
811, 23.400397007447964
811.5, 23.383929933528904
812, 23.35674378344062
812.5, 23.31877201263059
813, 23.272802223810316
813.5, 23.215085269796077
814, 23.137457667807965
814.5, 23.026493838243184
815, 22.889275282204665
815.4999999999999, 22.757946677802877
816, 22.667403656727544
816.5, 22.641623741331856
817, 22.62762244564003
817.5, 22.567154032466703
818, 22.491939589305517
818.5, 22.437792882220506
819, 22.407943496108743
819.5, 22.363457326973418
820, 22.230356686719915
820.5, 22.051626037971474
821, 21.931223823135895
821.4999999999999, 21.843095653452806
822, 21.74804715153539
822.5, 21.739805421867203
823, 21.849422946048378
823.5, 21.933217895849424
824, 21.939834761105274
824.5, 21.940591786058576
825, 21.940579135256712
825.5, 21.9038293107195
826, 21.84449838636783
826.5, 21.784258956184033
827, 21.70352185259209
827.4999999999999, 21.59879540312545
828, 21.51331649165813
828.5, 21.466493084925247
829, 21.443258940052928
829.5, 21.406209667915704
829.9999999999999, 21.31661524652793
830.5, 21.21102448360972
831, 21.13696058611994
831.5, 21.083039959967053
832, 21.043005005216045
832.5, 21.042425895549016
833, 21.08063800605497
833.4999999999999, 21.126616865260857
834, 21.178202574072046
834.5, 21.247189613455873
835, 21.309998770267853
835.5, 21.332080538435704
835.9999999999999, 21.286974959574692
836.5, 21.193043731743884
837, 21.145848869136117
837.5, 21.171711584128957
838, 21.217987161935625
838.5, 21.29255462057168
839, 21.430917697717618
839.5, 21.587538482664783
840, 21.703310268267273
840.5, 21.772125893840126
841, 21.82672562132086
841.5, 21.94708628684137
841.9999999999999, 22.109558788491086
842.5, 22.187737299226683
843, 22.204623516213744
843.5, 22.25992770170518
844, 22.333486778043707
844.5, 22.37678397005665
845, 22.389827384006054
845.5, 22.387643007699054
846, 22.393004624899703
846.5, 22.37952174389862
847, 22.278440801825255
847.5, 22.13285580695583
847.9999999999999, 22.032061288841035
848.5, 21.9263095142705
849, 21.764466292052134
849.5, 21.644275354301243
850, 21.625610207398097
850.4999999999999, 21.65178405088605
851, 21.68589231367514
851.5, 21.723347424686196
852, 21.75496820386546
852.5, 21.772106762194795
853, 21.789837846971054
853.5, 21.815789418348217
853.9999999999999, 21.81004394461509
854.5, 21.757836549834522
855, 21.703458543859412
855.5, 21.688831594819618
856, 21.738840388360273
856.4999999999999, 21.787459039552473
857, 21.738373795207735
857.5, 21.62587227999576
858, 21.509571168861143
858.5, 21.391011661588408
859, 21.28232966940776
859.5, 21.23028856965442
859.9999999999999, 21.238687446038696
860.5, 21.26744041124185
861, 21.30282408755427
861.5, 21.347576480736052
862, 21.40316431727136
862.4999999999999, 21.45493599203637
863, 21.44337889120986
863.5, 21.388867635961773
864, 21.45170363336112
864.5, 21.62340808750929
865, 21.7348106529317
865.5, 21.80802032228881
866, 21.945451619064457
866.5, 22.06612579976685
867, 22.10135490382035
867.5, 22.19207664547497
868, 22.378480628258885
868.4999999999999, 22.479493798319382
869, 22.45941345060983
869.5, 22.437565273281194
870, 22.47247711768908
870.5, 22.570605338429786
871, 22.667443134400216
871.5, 22.728922360073994
872, 22.870631008361002
872.5, 23.118950227609005
873, 23.318096559266053
873.5, 23.419864256705523
874, 23.488611546837433
874.4999999999999, 23.52946458021532
875, 23.526075038753703
875.5, 23.534971200583556
876, 23.600597841243157
876.5, 23.669193995556526
876.9999999999999, 23.70298895554113
877.5, 23.71858453868417
878, 23.769668306322785
878.5, 23.92578704017636
879, 24.119743524614563
879.5, 24.247235122207613
880, 24.39759435673608
880.4999999999999, 24.635629095340704
881, 24.794698169049568
881.5, 24.802783751711686
882, 24.795157988390827
882.5, 24.853770072384094
882.9999999999999, 24.98774804840015
883.5, 25.144134874620235
884, 25.256037409960868
884.5, 25.346320098743476
885, 25.44761415770843
885.5, 25.544778981865335
886, 25.627806539434175
886.4999999999999, 25.706830035984908
887, 25.790844352772183
887.5, 25.883327452010292
888, 25.961314635582866
888.5, 25.995438996564715
888.9999999999999, 25.99304631949262
889.5, 25.9894846587066
890, 26.064000054316082
890.5, 26.248243660220623
891, 26.489311359380025
891.5, 26.7063747583357
892, 26.81909571610457
892.5, 26.91780585767357
893, 27.130592363159465
893.5, 27.340372519341813
894, 27.440672485468028
894.5, 27.54046062976981
894.9999999999999, 27.72172823477588
895.5, 27.970946536670183
896, 28.20722099715759
896.5, 28.31960210644742
897, 28.39309893454582
897.4999999999999, 28.56171025475163
898, 28.714719424963732
898.5, 28.766665031522763
899, 28.876125507425755
899.5, 29.105034056520907
900, 29.32161824683827
900.5, 29.477733406801633
900.9999999999999, 29.60785895947548
901.5, 29.717211844677948
902, 29.79689371100814
902.5, 29.847817712556207
903, 29.88772616527298
903.4999999999999, 29.968235434675933
904, 30.07984493748708
904.5, 30.124415653891575
905, 30.13058328680357
905.5, 30.220965441596505
906, 30.34867198368005
906.5, 30.416711786399986
906.9999999999999, 30.489341800189152
907.5, 30.63278668792674
908, 30.806575620176886
908.5, 30.961719973646623
909, 31.062832805059998
909.4999999999999, 31.121099859345165
910, 31.181464360160305
910.5, 31.251729862506167
911, 31.331032116195544
911.5, 31.46270642247289
912, 31.67270917285377
912.5, 31.91536318939552
912.9999999999999, 32.13814370276533
913.5, 32.29714140800344
914, 32.40348549697951
914.5, 32.51157639075622
915, 32.661838559419536
915.4999999999999, 32.8624742924782
916, 33.014967747197176
916.5, 33.08768423513452
917, 33.272415314243204
917.5, 33.58405197452413
918, 33.76626704539639
918.5, 33.84056597540692
919, 34.03658569084833
919.5, 34.3143685262547
920, 34.54171172239036
920.5, 34.74974214744371
921, 34.983532205410384
921.4999999999999, 35.21882436358996
922, 35.40965505707892
922.5, 35.50052220761927
923, 35.537989620393645
923.5, 35.63572581798623
923.9999999999999, 35.789744673172265
924.5, 35.937530957485606
925, 36.00542321648905
925.5, 35.96231965367086
926, 35.88179360495043
926.5, 35.85520125498125
927, 35.96705235674534
927.4999999999999, 36.13174232598874
928, 36.170460667566246
928.5, 36.21164932704288
929, 36.44196954090448
929.5, 36.706280114372355
929.9999999999999, 36.85591939153382
930.5, 36.95427024488051
931, 37.07637816727611
931.5, 37.267695234850876
932, 37.473228976492216
932.5, 37.578531204515194
933, 37.59488631066284
933.4999999999999, 37.586785519828844
934, 37.60181303122849
934.5, 37.6725162487864
935, 37.806423669178386
935.5, 37.96566833629377
935.9999999999999, 38.063946002035344
936.5, 38.10025414347001
937, 38.13613225202178
937.5, 38.19636423416949
938, 38.296845264482336
938.5, 38.484955230662166
939, 38.74275379929942
939.4999999999999, 38.89591955377589
940, 38.88358080331144
940.5, 38.8169351761036
941, 38.83270252371913
941.5, 39.046055112929864
941.9999999999999, 39.34107637120857
942.5, 39.545341404796176
943, 39.656140935652985
943.5, 39.71923521050779
944, 39.79511104357505
944.4999999999999, 39.899775429367324
945, 39.99383924147413
945.5, 40.07399137563468
946, 40.166747919672204
946.5, 40.30259256869816
947, 40.49155793345823
947.5, 40.661169283595726
947.9999999999999, 40.76391290122567
948.5, 40.845497015541255
949, 40.93067167603007
949.5, 41.004978618954226
950, 41.06945843451917
950.4999999999999, 41.13610677743913
951, 41.2026598060975
951.5, 41.265680436055106
952, 41.34009042983612
952.5, 41.44670707505688
953, 41.60908759480278
953.5, 41.82989054980869
953.9999999999999, 42.0823685826352
954.5, 42.29004293670857
955, 42.36206344036673
955.5, 42.34207671760166
956, 42.32120887115118
956.4999999999999, 42.35998279532871
957, 42.465832004727055
957.5, 42.55450314779621
958, 42.61308120239786
958.5, 42.719990640134185
959, 42.86264160211322
959.5, 42.97628663915507
959.9999999999999, 43.100019228258425
960.5, 43.2778524962789
961, 43.41904788642748
961.5, 43.478512199410275
962, 43.56098049010479
962.4999999999999, 43.70251942495888
963, 43.83930500764885
963.5, 43.92789320247845
964, 43.9563225736355
964.5, 43.99953607442229
965, 44.12675961273202
965.5, 44.26607086110555
965.9999999999999, 44.35438222580661
966.5, 44.40674744374292
967, 44.423906512661155
967.5, 44.38875233408016
968, 44.39974392093862
968.4999999999999, 44.59072725124347
969, 44.815201614854985
969.5, 44.89786938419322
970, 44.94460427608243
970.5, 45.04685865918509
970.9999999999999, 45.15133489521993
971.5, 45.23169309815869
972, 45.3114397738001
972.5, 45.418673095472265
973, 45.571248107675565
973.5, 45.715207830356476
974, 45.79458531582166
974.4999999999999, 45.84024189221124
975, 45.88823405997115
975.5, 45.94889870023313
976, 46.0174880062242
976.5, 46.07828281092827
976.9999999999999, 46.147235983982824
977.5, 46.263413133557556
978, 46.47702932426097
978.5, 46.78701342129207
979, 47.0091486055774
979.5, 47.06491570092292
980, 47.13934832516273
980.4999999999999, 47.255504069902685
981, 47.24356546788594
981.5, 47.13433223932843
982, 47.075390325950735
982.5, 47.09467461213201
982.9999999999999, 47.1768299657129
983.5, 47.31281311546511
984, 47.4723105477447
984.5, 47.585703550255104
985, 47.64444996711438
985.5, 47.70759737747204
986, 47.79886833160729
986.4999999999999, 47.9175602241291
987, 48.064735229750006
987.5, 48.221502487174135
988, 48.30293671184047
988.5, 48.27135651767785
988.9999999999999, 48.197265607469575
989.5, 48.11442669736196
990, 48.010776875906586
990.5, 47.93562557861221
991, 47.96131960885563
991.4999999999999, 48.062292740636515
992, 48.18368243665068
992.5, 48.289749019141475
993, 48.36046607024401
993.5, 48.39686810169046
994, 48.394415292334756
994.5, 48.350279521956125
994.9999999999999, 48.36942240339311
995.5, 48.575526628232005
996, 48.820699246095415
996.5, 48.94552105201796
997, 49.051000844115876
997.4999999999999, 49.17515833528338
998, 49.163984071608105
998.5, 49.02421671130655
999, 48.93450336474826
999.5, 48.923683012915276
1000, 48.93742498767978
1000.5, 48.99239890991219
1000.9999999999999, 49.10671330680037
1001.5, 49.2269955916804
1002, 49.31304088971257
1002.5, 49.37057435389515
1003, 49.40184900585665
1003.4999999999999, 49.402098705821494
1004, 49.37844740530769
1004.5, 49.34108177335054
1005, 49.277041269394545
1005.5, 49.18523045637798
1006, 49.123035267659716
1006.5, 49.110792229530894
1006.9999999999999, 49.091048451414004
1007.5, 49.086727207255976
1008, 49.194139522369575
1008.5, 49.36108056320367
1009, 49.466147941344154
1009.4999999999999, 49.49564095132823
1010, 49.47880432647568
1010.5, 49.464019319427244
1011, 49.47964743309713
1011.5, 49.5137896029592
1012, 49.53130100149951
1012.5, 49.48586861939055
1012.9999999999999, 49.410819002177725
1013.5, 49.3774612183516
1014, 49.41291802997552
1014.5, 49.51130570557913
1015, 49.61423519903565
1015.4999999999999, 49.68268003714207
1016, 49.723734402382256
1016.5, 49.72080806322817
1017, 49.63919906272071
1017.5, 49.53238074037127
1017.9999999999999, 49.48690296702998
1018.5, 49.498642761230755
1019, 49.5271286404836
1019.5, 49.51285302263191
1020, 49.441467488751506
1020.5, 49.374755781424184
1021, 49.328824041238974
1021.4999999999999, 49.27628080701655
1022, 49.25340656802195
1022.5, 49.310277953237524
1023, 49.381272834885614
1023.5, 49.40879620809108
1023.9999999999999, 49.45859573042384
1024.5, 49.5393126110308
1025, 49.53957441352089
1025.5, 49.4399401299266
1026, 49.31966184471866
1026.5, 49.28156584249411
1027, 49.39827438750606
1027.5, 49.53798539352484
1028, 49.57819690951914
1028.5, 49.594380278819024
1029, 49.62151994485417
1029.5, 49.58322672259606
1030, 49.48819991354929
1030.5, 49.424512791341634
1031, 49.405630583290986
1031.5, 49.40487843249396
1032, 49.40476573088489
1032.5, 49.39289164138715
1033, 49.36294011379223
1033.5, 49.32543696797233
1034, 49.31310655259398
1034.5, 49.31724811065064
1035, 49.293441359451165
1035.5, 49.229926409662404
1036, 49.14826181329095
1036.5, 49.14293124127648
1037, 49.26173555613194
1037.5, 49.373205418676186
1038, 49.40340976351519
1038.5, 49.40699890175652
1039, 49.38907444618857
1039.5, 49.309170969973685
1040, 49.20023362478949
1040.5, 49.12547084526752
1041, 49.105536231521896
1041.5, 49.127998620097486
1042, 49.12811102268189
1042.5, 49.0760960222642
1043, 49.00256070476657
1043.5, 48.86279748610927
1044, 48.571265817017114
1044.5, 48.30058113066116
1045, 48.27782519498425
1045.5, 48.36412012378811
1046, 48.40578701199132
1046.5, 48.47985489550236
1047, 48.60823354967557
1047.5, 48.68311165197084
1048, 48.66765538238238
1048.5, 48.59598573774138
1049, 48.507212196490855
1049.5, 48.43408430548698
1050, 48.37439776628912
1050.5, 48.31323592500881
1051, 48.22941610294797
1051.5, 48.13804241612062
1052, 48.10438111743277
1052.5, 48.132777333499185
1053, 48.17253361821208
1053.5, 48.17438088707879
1054, 48.110996776113105
1054.5, 48.04567035499161
1055, 48.036526471813175
1055.5, 48.06653558723467
1056, 48.09102883282067
1056.5, 48.04606701953756
1057, 47.93265043851844
1057.5, 47.80011304573188
1058, 47.63790398437771
1058.5, 47.432267276376365
1059, 47.28666154077222
1059.5, 47.274401849318146
1060, 47.31865310107208
1060.5, 47.34104427741294
1061, 47.29594947951117
1061.5, 47.20213150298315
1062, 47.124768423163964
1062.5, 47.09145668075818
1063, 47.093156934320206
1063.5, 47.044304901305225
1064, 46.90434714159085
1064.5, 46.7866298900941
1065, 46.742441657034796
1065.5, 46.71118312597883
1066, 46.69584113152911
1066.5, 46.74597876057028
1067, 46.81981965257904
1067.5, 46.83086176492137
1068, 46.6893435243562
1068.5, 46.40133789875628
1069, 46.194468498068915
1069.5, 46.144320380301856
1070, 46.08822932994299
1070.5, 46.01535950472065
1071, 46.03369636072024
1071.5, 46.12838777432661
1072, 46.23976269721966
1072.5, 46.3654026377983
1073, 46.477947700704945
1073.5, 46.4612430557259
1074, 46.29832997485989
1074.5, 46.11503557865398
1075, 45.952979566499906
1075.5, 45.78727435952824
1076, 45.64932781909225
1076.5, 45.58054174536594
1077, 45.554988851614155
1077.5, 45.53024342362326
1078, 45.46659507918456
1078.5, 45.37537094842066
1079, 45.32891665243676
1079.5, 45.32121961700156
1080, 45.29257286148278
1080.5, 45.258091257951726
1081, 45.25327899177059
1081.5, 45.25840848590827
1082, 45.264874138147796
1082.5, 45.317846393339764
1083, 45.40977184364493
1083.5, 45.4622540040247
1084, 45.48896179812863
1084.5, 45.54903059012144
1085, 45.4972154328863
1085.5, 45.19909719291136
1086, 44.91745136236345
1086.5, 44.846147874745434
1087, 44.820275633536404
1087.5, 44.77473681871673
1088, 44.82129387996787
1088.5, 44.93828214028791
1089, 45.00670018105973
1089.5, 44.98678664012629
1090, 44.88481483257137
1090.5, 44.747637242735635
1091, 44.604483023440146
1091.5, 44.4278225212401
1092, 44.2502420572445
1092.5, 44.1783661138056
1093, 44.179147081361585
1093.5, 44.13262871351128
1094, 44.05469858364782
1094.5, 44.00640237376687
1095, 43.99702453229678
1095.5, 44.0148771018276
1096, 44.03118319498833
1096.5, 44.05898454173579
1097, 44.1550704751532
1097.5, 44.237185479657505
1098, 44.15179306839906
1098.5, 43.96096068155169
1099, 43.797203998808996
1099.5, 43.716137818546045
1100, 43.71749316865113
1100.5, 43.72343785620703
1101, 43.688154785850365
1101.5, 43.61323978689939
1102, 43.46264497849987
1102.5, 43.19602520817595
1103, 42.93802699759189
1103.5, 42.82459049457399
1104, 42.785441309611365
1104.5, 42.75752607031822
1105, 42.786118056375166
1105.5, 42.86197968607121
1106, 42.89954591455017
1106.5, 42.86579536179192
1107, 42.76716013099098
1107.5, 42.606359816595855
1108, 42.40195098448996
1108.5, 42.23534906079532
1109, 42.1651385364704
1109.5, 42.17518473050654
1110, 42.21581573418695
1110.5, 42.21426363705277
1111, 42.17025411164069
1111.5, 42.12605842738287
1112, 42.06939677273183
1112.5, 41.97694553394013
1113, 41.86403548979252
1113.5, 41.75709914889884
1114, 41.68637224522817
1114.5, 41.64182420406936
1115, 41.57143684353362
1115.5, 41.483304886294604
1116, 41.42688647172871
1116.5, 41.44479286714504
1117, 41.5344877804423
1117.5, 41.548929573590776
1118, 41.394081550817056
1118.5, 41.138782877786696
1119, 40.86534859255295
1119.5, 40.64717486437136
1120, 40.52011746540623
1120.5, 40.48820646272467
1121, 40.511740040422175
1121.5, 40.5329074207615
1122, 40.489297666721235
1122.5, 40.37840499594376
1123, 40.309628770707455
1123.5, 40.28806512077033
1124, 40.20485816909615
1124.5, 40.143918089499195
1125, 40.27151132462967
1125.5, 40.45867176125213
1126, 40.51334143409958
1126.5, 40.406462705660104
1127, 40.18381796530297
1127.5, 39.965339847992865
1128, 39.80437691137207
1128.5, 39.6752367847862
1129, 39.5855543718455
1129.5, 39.549900023750396
1130, 39.47965381642398
1130.5, 39.307367612285695
1131, 39.15878072408582
1131.5, 39.11061950637543
1132, 39.07958655789671
1132.5, 39.041613545656375
1133, 39.04479051283152
1133.5, 39.01986946663155
1134, 38.854115442105076
1134.5, 38.63159949539332
1135, 38.47359375859847
1135.5, 38.38991337743468
1136, 38.36777335218624
1136.5, 38.39301437850612
1137, 38.430798255998475
1137.5, 38.430449506340636
1138, 38.40776944553375
1138.5, 38.404622782406776
1139, 38.37033079183597
1139.5, 38.25128215552338
1140, 38.08909549660971
1140.5, 37.922608087999414
1141, 37.753878570351176
1141.5, 37.61866026440223
1142, 37.58325971851678
1142.5, 37.62000889579617
1143, 37.648148295156886
1143.5, 37.619244406438774
1144, 37.514770885666024
1144.5, 37.37228543748641
1145, 37.211959328512144
1145.5, 37.00570271645808
1146, 36.749074070426296
1146.5, 36.47193430870823
1147, 36.25724027945735
1147.5, 36.18864538168198
1148, 36.18037356149472
1148.5, 36.125776487718625
1149, 36.03251308572804
1149.5, 35.92918260267464
1150, 35.84301550807113
1150.5, 35.79585345868492
1151, 35.7980759659667
1151.5, 35.795864727495626
1152, 35.721196348469235
1152.5, 35.63548444403945
1153, 35.60285090267462
1153.5, 35.56490669278065
1154, 35.48130953102958
1154.5, 35.38086331880895
1155, 35.297553262299886
1155.5, 35.23629450294693
1156, 34.92014466930972
1158, 35.19333296900545
1158.5, 35.12320853736769
1159, 34.858982289053
1159.5, 34.65890859065391
1161, 34.65014939125905
1164.5, 34.45466746554651
1165, 33.97480664845378
1165.5, 33.640583642514414
1166, 33.79093376496333
1166.5, 34.03216986979558
1167, 32.86510720573577
1168.5, 32.86589324557691
1169, 33.63447162915763
1169.5, 33.013218331081404
1170, 32.73128888757422
1170.5, 32.756298238254786
1171, 32.669264416720736
1171.5, 32.53709671260606
1172, 32.451020029723196
1172.5, 32.40796574824286
1173, 32.39565300383046
1173.5, 32.399977831391865
1174, 32.39715564258475
1174.5, 32.35035907722353
1175, 32.184364349575404
1176, 31.692340604774884
1176.5, 31.68133749073577
1177, 31.72655936606722
1177.5, 31.686343515843816
1178, 31.457080067171958
1178.5, 31.177387687465668
1179, 31.055357458416907
1179.5, 31.004377173879448
1180, 30.883875474072468
1180.5, 30.650679312202527
1181, 30.33836428243464
1181.5, 30.069888017377238
1182, 29.900762998073347
1182.5, 29.810153802034336
1183, 29.701192207024206
1183.5, 29.483046934947154
1184, 29.2794996179493
1184.5, 29.179516147556413
1185, 29.014623896328175
1185.5, 28.74257525398302
1186, 28.564922617577466
1186.5, 28.504304380077187
1187, 28.42359347809537
1187.5, 28.341355716237643
1188, 28.327593617596293
1188.5, 28.298680140732998
1189, 28.17588753683775
1189.5, 28.01003381192419
1190, 27.868041241156746
1190.5, 27.806674468548877
1191, 27.820056131539644
1191.5, 27.85251446087797
1192, 27.886455737805065
1192.5, 27.918110423589766
1193, 27.91342471674575
1193.5, 27.859666934864023
1194, 27.81966440037462
1194.5, 27.822530364176046
1195, 27.83197131660951
1195.5, 27.829988208705757
1196, 27.820942867844707
1196.5, 27.82701474282166
1197, 27.86042455807832
1197.5, 27.849481318734817
1198, 27.742055525294063
1198.5, 27.593713252162175
1199, 27.457027388587647
1199.5, 27.35280975052474
1200, 27.2366545174542
1200.5, 27.027606424209452
1201, 26.783742550528856
1201.5, 26.611996189039445
1202, 26.527236955584897
1202.5, 26.507298897908072
1203, 26.502415306946403
1203.5, 26.472052724213043
1204, 26.397520116049634
1204.5, 26.309904677375528
1205, 26.263948991576726
1205.5, 26.17959727241586
1206, 25.96421479625387
1206.5, 25.758286838253113
1207, 25.67339473437893
1207.5, 25.600076569487413
1208, 25.4909480705019
1208.5, 25.426315682150957
1209, 25.421425016245195
1209.5, 25.43172653910996
1210, 25.424446673279675
1210.5, 25.377103910741027
1211, 25.283409484725112
1211.5, 25.13438805505396
1212, 24.90603949827228
1212.5, 24.641350349495255
1213, 24.469721978514187
1213.5, 24.388763702597387
1214, 24.30702967202268
1214.5, 24.31025751443815
1215, 24.496243424915477
1215.5, 24.657763838600886
1216, 24.625349239630083
1216.5, 24.502869522913215
1217, 24.370334496471827
1217.5, 24.22520268749652
1218, 24.092929437006674
1218.5, 24.0177795206625
1219, 23.981716869053784
1219.5, 23.94217121889102
1220, 23.87555709406736
1220.5, 23.76787772276225
1221, 23.616078442769734
1221.5, 23.430030175722393
1222, 23.236768238559108
1222.5, 23.095043158925435
1223, 23.068690275881394
1223.5, 23.079904366315702
1224, 23.02372215438747
1224.5, 22.946769326100778
1225, 22.90679134209624
1225.5, 22.899775623308543
1226, 22.903193133178902
1226.5, 22.88053671987781
1227, 22.78276540404036
1227.5, 22.57463015273919
1228, 22.38841455787039
1228.5, 22.360575878317675
1229, 22.34683212985182
1229.5, 22.22067383880041
1230, 22.048035399987654
1230.5, 21.867376146885135
1231, 21.660725261479286
1231.5, 21.58314036380166
1232, 21.857899046009564
1232.5, 22.23203175658321
1233, 22.339125377149514
1233.5, 22.192029322979337
1234, 21.981426203006748
1234.5, 22.069213681016493
1235, 22.33180411859044
1235.5, 22.065571635258564
1236, 21.436684288450692
1236.5, 21.170537723581106
1237, 21.155837922780265
1237.5, 21.032332054112985
1238, 20.895263950017622
1238.5, 20.831870838850634
1239, 20.683130102053184
1239.5, 20.42961734957005
1240, 20.25194089910724
1240.5, 20.154256206394123
1241, 20.11508615788719
1241.5, 20.089588364237187
1242, 20.064114675036294
1242.5, 20.04044096454335
1243, 20.020343107017254
1243.5, 20.00559697671686
1244, 19.997978447901048
1244.5, 19.999263394828702
1245, 20.01122769175865
1245.5, 20.17660120312631
1246, 20.40948987882564
1246.5, 20.47329428212778
1247, 20.46610255607395
1247.5, 20.478642561969735
1248, 20.435835718457042
1248.5, 20.39842428676775
1249, 20.59162673927861
1249.5, 20.92793656050239
1250, 21.13612021169419
1250.5, 21.250616733108743
1251, 21.37201239568033
1251.5, 21.3802335882486
1252, 21.22187215728556
1252.5, 21.07709784574287
1253, 21.035513742952006
1253.5, 21.046484087575138
1254, 21.06503669629923
1254.5, 21.0546552154307
1255, 20.970995811052575
1255.5, 20.800132352502004
1256, 20.64750775360666
1256.5, 20.589278491423343
1257, 20.590691589942097
1257.5, 20.62541831102392
1258, 20.68898421876986
1258.5, 20.735085215249043
1259, 20.704287027922092
1259.5, 20.64349566939012
1260, 20.60692033549006
1260.5, 20.527157247310612
1261, 20.401379465456458
1261.5, 20.400019861614638
1262, 20.538134251500125
1262.5, 20.63941552264191
1263, 20.649740869493016
1263.5, 20.609307234164817
1264, 20.585976306363136
1264.5, 20.628897298440094
1265, 20.68868135689992
1265.5, 20.733273869769874
1266, 20.803559910305808
1266.5, 20.908455386062528
1267, 21.01222414926336
1267.5, 21.088717837436974
1268, 21.123583526105307
1268.5, 21.126045417123393
1269, 21.112110506157137
1269.5, 21.090589600334326
1270, 21.0812468775337
1270.5, 21.123700273978343
1271, 21.15236421397607
1271.5, 21.004886470192574
1272, 20.78585809015094
1272.5, 20.72229105274978
1273, 20.701017652549623
1273.5, 20.565942602836714
1274, 20.444438903336405
1274.5, 20.42842209134571
1275, 20.43691096982117
1275.5, 20.449192946124526
1276, 20.5252186950635
1276.5, 20.657044609503842
1277, 20.795707293788467
1277.5, 20.92466946501871
1278, 21.036323218438852
1278.5, 21.112438391589222
1279, 21.147440729663728
1279.5, 21.16228196133889
1280, 21.16220817432422
1280.5, 21.13204389373847
1281, 21.051201216728586
1281.5, 20.907655019581995
1282, 20.755801916771546
1282.5, 20.64256359133914
1283, 20.51484377955795
1283.5, 20.36532508717032
1284, 20.3011697532897
1284.5, 20.33218524913734
1285, 20.365015405521405
1285.5, 20.446001056256506
1286, 20.667270781526128
1286.5, 20.86523354293506
1287, 20.8874690453425
1287.5, 20.901981480229367
1288, 21.011732198034565
1288.5, 21.09691992280493
1289, 21.120397137868224
1289.5, 21.15392447073252
1290, 21.258199282087205
1290.5, 21.456251455101466
1291, 21.614901511806295
1291.5, 21.61729341690237
1292, 21.564440985566634
1292.5, 21.566932451616495
1293, 21.67506555171728
1293.5, 21.83873652547041
1294, 21.925933682413884
1294.5, 21.961989806439888
1295, 22.0471819644916
1295.5, 22.15794931692973
1296, 22.246210262129708
1296.5, 22.319520644412478
1297, 22.37665199797759
1297.5, 22.386066250430588
1298, 22.379209088784776
1298.5, 22.44186750886047
1299, 22.53274924285884
1299.5, 22.55472962098682
1300, 22.555453831685426
1300.5, 22.546472289679897
1301, 22.533180299962822
1301.5, 22.48522613286201
1302, 22.310701217614948
1302.5, 22.074890007508913
1303, 21.993098130536822
1303.5, 22.050863343541693
1304, 22.114479822655326
1304.5, 22.15082364478387
1305, 22.166689546187655
1305.5, 22.186184077603443
1306, 22.2205615302707
1306.5, 22.254459077818453
1307, 22.269949967369726
1307.5, 22.24993999629004
1308, 22.186157240612715
1308.5, 22.08746330484442
1309, 22.025783699643156
1309.5, 22.03812564227856
1310, 22.00429558029795
1310.5, 21.889155054803226
1311, 21.83412422967099
1311.5, 21.81436792164142
1312, 21.653823767035945
1312.5, 21.41408497575118
1313, 21.25598312774099
1313.5, 21.14199527359132
1314, 20.99860646516298
1314.5, 20.831111639282966
1314.9999999999998, 20.672422116584343
1315.5, 20.573490952945875
1316, 20.498147373898604
1316.5, 20.345593211994583
1317, 20.200289728400833
1317.5, 20.207830836194447
1318, 20.295547750111695
1318.4999999999998, 20.36366264498814
1319, 20.427715212587458
1319.5, 20.509857825679177
1320, 20.610595820576265
1320.5, 20.71228192821208
1321, 20.782896305941122
1321.5, 20.79751006311362
1321.9999999999998, 20.753719032364458
1322.5, 20.739697786344593
1323, 20.81896375990624
1323.5, 20.912930320536375
1324, 20.96397382650774
1324.5, 20.984705768273912
1325, 20.999546661560643
1325.5, 21.037345945348903
1326, 21.11929705917717
1326.5, 21.242492954203826
1326.9999999999998, 21.307632714986624
1327.5, 21.248108136332903
1328, 21.161444184498762
1328.5, 21.112775395364665
1329, 21.077139071126524
1329.5, 21.043613339095202
1330, 21.019999901893655
1330.4999999999998, 21.006781400612127
1331, 20.992904621720527
1331.5, 20.932611217706466
1332, 20.817190609419583
1332.5, 20.761077101998566
1333, 20.839445216505467
1333.5, 21.03569895450042
1334, 21.28029248292296
1334.5, 21.47113340997187
1335, 21.57424628637807
1335.4999999999998, 21.592651572468284
1336, 21.533852747392046
1336.5, 21.410574898517652
1337, 21.246245322693127
1337.5, 21.08646405064711
1338, 21.005099175886542
1338.5, 21.03956723892732
1338.9999999999998, 21.180287197362176
1339.5, 21.304424227173712
1340, 21.2815330039995
1340.5, 21.208383191454033
1341, 21.189043105033065
1341.5, 21.181771130384718
1342, 21.17404331708373
1342.4999999999998, 21.225562176013767
1343, 21.337111138859115
1343.5, 21.455784424572883
1344, 21.54467136313147
1344.5, 21.581920485606034
1345, 21.57329569199068
1345.5, 21.530055132241515
1346, 21.457779848449462
1346.5, 21.3586921936638
1347, 21.233388640543595
1347.4999999999998, 21.116050072010026
1348, 21.06433618526235
1348.5, 21.094065775310554
1349, 21.185129927626477
1349.5, 21.251812661418185
1350, 21.230519613816554
1350.5, 21.156112159796606
1350.9999999999998, 21.08265191492474
1351.5, 21.066256224917453
1352, 21.092198834665112
1352.5, 21.096545745384603
1353, 21.095958723747998
1353.5, 21.119840838452035
1354, 21.079766343876216
1354.5, 20.934820374100624
1355, 20.832093441221133
1355.5, 20.799983669965044
1355.9999999999998, 20.676016753541816
1356.5, 20.49338020744105
1357, 20.42898261201634
1357.5, 20.435504439988435
1358, 20.402681781391394
1358.5, 20.417439484497024
1359, 20.539925976740093
1359.4999999999998, 20.644605750581306
1360, 20.671783372640874
1360.5, 20.688284589998162
1361, 20.76491895300167
1361.5, 20.95542548095031
1362, 21.212706634481236
1362.5, 21.44795285116909
1362.9999999999998, 21.595379356420395
1363.5, 21.626759954069456
1364, 21.586945215149186
1364.5, 21.531455991684567
1365, 21.51013676107908
1365.5, 21.47691054362093
1366, 21.335662061609455
1366.5, 21.18734433253806
1367, 21.168549731393753
1367.5, 21.185682906917748
1367.9999999999998, 21.150222055941313
1368.5, 21.119274287711733
1369, 21.12264977979389
1369.5, 21.128819073154887
1370, 21.127026162668813
1370.5, 21.11751207048566
1371, 21.036724247156243
1371.4999999999998, 20.836413183594757
1372, 20.64723307343303
1372.5, 20.580178910356622
1373, 20.60118904205754
1373.5, 20.67001743434824
1374, 20.764316674850576
1374.5, 20.866281620340132
1374.9999999999998, 20.950394817512688
1375.5, 20.91564125704035
1376, 20.70165227292331
1376.5, 20.54148672614774
1377, 20.589404628406456
1377.5, 20.6691200132677
1378, 20.69354197406939
1378.5, 20.74194990386404
1379, 20.835473314460543
1379.5, 20.946065263979946
1379.9999999999998, 21.067568308107326
1380.5, 21.206098170068245
1381, 21.37582464357658
1381.5, 21.550067410446843
1382, 21.61393130934556
1382.5, 21.60677760143902
1383, 21.75595807186083
1383.4999999999998, 21.99655626206693
1384, 22.08814838912845
1384.5, 22.15037140658181
1385, 22.34557279138771
1385.5, 22.400489560209294
1386, 22.16662283810642
1386.5, 21.976298644631285
1387, 21.978243142734755
1387.5, 22.02396940599138
1388, 22.05321816607305
1388.4999999999998, 22.07968701513437
1389, 22.087906912984565
1389.5, 22.06568564189962
1390, 22.061858657672275
1390.5, 22.090546567381324
1391, 22.065622428666273
1391.5, 21.97256342921925
1391.9999999999998, 21.896072860871627
1392.5, 21.875466211110535
1393, 21.906258325407094
1393.5, 21.93815223215762
1394, 21.925151218665647
1394.5, 21.905670317349717
1395, 21.90823258568645
1395.4999999999998, 21.901962717057444
1396, 21.881840065533325
1396.5, 21.87921448986721
1397, 21.88047369108311
1397.5, 21.843009940897943
1398, 21.753655769500185
1398.5, 21.626831301151768
1399, 21.531870656896913
1399.5, 21.510638428874998
1400, 21.524752238539477
