305, 30.773456833767895
305.5, 30.77840413463474
306, 30.789856616801757
306.5, 30.80319441858802
307, 30.81802081239536
307.5, 30.833939070625576
308, 30.850552465680508
308.5, 30.867464269962014
309, 30.884277755871864
309.5, 30.90059619581193
310, 30.91602286218405
310.5, 30.930161027390014
311, 30.942613963831676
311.5, 30.952984943910877
312, 30.953377864136016
312.5, 30.955163137862556
313, 30.970971704449425
313.5, 30.990439951272734
314, 31.00789792175405
314.5, 31.013427924453893
315, 31.01287629127272
315.5, 31.02933469343074
316, 31.057394377946665
316.5, 31.085792288681645
317, 31.1056474962769
317.5, 31.12283534124508
318, 31.13787179301245
318.5, 31.152270180977723
319, 31.169849054491706
319.5, 31.189184585762078
320, 31.208852946996444
320.5, 31.22743031040244
321, 31.243492848187742
321.5, 31.258155648709632
322, 31.292329094854026
322.5, 31.32305876088985
323, 31.357142612180652
323.5, 31.396184715278764
324, 31.428828350018946
324.5, 31.42092383647551
325, 31.411927027066568
325.5, 31.404601270007888
326, 31.413309592562783
326.5, 31.421086646145483
327, 31.430395056577552
327.5, 31.434224269019055
328, 31.434241752462583
328.5, 31.434248683064496
329, 31.434250690361054
329.5, 31.434288804269528
330, 31.462908245451473
330.5, 31.5013760221304
331, 31.53782717447281
331.5, 31.555408280848326
332, 31.557986267183153
332.5, 31.56736327077587
333, 31.574824085956706
333.5, 31.58381441665736
334, 31.58454933684166
334.5, 31.620606405709808
335, 31.668719152193248
335.5, 31.714223383236515
336, 31.735920673654448
336.5, 31.73477601917145
337, 31.734772207731808
337.5, 31.734593465907764
338, 31.73469468826977
338.5, 31.749631124370282
339, 31.766827098142656
339.5, 31.797765517546395
340, 31.81735643588499
340.5, 31.84189639405207
341, 31.868064087176904
341.5, 31.89253821038878
342, 31.911997458816913
342.5, 31.914897945979448
343, 31.930129472194963
343.5, 31.94730172383521
344, 31.982606466706144
344.5, 32.00951497046999
345, 32.02814391892487
345.5, 32.035359938240504
346, 32.040268672134246
346.5, 32.0512241159806
347, 32.064027069107766
347.5, 32.076998301654996
348, 32.08845858376158
348.5, 32.10008403078557
349, 32.132326735369716
349.5, 32.1713299379588
350, 32.20575519216199
350.5, 32.21543585849531
351, 32.21541775203431
351.5, 32.21553579522906
352, 32.230829811659746
352.5, 32.246890230588306
353, 32.264718507664796
353.5, 32.275876293470674
354, 32.275833449944386
354.5, 32.2760130948851
355, 32.29610372782649
355.5, 32.341571595604265
356, 32.38970118552773
356.5, 32.42606363337225
357, 32.42595318334317
357.5, 32.425851631828806
358, 32.42809226246541
358.5, 32.43748110479345
359, 32.450039834928035
359.5, 32.47250587088416
360, 32.508920103551986
360.5, 32.547415360799405
361, 32.57633805591672
361.5, 32.576197725060396
362, 32.57599194981529
362.5, 32.580598827669974
363, 32.599421803663745
363.5, 32.62181604707142
364, 32.65915771064731
364.5, 32.67782791867164
365, 32.69557203381751
365.5, 32.6967974544372
366, 32.71510491635043
366.5, 32.739032226425806
367, 32.76520935240775
367.5, 32.790266262040674
368, 32.810832923069
368.5, 32.83850080892506
369, 32.85813613780408
369.5, 32.87591349072885
370, 32.892662863351404
370.5, 32.90981777369895
371, 32.945126373352
371.5, 32.99420526203943
372, 33.052698120665625
372.5, 33.10372425655683
373, 33.1231768232859
373.5, 33.13487102524934
374, 33.148642822941355
374.5, 33.163764253425754
375, 33.179507353766226
375.5, 33.195144161026505
376, 33.20994671227034
376.5, 33.223187044561456
377, 33.234137194963566
377.5, 33.25928887301771
378, 33.28560611165288
378.5, 33.31157189259734
379, 33.3283087663048
379.5, 33.34253575756297
380, 33.34260927203654
380.5, 33.33735324804651
381, 33.34449944271846
381.5, 33.3968542023636
382, 33.45522032525251
382.5, 33.50267028295117
383, 33.522417110470386
383.5, 33.53081499306022
384, 33.53696123450027
384.5, 33.52789200437343
385, 33.5227754262968
385.5, 33.52282371141719
386, 33.531469249815174
386.5, 33.55567845847588
387, 33.59243501583731
387.5, 33.63072667234066
388, 33.659333925774874
388.5, 33.69001299824525
389, 33.708142607692324
389.5, 33.718722888603594
390, 33.72927426454676
390.5, 33.760994637060264
391, 33.79895725586677
391.5, 33.83811212332317
392, 33.87340924178642
392.5, 33.89985379124745
393, 33.932592678909714
393.5, 33.96496719339537
394, 33.99812900921965
394.5, 34.037136766618076
395, 34.070746501224804
395.5, 34.101752149745394
396, 34.12154391730009
396.5, 34.1385815712524
397, 34.147080238890126
397.5, 34.15571728885466
398, 34.17864715708984
398.5, 34.22828200408131
399, 34.28682022920596
399.5, 34.337333986798924
400, 34.337450380913666
400.5, 34.32099679547146
401, 34.34431518311732
401.5, 34.382374901780835
402, 34.41953361830666
402.5, 34.44715610378594
403, 34.48283451243505
403.5, 34.52985489430303
404, 34.56630996970814
404.5, 34.612588260387966
405, 34.63300837990356
405.5, 34.64960188792361
406, 34.65824008958667
406.5, 34.671393553240804
407, 34.725664894887004
407.5, 34.77159896569225
408, 34.827814231014074
408.5, 34.85379316458544
409, 34.87237645918556
409.5, 34.88186451839421
410, 34.89014991131366
410.5, 34.90705521659636
411, 34.92483582450531
411.5, 34.96125593428603
412, 34.99372180952524
412.5, 35.02594833965037
413, 35.069711649747674
413.5, 35.11818735664963
414, 35.157556605837684
414.5, 35.25038484409457
415, 35.301276307952676
415.5, 35.34089723504323
416, 35.34086828192841
416.5, 35.34099761283552
417, 35.34099563928848
417.5, 35.34083791231684
418, 35.34086772579657
418.5, 35.3541728090302
419, 35.3710339863982
419.5, 35.42221865610246
420, 35.472140901681584
420.5, 35.554040645985836
421, 35.61998415007483
421.5, 35.69488663132874
422, 35.739383056818795
422.5, 35.785490027834854
423, 35.80548273411294
423.5, 35.82182400800619
424, 35.82177293972592
424.5, 35.821775762528006
425, 35.8215944782967
425.5, 35.827597783074495
426, 35.846436408366216
426.5, 35.87073292386718
427, 35.93084224236314
427.5, 36.02364123920533
428, 36.11878571749715
428.5, 36.18635824897207
429, 36.23268551573044
429.5, 36.269071701300874
430, 36.30275470313879
430.5, 36.349660241509426
431, 36.39082259288509
431.5, 36.445893367448036
432, 36.473745228705
432.5, 36.49826551869357
433, 36.52408707462668
433.5, 36.54983357213828
434, 36.59567214620135
434.5, 36.64007075554494
435, 36.69699976868793
435.5, 36.78601684556856
436, 36.882998292454275
436.5, 36.95954446474478
437, 36.96379740229286
437.5, 36.963836113843655
438, 36.96519198217585
438.5, 36.974336705452075
439, 36.986250527393
439.5, 37.01082192265159
440, 37.05514326304379
440.5, 37.10354775700289
441, 37.14210315645933
441.5, 37.205526085103486
442, 37.26939544135384
442.5, 37.32402569665534
443, 37.39207042109148
443.5, 37.453680283463214
444, 37.48515366150147
444.5, 37.49939271700369
445, 37.535276493973434
445.5, 37.591193319405505
446, 37.64811233525865
446.5, 37.68837076318298
447, 37.71808237359427
447.5, 37.736600701063495
448, 37.74534618441063
448.5, 37.74522526626988
449, 37.74270771159078
449.5, 37.80146173345379
450, 37.903963355914584
450.5, 38.00833767680718
451, 38.07152285862037
451.5, 38.04399101991357
452, 38.03478733684404
452.5, 38.04026828131518
453, 38.0684656914906
453.5, 38.09731256786267
454, 38.12670027382615
454.5, 38.16411585097834
455, 38.201921923208616
455.5, 38.23353232595011
456, 38.30157343990804
456.5, 38.369706260598896
457, 38.46303553020088
457.5, 38.57045255412935
458, 38.66067121987545
458.5, 38.70251491666549
459, 38.72116962826831
459.5, 38.737134226669255
460, 38.745607317619964
460.5, 38.755269464069976
461, 38.7738720002543
461.5, 38.789871214202115
462, 38.818789171276116
462.5, 38.87249104946683
463, 38.93048327240418
463.5, 38.97593326174338
464, 39.023340501174665
464.5, 39.04955645590916
465, 39.06766390910854
465.5, 39.06766721623266
466, 39.07082762566947
466.5, 39.0802372274818
467, 39.0976175206405
467.5, 39.12489005571185
468, 39.16383629440709
468.5, 39.20407443062794
469, 39.23844629476478
469.5, 39.273603046802585
470, 39.329584244724714
470.5, 39.37666361157452
471, 39.442474952771015
471.5, 39.47860535046014
472, 39.51495035011187
472.5, 39.547634098214566
473, 39.579826349984735
473.5, 39.61337396878228
474, 39.653416899739966
474.5, 39.702099878311564
475, 39.74534378244602
475.5, 39.77838700909092
476, 39.81142478994308
476.5, 39.840630905652475
477, 39.87815876919114
477.5, 39.91580725813381
478, 39.94560836395156
478.5, 39.9940207512887
479, 40.05519098690436
479.5, 40.1207200181465
480, 40.182208792363035
480.5, 40.2312582569019
481, 40.23929919964543
481.5, 40.23946006219494
482, 40.23944002869139
482.5, 40.23933257522193
483, 40.24134566758589
483.5, 40.2507044658382
484, 40.26330238863245
484.5, 40.2871297923112
485, 40.325217703516586
485.5, 40.370436965537614
486, 40.41924172492941
486.5, 40.46808612824702
487, 40.51342432204559
487.5, 40.55171045288019
488, 40.57230994695318
488.5, 40.570031038118046
489, 40.57002370804011
489.5, 40.57000798251232
490, 40.57001507913182
490.5, 40.57003968566598
491, 40.66530008077087
491.5, 40.79044722985652
492, 40.9084777313588
492.5, 40.976725612608924
493, 40.998079405956446
493.5, 41.0168196355426
494, 41.02619868342984
494.5, 41.0352127650895
495, 41.05097468488158
495.5, 41.12476367336454
496, 41.22116167719812
496.5, 41.311802307683706
497, 41.35364017408057
497.5, 41.3516237725589
498, 41.361466908909485
498.5, 41.38342034517745
499, 41.409043348075144
499.5, 41.434976291081455
500, 41.45785954767528
500.5, 41.471196137831875
501, 41.47786561991132
501.5, 41.50605330481118
502, 41.53564044026863
502.5, 41.58241979403141
503, 41.63084608300073
503.5, 41.69332817728178
504, 41.743777388513635
504.5, 41.789668804172976
505, 41.82467324043684
505.5, 41.86251251309203
506, 41.92810254893805
506.5, 41.971446111076915
507, 42.01824214677978
507.5, 42.03926386202468
508, 42.065847800406004
508.5, 42.10362421456935
509, 42.14108024096672
509.5, 42.16562293207051
510, 42.182237423877936
510.5, 42.20096342306089
511, 42.2078765632559
511.5, 42.207931690658434
512, 42.236292190379075
512.5, 42.28073320574129
513, 42.33012265286303
513.5, 42.37158373110716
514, 42.353730550124986
514.5, 42.33282622799046
515, 42.329298765814855
515.5, 42.3814756430109
516, 42.4398921447343
516.5, 42.487577836461135
517, 42.52243164674435
517.5, 42.568540542559326
518, 42.620481754617735
518.5, 42.67155590868544
519, 42.715063630528284
519.5, 42.742807478494576
520, 42.756785967178075
520.5, 42.77540828015599
521, 42.778675197561306
521.5, 42.77880633346848
522, 42.786777564753294
522.5, 42.79662120022304
523, 42.84236757114594
523.5, 42.94879246675411
524, 43.07559751737496
524.5, 43.18607409067289
525, 43.20323401224457
525.5, 43.18139371734568
526, 43.1553733104766
526.5, 43.114758889453576
527, 43.07931470334007
527.5, 43.07876504188253
528, 43.093637230517295
528.5, 43.15006840061567
529, 43.18561308685419
529.5, 43.222873620769285
530, 43.24832091745315
530.5, 43.2739151888636
531, 43.31485847023707
531.5, 43.354280554829444
532, 43.39925331417967
532.5, 43.432683707621514
533, 43.46070025858324
533.5, 43.47000874868431
534, 43.47007395938347
534.5, 43.46395383817818
535, 43.455240673458235
535.5, 43.46316777418445
536, 43.471908807798854
536.5, 43.48996333856221
537, 43.50271428940022
537.5, 43.51200987308569
538, 43.506668515328585
538.5, 43.488163834107674
539, 43.4786895051538
539.5, 43.4702234150001
540, 43.486785308518755
540.5, 43.5247645566508
541, 43.57319487110721
541.5, 43.61788766308516
542, 43.65024428601877
542.5, 43.694285474838324
543, 43.742945403050015
543.5, 43.78192294460152
544, 43.756261646871515
544.5, 43.72279086017735
545, 43.66934847901672
545.5, 43.60141934696345
546, 43.53901318805502
546.5, 43.52966665941177
547, 43.562121821961185
547.5, 43.59916178628551
548, 43.637165140454215
548.5, 43.67973512015056
549, 43.69671988275074
549.5, 43.70830405322453
550, 43.6903207009373
550.5, 43.672278836800636
551, 43.64409884419302
551.5, 43.62232459256253
552, 43.5945576515015
552.5, 43.57712929483856
553, 43.560368808484995
553.5, 43.535114694874615
554, 43.509603123331054
554.5, 43.46427852190563
555, 43.4288005888783
555.5, 43.39141430319656
556, 43.38869342523696
556.5, 43.40706037690014
557, 43.429371547419585
557.5, 43.45480373288946
558, 43.463339652456526
558.5, 43.47319890122557
559, 43.474684126083496
559.5, 43.42481549561656
560, 43.366191759391675
560.5, 43.31590373000417
561, 43.29312932499465
561.5, 43.270135129654925
562, 43.2447333321987
562.5, 43.21944391834211
563, 43.20196329926458
563.5, 43.220046779541434
564, 43.238150133599675
564.5, 43.26628643870373
565, 43.27508584902208
565.5, 43.26513219957698
566, 43.24662704519088
566.5, 43.227549967414824
567, 43.21346934054052
567.5, 43.1980132733091
568, 43.17859709943163
568.5, 43.16089009979673
569, 43.1539932488371
569.5, 43.14095491713129
570, 43.11334953682065
570.5, 43.07610902413042
571, 43.034212012107425
571.5, 43.01730596401402
572, 43.005530741169636
572.5, 43.014647669373126
573, 43.02224467296284
573.5, 43.03161572043903
574, 43.038780189737416
574.5, 43.04800309491479
575, 43.06271943709115
575.5, 43.07941176900823
576, 43.08777482268558
576.5, 43.08786873155472
577, 43.04260099492085
577.5, 42.99224775645091
578, 42.90778446174394
578.5, 42.865031335983524
579, 42.828297387745664
579.5, 42.84371744934277
580, 42.86957515586533
580.5, 42.92113847413625
581, 42.96461552172457
581.5, 43.001597558724626
582, 43.016581186329326
582.5, 43.00689082311031
583, 42.975787384946265
583.5, 42.92086500146647
584, 42.879556055037405
584.5, 42.838815325582786
585, 42.83031831748635
585.5, 42.823901440259746
586, 42.82381586115589
586.5, 42.82696680503006
587, 42.83638339758045
587.5, 42.843774114781226
588, 42.852913092841376
588.5, 42.85410264835884
589, 42.854129395373036
589.5, 42.86280742141854
590, 42.873277774079384
590.5, 42.86786496875395
591, 42.800387266159746
591.5, 42.722244676010945
592, 42.65619923476851
592.5, 42.63088732879628
593, 42.63538814780326
593.5, 42.64399603549445
594, 42.66127171594625
594.5, 42.67211807277728
595, 42.662940165192694
595.5, 42.65535971929401
596, 42.64600790542111
596.5, 42.63914286918105
597, 42.62984678775528
597.5, 42.58664112421594
598, 42.53703553455424
598.5, 42.48525345762018
599, 42.444679691289224
599.5, 42.42611005462308
600, 42.41014662245424
600.5, 42.360352046222566
601, 42.252898898648375
601.5, 42.136769369345856
602, 42.045935728780975
602.5, 42.02753273910151
603, 42.02743361037937
603.5, 42.029149664768696
604, 42.03843317104391
604.5, 42.042533805121515
605, 42.042550583584436
605.5, 42.04273057488377
606, 42.04265772514413
606.5, 42.028390579177746
607, 42.01151503280154
607.5, 41.97265613243151
608, 41.88532462123088
608.5, 41.778205365035824
609, 41.682474656885994
609.5, 41.584738321123154
610, 41.46864859795967
610.5, 41.38266129124434
611, 41.27963643403368
611.5, 41.175940173820045
612, 41.102891441288044
612.5, 41.04370891588576
613, 41.006522244444945
613.5, 40.99086308312809
614, 40.99079835818614
614.5, 40.992669493247135
615, 40.94264460983993
615.5, 40.858304543166014
616, 40.77321638950475
616.5, 40.70747853527392
617, 40.610301305544105
617.5, 40.50776616113475
618, 40.44121070719669
618.5, 40.37534057879038
619, 40.35468571559746
619.5, 40.345457375663685
620, 40.33718621231726
620.5, 40.32836382749806
621, 40.30195768223295
621.5, 40.28430888422314
622, 40.28438232024518
622.5, 40.29145398753133
623, 40.310201588976774
623.5, 40.309529811537594
624, 40.30042650944225
624.5, 40.27011059386218
625, 40.23771066592037
625.5, 40.20299714096115
626, 40.169768191956365
626.5, 40.12312859671739
627, 40.09738963004377
627.5, 40.0785899939108
628, 40.101388616355614
628.5, 40.14599702022331
629, 40.13495034742698
629.5, 40.11353881564904
630, 40.013863700385166
630.5, 39.901138210318024
631, 39.764784004598525
631.5, 39.644189460168384
632, 39.557670883757346
632.5, 39.50136949934365
633, 39.44721680489453
633.5, 39.3828077065435
634, 39.315269439697
634.5, 39.21189017867151
635, 39.17111579972573
635.5, 39.12251732409936
636, 39.07986732179388
636.5, 39.0365394816217
637, 38.9875477551351
637.5, 38.932219072975855
638, 38.85694144354653
638.5, 38.78180753541863
639, 38.73727745394643
639.5, 38.736849177515055
640, 38.73685074872499
640.5, 38.73686264010995
641, 38.73686456401658
641.5, 38.73882578995083
642, 38.68035474190262
642.5, 38.586163116450685
643, 38.49212376447675
643.5, 38.42850658898564
644, 38.378713028551104
644.5, 38.32252403284324
645, 38.282531831147104
645.5, 38.235687247805714
646, 38.220590204597954
646.5, 38.21151644036739
647, 38.20311693113474
647.5, 38.19345750105678
648, 38.1585670137156
648.5, 38.11863114942601
649, 38.04353174650128
649.5, 37.962468018194784
650, 37.83155768525944
650.5, 37.75463512271966
651, 37.67447122381235
651.5, 37.65364573284198
652, 37.63864299831061
652.5, 37.620962256639366
653, 37.60545415375494
653.5, 37.58674139285961
654, 37.5760782958438
654.5, 37.566712615893685
655, 37.570538860041566
655.5, 37.57939076553207
656, 37.59371391762379
656.5, 37.525206922111565
657, 37.435594983154246
657.5, 37.33748312768075
658, 37.24347638262
658.5, 37.16617977490094
659, 37.122804874143135
659.5, 37.089128865811475
660, 37.072063471631296
660.5, 37.05312376794027
661, 37.03451015355972
661.5, 37.01755212609742
662, 36.986932340915864
662.5, 36.95878950751388
663, 36.936925320121645
663.5, 36.90892537846895
664, 36.880353984514194
664.5, 36.80254758484163
665, 36.68905632377775
665.5, 36.57685970178738
666, 36.51364184639476
666.5, 36.515335739216866
667, 36.524795162208434
667.5, 36.54413436729506
668, 36.58136571661547
668.5, 36.59527924237004
669, 36.60313346976245
669.5, 36.49204783688822
670, 36.37960230442495
670.5, 36.23585308730638
671, 36.1368802335363
671.5, 36.08096312748701
672, 36.042228963624964
672.5, 35.99565718004732
673, 35.9475520726826
673.5, 35.87597210985449
674, 35.771777120398994
674.5, 35.66898267179299
675, 35.611910452815366
675.5, 35.6186712003192
676, 35.646956803093886
676.5, 35.68098386736365
677, 35.736733542431736
677.5, 35.77156589028735
678, 35.805761855874266
678.5, 35.798539213936905
679, 35.78812237338663
679.5, 35.75205431069688
680, 35.720355196052154
680.5, 35.72769347989791
681, 35.80651351433012
681.5, 35.89405724720379
682, 35.9648433861792
682.5, 35.97224851406234
683, 35.96920934926875
683.5, 35.90101538695056
684, 35.81392034001334
684.5, 35.73337357289243
685, 35.69189833220564
685.5, 35.67825914199024
686, 35.65971942488538
686.5, 35.64389041530971
687, 35.626861088241455
687.5, 35.602023033582356
688, 35.57949569174663
688.5, 35.5616107534493
689, 35.54353886077273
689.5, 35.51537593789004
690, 35.49768479085587
690.5, 35.47912371001182
691, 35.48217449054631
691.5, 35.49108104962234
692, 35.474707837010186
692.5, 35.45810326340059
693, 35.43086632092495
693.5, 35.41325229496955
694, 35.40396933509693
694.5, 35.40112756489454
695, 35.40110559727687
695.5, 35.4010982569594
696, 35.401098802609
696.5, 35.401098815035326
697, 35.4010989254637
697.5, 35.40109943315389
698, 35.401085447782336
698.5, 35.40107057157151
699, 35.39652636517397
699.5, 35.387319848350856
700, 35.398764828259914
700.5, 35.415943213303294
701, 35.44943928415306
701.5, 35.47730049286733
702, 35.48642314846741
702.5, 35.49136656038287
703, 35.49133534004305
703.5, 35.4957328030475
704, 35.504943825620714
704.5, 35.50636598790031
705, 35.5062802786788
705.5, 35.48731043893291
706, 35.42580794007368
706.5, 35.34818733552753
707, 35.27714611492904
707.5, 35.24927123990979
708, 35.259591674450164
708.5, 35.278048963077495
709, 35.307002066361534
709.5, 35.34088813727142
710, 35.34067905706145
710.5, 35.332611826512775
711, 35.26902849970496
711.5, 35.21551811281259
712, 35.149918841027656
712.5, 35.10819590362716
713, 35.06204197038022
713.5, 35.028669617213595
714, 34.9953707546574
714.5, 34.95277232502434
715, 34.9140557778325
715.5, 34.86822011600768
716, 34.84176950920872
716.5, 34.83258260713545
717, 34.82107462602035
717.5, 34.802658168693014
718, 34.78024887942344
718.5, 34.75525464776969
719, 34.81513100270678
719.5, 34.86160106200448
720, 34.87168094150503
720.5, 34.846286859948776
721, 34.75209484136512
721.5, 34.7065716615317
722, 34.669656369788314
722.5, 34.651010821480455
723, 34.634635321597244
723.5, 34.61751349655454
724, 34.600727377372095
724.5, 34.606819956830776
725, 34.68230770804817
725.5, 34.770223464687874
726, 34.844969239017516
726.5, 34.87274570751249
727, 34.85504229216012
727.5, 34.82959478474241
728, 34.78673911564535
728.5, 34.756338284291516
729, 34.76513729898643
729.5, 34.78516795467074
730, 34.83219475199887
730.5, 34.864359474799
731, 34.900964411083876
731.5, 34.898786553847245
732, 34.88952055446447
732.5, 34.846249621504896
733, 34.805169705161816
733.5, 34.74075043766237
734, 34.700055251328635
734.5, 34.67225082063163
735, 34.67426946493029
735.5, 34.69255231904636
736, 34.72937775082083
736.5, 34.77068479342492
737, 34.805087612370485
737.5, 34.8272056645189
738, 34.80912661524975
738.5, 34.78424019862338
739, 34.73727867203465
739.5, 34.69610971502526
740, 34.64118110376363
740.5, 34.57895504638866
741, 34.514609670610014
741.5, 34.51510735522483
742, 34.531189753637236
742.5, 34.63241928616111
743, 34.7062556213249
743.5, 34.78080398285938
744, 34.79532080217449
744.5, 34.786255834371644
745, 34.74317472877951
745.5, 34.69463946030339
746, 34.68551658997336
746.5, 34.6877142637957
747, 34.73422399697709
747.5, 34.77416561538317
748, 34.83065809512267
748.5, 34.8603748186036
749, 34.88760973646413
749.5, 34.86920950470288
750, 34.84214915365119
750.5, 34.74741910566698
751, 34.66275028822707
751.5, 34.56977062510137
752, 34.506852160938834
752.5, 34.44084664971598
753, 34.373744044442034
753.5, 34.28301879485278
754, 34.25186934988088
754.5, 34.22971865990502
755, 34.247256620714154
755.5, 34.25931076564673
756, 34.25938851725853
756.5, 34.27250231803278
757, 34.31011037125309
757.5, 34.34980009977009
758, 34.40421457577126
758.5, 34.43873333234872
759, 34.4711630056418
759.5, 34.514042275931274
760, 34.55877300284355
760.5, 34.63328410552215
761, 34.70295463723852
761.5, 34.69508533779528
762, 34.58688654819055
762.5, 34.47096729006954
763, 34.38139108218523
763.5, 34.41202300503943
764, 34.47273985558839
764.5, 34.52747763633758
765, 34.59267898947921
765.5, 34.62986995256662
766, 34.65814787836325
766.5, 34.67522664173903
767, 34.69332946483975
767.5, 34.702385350737856
768, 34.71029774472113
768.5, 34.71876833905597
769, 34.73044833969222
769.5, 34.7584268672051
770, 34.77327727600557
770.5, 34.78265279911196
771, 34.74308522055203
771.5, 34.67089781226379
772, 34.59082998554982
772.5, 34.51545774620594
773, 34.53200261268505
773.5, 34.56712269533793
774, 34.67921929549475
774.5, 34.74934350334105
775, 34.8151527935393
775.5, 34.82989370525961
776, 34.830089326601154
776.5, 34.830089658616515
777, 34.82963486815008
777.5, 34.820993054375805
778, 34.811178646947994
778.5, 34.792474430491865
779, 34.777893509120574
779.5, 34.759122945710004
780, 34.74966904198203
780.5, 34.74063165041086
781, 34.73235264577916
781.5, 34.72388988225693
782, 34.70636230285996
782.5, 34.69080014279878
783, 34.67211865481066
783.5, 34.65591610239021
784, 34.61415719827794
784.5, 34.5325867540614
785, 34.445824562299336
785.5, 34.37940287877687
786, 34.37982859824375
786.5, 34.38798203272647
787, 34.40850436756598
787.5, 34.4740798984876
788, 34.52142787110938
788.5, 34.577633830183046
789, 34.55131760125458
789.5, 34.48870398674735
790, 34.407996970289545
790.5, 34.33076179103817
791, 34.278116749404106
791.5, 34.229262373333114
792, 34.16388265986883
792.5, 34.14296888657792
793, 34.152196994174844
793.5, 34.182413572549436
794, 34.22659217135781
794.5, 34.206679872989
795, 34.180454582658186
795.5, 34.12925803594662
796, 34.07024117210089
796.5, 33.99642147327505
797, 33.91783616215314
797.5, 33.84452246141913
798, 33.7865175937571
798.5, 33.73656322302841
799, 33.70998525856628
799.5, 33.691519081471526
800, 33.735527393400076
800.5, 33.78091153112848
800.9999999999999, 33.85584379733963
801.5, 33.898646270637485
802, 33.93610516626515
802.5, 33.92142092979036
803, 33.88553220288033
803.4999999999999, 33.79772495045199
804, 33.71399357629416
804.5, 33.66066460917219
805, 33.6186851023984
805.5, 33.581262432995786
806, 33.55241190759193
806.5, 33.51506440463844
806.9999999999999, 33.52514855959923
807.5, 33.55163236516874
808, 33.57651568015426
808.5, 33.594935069607715
809, 33.55933079135349
809.4999999999999, 33.516000210688944
810, 33.43961258189201
810.5, 33.317610121001735
811, 33.18112581759915
811.5, 33.07018797382749
812, 32.829826975174996
812.5, 32.5739624818864
813, 32.48431508326033
813.5, 32.36822683502449
814, 32.26005315446231
814.5, 32.22025882516449
815, 32.23447072374091
815.4999999999999, 32.243790049711436
816, 32.19874234734341
816.5, 32.128235182906195
817, 32.069114241816635
817.5, 32.019565144471656
818, 32.011004618752935
818.5, 31.995669429225714
819, 31.957987470877768
819.5, 31.908999749950496
820, 31.82533088379789
820.5, 31.76078960344121
821, 31.69198793658154
821.4999999999999, 31.673916427945358
822, 31.65879418027417
822.5, 31.649862478195885
823, 31.642084611859914
823.5, 31.632661083854856
824, 31.613676425101602
824.5, 31.576549743328798
825, 31.514208553286736
825.5, 31.4365175288887
826, 31.353824843689836
826.5, 31.276812461403097
827, 31.205133598826563
827.4999999999999, 31.143456202224996
828, 31.068506012775757
828.5, 31.03114141469824
829, 31.003158119793596
829.5, 31.0110009844241
829.9999999999999, 30.93381384046802
830.5, 30.81043411088723
831, 30.689298845508148
831.5, 30.619873306431842
832, 30.602708187068515
832.5, 30.583916784080543
833, 30.569386729879824
833.4999999999999, 30.55082302894222
834, 30.541283017566727
834.5, 30.53287474009818
835, 30.52452768245108
835.5, 30.51666760576657
835.9999999999999, 30.507563670638703
836.5, 30.50297766023607
837, 30.529404406926275
837.5, 30.608091857432143
838, 30.695481969353068
838.5, 30.766449049952286
839, 30.861506757861008
839.5, 30.957336066765222
840, 31.03316131549022
840.5, 31.129869967765742
841, 31.219332435672214
841.5, 31.29620000888751
841.9999999999999, 31.375769342787223
842.5, 31.464496809843737
843, 31.58449062954523
843.5, 31.708541999824874
844, 31.800244031764706
844.5, 31.89361229195633
845, 31.966079632934992
845.5, 32.0218799317432
846, 32.077970237893666
846.5, 32.0915441249316
847, 32.08236732399041
847.5, 32.016238886763304
847.9999999999999, 31.93095123188371
848.5, 31.804890716848703
849, 31.68031488783373
849.5, 31.538591033803883
850, 31.463095875949165
850.4999999999999, 31.375527181660416
851, 31.300766208540637
851.5, 31.272332726618103
852, 31.26239357466774
852.5, 31.253992697254844
853, 31.245558613599556
853.5, 31.23884088271953
853.9999999999999, 31.23847236392517
854.5, 31.249991601261684
855, 31.287709200062253
855.5, 31.325952409411954
856, 31.381262564606388
856.4999999999999, 31.42987883809714
857, 31.324528593734144
857.5, 31.1624286819808
858, 31.00507674754759
858.5, 30.9152024865042
859, 30.8959985724356
859.5, 30.905601493617255
859.9999999999999, 30.94006608926749
860.5, 31.00446198463547
861, 31.053659992835406
861.5, 31.103716056468002
862, 31.12901458632605
862.4999999999999, 31.1448648901048
863, 31.11718081270932
863.5, 31.10639961385239
864, 31.11610326726783
864.5, 31.17341847736222
865, 31.28373459306367
865.5, 31.399779346117754
866, 31.524978323226406
866.5, 31.635865799702174
867, 31.72866055169547
867.5, 31.792784649313674
868, 31.834448275038866
868.4999999999999, 31.862396504847112
869, 31.90230798999886
869.5, 31.96661776401372
870, 32.02936902717039
870.5, 32.09561646411852
871, 32.121184639233874
871.5, 32.14290727428629
872, 32.16053555838123
872.5, 32.19744985971758
873, 32.28209925484006
873.5, 32.38720912203756
874, 32.5257964971686
874.4999999999999, 32.711830049725776
875, 32.901667262798526
875.5, 33.04032713365359
876, 33.17609603512412
876.5, 33.26830042911976
876.9999999999999, 33.316521041554054
877.5, 33.325376960063906
878, 33.32479355225456
878.5, 33.38764506441278
879, 33.49939066607092
879.5, 33.61346355079574
880, 33.70588832560581
880.4999999999999, 33.887489495291135
881, 34.05132539941751
881.5, 34.18706147252746
882, 34.34296083740445
882.5, 34.474225861689575
882.9999999999999, 34.61283073029544
883.5, 34.71120750338231
884, 34.80075065244121
884.5, 34.835271292745475
885, 34.8687770865905
885.5, 34.923443162086315
886, 34.98232634328173
886.4999999999999, 35.07615606618329
887, 35.17377662220176
887.5, 35.310667797732094
888, 35.455100499606914
888.5, 35.52937498713419
888.9999999999999, 35.62533413295371
889.5, 35.717250526908586
890, 35.819153859946894
890.5, 35.96942031665807
891, 36.09099886137756
891.5, 36.14105659050186
892, 36.178048495623685
892.5, 36.260099862424184
893, 36.35285153210178
893.5, 36.5336236615715
894, 36.68862868648103
894.5, 36.82783476999241
894.9999999999999, 36.9121066657802
895.5, 36.99004715685115
896, 37.12529638373027
896.5, 37.28472802989716
897, 37.4473070580409
897.4999999999999, 37.591998430850516
898, 37.69171630835038
898.5, 37.75866524486065
899, 37.833347851992265
899.5, 37.92431501611845
900, 38.09363742012105
900.5, 38.29241696379563
900.9999999999999, 38.426322162306555
901.5, 38.566686894189836
902, 38.707923735672324
902.5, 38.814545046122554
903, 38.95877885695087
903.4999999999999, 39.14181292627569
904, 39.33842072783979
904.5, 39.52337573538602
905, 39.671451422657206
905.5, 39.77666871609231
906, 39.84663056453301
906.5, 39.909887129898515
906.9999999999999, 39.93582286481958
907.5, 39.9577528708268
908, 39.97662461027537
908.5, 40.0284084003145
909, 40.150663798752035
909.4999999999999, 40.32907839993132
910, 40.59144678084935
910.5, 40.77715647678124
911, 40.949418645665865
911.5, 41.036379919748434
912, 41.11871119564806
912.5, 41.22208318482146
912.9999999999999, 41.40213236306617
913.5, 41.62127213253192
914, 41.85015635912072
914.5, 42.05943890873452
915, 42.21977364727537
915.4999999999999, 42.289260444108876
916, 42.41950779466175
916.5, 42.54243389471431
917, 42.710443329811426
917.5, 42.83464723635092
918, 42.98513969290231
918.5, 43.16185692520489
919, 43.405222514713
919.5, 43.6921783693156
920, 44.026260587416864
920.5, 44.4687737509601
921, 44.887894040274794
921.4999999999999, 45.10095584505547
922, 45.12568233344558
922.5, 45.172567812645624
923, 45.21534399522033
923.5, 45.269151829549806
923.9999999999999, 45.2736241069789
924.5, 45.27013737195194
925, 45.21729552227219
925.5, 45.17677151821476
926, 45.14888105666066
926.5, 45.14520135045186
927, 45.16387546134338
927.4999999999999, 45.184625042063004
928, 45.404051469220065
928.5, 45.751940422527575
929, 46.10031015954036
929.5, 46.315920983255666
929.9999999999999, 46.365158449965556
930.5, 46.41198025691609
931, 46.45577278363078
931.5, 46.52141609086459
932, 46.594746449472616
932.5, 46.69366653964929
933, 46.807433593117835
933.4999999999999, 46.92059129153471
934, 47.07057644857946
934.5, 47.1899762141085
935, 47.29263309132928
935.5, 47.34631058619403
935.9999999999999, 47.38393894331559
936.5, 47.41935496641658
937, 47.464075630196255
937.5, 47.51284554868284
938, 47.71235397174961
938.5, 47.97265982649064
939, 48.21723459408269
939.4999999999999, 48.33626736683176
940, 48.346032490404845
940.5, 48.36473147748932
941, 48.390746713597274
941.5, 48.42644655124823
941.9999999999999, 48.475132809098916
942.5, 48.64563299145852
943, 48.86752661304653
943.5, 49.075570053682505
944, 49.206472818783446
944.4999999999999, 49.34501079588152
945, 49.50093585733846
945.5, 49.62887034388004
946, 49.67344774383997
946.5, 49.7077205759877
947, 49.856061207110685
947.5, 50.04882378360885
947.9999999999999, 50.22966601046253
948.5, 50.35321692492978
949, 50.435803117043854
949.5, 50.52920015419125
950, 50.60980620389181
950.4999999999999, 50.70755093248853
951, 50.767966712175976
951.5, 50.81743151313991
952, 50.81590948775013
952.5, 50.84876219670222
953, 50.98039173607404
953.5, 51.098520881793625
953.9999999999999, 51.266525850604026
954.5, 51.345494600249175
955, 51.476542736511746
955.5, 51.66558743252549
956, 51.852656103476235
956.4999999999999, 51.98956022592389
957, 52.16889321402597
957.5, 52.38356698459664
958, 52.571208694768
958.5, 52.6310838770626
959, 52.64614234055722
959.5, 52.734098150145506
959.9999999999999, 52.86668651348688
960.5, 52.997577015636296
961, 53.104741002893995
961.5, 53.250461086613946
962, 53.362898040227016
962.4999999999999, 53.422130043393636
963, 53.46888286378722
963.5, 53.50558101222255
964, 53.55050764235167
964.5, 53.664485535068636
965, 53.775402629620004
965.5, 53.91032751031714
965.9999999999999, 54.00143767628656
966.5, 54.04808695329518
967, 54.1070806207085
967.5, 54.20929793936588
968, 54.33230295199641
968.4999999999999, 54.47924524497661
969, 54.5474376931724
969.5, 54.60148647393961
970, 54.57452142741091
970.5, 54.54302579249757
970.9999999999999, 54.5686431757146
971.5, 54.73498527137845
972, 54.91988568113473
972.5, 55.06940366068477
973, 55.05648556664158
973.5, 55.08802485730984
974, 55.13722281994354
974.4999999999999, 55.35267443431939
975, 55.534452672345566
975.5, 55.749844028657016
976, 55.86689264491047
976.5, 55.9370588019826
976.9999999999999, 56.01983255636118
977.5, 56.10579109219959
978, 56.16992233213622
978.5, 56.23799111508165
979, 56.324962084004426
979.5, 56.40557829085578
980, 56.47056293730904
980.4999999999999, 56.531785183665725
981, 56.64813116041619
981.5, 56.83209535097705
982, 57.023368462924644
982.5, 57.15737190600303
982.9999999999999, 57.143577084414034
983.5, 57.14329265854055
984, 57.15132264876684
984.5, 57.179579891142
985, 57.201220445787804
985.5, 57.22904882957202
986, 57.26570731249845
986.4999999999999, 57.308210405160395
987, 57.40774141008874
987.5, 57.49330441421042
988, 57.529706580317445
988.5, 57.54977619757793
988.9999999999999, 57.54968016601714
989.5, 57.57110165206954
990, 57.61727487082168
990.5, 57.63773402815746
991, 57.65429520237987
991.4999999999999, 57.6794674727588
992, 57.703949687583155
992.5, 57.740385086425015
993, 57.76273111035949
993.5, 57.77196535788923
994, 57.774593970071585
994.5, 57.774627529004434
994.9999999999999, 57.789010652663634
995.5, 57.91686837204936
996, 58.107410021182176
996.5, 58.29294240555458
997, 58.42790035534721
997.4999999999999, 58.55943879465408
998, 58.67197493953222
998.5, 58.719684790672005
999, 58.7475525627397
999.5, 58.73252882954199
1000, 58.706468582484554
1000.5, 58.73193371299688
1000.9999999999999, 58.762121148796496
1001.5, 58.844702600393006
1002, 58.88467845786428
1002.5, 58.87477023492329
1003, 58.84445412619281
1003.4999999999999, 58.789238985314704
1004, 58.76796577078832
1004.5, 58.751428215241305
1005, 58.810896738224514
1005.5, 58.86036624491094
1006, 58.88861640077453
1006.5, 58.87930912790835
1006.9999999999999, 58.80373323512905
1007.5, 58.72710766705639
1008, 58.61659383662019
1008.5, 58.53433592896165
1009, 58.45095739644485
1009.4999999999999, 58.485569585499505
1010, 58.52232573066628
1010.5, 58.60460779818655
1011, 58.661526514338746
1011.5, 58.70820821814037
1012, 58.75279372787593
1012.5, 58.817332338215785
1012.9999999999999, 58.920201276404946
1013.5, 59.037390384544445
1014, 59.122663078613094
1014.5, 59.19340165568713
1015, 59.238693349558325
1015.4999999999999, 59.286156244960196
1016, 59.361204810607155
1016.5, 59.397072347581656
1017, 59.4245525739247
1017.5, 59.37426713280253
1017.9999999999999, 59.306613736317765
1018.5, 59.229731782717565
1019, 59.176473297926684
1019.5, 59.20443137777353
1020, 59.20837051384348
1020.5, 59.17980743674774
1021, 59.09594455053683
1021.4999999999999, 58.94960812350278
1022, 58.9029858001256
1022.5, 58.87172840000645
1023, 58.88021012974231
1023.5, 58.87682368973621
1023.9999999999999, 58.8125371498447
1024.5, 58.76865476554518
1025, 58.73141110941739
1025.5, 58.721218836544764
1026, 58.72119868932623
1026.5, 58.74206354838482
1027, 58.76824841099719
1027.5, 58.87200741286399
1028, 58.96104713785956
1028.5, 59.05331237402406
1029, 59.10420512293379
1029.5, 59.1224699085938
1030, 59.13679839956298
1030.5, 59.155052706816385
1031, 59.15729617159539
1031.5, 59.15690380015651
1032, 59.147962464459304
1032.5, 59.12753514162008
1033, 59.03641610806461
1033.5, 58.9374816428776
1034, 58.77812604592552
1034.5, 58.68761141094289
1035, 58.59617581783627
1035.5, 58.55728937363995
1036, 58.525806211066126
1036.5, 58.51726877440788
1037, 58.514014882671695
1037.5, 58.53229888495824
1038, 58.55081283860934
1038.5, 58.578911166853764
1039, 58.595979211881954
1039.5, 58.6142309959372
1040, 58.623286941209166
1040.5, 58.6304431209047
1041, 58.604865098265094
1041.5, 58.5779365169653
1042, 58.531591368414425
1042.5, 58.51778806256961
1043, 58.53661735149628
1043.5, 58.6064040563482
1044, 58.72439847871112
1044.5, 58.786947622630265
1045, 58.84008087742222
1045.5, 58.79668282018253
1046, 58.753177316465205
1046.5, 58.66459003133724
1047, 58.45477359645954
1047.5, 58.19860869938731
1048, 57.930434352368856
1048.5, 57.68458956765252
1049, 57.495413357486655
1049.5, 57.39743943382186
1050, 57.353549485413986
1050.5, 57.32694738790596
1051, 57.34561778724131
1051.5, 57.36064004041505
1052, 57.37946800811434
1052.5, 57.394117808734535
1053, 57.412324910939546
1053.5, 57.43532066820528
1054, 57.45312660117577
1054.5, 57.30640483879975
1055, 57.162510327747476
1055.5, 56.948453807542506
1056, 56.845199617750886
1056.5, 56.8072695597426
1057, 56.79806719500078
1057.5, 56.797999232234474
1058, 56.805412809490704
1058.5, 56.8154113774662
1059, 56.86764701705266
1059.5, 56.9124556938258
1060, 56.95869167849073
1060.5, 56.92960601857424
1061, 56.798255313804866
1061.5, 56.66807847226227
1062, 56.49675155113471
1062.5, 56.42938950468396
1063, 56.37616865827641
1063.5, 56.32885046550656
1064, 56.18497938458533
1064.5, 56.00963730116369
1065, 55.85373919526121
1065.5, 55.79708173960138
1066, 55.795906185171845
1066.5, 55.80526613023431
1067, 55.87271952313221
1067.5, 55.9452852271448
1068, 56.015985387766065
1068.5, 56.06050159108453
1069, 56.05099450427202
1069.5, 56.036045890056066
1070, 56.00790511212383
1070.5, 55.986876018963216
1071, 55.95916021953583
1071.5, 55.83739680107942
1072, 55.708610964699425
1072.5, 55.57590119366205
1073, 55.489500778470074
1073.5, 55.48965866426403
1074, 55.47606188716066
1074.5, 55.43853854311171
1075, 55.34969668591325
1075.5, 55.21502748746765
1076, 55.0989886601885
1076.5, 54.991366536544355
1077, 54.9311847104442
1077.5, 54.85543499724699
1078, 54.696182403402155
1078.5, 54.55394685625628
1079, 54.34777147344998
1079.5, 54.254559776738894
1080, 54.173778496436675
1080.5, 54.160030681358165
1081, 54.15450115192259
1081.5, 54.170956797944484
1082, 54.21001414828909
1082.5, 54.33178547069181
1083, 54.41190876561125
1083.5, 54.4962748316712
1084, 54.49236985221746
1084.5, 54.4564689612724
1085, 54.36990581846801
1085.5, 54.27779225804549
1086, 54.1265402525852
1086.5, 53.94814876863077
1087, 53.73385850532107
1087.5, 53.54540094092756
1088, 53.52549284499144
1088.5, 53.60999151349524
1089, 53.725888358388225
1089.5, 53.818053543803096
1090, 53.89424749828785
1090.5, 53.84312474588469
1091, 53.75213132443977
1091.5, 53.508280143017934
1092, 53.3374768043969
1092.5, 53.14097622000125
1093, 53.107482144126614
1093.5, 53.11609037053233
1094, 53.1629641463821
1094.5, 53.20604366049126
1095, 53.19688097888128
1095.5, 53.194238590377964
1096, 53.20423706273567
1096.5, 53.33555115104126
1097, 53.64333069353897
1097.5, 53.835245280446834
1098, 54.03855698141362
1098.5, 53.96810639015638
1099, 53.69203345930835
1099.5, 53.33467297696576
1100, 53.00099807549419
1100.5, 52.80454252354359
1101, 52.62193068838198
1101.5, 52.41735468830183
1102, 52.25044176482523
1102.5, 52.131312683689586
1103, 52.053658495498766
1103.5, 51.98688952680239
1104, 51.95229218985041
1104.5, 51.8997022018126
1105, 51.77758972249168
1105.5, 51.68270504249193
1106, 51.56145579022098
1106.5, 51.55098227235373
1107, 51.568276980795034
1107.5, 51.58486060309811
1108, 51.595745096160165
1108.5, 51.559730611206874
1109, 51.53629107255186
1109.5, 51.527044397493796
1110, 51.52836409636992
1110.5, 51.537665750401885
1111, 51.508986146972006
1111.5, 51.465355480277935
1112, 51.38446596591353
1112.5, 51.31274155943991
1113, 51.30330247476419
1113.5, 51.3102291047885
1114, 51.357198708529474
1114.5, 51.36552169658578
1115, 51.347069010650024
1115.5, 51.303295490031516
1116, 51.13540081379106
1116.5, 50.879467527026165
1117, 50.6273822436403
1117.5, 50.474735857130725
1118, 50.395124183807546
1118.5, 50.27290471001622
1119, 50.178245748172564
1119.5, 50.05737644259163
1120, 50.004400365981894
1120.5, 49.96238948358125
1121, 49.95358712070739
1121.5, 49.95551781838702
1122, 50.04530743801595
1122.5, 50.12200803005373
1123, 50.21562868307102
1123.5, 50.24256243613838
1124, 50.23351236608932
1124.5, 50.20074964193575
1125, 50.157597251911334
1125.5, 50.08628669054496
1126, 49.858499887569366
1126.5, 49.56794831478928
1127, 49.29973801076121
1127.5, 49.141805103394624
1128, 48.984444804533766
1128.5, 48.80960901735869
1129, 48.66765794011176
1129.5, 48.5070120423547
1130, 48.41395609426941
1130.5, 48.34061375115623
1131, 48.35872841263206
1131.5, 48.37358326005476
1132, 48.392067433688624
1132.5, 48.326192187643315
1133, 48.169013026294785
1133.5, 48.01568120141097
1134, 47.845339266084665
1134.5, 47.793233958688475
1135, 47.738832750196295
1135.5, 47.62159020469183
1136, 47.51910877273146
1136.5, 47.387831617639506
1137, 47.30839961265108
1137.5, 47.22492295095509
1138, 47.14062936666051
1138.5, 47.04734371815562
1139, 46.97153408034538
1139.5, 46.904638230686906
1140, 46.850893666188874
1140.5, 46.79079217732099
1141, 46.68745354765028
1141.5, 46.62030896700891
1142, 46.54630368465397
1142.5, 46.527848209528514
1143, 46.52034364719639
1143.5, 46.4698901762259
1144, 46.422423217745965
1144.5, 46.359684650338785
1145, 46.28601227735528
1145.5, 46.1543879452541
1146, 46.04384805745642
1146.5, 45.89608979192811
1147, 45.78828168680845
1147.5, 45.67934847714784
1148, 45.59467729371701
1148.5, 45.52071313803625
1149, 45.458152004011204
1149.5, 45.375410209464704
1150, 45.21556530078338
1150.5, 45.09523324558296
1151, 44.94780429237678
1151.5, 44.9388777418025
1152, 44.957574534016175
1152.5, 45.00838220785321
1153, 45.04398610800494
1153.5, 45.01670263123411
1154, 44.981604232174796
1154.5, 44.892925199878476
1155, 44.71576029620188
1155.5, 44.5216261809482
1156, 44.36720777600712
1156.5, 44.34150450835713
1157, 44.33292477488577
1157.5, 44.32399002965482
1158, 44.30578047216064
1158.5, 44.29047900900812
1159, 44.271738001234404
1159.5, 44.25773953253083
1160, 44.239209397073914
1160.5, 44.182184237010404
1161, 44.11418581543532
1161.5, 43.82251825661811
1162, 43.55932501175562
1162.5, 43.23759220777789
1163, 43.05829750840986
1163.5, 43.003699272732305
1164, 43.003026869006625
1164.5, 43.03048531175507
1165, 43.08119412932356
1165.5, 43.138707306409785
1166, 43.06929606910228
1166.5, 42.99209003575999
1167, 42.80852457053976
1167.5, 42.686886199525425
1168, 42.59385589302344
1168.5, 42.54142133724879
1169, 42.40870711373202
1169.5, 42.19477885663373
1170, 41.976193659150525
1170.5, 41.81545284194894
1171, 41.64462576771219
1171.5, 41.497749690776615
1172, 41.394397329318906
1172.5, 41.30110407608075
1173, 41.22491313711091
1173.5, 41.12380162414806
1174, 40.95945182182094
1174.5, 40.77758671421716
1175, 40.622532271182514
1175.5, 40.5016679588211
1176, 40.44689102191872
1176.5, 40.39449467706074
1177, 40.31962841522198
1177.5, 40.3094643381473
1178, 40.327518402578406
1178.5, 40.343447997109244
1179, 40.3588651788323
1179.5, 40.32380857335996
1180, 40.28034255612478
1180.5, 40.161104179594005
1181, 40.00648401559527
1181.5, 39.80412154444222
1182, 39.53682376803678
1182.5, 39.24638308537385
1183, 39.01715999196253
1183.5, 38.793589463747395
1184, 38.66351043803078
1184.5, 38.57204492883859
1185, 38.58131049331764
1185.5, 38.586472538605676
1186, 38.58643799883364
1186.5, 38.55741730748937
1187, 38.50261047780779
1187.5, 38.41157400239314
1188, 38.31305851896608
1188.5, 38.20947764244897
1189, 38.12529572022129
1189.5, 38.069587188544816
1190, 38.03932533861454
1190.5, 38.020433177245025
1191, 38.01134564921088
1191.5, 38.00191824974157
1192, 37.93683942601254
1192.5, 37.8612070059414
1193, 37.71688419351976
1193.5, 37.46307653233009
1194, 37.15170297372016
1194.5, 36.87303246874805
1195, 36.74630831237014
1195.5, 36.68292496108158
1196, 36.61028280055374
1196.5, 36.552650103131484
1197, 36.499639675855846
1197.5, 36.542458556548326
1198, 36.59046872917392
1198.5, 36.68347204271503
1199, 36.726450575803476
1199.5, 36.73600750736321
1200, 36.73236044808133
1200.5, 36.58482600786585
1201, 36.341452650719916
1201.5, 36.095625112754604
1202, 35.93896597406956
1202.5, 35.902977561723716
1203, 35.85616606714011
1203.5, 35.792469876380366
1204, 35.67028706024091
1204.5, 35.5582916800317
1205, 35.41369776443882
1205.5, 35.34798253714072
1206, 35.28554973390308
1206.5, 35.05930455375015
1207, 34.86195184910214
1207.5, 34.647656110774065
1208, 34.52538809949523
1208.5, 34.43107373505781
1209, 34.30862918378678
1209.5, 34.13775043364184
1210, 34.11470294346729
1210.5, 34.111881583247424
1211, 34.17237143072025
1211.5, 34.23672067586416
1212, 34.348736179952
1212.5, 34.42201609283718
1213, 34.497166422825856
1213.5, 34.477696526742065
1214, 34.41463651962816
1214.5, 34.32000539491078
1215, 34.2225551160563
1215.5, 34.10039924660511
1216, 33.99106794449243
1216.5, 33.86027696467403
1217, 33.75862345981433
1217.5, 33.62717732937607
1218, 33.544186319534106
1218.5, 33.454316737577955
1219, 33.43155076969511
1219.5, 33.413145679513974
1220, 33.33474270726472
1220.5, 33.2565044779153
1221, 33.13500004464939
1221.5, 33.054766371283264
1222, 32.97024763017488
1222.5, 32.87174797587291
1223, 32.71762837031751
1223.5, 32.50129614219777
1224, 32.28514202444465
1224.5, 32.16203619574809
1225, 32.19364387663994
1225.5, 32.23107537944027
1226, 32.25660754332354
1226.5, 32.28475516707533
1227, 32.30864588398832
1227.5, 32.142494225990944
1228, 31.86956643736268
1228.5, 31.596707910366746
1229, 31.44175493785015
1229.5, 31.45625531434382
1230, 31.4186353974887
1230.5, 31.374384191653462
1231, 31.29951681506263
1231.5, 31.261964432094203
1232, 31.22610642972255
1232.5, 31.19296116148253
1233, 31.04508043686043
1233.5, 30.852285085505585
1234, 30.671176516441903
1234.5, 30.574654763509116
1235, 30.54361725025322
1235.5, 30.496848750093662
1236, 30.415504706429076
1236.5, 30.299220939565387
1237, 30.16045877120601
1237.5, 30.030434822284292
1238, 29.94238902358886
1238.5, 29.860114557065756
1239, 29.747741094378995
1239.5, 29.62565138144346
1240, 29.484355370878916
1240.5, 29.293107728224825
1241, 29.090967079225564
1241.5, 28.939545145935696
1242, 28.956392829437263
1242.5, 28.974411219939228
1243, 28.983093266880985
1243.5, 28.973775801824942
1244, 28.99394753124497
1244.5, 29.04994232190819
1245, 29.226068333873812
1245.5, 29.483173554423274
1246, 29.6701550922796
1246.5, 29.82821539222529
1247, 29.85298107346169
1247.5, 29.91438601131854
1248, 30.09305521117662
1248.5, 30.271390816467175
1249, 30.541904611025473
1249.5, 30.656520018727818
1250, 30.753875218637802
1250.5, 30.743302127908933
1251, 30.72026832137844
1251.5, 30.631115335094037
1252, 30.556461153218407
1252.5, 30.472336340553568
1253, 30.454894567381146
1253.5, 30.482623898601048
1254, 30.50528122376933
1254.5, 30.53165486727808
1255, 30.53283964258496
1255.5, 30.52779342478047
1256, 30.474232497911842
1256.5, 30.42811026991282
1257, 30.372022860552022
1257.5, 30.36833898198597
1258, 30.40535658161403
1258.5, 30.454811038631973
1259, 30.51553194981524
1259.5, 30.52531105608591
1260, 30.529087138393876
1260.5, 30.492296599158365
1261, 30.486563566233286
1261.5, 30.54320906897398
1262, 30.59960654592274
1262.5, 30.683296575803922
1263, 30.705058889986063
1263.5, 30.712780670861832
1264, 30.709952555524893
1264.5, 30.626812659315846
1265, 30.520360970211527
1265.5, 30.421785136007216
1266, 30.396844846381725
1266.5, 30.44059851738345
1267, 30.489253950167722
1267.5, 30.528628432347247
1268, 30.53277512668123
1268.5, 30.516453592433734
1269, 30.49980324532673
1269.5, 30.472581194526185
1270, 30.457321294286658
1270.5, 30.45747809737911
1271, 30.4699844404836
1271.5, 30.497781032288955
1272, 30.52756290976106
1272.5, 30.561937699808183
1273, 30.546034768844436
1273.5, 30.52193911655482
1274, 30.422874701263225
1274.5, 30.34102273348941
1275, 30.24726665296076
1275.5, 30.17510400514685
1276, 30.082334622808787
1276.5, 30.016110091501503
1277, 29.948017844721136
1277.5, 29.979969703138053
1278, 30.016010216310207
1278.5, 30.09760612807422
1279, 30.153150704005625
1279.5, 30.19037876665891
1280, 30.193529004903283
1280.5, 30.175120900031402
1281, 30.153227907332123
1281.5, 30.127415810513497
1282, 30.193439962593814
1282.5, 30.257049599589322
1283, 30.34019751194552
1283.5, 30.354266562653734
1284, 30.250221686089972
1284.5, 30.160351963795904
1285, 30.04011825225659
1285.5, 30.007647173596922
1286, 29.99193983378693
1286.5, 29.992405186245563
1287, 30.013826345827184
1287.5, 30.19479031207092
1288, 30.419570211809187
1288.5, 30.59581023370002
1289, 30.602386949832024
1289.5, 30.609431684217085
1290, 30.61692127979441
1290.5, 30.624832579503234
1291, 30.633142426282788
1291.5, 30.64182766307232
1292, 30.650865132811006
1292.5, 30.660231678438095
1293, 30.669904142892833
1293.5, 30.67985936911441
1294, 30.690074200042105
1294.5, 30.700525478615077
1295, 30.711190047772604
1295.5, 30.72204475045389
1296, 30.733066429598168
1296.5, 30.74423192814467
1297, 30.755518089032606
1297.5, 30.766901755201204
1298, 30.778359769589727
1298.5, 30.78986897513734
1299, 30.801406214783313
1299.5, 30.81294833146687
1300, 30.824472168127215
1300.5, 30.835954567703595
1301, 30.847372373135215
1301.5, 30.858702427361322
1302, 30.869921573321122
1302.5, 30.881006653953875
1303, 30.8919345121988
1303.5, 30.902681990995077
1304, 30.91322593328198
1304.5, 30.92354318199871
1305, 30.933610580084505
1305.5, 30.943404970478596
1306, 30.952903196120204
1306.5, 30.96208209994856
1307, 30.97091852490287
1307.5, 30.979389313922397
1308, 30.987471309946315
1308.5, 30.9951413559139
1309, 31.00237629476436
1309.5, 31.00915296943694
1310, 31.00885463681641
1310.5, 30.960027992289284
1311, 30.837576194647284
1311.5, 30.728341370407435
1312, 30.581478812730268
1312.5, 30.49362006848102
1313, 30.411334340079463
1313.5, 30.30822043969455
1314, 30.217275240168007
1314.5, 30.116269041900352
1314.9999999999998, 30.030361554266776
1315.5, 29.95474812650656
1316, 29.857080994390245
1316.5, 29.750450701773957
1317, 29.66586735650324
1317.5, 29.60150283630894
1318, 29.62798558756991
1318.4999999999998, 29.672899256118143
1319, 29.84711298014922
1319.5, 29.979272270739997
1320, 30.11934759494214
1320.5, 30.175492987013556
1321, 30.212510920713555
1321.5, 30.26548102698608
1321.9999999999998, 30.323139197090114
1322.5, 30.36619261531115
1323, 30.398648558349976
1323.5, 30.407284966935947
1324, 30.434499033848383
1324.5, 30.500438435362668
1325, 30.5998775893094
1325.5, 30.755182128158296
1326, 30.884981895877985
1326.5, 31.012661047075696
1326.9999999999998, 30.977362433352866
1327.5, 30.93831136687197
1328, 30.84578231963839
1328.5, 30.799022686246474
1329, 30.79023509264144
1329.5, 30.802948994068885
1330, 30.83023374407388
1330.4999999999998, 30.84737885436914
1331, 30.862826004467323
1331.5, 30.846301471419324
1332, 30.820449862690666
1332.5, 30.746025028542547
1333, 30.678161425716496
1333.5, 30.574739470537978
1334, 30.592280380402826
1334.5, 30.674037616807666
1335, 30.781602302420822
1335.4999999999998, 30.889812516759378
1336, 30.777696530313634
1336.5, 30.67606858848326
1337, 30.55542417419771
1337.5, 30.504701493285438
1338, 30.607565248394707
1338.5, 30.867722993538152
1338.9999999999998, 31.148236469774545
1339.5, 31.366957991503128
1340, 31.389234750269935
1340.5, 31.39035028812347
1341, 31.372360940101075
1341.5, 31.27883843874237
1342, 31.14956459092214
1342.4999999999998, 30.895668830214873
1343, 30.72562814534534
1343.5, 30.535332951857654
1344, 30.52255913165233
1344.5, 30.534047506466095
1345, 30.568951636777726
1345.5, 30.5948273207881
1346, 30.604147468884648
1346.5, 30.6145404844858
1347, 30.633338222828897
1347.4999999999998, 30.643551214454902
1348, 30.65236763414859
1348.5, 30.609723831025676
1349, 30.56012710879139
1349.5, 30.498529456503647
1350, 30.460623654351267
1350.5, 30.479541779050678
1350.9999999999998, 30.52532106247085
1351.5, 30.628647714953104
1352, 30.715447444046987
1352.5, 30.823870719247893
1353, 30.870717851259016
1353.5, 30.907746500990456
1354, 30.89363217285502
1354.5, 30.818475392369166
1355, 30.510188023021698
1355.5, 30.26536272925668
1355.9999999999998, 29.945941438980512
1356.5, 29.856437334708332
1357, 29.828672679908507
1357.5, 29.840875992153656
1358, 29.858735857430602
1358.5, 29.90239862132198
1359, 29.949828182189833
1359.4999999999998, 30.029506323177884
1360, 30.16655992247361
1360.5, 30.322662921767304
1361, 30.452407034636607
1361.5, 30.458588350258907
1362, 30.48013745058924
1362.5, 30.512325690264078
1362.9999999999998, 30.688451005913677
1363.5, 30.819825400947067
1364, 30.894013300866405
1364.5, 30.8836495320012
1365, 30.780727435020836
1365.5, 30.715510837628827
1366, 30.643325985824774
1366.5, 30.577509097540073
1367, 30.51599485335332
1367.5, 30.487793554364274
1367.9999999999998, 30.50355326749407
1368.5, 30.653446488858464
1369, 30.770728448216587
1369.5, 30.920792480873004
1370, 30.969209315420343
1370.5, 30.996550744484253
1371, 31.043466485275914
1371.4999999999998, 30.896085545753294
1372, 30.703042852053827
1372.5, 30.52185195433927
1373, 30.48376748031039
1373.5, 30.562046515644298
1374, 30.599547929987835
1374.5, 30.54227992789683
1374.9999999999998, 30.434783462727637
1375.5, 30.305535330340376
1376, 30.188202648268586
1376.5, 30.203950704137682
1377, 30.262200985078536
1377.5, 30.468200741647806
1378, 30.57324626450162
1378.5, 30.639085252112892
1379, 30.641057562230117
1379.5, 30.623753800931524
1379.9999999999998, 30.653061992034353
1380.5, 30.68284113084529
1381, 30.6821590114031
1381.5, 30.695523606197312
1382, 30.751812353674353
1382.5, 30.792223697631528
1383, 30.83909431961635
1383.4999999999998, 30.94253513546775
1384, 31.09466210723869
1384.5, 31.29718530635276
1385, 31.479213591943576
1385.5, 31.480031640964967
1386, 31.45581044830466
1386.5, 31.352626565138976
1387, 31.294833215286445
1387.5, 31.247913504240714
1388, 31.154207227793748
1388.4999999999998, 31.020685438642033
1389, 30.895976890665068
1389.5, 30.787495840053097
1390, 30.77808326535967
1390.5, 30.786203198325666
1391, 30.842637952157787
1391.5, 30.89444146540886
1391.9999999999998, 30.96914237474421
1392.5, 31.00608982973158
1393, 31.041810941360254
1393.5, 31.075243566293338
1394, 31.105787218774736
1394.5, 31.13180661654664
1395, 31.169113124115242
1395.4999999999998, 31.25345770789238
