301.5, 49.75443028519718
302, 49.733277006287025
302.5, 49.73585671672435
303, 49.736275504364635
303.5, 49.75341073045829
304, 49.76915201913999
304.5, 49.78773477727565
305, 49.80213789841223
305.5, 49.820895163793104
306, 49.83627199353215
306.5, 49.854214686609204
307, 49.85601475836507
307.5, 49.85629425359348
308, 49.86477592118567
308.5, 49.874355007575616
309, 49.892955923378025
309.5, 49.90742289193201
310, 49.92617782993416
310.5, 49.94163822594538
311, 49.9595161933625
311.5, 49.982345540193876
312, 50.00687682241861
312.5, 50.02427180438654
313, 50.036515629268685
313.5, 50.036529309141635
314, 50.03953000387641
314.5, 50.04885645395494
315, 50.06182346078844
315.5, 50.07977349067176
316, 50.09566061426751
316.5, 50.112444086377025
317, 50.13833263341865
317.5, 50.161868516328596
318, 50.1897714846474
318.5, 50.20484224685205
319, 50.21424963016767
319.5, 50.22203046256976
320, 50.23092362894181
320.5, 50.246015182226664
321, 50.26208544985767
321.5, 50.27060399258535
322, 50.280347420275085
322.5, 50.29902072759618
323, 50.316837453674694
323.5, 50.344964974492704
324, 50.36278793242346
324.5, 50.38046796486236
325, 50.38911793922969
325.5, 50.39696565646452
326, 50.39683856619929
326.5, 50.3987712770752
327, 50.40810872545564
327.5, 50.41518239282274
328, 50.42447095167472
328.5, 50.448525706885796
329, 50.48428062592775
329.5, 50.52345812228663
330, 50.56266754346235
330.5, 50.57140091367972
331, 50.57738144760141
331.5, 50.57738859846491
332, 50.58061053233189
332.5, 50.58990827459962
333, 50.60862603979729
333.5, 50.63536524156727
334, 50.65936475381003
334.5, 50.68292531796772
335, 50.69171797018157
335.5, 50.69758951689377
336, 50.697594421716865
336.5, 50.70087004875593
337, 50.71016774056346
337.5, 50.72901107251819
338, 50.755688095335984
338.5, 50.779753922167934
339, 50.80315893403805
339.5, 50.81186857480783
340, 50.81973258401493
340.5, 50.82909819997536
341, 50.839804863295036
341.5, 50.85850323848439
342, 50.87407347823577
342.5, 50.89166149325031
343, 50.91528504592965
343.5, 50.94006180777221
344, 50.97524487516107
344.5, 51.00427677991212
345, 51.032274530086184
345.5, 51.04661466592122
346, 51.05600633209131
346.5, 51.063814929077765
347, 51.07259258331674
347.5, 51.08072834949269
348, 51.0898881021398
348.5, 51.116174123178375
349, 51.141624369947024
349.5, 51.17906816284748
350, 51.207875853019004
350.5, 51.245274137000465
351, 51.27641612287181
351.5, 51.311473069935346
352, 51.32864841427479
352.5, 51.344222589368925
353, 51.353122010126064
353.5, 51.358736017854916
354, 51.35873243529915
354.5, 51.362354389921755
355, 51.37167872595689
355.5, 51.3794519698506
356, 51.388202317711624
356.5, 51.38869118354031
357, 51.389320855726936
357.5, 51.397956714823174
358, 51.41018720935807
358.5, 51.43832695608842
359, 51.46007854302206
359.5, 51.48810852258637
360, 51.5057561085948
360.5, 51.52305167206527
361, 51.54707538568232
361.5, 51.571050382256686
362, 51.59760646493255
362.5, 51.62086374073954
363, 51.648947703747965
363.5, 51.666715851619934
364, 51.68540134036317
364.5, 51.70114608762277
365, 51.718465389341446
365.5, 51.75813009087736
366, 51.79657482438685
366.5, 51.82347570670859
367, 51.83974727955512
367.5, 51.83968074078631
368, 51.84321117646378
368.5, 51.85249733040967
369, 51.8722549946386
369.5, 51.898443789403956
370, 51.93046677997806
370.5, 51.96222236365584
371, 51.9894623180338
371.5, 52.009247536100574
372, 52.0280919384711
372.5, 52.046545353263575
373, 52.074483967380836
373.5, 52.09803173738017
374, 52.12394693435519
374.5, 52.14832165091961
375, 52.17183683709557
375.5, 52.19003120306327
376, 52.202404336359336
376.5, 52.211876538817165
377, 52.231041552979114
377.5, 52.26822746293752
378, 52.29958127803689
378.5, 52.33409472020302
379, 52.343162764681885
379.5, 52.350409095026684
380, 52.350500668225216
380.5, 52.355126295179275
381, 52.37397833647051
381.5, 52.396589554096714
382, 52.43376853426689
382.5, 52.45907795194808
383, 52.484773006911226
383.5, 52.49339847621542
384, 52.50158815728499
384.5, 52.510789318007134
385, 52.52533972086378
385.5, 52.563032236319145
386, 52.60028757237315
386.5, 52.65602564470556
387, 52.69707838202163
387.5, 52.73984231102462
388, 52.75691677034063
388.5, 52.772135618141995
389, 52.781303347628636
389.5, 52.78854397700623
390, 52.797953216300755
390.5, 52.80102534377964
391, 52.80104951537246
391.5, 52.80735287415718
392, 52.815957379689266
392.5, 52.84006746953906
393, 52.865377415147975
393.5, 52.9019438445171
394, 52.93133438791065
394.5, 52.9690310484491
395, 52.99394990066177
395.5, 53.02181222882546
396, 53.04561522835895
396.5, 53.071098673643505
397, 53.1119045770744
397.5, 53.152180673471165
398, 53.19794210660777
398.5, 53.22944088172442
399, 53.25772317688186
399.5, 53.27110648786945
400, 53.280423954775586
400.5, 53.288470596096225
401, 53.296860408359514
401.5, 53.337422299496446
402, 53.37994553129196
402.5, 53.444049222137714
403, 53.48761186552742
403.5, 53.52534482930971
404, 53.5459223353492
404.5, 53.56449151839569
405, 53.58041496227898
405.5, 53.59730130332719
406, 53.62181792691535
406.5, 53.64836232258971
407, 53.69420920534288
407.5, 53.725600259062894
408, 53.753895920306384
408.5, 53.76699922204379
409, 53.7763082310676
409.5, 53.790782237735414
410, 53.80772687611247
410.5, 53.8321313538335
411, 53.86129044825501
411.5, 53.925615591918195
412, 53.97702104685433
412.5, 54.04300927042902
413, 54.07647539439766
413.5, 54.10428016161175
414, 54.12170524747803
414.5, 54.13836284693993
415, 54.1631114151422
415.5, 54.18974263131392
416, 54.23574624738967
416.5, 54.26963903434685
417, 54.30737819006849
417.5, 54.332024103709486
418, 54.35975102651375
418.5, 54.39028180736872
419, 54.42390362200765
419.5, 54.449072017523264
420, 54.47171613821599
420.5, 54.49023016248957
421, 54.51036844712227
421.5, 54.5480955892954
422, 54.58194242779938
422.5, 54.62797252064232
423, 54.65459487631263
423.5, 54.6793945223797
424, 54.68761583011648
424.5, 54.69707059697572
425, 54.71557739946836
425.5, 54.73599197906933
426, 54.773740375398305
426.5, 54.816589897758504
427, 54.88097668501402
427.5, 54.94374476646327
428, 55.010336048590545
428.5, 55.06922053266352
429, 55.12496215916632
429.5, 55.189637798168064
430, 55.234798576335876
430.5, 55.281971780869476
431, 55.30926558122348
431.5, 55.336898520774696
432, 55.361081658240494
432.5, 55.38612673390717
433, 55.43686219708395
433.5, 55.48444438497845
434, 55.53991232956611
434.5, 55.57472301861526
435, 55.603062560913806
435.5, 55.624882720145585
436, 55.652475252538636
436.5, 55.69027881708449
437, 55.73179674970569
437.5, 55.77437717780674
438, 55.81095187066471
438.5, 55.83876471766479
439, 55.86046988749707
439.5, 55.888772988171446
440, 55.91548659308555
440.5, 55.95213414077639
441, 55.98434574766825
441.5, 56.01712897031995
442, 56.04226241373632
442.5, 56.070840018615215
443, 56.126524849620026
443.5, 56.1761557118386
444, 56.251279379413724
444.5, 56.29772192783594
445, 56.34241595166108
445.5, 56.37471941323938
446, 56.4082887722972
446.5, 56.45082144760828
447, 56.49196926990596
447.5, 56.547673561354316
448, 56.59102534181438
448.5, 56.64733752611865
449, 56.68843424666085
449.5, 56.7332397842637
450, 56.75854233315626
450.5, 56.782769090688156
451, 56.7742397389527
451.5, 56.76480766102938
452, 56.74632964935465
452.5, 56.74709628165752
453, 56.77497354519203
453.5, 56.82381652709473
454, 56.8959757745235
454.5, 56.96611149842935
455, 57.040485470661146
455.5, 57.109300993856905
456, 57.16891333191952
456.5, 57.22469474305661
457, 57.26452054770277
457.5, 57.31138809330158
458, 57.35515968370604
458.5, 57.40891884062537
459, 57.442176323767214
459.5, 57.4747620929566
460, 57.49192375408588
460.5, 57.50774783309911
461, 57.52644679567782
461.5, 57.55303535352224
462, 57.608870306370186
462.5, 57.713023508632794
463, 57.86581779754464
463.5, 57.97896681272357
464, 58.09022853360708
464.5, 58.09083077974607
465, 58.07665306286628
465.5, 58.00217321190797
466, 57.959859936976976
466.5, 57.93137989568561
467, 57.95596414309981
467.5, 58.01030849200646
468, 58.043721866687285
468.5, 58.076287397101325
469, 58.102006020804204
469.5, 58.12930924163197
470, 58.17594418024998
470.5, 58.212213586762466
471, 58.25915649334311
471.5, 58.281665557366914
472, 58.29915599385542
472.5, 58.293357379883645
473, 58.285971388683876
473.5, 58.294248413649946
474, 58.30970905569507
474.5, 58.35642097961088
475, 58.39600625806754
475.5, 58.45220110041557
476, 58.498729553594984
476.5, 58.551881366622155
477, 58.60717187008593
477.5, 58.66471555565046
478, 58.73466082114826
478.5, 58.791301218896244
479, 58.83788451558953
479.5, 58.86328481592057
480, 58.88204342920523
480.5, 58.903118458089196
481, 58.9297268404562
481.5, 58.96115399639355
482, 58.99367786981905
482.5, 59.02857330705455
483, 59.05981461237775
483.5, 59.09716382588703
484, 59.122618726395864
484.5, 59.15079028560964
485, 59.15747493526165
485.5, 59.15714695794431
486, 59.16465703658221
486.5, 59.174661305070885
487, 59.21835388842027
487.5, 59.25929484198311
488, 59.31533668497487
488.5, 59.34785668613173
489, 59.37596506378557
489.5, 59.405022283838456
490, 59.44026966531088
490.5, 59.494950724943074
491, 59.55048393748664
491.5, 59.594619510580515
492, 59.627293246191364
492.5, 59.64592107343862
493, 59.65612527799083
493.5, 59.66538360283724
494, 59.70718122655116
494.5, 59.76925369086643
495, 59.81820634867235
495.5, 59.86384672813061
496, 59.872564460173486
496.5, 59.88049012311526
497, 59.88988341888596
497.5, 59.904284053943464
498, 59.932273925984276
498.5, 59.96138252879195
499, 59.99649806292765
499.5, 60.029026315486966
500, 60.06299423313831
500.5, 60.124834586407
501, 60.176965084623134
501.5, 60.233108251741754
502, 60.27616396353778
502.5, 60.332223059125184
503, 60.37903420474124
503.5, 60.431441620851096
504, 60.46487937426706
504.5, 60.497013631658156
505, 60.532351842199
505.5, 60.5634275900235
506, 60.600921780874685
506.5, 60.637170728268934
507, 60.693156125615644
507.5, 60.74003728434797
508, 60.792289685561784
508.5, 60.83352225373875
509, 60.87423285347274
509.5, 60.92758713199936
510, 60.96947314286582
510.5, 61.00687541535629
511, 61.031837374821166
511.5, 61.0598731271456
512, 61.07149371102155
512.5, 61.08001163902082
513, 61.0648328276431
513.5, 61.05034617687132
514, 61.05006145664122
514.5, 61.057094086219806
515, 61.08532432354409
515.5, 61.114659990321265
516, 61.16122757021144
516.5, 61.21227459830967
517, 61.27315399811624
517.5, 61.307028137073246
518, 61.33524085812362
518.5, 61.32637182015146
519, 61.31861745630264
519.5, 61.30927210776103
520, 61.31738923206641
520.5, 61.345232480064
521, 61.39281801952451
521.5, 61.45371208898751
522, 61.502933782919115
522.5, 61.5490315563667
523, 61.576511232129924
523.5, 61.605253599756324
524, 61.661737279078636
524.5, 61.709550207326174
525, 61.77472557246291
525.5, 61.80543863047715
526, 61.8308429176586
526.5, 61.84744381864904
527, 61.862743800749364
527.5, 61.87188929099824
528, 61.87914373138456
528.5, 61.88854689082985
529, 61.89186045080761
529.5, 61.89188504450722
530, 61.88575331327025
530.5, 61.87706073323861
531, 61.868349263958656
531.5, 61.86542065279602
532, 61.90184984292053
532.5, 61.941221805960495
533, 62.01652032769252
533.5, 62.06252902727157
534, 62.10907405024049
534.5, 62.136212340571234
535, 62.16161770705417
535.5, 62.20205257825934
536, 62.24246177210627
536.5, 62.28801866853826
537, 62.31236220937719
537.5, 62.312332831308595
538, 62.29142174960088
538.5, 62.24510893429044
539, 62.230809173471194
539.5, 62.222590649953275
540, 62.26290042287537
540.5, 62.29977772832009
541, 62.31809011311691
541.5, 62.32497332000528
542, 62.31555907004623
542.5, 62.303909487918446
543, 62.28538905873426
543.5, 62.28858364402458
544, 62.297357047992286
544.5, 62.32984820685367
545, 62.362023394116676
545.5, 62.398658148080116
546, 62.425366734171384
546.5, 62.45364047498687
547, 62.46713956517469
547.5, 62.4764426317977
548, 62.471643267833336
548.5, 62.462938534490505
549, 62.454797901355974
549.5, 62.44553274363179
550, 62.42714973668053
550.5, 62.40725784070217
551, 62.36959244262264
551.5, 62.35326244542485
552, 62.34394951040094
552.5, 62.34874151257933
553, 62.35751590353704
553.5, 62.33296518574932
554, 62.30899343466907
554.5, 62.281496759684664
555, 62.26755671232634
555.5, 62.267535832152966
556, 62.27185991743229
556.5, 62.2810840058422
557, 62.28890287913864
557.5, 62.297449408197444
558, 62.26441168997206
558.5, 62.2325078675364
559, 62.19582057953554
559.5, 62.180183444161266
560, 62.189584903544976
560.5, 62.20572508565307
561, 62.233377171680175
561.5, 62.25067725845787
562, 62.26740283802975
562.5, 62.26741451722343
563, 62.267474380332516
563.5, 62.267499612937804
564, 62.270289497132346
564.5, 62.2797387570805
565, 62.296285554877905
565.5, 62.32385641650507
566, 62.32123537957999
566.5, 62.31254591380129
567, 62.26200332707204
567.5, 62.217004523692964
568, 62.18021558881556
568.5, 62.16815117584416
569, 62.18700787812019
569.5, 62.224590851033554
570, 62.28888776046876
570.5, 62.31139557012516
571, 62.32747461526034
571.5, 62.3019430732275
572, 62.28099615155411
572.5, 62.27173255201988
573, 62.26456757929669
573.5, 62.25511054969949
574, 62.238941079012534
574.5, 62.211300464681784
575, 62.16032753696723
575.5, 62.1016750516316
576, 62.03382782918186
576.5, 61.97606802656603
577, 61.93910408662816
577.5, 61.919051606245304
578, 61.9096012876931
578.5, 61.91163134599372
579, 61.92074954449873
579.5, 61.92193013427745
580, 61.92167788263203
580.5, 61.90473311953551
581, 61.88888817706625
581.5, 61.870347736329414
582, 61.85282186640361
582.5, 61.82454980672954
583, 61.807241070324764
583.5, 61.78888207312726
584, 61.77956756619999
584.5, 61.7712196020224
585, 61.74551484171722
585.5, 61.72492534671655
586, 61.71576148344541
586.5, 61.7237637857111
587, 61.76141504902813
587.5, 61.79096892014711
588, 61.827523472508176
588.5, 61.83203400183037
589, 61.83090572397618
589.5, 61.78850116879434
590, 61.745856360852265
590.5, 61.68096968775753
591, 61.6363387674242
591.5, 61.58937281365488
592, 61.555913655999284
592.5, 61.52003640907641
593, 61.49559046796248
593.5, 61.47072126234739
594, 61.45401927862098
594.5, 61.43325938126891
595, 61.38687716101401
595.5, 61.35648976679754
596, 61.32813589249577
596.5, 61.33045478754485
597, 61.34891140723899
597.5, 61.350742990103726
598, 61.35020053060028
598.5, 61.324691840994234
599, 61.29769391834865
599.5, 61.251177342681046
600, 61.208917054541985
600.5, 61.14337152485234
601, 61.07914681749948
601.5, 60.99832230155918
602, 60.948429919355156
602.5, 60.89933844178607
603, 60.87365800539366
603.5, 60.84991597993551
604, 60.821943645075464
604.5, 60.790965545812064
605, 60.73481910763828
605.5, 60.67818392234668
606, 60.6064522638336
606.5, 60.571407873941965
607, 60.537724760182776
607.5, 60.48648453235486
608, 60.43217465649128
608.5, 60.33900770428174
609, 60.26016609076283
609.5, 60.147598051948215
610, 60.07086061254866
610.5, 59.99083484531146
611, 59.96953986590934
611.5, 59.95349921066694
612, 59.95376088768375
612.5, 59.950001695107595
613, 59.93125122969148
613.5, 59.90083459682031
614, 59.83554469827607
614.5, 59.73884807486549
615, 59.604539109323724
615.5, 59.50694065079354
616, 59.41075811626002
616.5, 59.36760413824895
617, 59.328225291004784
617.5, 59.28164365867253
618, 59.25241328894434
618.5, 59.224295045040755
619, 59.19554946749508
619.5, 59.15998656058217
620, 59.09900256098511
620.5, 59.033244145383655
621, 58.95466046026459
621.5, 58.891936163658514
622, 58.84540334184613
622.5, 58.82313395656811
623, 58.8136445212611
623.5, 58.81674471219596
624, 58.82580971643838
624.5, 58.83380375475818
625, 58.84153854633043
625.5, 58.841414419382495
626, 58.84339429450781
626.5, 58.852705438871105
627, 58.85327616070853
627.5, 58.84402078378186
628, 58.819734509705725
628.5, 58.784092078778706
629, 58.744678566938575
629.5, 58.705362160514824
630, 58.68752931898443
630.5, 58.679859407968436
631, 58.698488512145914
631.5, 58.6925101862843
632, 58.65528988132805
632.5, 58.596366287884344
633, 58.51655295481932
633.5, 58.421781624477156
634, 58.32450885801719
634.5, 58.21896166931626
635, 58.135705117647795
635.5, 58.07035179415169
636, 58.020505371144885
636.5, 57.95504956308868
637, 57.88935599051204
637.5, 57.80999798426203
638, 57.745066120740105
638.5, 57.683487515031956
639, 57.665715159162424
639.5, 57.65629775587964
640, 57.66563205022375
640.5, 57.658688587743264
641, 57.6307269075235
641.5, 57.601785868266546
642, 57.566550910015195
642.5, 57.556890430581625
643, 57.54878784393084
643.5, 57.54041476504752
644, 57.52393932780741
644.5, 57.47701270197609
645, 57.429875836500436
645.5, 57.355152675121595
646, 57.2927427757569
646.5, 57.22277592400776
647, 57.150273061802224
647.5, 57.0785373249788
648, 57.00779966718595
648.5, 56.95006903365982
649, 56.89399835856916
649.5, 56.86186067124836
650, 56.83371811770715
650.5, 56.833370507115326
651, 56.842576614846365
651.5, 56.82753495863409
652, 56.808374648571316
652.5, 56.746331496376
653, 56.69441686343717
653.5, 56.63830302548893
654, 56.60645693599736
654.5, 56.57837562634037
655, 56.56063403849348
655.5, 56.54341078037882
656, 56.49608907982002
656.5, 56.448206745855565
657, 56.39473952338397
657.5, 56.35513874326757
658, 56.3270777971168
658.5, 56.29806351313527
659, 56.251454120282304
659.5, 56.212328395414
660, 56.16892280865516
660.5, 56.13577152945203
661, 56.10312997859078
661.5, 56.05861296024586
662, 56.02231156448687
662.5, 55.98490623634779
663, 55.96774989154385
663.5, 55.958356048857816
664, 55.956458787860086
664.5, 55.95656859711719
665, 55.95690972075972
665.5, 55.95414876626125
666, 55.92697402327379
666.5, 55.90007350911032
667, 55.852996674405134
667.5, 55.808837630750546
668, 55.74366002706728
668.5, 55.68881072437455
669, 55.6283101191122
669.5, 55.611381620077445
670, 55.5882241062291
670.5, 55.50654336776708
671, 55.43283388498331
671.5, 55.31991492647408
672, 55.244613565217755
672.5, 55.16075504110314
673, 55.096101331921865
673.5, 55.027305417465826
674, 54.9935233038534
674.5, 54.9628932530637
675, 54.94459656739705
675.5, 54.93004644390852
676, 54.911174978849644
676.5, 54.88855939477684
677, 54.85139544516604
677.5, 54.82001348590867
678, 54.78559942164035
678.5, 54.79191040315799
679, 54.80612173109626
679.5, 54.86974971029493
680, 54.91677795175991
680.5, 54.96386647428994
681, 54.987834200618785
681.5, 55.00649001886691
682, 55.03466930836954
682.5, 55.06914058706408
683, 55.08635061860733
683.5, 55.09822559332422
684, 55.07988580142791
684.5, 55.04761950267813
685, 54.96283367194277
685.5, 54.89280773269645
686, 54.79999468349165
686.5, 54.76491015146
687, 54.740027697293385
687.5, 54.747596220016746
688, 54.75554024507872
688.5, 54.764563971235
689, 54.759314080545586
689.5, 54.721649317735334
690, 54.69239338077363
690.5, 54.65530238068554
691, 54.642600641258724
691.5, 54.634439231867546
692, 54.62610484088315
692.5, 54.61921226174744
693, 54.61918551987712
693.5, 54.61924195583644
694, 54.61921296895922
694.5, 54.610615207140256
695, 54.59213521362279
695.5, 54.582720877649884
696, 54.574314134400055
696.5, 54.58226341937551
697, 54.59146677393632
697.5, 54.60980428393387
698, 54.62452792117717
698.5, 54.643407900396234
699, 54.66244431771841
699.5, 54.69017349494043
700, 54.70101648635554
700.5, 54.70933013000894
701, 54.685075189016885
701.5, 54.657335322117305
702, 54.60226606410026
702.5, 54.560892494945676
703, 54.51376617048734
703.5, 54.49496794760766
704, 54.48560266471075
704.5, 54.46450221175471
705, 54.43912726591686
705.5, 54.38095126214043
706, 54.32629765022413
706.5, 54.27122015830171
707, 54.24656539725118
707.5, 54.25595623725689
708, 54.27667690419016
708.5, 54.3135069886606
709, 54.32567784033398
709.5, 54.33374985914343
710, 54.33397913378751
710.5, 54.331314926365
711, 54.312889931959894
711.5, 54.29538905570476
712, 54.26712169048278
712.5, 54.25422415062633
713, 54.24495015691373
713.5, 54.236921319155826
714, 54.228582613741494
714.5, 54.21216211001479
715, 54.19204920554942
715.5, 54.14590142744066
716, 54.10360090175187
716.5, 54.037630354218805
717, 54.004499681555444
717.5, 53.976813810073715
718, 53.972699721182
718.5, 53.97299955856912
719, 53.93895815073165
719.5, 53.91151705427471
720, 53.90238430592437
720.5, 53.912511140307785
721, 53.95953326189867
721.5, 53.968689449598365
722, 53.959556747202946
722.5, 53.924597309178246
723, 53.88258137063262
723.5, 53.831883379016055
724, 53.78569142052283
724.5, 53.73957399569729
725, 53.720889021815246
725.5, 53.730308874663926
726, 53.765501033405094
726.5, 53.82967170223768
727, 53.885776913550565
727.5, 53.943400077575504
728, 53.968894581957606
728.5, 53.98977122140716
729, 53.99900024842866
729.5, 54.00010795657516
730, 53.990660093249915
730.5, 53.96466078622565
731, 53.91883220110114
731.5, 53.865022017945755
732, 53.80760692720693
732.5, 53.79053494443408
733, 53.777676035199626
733.5, 53.777664346816586
734, 53.77784267713834
734.5, 53.777864168667676
735, 53.78733040564178
735.5, 53.80563278467788
736, 53.82872712629683
736.5, 53.85379123439079
737, 53.89660768201061
737.5, 53.93284791558668
738, 53.9605133126158
738.5, 53.95798851446377
739, 53.91132673988368
739.5, 53.85786719127423
740, 53.78562309584673
740.5, 53.75750897381991
741, 53.733767457356805
741.5, 53.77662412658682
742, 53.81585061407492
742.5, 53.862089183505425
743, 53.87039267236438
743.5, 53.832978429390984
744, 53.80748562257725
744.5, 53.780625330126924
745, 53.792029768247616
745.5, 53.80976759059194
746, 53.878499353115096
746.5, 53.93969065766947
747, 54.004591593345594
747.5, 54.030313390351985
748, 54.021307098920154
748.5, 53.97749342961209
749, 53.90518082062071
749.5, 53.84214834899527
750, 53.77787054836805
750.5, 53.77837102621117
751, 53.772885744128935
751.5, 53.74487712492731
752, 53.71019363220906
752.5, 53.64452174437664
753, 53.60614792511489
753.5, 53.570735173049464
754, 53.5248957122089
754.5, 53.47484920717345
755, 53.40557982161749
755.5, 53.34813799931836
756, 53.301697463285976
756.5, 53.281859419828024
757, 53.28165196664041
757.5, 53.30271587712757
758, 53.33878595762976
758.5, 53.36337827196354
759, 53.38746587637515
759.5, 53.39606254410541
760, 53.40399357291999
760.5, 53.41337430163239
761, 53.43023997131955
761.5, 53.46759218481751
762, 53.51445080045605
762.5, 53.577057108677174
763, 53.603886723956926
763.5, 53.627885108531565
764, 53.63607342366034
764.5, 53.651508655016976
765, 53.69815548143361
765.5, 53.731219157002684
766, 53.76880181658624
766.5, 53.78364361560596
767, 53.79218491481764
767.5, 53.81469666972478
768, 53.83957367447385
768.5, 53.874552037831016
769, 53.901958864543275
769.5, 53.92056222960617
770, 53.92820560025509
770.5, 53.92831802587927
771, 53.911911294716376
771.5, 53.885067589458444
772, 53.8464143140578
772.5, 53.8065425475505
773, 53.78034249646856
773.5, 53.75878702047849
774, 53.74006111179377
774.5, 53.71504579339374
775, 53.66813650270489
775.5, 53.66252694066493
776, 53.67194186163987
776.5, 53.70200079998789
777, 53.73077161844499
777.5, 53.69592348678744
778, 53.66084770535739
778.5, 53.604791698103035
779, 53.56853801619492
779.5, 53.53105922219797
780, 53.49998998158604
780.5, 53.46472252957871
781, 53.4475050103324
781.5, 53.43217438806878
782, 53.43156733548816
782.5, 53.443979650106755
783, 53.50016305795276
783.5, 53.54081717047712
784, 53.58783880542067
784.5, 53.56481203644791
785, 53.510906759038654
785.5, 53.469976652084995
786, 53.43119465720307
786.5, 53.4142112322892
787, 53.38795724212639
787.5, 53.32243802842005
788, 53.282188550517446
788.5, 53.24459695789203
789, 53.25321702703438
789.5, 53.28027525089083
790, 53.29701805765998
790.5, 53.31259226332318
791, 53.321378482270575
791.5, 53.329171208936906
792, 53.338511260096034
792.5, 53.34210208194785
793, 53.342138043012326
793.5, 53.33627206893911
794, 53.327501829661195
794.5, 53.28114183582486
795, 53.23242287230929
795.5, 53.17023876713212
796, 53.124787589530854
796.5, 53.096812632935766
797, 53.079552740192696
797.5, 53.0609228710237
798, 53.01616195298409
798.5, 52.954633859380486
799, 52.87463453039478
799.5, 52.7977985944429
800, 52.75323312792177
800.5, 52.72341441519795
800.9999999999999, 52.71416436693921
801.5, 52.71052642408888
802, 52.71042357807406
802.5, 52.751490865233414
803, 52.81312553895897
803.4999999999999, 52.87006192485261
804, 52.91919559709883
804.5, 52.89310017467444
805, 52.856129757670274
805.5, 52.77161013830222
806, 52.698616088571974
806.5, 52.59599486780788
806.9999999999999, 52.533648180004455
807.5, 52.47328239208522
808, 52.4551517197676
808.5, 52.44061988510342
809, 52.441258817457616
809.4999999999999, 52.42691365908099
810, 52.37041009442388
810.5, 52.303894600364956
811, 52.192179955430944
811.5, 52.07405396791025
812, 51.9352898255445
812.5, 51.78234840500065
813, 51.63109094365387
813.5, 51.49485746548774
814, 51.400715947242176
814.5, 51.325443537292834
815, 51.28681436862982
815.4999999999999, 51.258751974818914
816, 51.241149256296886
816.5, 51.2240317275682
817, 51.20047446789946
817.5, 51.172196239953045
818, 51.10859869226762
818.5, 51.05216022962833
819, 50.96747403358866
819.5, 50.91392451875037
820, 50.85800096384768
820.5, 50.82285206991277
821, 50.78875825958434
821.4999999999999, 50.725012175280206
822, 50.65811395818147
822.5, 50.56712145606301
823, 50.50066659784815
823.5, 50.43479084229719
824, 50.40800194263126
824.5, 50.398564200057784
825, 50.40279904493252
825.5, 50.411720030026046
826, 50.37276579940998
826.5, 50.32820611694442
827, 50.24625799261762
827.4999999999999, 50.18719331745746
828, 50.13069928676826
828.5, 50.10761495386612
829, 50.09820884909811
829.5, 50.08384728882895
829.9999999999999, 50.066813984744975
830.5, 49.98676781838959
831, 49.903900218917826
831.5, 49.79432222641764
832, 49.71358382611662
832.5, 49.62871218043851
833, 49.56304905943786
833.4999999999999, 49.47950211231849
834, 49.420977639108244
834.5, 49.361470674480785
835, 49.33531814301424
835.5, 49.32006436808317
835.9999999999999, 49.36567318189481
836.5, 49.407962320498704
837, 49.47388936194867
837.5, 49.50808782345511
838, 49.53599400125698
838.5, 49.547118501605844
839, 49.555385137589106
839.5, 49.56361440404935
840, 49.5716723833837
840.5, 49.58084251943086
841, 49.58813832846844
841.5, 49.59754168348954
841.9999999999999, 49.59650010201982
842.5, 49.587261039665904
843, 49.56022981069147
843.5, 49.525953693970514
844, 49.516842436651714
844.5, 49.51483715688539
845, 49.55155266948966
845.5, 49.59162320821147
846, 49.66693230958949
846.5, 49.691044736858494
847, 49.691169737116304
847.5, 49.64620362309921
847.9999999999999, 49.5861864698236
848.5, 49.57696627056619
849, 49.57511111479183
849.5, 49.61188786385862
850, 49.652213645492246
850.4999999999999, 49.72761424809347
851, 49.777472221370594
851.5, 49.832930157435705
852, 49.848188343257725
852.5, 49.85600133809583
853, 49.87318035673893
853.5, 49.88262521678885
853.9999999999999, 49.85502248976162
854.5, 49.82464203239479
855, 49.76818525228285
855.5, 49.76391284899805
856, 49.79149226718508
856.4999999999999, 49.861342929749895
857, 49.946000014921985
857.5, 50.02145361034654
858, 50.08938501962216
858.5, 50.14467847283775
859, 50.17982722716513
859.5, 50.20811866150696
859.9999999999999, 50.212128340312745
860.5, 50.20298855189341
861, 50.18844470786644
861.5, 50.17159122170971
862, 50.17141440342094
862.4999999999999, 50.174155520644504
863, 50.19261293297307
863.5, 50.21020167088208
864, 50.238504479923385
864.5, 50.26447971454153
865, 50.301409703336354
865.5, 50.37362986243502
866, 50.457604278223904
866.5, 50.55883734094175
867, 50.650074683265935
867.5, 50.733262869343584
868, 50.795731756960606
868.4999999999999, 50.871206452053016
869, 50.92505607982916
869.5, 50.98947565666203
870, 51.04572460158223
870.5, 51.10395150496977
871, 51.18822701031209
871.5, 51.26918557912987
872, 51.37102187869653
872.5, 51.46005744431692
873, 51.592082777957685
873.5, 51.69505114385422
874, 51.823481685886605
874.4999999999999, 51.88177647558519
875, 51.93113765762392
875.5, 52.04942879556205
876, 52.16489488553639
876.5, 52.32216545826124
876.9999999999999, 52.42520525654156
877.5, 52.51961299761616
878, 52.58839151249735
878.5, 52.67090815686104
879, 52.72302289752932
879.5, 52.77305031635205
880, 52.89171534865717
880.4999999999999, 53.00715271004883
881, 53.1646659864078
881.5, 53.2764606259031
882, 53.39912929078366
882.5, 53.50412961747343
882.9999999999999, 53.64143218222999
883.5, 53.748472426433196
884, 53.85415130737488
884.5, 53.914062461262205
885, 53.96314233406793
885.5, 53.991036825610145
886, 54.01775049546
886.4999999999999, 54.0641545825573
887, 54.16353450837986
887.5, 54.317420000514694
888, 54.478674833623415
888.5, 54.652359629944954
888.9999999999999, 54.77942883817711
889.5, 54.9114044878829
890, 55.125076267905285
890.5, 55.294655729163644
891, 55.51991220193858
891.5, 55.67933343778809
892, 55.849201111683826
892.5, 56.00561228252198
893, 56.170774199734254
893.5, 56.307962727808814
894, 56.430866258979336
894.5, 56.561101066453844
894.9999999999999, 56.67142767409368
895.5, 56.83097374620974
896, 56.936190266517016
896.5, 57.043081347340525
897, 57.13076085954313
897.4999999999999, 57.222308986403
898, 57.333595462700615
898.5, 57.44296669503438
899, 57.60124503986135
899.5, 57.733765259793294
900, 57.92144030622939
900.5, 58.0446176807949
900.9999999999999, 58.168953743610764
901.5, 58.329465113707116
902, 58.50313072838214
902.5, 58.702350982042205
903, 58.86687414176005
903.4999999999999, 58.99712535148332
904, 59.08370454290787
904.5, 59.17723370408768
905, 59.30230155226526
905.5, 59.47248011878098
906, 59.63041520562255
906.5, 59.792636090696575
906.9999999999999, 59.90517458924935
907.5, 60.001834280302006
908, 60.09494724462362
908.5, 60.155686211323044
909, 60.22081626941711
909.4999999999999, 60.37150003902176
910, 60.59553995475025
910.5, 60.81611215277449
911, 61.040955483262714
911.5, 61.17092655735779
912, 61.28505290417653
912.5, 61.406288633112744
912.9999999999999, 61.499667598074275
913.5, 61.62150097521113
914, 61.716821043344744
914.5, 61.82315066000917
915, 61.9188358096106
915.4999999999999, 62.015678653924134
916, 62.09307583964587
916.5, 62.17727032309958
917, 62.32681018415247
917.5, 62.46269164785383
918, 62.66865450924462
918.5, 62.83947039477522
919, 63.034029133716764
919.5, 63.27597208943992
920, 63.52410459935824
920.5, 63.70810764354537
921, 63.85066769973979
921.4999999999999, 63.94403249676973
922, 64.03576969962683
922.5, 64.18542249573176
923, 64.32075175580138
923.5, 64.479817999211
923.9999999999999, 64.64650778582987
924.5, 64.81618271165347
925, 64.98322716383728
925.5, 65.11116683203875
926, 65.19503877383872
926.5, 65.24501395428351
927, 65.2918807500725
927.4999999999999, 65.33099669084609
928, 65.37491115592962
928.5, 65.47508422996658
929, 65.58321563756427
929.5, 65.75017367878627
929.9999999999999, 65.88978402846857
930.5, 66.02993036391456
931, 66.13058609322722
931.5, 66.25231906700712
932, 66.33091985802247
932.5, 66.40958111265418
933, 66.46739773856802
933.4999999999999, 66.52879252854275
934, 66.66881144761143
934.5, 66.8059272434567
935, 67.01174342744717
935.5, 67.14921706963958
935.9999999999999, 67.29913734363258
936.5, 67.36138143601715
937, 67.40389184684089
937.5, 67.50534653147862
938, 67.61683547618402
938.5, 67.8379576595058
939, 68.01449608130443
939.4999999999999, 68.17324265546816
940, 68.2575172718144
940.5, 68.32297044899373
941, 68.43553332908127
941.5, 68.58502900815074
941.9999999999999, 68.78421763268848
942.5, 68.98051691072303
943, 69.14023168884921
943.5, 69.26000458673772
944, 69.3438806550185
944.4999999999999, 69.37105370717218
945, 69.36197647028445
945.5, 69.32545323212037
946, 69.27241229465784
946.5, 69.31627982485955
947, 69.36917132000438
947.5, 69.49271476050265
947.9999999999999, 69.61034426140898
948.5, 69.77917037093968
949, 69.93574479824248
949.5, 70.16903963150627
950, 70.32332062401966
950.4999999999999, 70.47914681299939
951, 70.57160617856839
951.5, 70.65606737545535
952, 70.70859150012159
952.5, 70.76931154519967
953, 70.88208411509274
953.5, 71.00736131837994
953.9999999999999, 71.21240873382233
954.5, 71.36080524981791
955, 71.51654660476574
955.5, 71.60119432608883
956, 71.67661639528644
956.4999999999999, 71.71198559203397
957, 71.74574869706987
957.5, 71.79304570187618
958, 71.92220252014737
958.5, 72.19198419380899
959, 72.44285401990206
959.5, 72.72894860304753
959.9999999999999, 72.8330022485431
960.5, 72.92962101810745
961, 73.02054907144624
961.5, 73.09163653079608
962, 73.17626388504979
962.4999999999999, 73.21778948461815
963, 73.24584683384623
963.5, 73.28770140169166
964, 73.33970289382204
964.5, 73.40455313181472
965, 73.46477682323788
965.5, 73.49240723647428
965.9999999999999, 73.52576522026222
966.5, 73.60114324313066
967, 73.67923100520973
967.5, 73.80011037180891
968, 73.90247257321087
968.4999999999999, 74.01415451732655
969, 74.13631047094042
969.5, 74.25201102241176
970, 74.3343055303722
970.5, 74.40234317342092
970.9999999999999, 74.49660759437613
971.5, 74.58524391389311
972, 74.71533527247956
972.5, 74.85051869865593
973, 75.00508859208645
973.5, 75.19245705964379
974, 75.37128716438212
974.4999999999999, 75.51730784552167
975, 75.60484813122093
975.5, 75.64253566525814
976, 75.63909698393552
976.5, 75.60211430150736
976.9999999999999, 75.55217302906895
977.5, 75.4918062469134
978, 75.52114014556724
978.5, 75.5664137771582
979, 75.71251443482127
979.5, 75.84324628783449
980, 76.04118982226919
980.4999999999999, 76.19880425722934
981, 76.40294993171233
981.5, 76.51376439171163
982, 76.61511968266097
982.5, 76.60929990750537
982.9999999999999, 76.59703411955103
983.5, 76.55145452857454
984, 76.52475966961715
984.5, 76.5154330455873
985, 76.54999658802308
985.5, 76.63324381545897
986, 76.7361489484642
986.4999999999999, 76.85563095271844
987, 76.94674725711127
987.5, 77.03423910890844
988, 77.12589119629934
988.5, 77.18862352825568
988.9999999999999, 77.24522845022656
989.5, 77.28055498144688
990, 77.31763967224138
990.5, 77.33654000371205
991, 77.3532850807529
991.4999999999999, 77.35299218267394
992, 77.35801170228679
992.5, 77.39489104270392
993, 77.44820383087966
993.5, 77.57073547711931
994, 77.6659923015734
994.5, 77.78619303465702
994.9999999999999, 77.83129460101047
995.5, 77.86408583340746
996, 77.87150503575525
996.5, 77.89102297641296
997, 77.9827404887171
997.4999999999999, 78.04831208743896
998, 78.11423956102402
998.5, 78.11663657627459
999, 78.07998014345297
999.5, 78.07447535566332
1000, 78.07475174963157
1000.5, 78.13208324954756
1000.9999999999999, 78.1970937050561
1001.5, 78.32565587943793
1002, 78.40087289798777
1002.5, 78.43859133089991
1003, 78.41853040750648
1003.4999999999999, 78.35424888187241
1004, 78.33140800256639
1004.5, 78.3151908968899
1005, 78.30731147875633
1005.5, 78.29381965296109
1006, 78.24762898611189
1006.5, 78.19422969977565
1006.9999999999999, 78.09066880266926
1007.5, 78.06389766942468
1008, 78.07297059218311
1008.5, 78.14037248917157
1009, 78.22498736395939
1009.4999999999999, 78.21631217015688
1010, 78.20869370852407
1010.5, 78.19968040767426
1011, 78.21795747283528
1011.5, 78.29328234361142
1012, 78.33827424102572
1012.5, 78.38429861756376
1012.9999999999999, 78.39099967984137
1013.5, 78.39054541782966
1014, 78.43283609782736
1014.5, 78.47103398123164
1015, 78.50787605702898
1015.4999999999999, 78.51954748456356
1016, 78.5007463334429
1016.5, 78.4808666189127
1017, 78.45349308439309
1017.5, 78.49040843867978
1017.9999999999999, 78.54148120156508
1018.5, 78.63634228519821
1019, 78.69824046508921
1019.5, 78.64263843565425
1020, 78.5682098651776
1020.5, 78.41747236827986
1021, 78.32350550296073
1021.4999999999999, 78.22249370803274
1022, 78.17507242792807
1022.5, 78.13494272482022
1023, 78.14173916223832
1023.5, 78.17408188572132
1023.9999999999999, 78.33138379873282
1024.5, 78.4470454447742
1025, 78.57890689252733
1025.5, 78.58263070813126
1026, 78.51873958664683
1026.5, 78.40074079229977
1027, 78.26875380553263
1027.5, 78.19114101839433
1028, 78.13859589785409
1028.5, 78.16626341716622
1029, 78.1767397522436
1029.5, 78.16736146333668
1030, 78.15488716117108
1030.5, 78.13673695919753
1031, 78.15495511811403
1031.5, 78.17829712906988
1032, 78.10202709959381
1032.5, 78.02146124775061
1033, 77.88244286741958
1033.5, 77.80101514863385
1034, 77.74441136865376
1034.5, 77.72359862500859
1035, 77.71506123882415
1035.5, 77.74892933510377
1036, 77.79077226858308
1036.5, 77.85108220144824
1037, 77.89953607060147
1037.5, 77.92719089374894
1038, 77.91752032225182
1038.5, 77.8519885740244
1039, 77.80333802054122
1039.5, 77.74962618388436
1040, 77.72323202020195
1040.5, 77.69736036433811
1041, 77.6373893137317
1041.5, 77.58061386413851
1042, 77.5063001431063
1042.5, 77.46065320147446
1043, 77.42273621595517
1043.5, 77.44365164061705
1044, 77.49835459351192
1044.5, 77.51732564568876
1045, 77.53035479057169
1045.5, 77.42657272201876
1046, 77.337868114741
1046.5, 77.25436921005573
1047, 77.22802854702589
1047.5, 77.25586528797122
1048, 77.29444286199787
1048.5, 77.34839370875765
1049, 77.33181200959797
1049.5, 77.3058736639237
1050, 77.23680780800217
1050.5, 77.17394942749456
1051, 77.09917812774424
1051.5, 77.00273353182598
1052, 76.8155116840151
1052.5, 76.65050132168862
1053, 76.45430088595965
1053.5, 76.32279687510791
1054, 76.19368307406441
1054.5, 76.12357218300465
1055, 76.0791301207267
1055.5, 76.09776986556439
1056, 76.09980651086492
1056.5, 76.08122230468561
1057, 76.04949788703284
1057.5, 76.00485254819326
1058, 75.9072356611573
1058.5, 75.80267183695017
1059, 75.73187238778019
1059.5, 75.69573379371737
1060, 75.75184714504087
1060.5, 75.79654815790973
1061, 75.85303999886855
1061.5, 75.84496650404232
1062, 75.80864698856814
1062.5, 75.67451800446395
1063, 75.52939233939334
1063.5, 75.40643377332407
1064, 75.32024920198774
1064.5, 75.30180474317586
1065, 75.30213382440664
1065.5, 75.32089978949018
1066, 75.31434923468407
1066.5, 75.29629965532563
1067, 75.25058069438099
1067.5, 75.19842788511053
1068, 75.07742017864174
1068.5, 74.9461879874791
1069, 74.71249367947634
1069.5, 74.52793795874302
1070, 74.2842672885019
1070.5, 74.14370812537649
1071, 74.01224670432983
1071.5, 74.03312850333734
1072, 74.06952048940518
1072.5, 74.18545164547596
1073, 74.24557808597308
1073.5, 74.17958113107788
1074, 74.0817065117328
1074.5, 73.89459648464938
1075, 73.78403940943687
1075.5, 73.67920924845293
1076, 73.60516165334188
1076.5, 73.53371767743656
1077, 73.48075071256639
1077.5, 73.44235833291117
1078, 73.42384219923854
1078.5, 73.431049888707
1079, 73.46831780059401
1079.5, 73.5104732310286
1080, 73.56351621253235
1080.5, 73.53630806929355
1081, 73.49879974222328
1081.5, 73.37542294680266
1082, 73.27110187739659
1082.5, 73.15909521203208
1083, 73.11614581226688
1083.5, 73.11581251179442
1084, 73.14973551558317
1084.5, 73.20308071902915
1085, 73.17563987281513
1085.5, 73.14194127105179
1086, 73.07992754051989
1086.5, 73.03210596776101
1087, 72.99463838212966
1087.5, 72.9475353622374
1088, 72.86350346342294
1088.5, 72.80490467548445
1089, 72.74392717197003
1089.5, 72.70976741480885
1090, 72.67142485708706
1090.5, 72.54840067778312
1091, 72.42423644814575
1091.5, 72.22744796041202
1092, 72.07968811750949
1092.5, 71.89286019732904
1093, 71.7483476643695
1093.5, 71.59162618559625
1094, 71.50703886213543
1094.5, 71.43408911592829
1095, 71.44308713462244
1095.5, 71.45042152499312
1096, 71.45953910046994
1096.5, 71.41309054785378
1097, 71.29195556771695
1097.5, 71.2377341425461
1098, 71.19494465608784
1098.5, 71.24712731804193
1099, 71.29208465078486
1099.5, 71.22061826537538
1100, 71.16615169512424
1100.5, 71.11959159557135
1101, 71.1302709294896
1101.5, 71.19534810370085
1102, 71.22600737726893
1102.5, 71.25179806411752
1103, 71.17752580765246
1103.5, 71.08177697638907
1104, 70.84662942604388
1104.5, 70.66280888449067
1105, 70.45602942139026
1105.5, 70.35785305472564
1106, 70.30151674565425
1106.5, 70.3142840908952
1107, 70.34998057343475
1107.5, 70.36785469404408
1108, 70.37575715872678
1108.5, 70.31248427861308
1109, 70.26024028201743
1109.5, 70.19440660969836
1110, 70.15957692742508
1110.5, 70.13156606136526
1111, 70.08948890536023
1111.5, 70.03766973005446
1112, 69.91045908093609
1112.5, 69.78255221762952
1113, 69.65524775814802
1113.5, 69.57371143601642
1114, 69.52675301611373
1114.5, 69.5423862095129
1115, 69.6165388763974
1115.5, 69.68514731794379
1116, 69.76289035041803
1116.5, 69.70978198735877
1117, 69.65443298713943
1117.5, 69.59978465803088
1118, 69.56523040625132
1118.5, 69.54616283101656
1119, 69.48329706764767
1119.5, 69.3534081131368
1120, 69.19381222394043
1120.5, 69.00435834089842
1121, 68.88730934448698
1121.5, 68.78323824338185
1122, 68.73727213817638
1122.5, 68.70125641426293
1123, 68.65402608294472
1123.5, 68.58907315250724
1124, 68.47775923302017
1124.5, 68.35816819729746
1125, 68.22101422606944
1125.5, 68.12989484843635
1126, 68.0419204029634
1126.5, 67.9504034245801
1127, 67.87718733235064
1127.5, 67.78291067924991
1128, 67.7103726440705
1128.5, 67.61756111458914
1129, 67.5196476050792
1129.5, 67.4085623840782
1130, 67.34164165142639
1130.5, 67.28148576015708
1131, 67.24444087072803
1131.5, 67.1874295451484
1132, 67.04603546379037
1132.5, 66.91976600311125
1133, 66.74373777373793
1133.5, 66.61881873262662
1134, 66.49180930610578
1134.5, 66.44010475379203
1135, 66.40457995274389
1135.5, 66.44981974058096
1136, 66.45086220942383
1136.5, 66.36603088760327
1137, 66.2704852985235
1137.5, 66.12248979892246
1138, 66.00847959978495
1138.5, 65.89017441048681
1139, 65.82262032346867
1139.5, 65.76801782847446
1140, 65.76770684626182
1140.5, 65.75498478489969
1141, 65.70773979546122
1141.5, 65.62810475049275
1142, 65.48954816225333
1142.5, 65.35102151861943
1143, 65.19881941356913
1143.5, 65.09768059356419
1144, 65.0153704062993
1144.5, 65.00609440774481
1145, 65.01577038312755
1145.5, 65.06278075298894
1146, 65.06860384809968
1146.5, 65.05024177776252
1147, 65.0082689121136
1147.5, 64.95735056302055
1148, 64.92526720694796
1148.5, 64.87860316666108
1149, 64.74049060974922
1149.5, 64.61637588807253
1150, 64.42775129778278
1150.5, 64.28671573356857
1151, 64.11127018707423
1151.5, 63.933274274349934
1152, 63.74018998628635
1152.5, 63.57309213775882
1153, 63.41330095620392
1153.5, 63.229215662935864
1154, 63.12838327473687
1154.5, 63.09065292619991
1155, 63.13826087097151
1155.5, 63.257642122779345
1156, 63.348016044086215
1156.5, 63.43958557168437
1157, 63.4739845664499
1157.5, 63.49330705069755
1158, 63.44701738299835
1158.5, 63.38212770565007
1159, 63.24358415132614
1159.5, 63.11670598657347
1160, 62.94188520865929
1160.5, 62.787912167403356
1161, 62.62770070783456
1161.5, 62.56751975507301
1162, 62.53175509300568
1162.5, 62.59605171228955
1163, 62.61597179720634
1163.5, 62.57824812897598
1164, 62.49297873079411
1164.5, 62.34632422604823
1165, 62.26547304922728
1165.5, 62.19200012802403
1166, 62.15858261395643
1166.5, 62.123564828192656
1167, 62.06773681949456
1167.5, 61.98537264596844
1168, 61.806318863787894
1168.5, 61.66168845776825
1169, 61.47841482660887
1169.5, 61.41339798909063
1170, 61.36629795289014
1170.5, 61.39225705991938
1171, 61.411126138449454
1171.5, 61.41093611138091
1172, 61.38370045201573
1172.5, 61.29903578660804
1173, 61.271182028714044
1173.5, 61.261833379256565
1174, 61.26038075861586
1174.5, 61.25939770204475
1175, 61.18518936862953
1175.5, 61.07919928485555
1176, 60.79190807360717
1176.5, 60.58423260247185
1177, 60.349222171237656
1177.5, 60.211954064050104
1178, 60.08710348100769
1178.5, 59.95699181972989
1179, 59.81589475651754
1179.5, 59.706862498213184
1180, 59.57938574288362
1180.5, 59.3193793637229
1181, 59.10426657527935
1181.5, 58.80411868918846
1182, 58.56786478886529
1182.5, 58.29868392932301
1183, 58.09101173402415
1183.5, 57.877494471665976
1184, 57.782547362289435
1184.5, 57.71380973984403
1185, 57.71380928583389
1185.5, 57.71495064082067
1186, 57.71517091850944
1186.5, 57.68406435244114
1187, 57.62980328565955
1187.5, 57.512318608052425
1188, 57.379449536753135
1188.5, 57.22460118319943
1189, 57.08965008638271
1189.5, 56.95935467542278
1190, 56.84584635102835
1190.5, 56.6768814004329
1191, 56.57473022346001
1191.5, 56.47694202055066
1192, 56.48917135128433
1192.5, 56.51516112052203
1193, 56.59280480748145
1193.5, 56.661729713573436
1194, 56.736261404675396
1194.5, 56.80355356326478
1195, 56.90673443566881
1195.5, 56.975727383489456
1196, 57.04688206904153
1196.5, 57.05334999621516
1197, 57.05480729243716
1197.5, 57.089842101443644
1198, 57.11369402565352
1198.5, 57.11321059013915
1199, 57.04182443921758
1199.5, 56.836302338022236
1200, 56.608146483466065
1200.5, 56.31312412016436
1201, 56.137230328358584
1201.5, 55.96775614063946
1202, 55.87311292146286
1202.5, 55.78091335930294
1203, 55.65029783451272
1203.5, 55.53882232949197
1204, 55.37924421361179
1204.5, 55.30700588939301
1205, 55.25473222531308
1205.5, 55.272336510516205
1206, 55.297122726724616
1206.5, 55.33336798245692
1207, 55.3378253339515
1207.5, 55.244283694918145
1208, 55.15484633855017
1208.5, 55.01450527407838
1209, 54.876679728069725
1209.5, 54.70782329800645
1210, 54.60041310752053
1210.5, 54.503114196641846
1211, 54.58223043124888
1211.5, 54.644126032458274
1212, 54.69052002948971
1212.5, 54.68562136508077
1213, 54.62047350307114
1213.5, 54.52249636656291
1214, 54.3889613064402
1214.5, 54.32027841435891
1215, 54.25546657421707
1215.5, 54.195176265034114
1216, 54.126388060387576
1216.5, 53.99550333181483
1217, 53.89437262903265
1217.5, 53.76328256273956
1218, 53.659711767855555
1218.5, 53.54535715388287
1219, 53.337021766915406
1219.5, 53.108663371546776
1220, 52.78277771378444
1220.5, 52.65974260319451
1221, 52.50635273731825
1221.5, 52.343107209514166
1222, 52.19050511314078
1222.5, 52.06904554155665
1223, 51.99361621580837
1223.5, 51.92977378888771
1224, 51.864640050550165
1224.5, 51.78538491134724
1225, 51.72167959347529
1225.5, 51.66577632732649
1226, 51.65179091016967
1226.5, 51.670423242344626
1227, 51.66312411087271
1227.5, 51.64522885076366
1228, 51.5913971261308
1228.5, 51.537848745656746
1229, 51.52034029148611
1229.5, 51.504641847129406
1230, 51.48590900153057
1230.5, 51.46764042750833
1231, 51.439546272628064
1231.5, 51.439014050523426
1232, 51.44822484657893
1232.5, 51.44092743418794
1233, 51.42849589184522
1233.5, 51.351795279566616
1234, 51.22470344473259
1234.5, 50.89642244127566
1235, 50.627630112959785
1235.5, 50.263109377847506
1236, 50.03426861448418
1236.5, 49.80835092024366
1237, 49.75112662558088
1237.5, 49.714777718633016
1238, 49.832583299896555
1238.5, 49.87432142013685
1239, 49.7516713833939
1239.5, 49.59678952375256
1240, 49.32632824006928
1240.5, 49.08842643393565
1241, 48.81800395698558
1241.5, 48.697144252810794
1242, 48.59551737139823
1242.5, 48.61414917138927
1243, 48.61320685698687
1243.5, 48.56625531725613
1244, 48.544420600298736
1244.5, 48.53489515129629
1245, 48.58647544631139
1245.5, 48.66540379466765
1246, 48.87177409430765
1246.5, 49.081001403035195
1247, 49.33997107407745
1247.5, 49.529198318718876
1248, 49.65984785154466
1248.5, 49.73272980386281
1249, 49.79816299808539
1249.5, 49.841075607541896
1250, 49.88424011513941
1250.5, 49.88596098854006
1251, 49.886095270030395
1251.5, 49.88606729439899
1252, 49.883671727549924
1252.5, 49.87404834189057
1253, 49.81577815022844
1253.5, 49.685579233108065
1254, 49.58812803812774
1254.5, 49.48446404700969
1255, 49.49551876873101
1255.5, 49.51809773049024
1256, 49.59979330035389
1256.5, 49.67811546070104
1257, 49.80986227248281
1257.5, 49.90563791933339
1258, 50.01755505177597
1258.5, 49.935498728990865
1259, 49.78611525254354
1259.5, 49.57683011812068
1260, 49.37063040706573
1260.5, 49.1796613797535
1261, 49.068404000847636
1261.5, 49.04048923663244
1262, 49.142821753700275
1262.5, 49.40263062074219
1263, 49.65319984255384
1263.5, 49.93738603088116
1264, 50.074048817297985
1264.5, 50.18366553235851
1265, 50.14743658895191
1265.5, 50.07791956343955
1266, 49.88957629793565
1266.5, 49.73500051241093
1267, 49.53053284701097
1267.5, 49.46233987974268
1268, 49.42137798094569
1268.5, 49.40426090741342
1269, 49.39016360153325
1269.5, 49.39023176466796
1270, 49.402721198455126
1270.5, 49.449876388225825
1271, 49.506484152229376
1271.5, 49.599251616295994
1272, 49.70987601558959
1272.5, 49.83810913954206
1273, 50.07498101296533
1273.5, 50.29322197089089
1274, 50.430220952988336
1274.5, 50.47373039142871
1275, 50.37005711623553
1275.5, 50.227650734529284
1276, 49.98675487679366
1276.5, 49.768677108050184
1277, 49.530072088162065
1277.5, 49.37885237041252
1278, 49.25199873962001
1278.5, 49.233570326274624
1279, 49.253372502401554
1279.5, 49.35688593295413
1280, 49.41135930257738
1280.5, 49.457836885608636
1281, 49.491138091735934
1281.5, 49.52495696591612
1282, 49.550265084565346
1282.5, 49.56962471179264
1283, 49.5604941569049
1283.5, 49.547618312577306
1284, 49.519314874838116
1284.5, 49.48895881595072
1285, 49.44270189939758
1285.5, 49.396648561091936
1286, 49.345756238173365
1286.5, 49.32070045685132
1287, 49.296561564381754
1287.5, 49.26916831066023
1288, 49.26599460393547
1288.5, 49.3038132223898
1289, 49.38527341603941
1289.5, 49.532959735885505
1290, 49.6536524308119
1290.5, 49.77993942708927
1291, 49.88857452392987
1291.5, 49.98629200805584
1292, 50.0594887434058
1292.5, 50.06065052700889
1293, 49.938271083076906
1293.5, 49.85032085333474
1294, 49.74903682468612
1294.5, 49.857813151639824
1295, 50.020681419344
1295.5, 50.19740755649986
1296, 50.34538645259278
1296.5, 50.40064134271728
1297, 50.410049195111284
1297.5, 50.35350615687398
1298, 50.282658235010445
1298.5, 50.172152685283734
1299, 50.10952005141794
1299.5, 50.05139638096503
1300, 50.03444777019093
1300.5, 50.02245951728051
1301, 50.03161528302335
1301.5, 50.03639588788842
1302, 50.03647019660164
1302.5, 50.05866721780549
1303, 50.104729716714886
1303.5, 50.18512346199512
1304, 50.27758316206473
1304.5, 50.504913719430775
1305, 50.715397428159775
1305.5, 50.936716127068
1306, 51.06263434242121
1306.5, 51.12880434729037
1307, 51.1433593660783
1307.5, 51.134378234586634
1308, 51.13339369261962
1308.5, 51.13384381174308
1309, 51.212582047874875
1309.5, 51.24876888163727
1310, 51.11006978072429
1310.5, 50.969659984012935
1311, 50.73385726441384
1311.5, 50.51470345589254
1312, 50.21139465102642
1312.5, 49.892366580034434
1313, 49.55255915580205
1313.5, 49.283007304946565
1314, 49.02110990744758
1314.5, 48.6790082937405
1314.9999999999998, 48.4599761527108
1315.5, 48.271316596880794
1316, 48.22211299113414
1316.5, 48.23119324732343
1317, 48.36243683079896
1317.5, 48.52193547672361
1318, 48.7353158086282
1318.4999999999998, 48.91464992729364
1319, 49.0347402878161
1319.5, 49.06788814032257
1320, 49.0020806736707
1320.5, 48.915950355587235
1321, 48.78839628991057
1321.5, 48.827879612831836
1321.9999999999998, 48.89873231518995
1322.5, 49.1286035638104
1323, 49.34351021243924
1323.5, 49.60327945705591
1324, 49.808494451529
1324.5, 50.08071545484923
1325, 50.27347202596085
1325.5, 50.4798129354271
1326, 50.577192661111795
1326.5, 50.66764550149586
1326.9999999999998, 50.67718039224234
1327.5, 50.66725114023552
1328, 50.57439310062048
1328.5, 50.49838489749655
1329, 50.3951537622886
1329.5, 50.32065861988489
1330, 50.24005840323845
1330.4999999999998, 50.19015567259554
1331, 50.140184043207206
1331.5, 50.08885387437664
1332, 50.04152211369984
1332.5, 49.985817371406704
1333, 49.95132995902506
1333.5, 49.922756774817685
1334, 49.956473645636514
1334.5, 50.029148979921274
1335, 50.14148753739831
1335.4999999999998, 50.2651998930896
1336, 50.37848930743234
1336.5, 50.45307992983813
1337, 50.42485475315733
1337.5, 50.36096963752094
1338, 50.211142094230084
1338.5, 50.087849434497016
1338.9999999999998, 49.94480953431483
1339.5, 49.84666817096745
1340, 49.74826192793994
1340.5, 49.6714138741111
1341, 49.59169374037704
1341.5, 49.46153076484048
1342, 49.3910694186957
1342.4999999999998, 49.352541990730124
1343, 49.46380826851548
1343.5, 49.671675155694146
1344, 49.83248063166274
1344.5, 49.990880111754386
1345, 49.98271865155485
1345.5, 49.96076328945277
1346, 49.876850541967315
1346.5, 49.81126226233623
1347, 49.72674881537157
1347.4999999999998, 49.68388802466588
1348, 49.64874766720412
1348.5, 49.65309190086002
1349, 49.662207215920915
1349.5, 49.69721421110251
1350, 49.72289192529888
1350.5, 49.73221154014559
1350.9999999999998, 49.74252230356084
1351.5, 49.761245993038465
1352, 49.776700074393176
1352.5, 49.79446857701604
1353, 49.80304479162299
1353.5, 49.809758239865445
1354, 49.78386369394545
1354.5, 49.75660979596615
1355, 49.70991371872393
1355.5, 49.670577363108215
1355.9999999999998, 49.614437875658375
1356.5, 49.55712894104393
1357, 49.4860124377264
1357.5, 49.451558024151865
1358, 49.42253944011942
1358.5, 49.466217774326125
1359, 49.50504316988496
1359.4999999999998, 49.55161260387211
1360, 49.567513587050826
1360.5, 49.55847582760669
1361, 49.50123776599466
1361.5, 49.411933236637616
1362, 49.33243120577517
1362.5, 49.26372287019315
1362.9999999999998, 49.421287796195465
1363.5, 49.56099825677892
1364, 49.72879556010995
1364.5, 49.79178540214741
1365, 49.78272697642779
1365.5, 49.78648201711508
1366, 49.79538440527979
1366.5, 49.86358670274926
1367, 49.946680494308424
1367.5, 50.21039721240247
1367.9999999999998, 50.42694455949281
1368.5, 50.631680812876496
1369, 50.644789766534245
1369.5, 50.46799504924461
1370, 50.258571650594725
1370.5, 49.99369263401626
1371, 49.69936389450896
1371.4999999999998, 49.404891048078746
1372, 49.15715796626658
1372.5, 48.9832975936046
1373, 48.918350470810836
1373.5, 48.8941219106162
1374, 48.89386722884675
1374.5, 48.93345689198762
1374.9999999999998, 48.99566172270073
1375.5, 49.021916666377955
1376, 49.04284132691103
1376.5, 49.01636100524856
1377, 48.99333119708805
1377.5, 48.9655511519088
1378, 49.00133367562365
1378.5, 49.122278313375986
1379, 49.31546425171639
1379.5, 49.57080888270305
1379.9999999999998, 49.84391754639721
1380.5, 50.1083423684044
1381, 50.27785514514039
1381.5, 50.37931058752733
1382, 50.359947021852356
1382.5, 50.31091605712308
1383, 50.20831930083234
1383.4999999999998, 50.1224741992575
1384, 50.02648850546707
1384.5, 49.937184543083156
1385, 49.85332037933757
1385.5, 49.816706721882326
1386, 49.814957733102815
1386.5, 49.89967372726005
1387, 49.98832728721158
1387.5, 50.12837561799134
1388, 50.19251261222828
1388.4999999999998, 50.244068199548266
1389, 50.15335852502519
1389.5, 50.05503885322059
1390, 49.91179425456188
1390.5, 49.82033936590722
1391, 49.8022032425091
1391.5, 49.83879906043719
1391.9999999999998, 49.941258650053435
1392.5, 49.98015601312131
1393, 50.005220212429634
1393.5, 50.076613990345216
1394, 50.14903940202094
1394.5, 50.238869504464965
1395, 50.292690721610484
1395.4999999999998, 50.29241036578998
1396, 50.2922880054163
1396.5, 50.292342665047414
1397, 50.250612927427085
1397.5, 50.189216122988235
1398, 50.154751458790614
1398.5, 50.131180981482025
1399, 50.18538712094034
1399.5, 50.241713474614734
1400, 50.34515395344479
