302.5, 59.646927351772575
303, 59.652952249843416
303.5, 59.653016485511664
304, 59.66265511550602
304.5, 59.69066186816639
305, 59.729869138073276
305.5, 59.783594852776524
306, 59.8235522269119
306.5, 59.8654756475487
307, 59.91001261327271
307.5, 59.94739533601049
308, 59.994167447605086
308.5, 60.03045705072659
309, 60.07728612644175
309.5, 60.12711078124602
310, 60.189258695933844
310.5, 60.24462664335729
311, 60.30229187661996
311.5, 60.35606600333788
312, 60.39876666609102
312.5, 60.44566871786513
313, 60.48554909761603
313.5, 60.541707532646726
314, 60.59406788491541
314.5, 60.65574180777535
315, 60.7039863290029
315.5, 60.753659537528364
316, 60.807683439331285
316.5, 60.852223155219406
317, 60.908624881477806
317.5, 60.95963141864704
318, 61.03442297036904
318.5, 61.096927618174405
319, 61.16682667014216
319.5, 61.22355669234376
320, 61.27953336697842
320.5, 61.32483806245992
321, 61.35921053481781
321.5, 61.39638004239379
322, 61.43499768139643
322.5, 61.49066338065426
323, 61.52441942711031
323.5, 61.559709387975516
324, 61.59930750726938
324.5, 61.64382238626197
325, 61.7254604084278
325.5, 61.79185030745675
326, 61.876180329901864
326.5, 61.928261488618865
327, 61.974057265791515
327.5, 62.01789881334434
328, 62.0703701590606
328.5, 62.11944746276358
329, 62.16623137786396
329.5, 62.2029429787225
330, 62.24375221849144
330.5, 62.32797141888188
331, 62.392354427382514
331.5, 62.465815557996486
332, 62.50849243141557
332.5, 62.55194564766212
333, 62.616959482483686
333.5, 62.682710562973156
334, 62.765132007436456
334.5, 62.82822803366874
335, 62.90318336464861
335.5, 62.96437888005708
336, 63.037657045301735
336.5, 63.073876549371576
337, 63.10844849442286
337.5, 63.149283083711566
338, 63.194413527400755
338.5, 63.27700082343599
339, 63.33222504116721
339.5, 63.379156975099306
340, 63.41761866875767
340.5, 63.46321927965466
341, 63.52123545162241
341.5, 63.58948364114905
342, 63.67315097103884
342.5, 63.75048004021058
343, 63.824312794159
343.5, 63.87915837106574
344, 63.94466363354791
344.5, 64.01745407973225
345, 64.11774383180732
345.5, 64.19655626841814
346, 64.2812758581203
346.5, 64.34023479509789
347, 64.39467549361693
347.5, 64.45029422690989
348, 64.50218778364415
348.5, 64.58663186128149
349, 64.6557679028377
349.5, 64.73716004500386
350, 64.786398302588
350.5, 64.83777735591065
351, 64.89030565623572
351.5, 64.93862192881406
352, 65.01280312732514
352.5, 65.06835667691446
353, 65.13416987732981
353.5, 65.17813534670384
354, 65.22289202762039
354.5, 65.28869024376226
355, 65.36496654304311
355.5, 65.4441238778447
356, 65.50891517235418
356.5, 65.57407100235939
357, 65.62844658886739
357.5, 65.70359557927917
358, 65.75502913117172
358.5, 65.80851685180293
359, 65.86213414559525
359.5, 65.92112292817602
360, 65.98309217910518
360.5, 66.03398811901172
361, 66.08999929077287
361.5, 66.13696143063615
362, 66.20259216775322
362.5, 66.26227795391172
363, 66.33351923226479
363.5, 66.43195688242668
364, 66.53966012046962
364.5, 66.637649998456
365, 66.71081456471217
365.5, 66.76704154559299
366, 66.82426147663264
366.5, 66.9178699437218
367, 67.01196176760256
367.5, 67.1273071405948
368, 67.21543736363152
368.5, 67.30704992888653
369, 67.40556788731571
369.5, 67.48554138916762
370, 67.57925162743004
370.5, 67.64128568881685
371, 67.70686427326211
371.5, 67.77274210563078
372, 67.85207181396491
372.5, 67.92397820146851
373, 67.99628350496262
373.5, 68.05042264150993
374, 68.09061083222613
374.5, 68.12819835357149
375, 68.15693638999885
375.5, 68.19425989073304
376, 68.26025196920278
376.5, 68.34825939438755
377, 68.41350638687746
377.5, 68.47773781070558
378, 68.53223676912148
378.5, 68.58462129932039
379, 68.6779792045516
379.5, 68.7461964501561
380, 68.8200504060102
380.5, 68.87463550177355
381, 68.93631373231403
381.5, 69.00061495829483
382, 69.06601013243892
382.5, 69.13881357419412
383, 69.20405069765236
383.5, 69.30679123118948
384, 69.39076619727332
384.5, 69.49221569109615
385, 69.55785025019327
385.5, 69.62786311115437
386, 69.71655406840803
386.5, 69.80692281144826
387, 69.91638780131073
387.5, 69.99940844942454
388, 70.09311286208825
388.5, 70.16100103315908
389, 70.23436396495806
389.5, 70.3015158215354
390, 70.37965876422935
390.5, 70.4458543713893
391, 70.50722112193992
391.5, 70.55325851778218
392, 70.6016568739773
392.5, 70.69512010366314
393, 70.7849688970649
393.5, 70.90428988248479
394, 70.978883540934
394.5, 71.05660103601716
395, 71.11381825210913
395.5, 71.18011866589015
396, 71.31792375131606
396.5, 71.42786029864997
397, 71.56898990657012
397.5, 71.64245828435686
398, 71.69636957708671
398.5, 71.74901371716021
399, 71.80872453612598
399.5, 71.89207868477376
400, 71.97340568983877
400.5, 72.07486447956182
401, 72.1492736879786
401.5, 72.23389531690701
402, 72.28881600721692
402.5, 72.34301200931047
403, 72.40942637789784
403.5, 72.48561566124454
404, 72.57018803411302
404.5, 72.64546426015126
405, 72.7102955221117
405.5, 72.760506114998
406, 72.82608598558076
406.5, 72.89469932321775
407, 72.98537546659384
407.5, 73.06934525763151
408, 73.1623533039178
408.5, 73.22402507630667
409, 73.28101220751093
409.5, 73.37391639960408
410, 73.46525588150507
410.5, 73.61557755459137
411, 73.71353043123395
411.5, 73.81200675528834
412, 73.88267062524618
412.5, 73.96143279522063
413, 74.10170083159225
413.5, 74.22142492007035
414, 74.36090148629482
414.5, 74.45464750642728
415, 74.54856370655288
415.5, 74.63111573404294
416, 74.72963595387736
416.5, 74.81529374341264
417, 74.90801904140905
417.5, 75.00546778955439
418, 75.08801001570114
418.5, 75.19060401589232
419, 75.26101986079023
419.5, 75.33616077689305
420, 75.39290139795406
420.5, 75.45504602853465
421, 75.53133536775148
421.5, 75.61447459936717
422, 75.69477059453672
422.5, 75.76375539737556
423, 75.85735767308735
423.5, 75.93728878015143
424, 76.04987979674834
424.5, 76.11571429288027
425, 76.17704414261182
425.5, 76.26823849655008
426, 76.36979824765586
426.5, 76.50402377854377
427, 76.6159575048596
427.5, 76.75657837421653
428, 76.85876879823198
428.5, 76.98059781218433
429, 77.07077050460714
429.5, 77.1671633444621
430, 77.29215256929551
430.5, 77.42146686403733
431, 77.5297684855769
431.5, 77.61845227364876
432, 77.73123457458402
432.5, 77.82617237439506
433, 77.95713220286288
433.5, 78.04352628188141
434, 78.1303231477999
434.5, 78.24851454594557
435, 78.37002515916497
435.5, 78.48761164635765
436, 78.570011777945
436.5, 78.63493007530995
437, 78.71277755577438
437.5, 78.83349676925465
438, 78.92020024682198
438.5, 79.0171983684533
439, 79.0829500503863
439.5, 79.14843250015859
440, 79.2211677023245
440.5, 79.27958569283393
441, 79.35413729975976
441.5, 79.42785040468787
442, 79.529533643174
442.5, 79.60716519627739
443, 79.69467459679375
443.5, 79.76804681095992
444, 79.84328267887771
444.5, 79.94359989147213
445, 80.0193422281818
445.5, 80.10363278682452
446, 80.16831975898859
446.5, 80.24175545619093
447, 80.34585223883661
447.5, 80.47592768817447
448, 80.57555897997794
448.5, 80.66703805373444
449, 80.73149797535562
449.5, 80.7969275873238
450, 80.91865798583389
450.5, 81.01802415144925
451, 81.13706810826609
451.5, 81.20537403828642
452, 81.27438399755545
452.5, 81.3570214671752
453, 81.4374034051729
453.5, 81.52935225097066
454, 81.59669321247368
454.5, 81.67173779865338
455, 81.7331163492332
455.5, 81.80607192724077
456, 81.86787730670106
456.5, 81.93619677168532
457, 82.01169484302498
457.5, 82.07964513058319
458, 82.13505116962828
458.5, 82.17541803389432
459, 82.22225351591693
459.5, 82.270277527235
460, 82.3340088344053
460.5, 82.40825189261808
461, 82.49280690533689
461.5, 82.5604830473184
462, 82.61987751598483
462.5, 82.66620063770652
463, 82.70216337663362
463.5, 82.74914248325118
464, 82.78274055737236
464.5, 82.81878513749221
465, 82.86260980617566
465.5, 82.914300533725
466, 82.984083587031
466.5, 83.043427464423
467, 83.10832246704794
467.5, 83.15349006092643
468, 83.20046425748714
468.5, 83.23900226058285
469, 83.28398296142029
469.5, 83.30926329390807
470, 83.3341051735512
470.5, 83.34310421346802
471, 83.35200408368462
471.5, 83.37061748676061
472, 83.38519323493925
472.5, 83.40396635930337
473, 83.41946856644535
473.5, 83.4373414347631
474, 83.46651682772519
474.5, 83.50146042850476
475, 83.56335353901135
475.5, 83.62118955484371
476, 83.71452079643011
476.5, 83.78765268409674
477, 83.88162276504777
477.5, 83.93230076930422
478, 83.97627905945596
478.5, 84.00830110493703
479, 84.04181159438953
479.5, 84.07740606441902
480, 84.10372220916764
480.5, 84.12246267357189
481, 84.14047639279909
481.5, 84.1685826959132
482, 84.19197774165202
482.5, 84.21845552577358
483, 84.27068401852567
483.5, 84.33190121229693
484, 84.43909022334725
484.5, 84.52503686672844
485, 84.61880640507972
485.5, 84.68806191132619
486, 84.77236707905863
486.5, 84.84246498620313
487, 84.92159085718603
487.5, 84.97080865626552
488, 85.0212171029324
488.5, 85.08417084840374
489, 85.13208221390359
489.5, 85.17903550407645
490, 85.20785969301362
490.5, 85.23591348067741
491, 85.27676508608768
491.5, 85.32949045319005
492, 85.36267328789174
492.5, 85.39396151866302
493, 85.41213447563283
493.5, 85.42461093137544
494, 85.43407936145154
494.5, 85.43356457441855
495, 85.4241498686352
495.5, 85.39890986653684
496, 85.3638084827859
496.5, 85.31632823965705
497, 85.26457838690926
497.5, 85.18288199616485
498, 85.11875490159927
498.5, 85.04361995621764
499, 85.00756551340841
499.5, 84.98961064876121
500, 84.95051205407766
500.5, 84.89820870456758
501, 84.8340982623959
501.5, 84.76393354739476
502, 84.64515024612278
502.5, 84.52823549169257
503, 84.32191516619433
503.5, 84.19286080022741
504, 84.07415973366903
504.5, 83.9871903172168
505, 83.89189241479255
505.5, 83.72050207134208
506, 83.55671138665716
506.5, 83.40993993946157
507, 83.29921385378012
507.5, 83.16835882664027
508, 83.03431396361306
508.5, 82.85067805858252
509, 82.73488975114815
509.5, 82.61410213241987
510, 82.51544549453271
510.5, 82.40888299428987
511, 82.22503505714437
511.5, 82.07903101184577
512, 81.89121258545637
512.5, 81.76096028969951
513, 81.62464364780111
513.5, 81.50227493990471
514, 81.36581201429654
514.5, 81.18202071156641
515, 81.00615225293002
515.5, 80.80327524144604
516, 80.66862585257263
516.5, 80.54642411111037
517, 80.45584285573592
517.5, 80.35620340062525
518, 80.22447493350339
518.5, 80.07240276639261
519, 79.95442794358952
519.5, 79.84425428169456
520, 79.7238705714492
520.5, 79.62962525524256
521, 79.50728793673713
521.5, 79.44153332303203
522, 79.3880333585565
522.5, 79.28920106500892
523, 79.16887524490707
523.5, 79.01183229579738
524, 78.88088930765382
524.5, 78.75101612298052
525, 78.65146255722681
525.5, 78.52927947098992
526, 78.44417715403205
526.5, 78.35457162992432
527, 78.26393463886437
527.5, 78.16119360739542
528, 78.02937056027648
528.5, 77.91914536362164
529, 77.79816363606623
529.5, 77.70629106904192
530, 77.59356629163754
530.5, 77.51125126434115
531, 77.42200284628481
531.5, 77.35152642783301
532, 77.27393954094379
532.5, 77.15898548972577
533, 77.059409256516
533.5, 76.92879196871418
534, 76.83644485070171
534.5, 76.73310255231324
535, 76.66388786338591
535.5, 76.59305732123985
536, 76.52397959852486
536.5, 76.44499520403562
537, 76.30291173559597
537.5, 76.18816265327126
538, 76.06664275860342
538.5, 75.99612172297691
539, 75.93984304255495
539.5, 75.8710801710327
540, 75.78226301996071
540.5, 75.70300587054632
541, 75.62108137867197
541.5, 75.54927709674733
542, 75.49186316768102
542.5, 75.42626869604732
543, 75.38643732490326
543.5, 75.34905787853832
544, 75.27825638653124
544.5, 75.1808565125129
545, 75.10735111261734
545.5, 75.03793619079224
546, 75.01937232244761
546.5, 74.99289681633645
547, 74.91773993159892
547.5, 74.85581235576551
548, 74.7716377812476
548.5, 74.71271779972065
549, 74.65194765543535
549.5, 74.55010543160516
550, 74.44510986543074
550.5, 74.34548142913748
551, 74.26929419198349
551.5, 74.1856034879286
552, 74.10062034295179
552.5, 73.98008468200455
553, 73.89929704149054
553.5, 73.81112294186275
554, 73.75377711394624
554.5, 73.6937011642753
555, 73.60284261235684
555.5, 73.52701324124756
556, 73.42398412748275
556.5, 73.35674831650765
557, 73.29253985558472
557.5, 73.24547933355865
558, 73.19300363555897
558.5, 73.14487120921532
559, 73.08887103394684
559.5, 72.97036971403134
560, 72.87461178731441
560.5, 72.75248058828431
561, 72.6877389714879
561.5, 72.64247934181965
562, 72.58609862172572
562.5, 72.51669456003758
563, 72.48293470902406
563.5, 72.45274792347938
564, 72.434228417742
564.5, 72.40750985342541
565, 72.34214350891392
565.5, 72.27515089200121
566, 72.18334696294117
566.5, 72.11288067460578
567, 72.03527652459151
567.5, 71.99375651182555
568, 71.95093733795524
568.5, 71.88658788277755
569, 71.83811937256625
569.5, 71.78168391543265
570, 71.74951820028987
570.5, 71.72244683530549
571, 71.68635670186197
571.5, 71.64375441656675
572, 71.59361377725341
572.5, 71.54561783654422
573, 71.49019841350801
573.5, 71.44400272988004
574, 71.37832499985468
574.5, 71.32465254138458
575, 71.26109283912064
575.5, 71.23333609482494
576, 71.20796272804083
576.5, 71.21649413186711
577, 71.22434522559887
577.5, 71.23358562297295
578, 71.23835377083113
578.5, 71.23871193578981
579, 71.19926019593117
579.5, 71.1262306023621
580, 71.05070427738998
580.5, 70.96663535284777
581, 70.9224923479529
581.5, 70.88803941663296
582, 70.86029239142395
582.5, 70.85035288314303
583, 70.85964173562188
583.5, 70.87231120088201
584, 70.8904142906214
584.5, 70.88577740201109
585, 70.87635765518048
585.5, 70.84135877694203
586, 70.81094819429714
586.5, 70.77377753670105
587, 70.75399133522612
587.5, 70.7445215449186
588, 70.74197405241249
588.5, 70.742076289305
589, 70.74177617560721
589.5, 70.74308381990755
590, 70.76945777483238
590.5, 70.79219917242092
591, 70.82008153733427
591.5, 70.82256886202003
592, 70.7947034434718
592.5, 70.7393250827226
593, 70.65867415607536
593.5, 70.59457049593952
594, 70.5302586658412
594.5, 70.50332106320403
595, 70.4904063800933
595.5, 70.5091696644988
596, 70.53398797775611
596.5, 70.58082853198096
597, 70.61409722933405
597.5, 70.64937353953897
598, 70.66683783650357
598.5, 70.68101362497265
599, 70.66332096528517
599.5, 70.64807327912229
600, 70.62931445216131
600.5, 70.61482403930964
601, 70.59611537596587
601.5, 70.5747816075121
602, 70.5483720418745
602.5, 70.50217377476824
603, 70.45268265731931
603.5, 70.39869300203766
604, 70.36031239686166
604.5, 70.33204711883546
605, 70.29886262840871
605.5, 70.24277209077252
606, 70.2133114208899
606.5, 70.18745872398908
607, 70.16408544400898
607.5, 70.13444891804326
608, 70.05312051434042
608.5, 69.97804500947205
609, 69.85681005170993
609.5, 69.75761078456875
610, 69.63740107807672
610.5, 69.55671985420499
611, 69.4685874117224
611.5, 69.40393382561601
612, 69.33199066435844
612.5, 69.19582119094167
613, 69.08536702350953
613.5, 68.9450099481832
614, 68.84289050047224
614.5, 68.7325119967528
615, 68.61737661021915
615.5, 68.47761434657494
616, 68.37106787590913
616.5, 68.26329352468593
617, 68.12636001843609
617.5, 68.01886158909997
618, 67.88741759517393
618.5, 67.81069720223913
619, 67.74698685526188
619.5, 67.6751925616245
620, 67.58852761873028
620.5, 67.51381977525352
621, 67.44676966139647
621.5, 67.40984771413913
622, 67.3710693868248
622.5, 67.29604177146007
623, 67.24394384414958
623.5, 67.18919202626738
624, 67.18097458299566
624.5, 67.18093971454157
625, 67.13211728269482
625.5, 67.07903369894683
626, 66.98716098559015
626.5, 66.92227559667073
627, 66.85669271066877
627.5, 66.79365385594346
628, 66.71144046429174
628.5, 66.63533489495393
629, 66.55003734053872
629.5, 66.45808269073477
630, 66.370108751569
630.5, 66.2685868731357
631, 66.19452219872883
631.5, 66.11008375128333
632, 66.03612714902843
632.5, 65.94528023147707
633, 65.86751997347923
633.5, 65.78290245201875
634, 65.69847347087641
634.5, 65.6203413998071
635, 65.53707469700385
635.5, 65.48378474170624
636, 65.43687631625662
636.5, 65.38847555667226
637, 65.32505438617733
637.5, 65.27096072424848
638, 65.21171222294863
638.5, 65.16769993881424
639, 65.12715374844663
639.5, 65.062229940452
640, 65.01705142781262
640.5, 64.97000148770327
641, 64.94154805197223
641.5, 64.91478909663704
642, 64.88477736034862
642.5, 64.85089650060138
643, 64.81564666336953
643.5, 64.78551508957472
644, 64.74829793461987
644.5, 64.72238614109057
645, 64.69427866544466
645.5, 64.6605267827233
646, 64.61566519489821
646.5, 64.54865288103275
647, 64.47342491905249
647.5, 64.4025052238203
648, 64.34763795818782
648.5, 64.30093063079745
649, 64.26114243580946
649.5, 64.2048700832273
650, 64.15841857579672
650.5, 64.10505697043554
651, 64.07244825164912
651.5, 64.03785876350179
652, 63.98450709202049
652.5, 63.941310599735516
653, 63.894510059114765
653.5, 63.858209631248265
654, 63.81138793980151
654.5, 63.76147106194758
655, 63.699407482411196
655.5, 63.64416598049423
656, 63.58534171361793
656.5, 63.51368806808604
657, 63.45603505486001
657.5, 63.39044462101528
658, 63.35344767845633
658.5, 63.32518268362798
659, 63.33008460492829
659.5, 63.34819211994547
660, 63.357053836623
660.5, 63.363150166339004
661, 63.34525292374829
661.5, 63.32814428466682
662, 63.30002905360887
662.5, 63.29292430175508
663, 63.30216581239954
663.5, 63.32157175638926
664, 63.3479700309334
664.5, 63.36501170720319
665, 63.37728685118297
665.5, 63.350238580603026
666, 63.31923601564677
666.5, 63.25389664490445
667, 63.204609822481366
667.5, 63.149216587095346
668, 63.121500271565374
668.5, 63.0949994270303
669, 63.079020730126274
669.5, 63.05796283456043
670, 62.99442321773045
670.5, 62.93833450932505
671, 62.854306633541654
671.5, 62.781377672672484
672, 62.689125354972006
672.5, 62.63114661168437
673, 62.56990406463909
673.5, 62.51313182597701
674, 62.45316939581193
674.5, 62.36203314671849
675, 62.30043571334163
675.5, 62.25317752831191
676, 62.24537140761924
676.5, 62.26433944189015
677, 62.28602764265948
677.5, 62.31199520543133
678, 62.34438912132433
678.5, 62.38011540626566
679, 62.444161479255136
679.5, 62.487936193275665
680, 62.52561516960201
680.5, 62.54283434114131
681, 62.55171616581225
681.5, 62.571994778937295
682, 62.59774360926194
682.5, 62.62261626227677
683, 62.6467269843835
683.5, 62.67431864141973
684, 62.69369270798196
684.5, 62.712718008217394
685, 62.7048373287355
685.5, 62.67704219004947
686, 62.653816098381846
686.5, 62.628135284341276
687, 62.628743919048965
687.5, 62.62179228113257
688, 62.575668341577384
688.5, 62.53601643243329
689, 62.4794383249574
689.5, 62.46215314097793
690, 62.462701942901546
690.5, 62.4761024509972
691, 62.492925540768546
691.5, 62.501676795554026
692, 62.50519349120262
692.5, 62.486651416242964
693, 62.466180792134104
693.5, 62.4286568410907
694, 62.39793613764321
694.5, 62.36179667800151
695, 62.34385012496021
695.5, 62.32801816616383
696, 62.353854172391095
696.5, 62.377028763842674
697, 62.40480747942126
697.5, 62.41769845504349
698, 62.417782341344726
698.5, 62.41282283699514
699, 62.40370496445028
699.5, 62.42283792819869
700, 62.449540428542264
700.5, 62.51083197679388
701, 62.55921333114128
701.5, 62.59639547643741
702, 62.61643603784781
702.5, 62.626040382215955
703, 62.60759894238422
703.5, 62.57136308328611
704, 62.52571406334435
704.5, 62.47702904714291
705, 62.45902984307764
705.5, 62.446112137670724
706, 62.43681438806281
706.5, 62.4359911461366
707, 62.445280313801284
707.5, 62.46365666666945
708, 62.490581949202834
708.5, 62.47889895768807
709, 62.46017039834219
709.5, 62.40697044305045
710, 62.36542535736845
710.5, 62.32801677806738
711, 62.305667611022024
711.5, 62.28685908715357
712, 62.2768159367038
712.5, 62.26808698884154
713, 62.260194011828595
713.5, 62.25187972751108
714, 62.24288142974342
714.5, 62.23349914869349
715, 62.21472271755016
715.5, 62.19661079201814
716, 62.16854029090502
716.5, 62.145175646995476
717, 62.11882613324013
717.5, 62.1020531892963
718, 62.08770837874628
718.5, 62.096566129919516
719, 62.104226696433486
719.5, 62.113589150988204
720, 62.113501457192484
720.5, 62.10420559113153
721, 62.09064518954468
721.5, 62.073047712365266
722, 62.07957649399211
722.5, 62.089376695313035
723, 62.11645949615426
723.5, 62.13860978182512
724, 62.16653123685003
724.5, 62.19351168166428
725, 62.23056944803006
725.5, 62.25492021578379
726, 62.281391148873446
726.5, 62.28307763203914
727, 62.277504574877135
727.5, 62.22306424595113
728, 62.17173053484849
728.5, 62.08739020057705
729, 62.035631426205036
729.5, 61.989884035991075
730, 61.98830070662991
730.5, 61.996762224786984
731, 62.04425925051511
731.5, 62.0949159093792
732, 62.16784775122827
732.5, 62.216953619440595
733, 62.25460813192571
733.5, 62.272144984647774
734, 62.28107308017924
734.5, 62.27615671369928
735, 62.267634050840385
735.5, 62.22702030966996
736, 62.18791889965807
736.5, 62.15129903355252
737, 62.13214361736235
737.5, 62.131879718459096
738, 62.149893098406366
738.5, 62.18684134525801
739, 62.23032582209315
739.5, 62.28191918777223
740, 62.31568671060402
740.5, 62.3428381112844
741, 62.34294520807279
741.5, 62.345069342817695
742, 62.35423113400782
742.5, 62.38051853969442
743, 62.42644014778931
743.5, 62.471687941641655
744, 62.52283806936089
744.5, 62.573251577848765
745, 62.618482600829914
745.5, 62.65543280605946
746, 62.68151482053395
746.5, 62.70972935689223
747, 62.727907388704224
747.5, 62.745979141062726
748, 62.73484559271245
748.5, 62.717961086434244
749, 62.68382170071853
749.5, 62.656508435421486
750, 62.64724137308562
750.5, 62.64324900453865
751, 62.643320685884795
751.5, 62.63341866838989
752, 62.6151683293606
752.5, 62.59932272060872
753, 62.58331172149898
753.5, 62.600574288573604
754.0000000000001, 62.620470763209454
754.5, 62.666867136219295
755, 62.70036585455781
755.5, 62.73797190028776
756, 62.76388523150757
756.5, 62.79069039465717
757, 62.855122137824864
757.5, 62.9304890891056
758, 62.992185303280515
758.5, 63.035294633501216
759, 63.04469461683424
759.5, 63.06454578464595
760, 63.11127702156491
760.5000000000001, 63.17084671523209
761, 63.25167782541927
761.5, 63.32223516960904
762, 63.39665314103335
762.5, 63.4501261340606
763, 63.49650632448141
763.5, 63.561808060735785
764, 63.60288364636319
764.5, 63.64045966739911
765, 63.67164757750456
765.5, 63.70711949109787
766, 63.781490889778276
766.5, 63.864392224291045
767, 63.944701168090624
767.5, 64.00821664174244
768, 64.07381410041393
768.5, 64.13545084210706
769, 64.2292478307549
769.5, 64.27929573592598
770, 64.32293866463996
770.5000000000001, 64.36166182918714
771, 64.40768152617083
771.5, 64.51492576520411
772, 64.60485373909452
772.5, 64.71749059765379
773, 64.8154908089544
773.5, 64.9558570228986
774, 65.07841610550352
774.5, 65.21900261428382
775, 65.31655556186936
775.5, 65.4165129753607
776, 65.53366004115227
776.5, 65.62798636991067
777, 65.74067070526992
777.5, 65.80560059413344
778, 65.86180737629188
778.5, 65.91468354269107
779, 65.9757936111068
779.5, 66.03927000434209
780, 66.10745891862439
780.5000000000001, 66.20706746691513
781, 66.29465066192611
781.5, 66.4255795398127
782, 66.51206110906467
782.5, 66.5948618025248
783, 66.65685550165134
783.5, 66.72728951517956
784, 66.76834460331705
784.5, 66.81304054565705
785, 66.89484850238878
785.5, 66.9657776551129
786, 67.06894360554196
786.5, 67.12783155397736
787.0000000000001, 67.17342071752536
787.5, 67.26561913348783
788, 67.3875917780559
788.5, 67.50285699798711
789, 67.60711733135439
789.5, 67.65334178622419
790, 67.710530438942
790.5, 67.84148457319884
791, 67.94824847108856
791.5, 68.07682067335709
792, 68.11581900801936
792.5, 68.14207278027457
793, 68.19121599958119
793.5, 68.23726389961806
794, 68.27396319289976
794.5, 68.2977635049765
795, 68.31641843072106
795.5, 68.34067084946642
796, 68.37745216048857
796.5, 68.3701162239012
797.0000000000001, 68.35314841308396
797.5, 68.31987103727954
798, 68.29032165457562
798.5, 68.27186673363046
799, 68.25756678930377
799.5, 68.23885901912567
800, 68.21890218387475
800.5, 68.19147114270311
801.0000000000001, 68.18146446964944
801.5, 68.17266934393334
802, 68.23115496532454
802.5, 68.28965063390127
803, 68.37265772541514
803.5000000000001, 68.42696315662413
804.0000000000001, 68.4740345349226
804.5000000000001, 68.50283674326792
805, 68.52987618956205
805.5, 68.53316791390995
806, 68.53321072558522
806.5, 68.52497373166531
807.0000000000001, 68.51404319969338
807.5000000000001, 68.48624363487285
808, 68.4612443400469
808.5, 68.4234948430866
809, 68.41748521817954
809.5, 68.42698545782783
810, 68.4416771882556
810.5000000000001, 68.45816733146022
811.0000000000001, 68.45809822656395
811.5, 68.44615725129735
812, 68.37176183920741
812.5, 68.29804268244726
813, 68.17592034132885
813.5000000000001, 68.09605320192117
814.0000000000001, 68.01560731488838
814.5000000000001, 67.93900055898631
815, 67.85468997407364
815.5, 67.7754796284959
816, 67.72045091203108
816.5, 67.71115707249075
817.0000000000001, 67.70711829932597
817.5000000000001, 67.70723377201634
818, 67.68627068712226
818.5, 67.65012012722053
819, 67.6263826030409
819.5, 67.59885262035749
820.0000000000001, 67.5281715756506
820.5000000000001, 67.46433982261244
821.0000000000001, 67.37099492388406
821.5, 67.30471891724963
822, 67.22960858747379
822.5, 67.17296816304236
823, 67.11087329400864
823.5000000000001, 67.06327523639231
824.0000000000001, 67.0119919381
824.5, 66.94069949025189
825, 66.87904328935151
825.5, 66.79496788719473
826, 66.7604231834777
826.5, 66.76023359899582
827.0000000000001, 66.76546148551165
827.5000000000001, 66.77452043454814
828, 66.71681998617494
828.5, 66.64995564463727
829, 66.56908754841656
829.5, 66.49040957212493
830.0000000000001, 66.3497241241708
830.5000000000001, 66.24458370841167
831.0000000000001, 66.11358409029027
831.5, 65.97592807161767
832, 65.80868043952458
832.5, 65.66315664671268
833, 65.52487681749189
833.5000000000001, 65.48793162060666
834.0000000000001, 65.44920597223478
834.5, 65.3646574704135
835, 65.30273440905239
835.5, 65.2278679965574
836, 65.18822125519357
836.5000000000001, 65.15404622513898
837.0000000000001, 65.00751778061039
837.5000000000001, 64.85372503756794
838, 64.69991104379703
838.5, 64.60117150103797
839, 64.55463086988573
839.5, 64.50400202772704
840.0000000000001, 64.42982793115058
840.5000000000001, 64.38093220585444
841.0000000000001, 64.32814230748274
841.5, 64.27176120406779
842, 64.21465791873152
842.5, 64.15097098065286
843, 64.10235143813334
843.5000000000001, 64.04670147200446
844.0000000000001, 63.97113539216899
844.5, 63.850777261738315
845, 63.733536947427694
845.5, 63.59395684050756
846, 63.46276208071809
846.5000000000001, 63.33816966858965
847.0000000000001, 63.23754652915892
847.5000000000001, 63.16562176611077
848, 63.0915929120055
848.5, 62.964652672124586
849, 62.75219587016962
849.5, 62.55757160471547
850.0000000000001, 62.33214919708345
850.5000000000001, 62.20715501740225
851, 62.08453986702287
851.5, 61.937676628573776
852, 61.81343948665344
852.5, 61.635086617164795
853.0000000000001, 61.51676774370234
853.5000000000001, 61.39837708706648
854.0000000000001, 61.32405899100825
854.5, 61.24651122581729
855, 61.196758225505114
855.5, 61.145890060100264
856, 61.07214114570715
856.5000000000001, 61.000527891796246
857.0000000000001, 60.87845306225297
857.5000000000001, 60.797232931102215
858, 60.715646851871846
858.5, 60.58098489482161
859, 60.41938266013282
859.5, 60.242208227563786
860.0000000000001, 60.0909701037456
860.5000000000001, 60.00762937052318
861, 59.94079321838256
861.5, 59.8470975069222
862, 59.75590787573371
862.5, 59.63771036505431
863.0000000000001, 59.556588527508815
863.5000000000001, 59.47218441331676
864.0000000000001, 59.42072267108676
864.5, 59.38486865615106
865, 59.40337530860652
865.5, 59.424462381207604
866, 59.462155750589524
866.5000000000001, 59.47317064689063
867.0000000000001, 59.472767634901565
867.5000000000001, 59.49255396436405
868, 59.51858713886325
868.5, 59.5622943352863
869, 59.6032388329391
869.5, 59.668196046508115
870.0000000000001, 59.71354663851089
870.5000000000001, 59.76074524750044
871, 59.76878131872585
871.5, 59.75919302754932
872, 59.76481757345102
872.5, 59.77394849516402
873.0000000000001, 59.800312106998895
873.5000000000001, 59.82627952574646
874.0000000000001, 59.872894265189615
874.5, 59.915983731188845
875, 59.98181743977765
875.5, 60.009548723154346
876, 60.026972985377434
876.5000000000001, 60.000285417146024
877.0000000000001, 59.967725746038965
877.5, 59.94998216990058
878, 59.94377608632704
878.5, 59.97199082929245
879, 60.02637292941245
879.5000000000001, 60.147889933162844
880.0000000000001, 60.296981179548006
880.5000000000001, 60.493401179990805
881, 60.60985884688727
881.5, 60.72328673375062
882, 60.78640356354467
882.5, 60.84894402273893
883.0000000000001, 60.97060677141238
883.5000000000001, 61.0591766758701
884.0000000000001, 61.16266476547821
884.5, 61.164930316394674
885, 61.12811697319152
885.5, 61.059092098541406
886, 60.98836549478924
886.5000000000001, 60.96117781422726
887.0000000000001, 60.94528462639575
887.5, 60.94534386365245
888, 60.95900979522091
888.5, 60.99619352832207
889, 61.084575322804696
889.5000000000001, 61.2082795739897
890.0000000000001, 61.402419397212604
890.5000000000001, 61.606218033772464
891, 61.80457764711515
891.5, 61.948799048978394
892, 62.07122046715225
892.5, 62.19958282960574
893.0000000000001, 62.40508393076999
893.5000000000001, 62.57101441511595
894.0000000000001, 62.75413360971398
894.5, 62.80827632492413
895, 62.859652969624776
895.5, 62.93217889873306
896.0000000000001, 62.9994897638548
896.5000000000001, 63.111235000571675
897.0000000000001, 63.21519800217481
897.5, 63.35407602424957
898, 63.48530263959104
898.5, 63.64351873507452
899, 63.75061662198633
899.5000000000001, 63.855858352581905
900.0000000000001, 63.96493561251648
900.5000000000001, 64.03450313034512
901, 64.07208260842165
901.5, 64.09449580198401
902, 64.1127592501248
902.5, 64.18231518664271
903.0000000000001, 64.2780871576618
903.5000000000001, 64.35205100772434
904, 64.4251731005165
904.5, 64.50755429884168
905, 64.58292042654158
905.5, 64.70480824584297
906.0000000000001, 64.78664866574535
906.5000000000001, 64.86893456051959
907.0000000000001, 64.91902374867611
907.5, 64.97110030897977
908, 65.0120732205091
908.5, 65.05599409328246
909, 65.12943221186356
909.5000000000001, 65.19806617495193
910.0000000000001, 65.31064657885024
910.5000000000001, 65.3890140994705
911, 65.4710541321873
911.5, 65.55925481903617
912, 65.66229936591301
912.5000000000001, 65.75435230732286
913.0000000000001, 65.83512823316246
913.5000000000001, 65.88149243091732
914, 65.9384059980525
914.5, 66.06014611812361
915, 66.16897959643848
915.5, 66.30580772118344
916.0000000000001, 66.38288147980785
916.5000000000001, 66.4596807829338
917.0000000000001, 66.55964369790945
917.5, 66.66246220933235
918, 66.81952779733955
918.5, 66.9516014187284
919, 67.13954666547014
919.5000000000001, 67.26423079216306
920.0000000000001, 67.39063966800842
920.5000000000001, 67.47270969323975
921, 67.55714820143332
921.5, 67.61664030241229
922, 67.66641057214149
922.5000000000001, 67.69424160425476
923.0000000000001, 67.71534280527254
923.5000000000001, 67.74329481983861
924, 67.79128062383559
924.5, 67.8639329537242
925, 67.95232935500209
925.5, 68.05478891712646
926.0000000000001, 68.16860442626091
926.5000000000001, 68.26408759133184
927.0000000000001, 68.36623724796632
927.5, 68.4465831268054
928, 68.54981833929855
928.5, 68.63971708158574
929.0000000000001, 68.74759947055621
929.5000000000001, 68.81344234210724
930.0000000000001, 68.88056436406073
930.5, 68.93357310904938
931, 68.97380446404512
931.5, 69.00181653264058
932, 69.03330877904173
932.5000000000001, 69.08957331784745
933.0000000000001, 69.13592203894189
933.5000000000001, 69.18951990559653
934, 69.2288072011659
934.5, 69.27317218186117
935, 69.36155333738705
935.5, 69.43525615551695
936.0000000000001, 69.51930501721077
936.5000000000001, 69.58158206989786
937.0000000000001, 69.65664238476923
937.5, 69.71872158745624
938, 69.78974895285211
938.5, 69.85934490183458
939.0000000000001, 69.93672368201501
939.5000000000001, 70.05244309327624
940.0000000000001, 70.14436841129468
940.5, 70.23803502241869
941, 70.31422532549021
941.5, 70.41725606118
942, 70.51379510079563
942.5000000000001, 70.62880988970232
943.0000000000001, 70.6956868633119
943.5000000000001, 70.75899089480991
944, 70.78604267923838
944.5, 70.79622371068331
945, 70.7681756122839
945.5000000000001, 70.76057323995978
946.0000000000001, 70.76978440868139
946.5000000000001, 70.80022599309662
947.0000000000001, 70.84457854885923
947.5, 70.84690797842812
948, 70.84858435110965
948.5, 70.86675194138445
949.0000000000001, 70.89834947442542
949.5000000000001, 70.99230637581127
950.0000000000001, 71.06432498835149
950.5, 71.1576864938227
951, 71.2885895518573
951.5, 71.45509178354254
952, 71.59399859056182
952.5000000000001, 71.72249091238203
953.0000000000001, 71.75952496470461
953.5000000000001, 71.80286405728351
954, 71.90558695634006
954.5, 71.98164400093896
955, 72.06469325425128
955.5000000000001, 72.23316924053175
956.0000000000001, 72.46109595515361
956.5000000000001, 72.69016689789675
957, 72.89465901030077
957.5, 72.9230215592047
958, 72.9499138644079
958.5, 73.00634633817576
959.0000000000001, 73.02665588649094
959.5000000000001, 73.02615938067937
960.0000000000001, 73.00804028159095
960.5, 72.98176432250243
961, 73.02914266502233
961.5, 73.07328049334436
962.0000000000001, 73.09148554893406
962.5000000000001, 73.08625293819935
963.0000000000001, 73.02980881115522
963.5000000000001, 73.01050787592796
964, 73.01101099391545
964.5, 73.06706577717742
965, 73.14473583509192
965.5000000000001, 73.21805908348894
966.0000000000001, 73.2988931573367
966.5000000000001, 73.44551410582697
967, 73.55769883409285
967.5, 73.68936769056883
968, 73.76036562234565
968.5, 73.8145290724356
969.0000000000001, 73.84169384361336
969.5000000000001, 73.86725742116475
970.0000000000001, 73.99091317414387
970.5, 74.11357120271529
971, 74.26993501062292
971.5, 74.37461370619208
972.0000000000001, 74.46834765242492
972.5000000000001, 74.5592395089345
973.0000000000001, 74.67788674254825
973.5000000000001, 74.79146131191725
974, 74.91930941444568
974.5, 75.00406589204079
975, 75.0702277493885
975.5000000000001, 75.07048713323755
976.0000000000001, 75.08334883748704
976.5000000000001, 75.12992916212406
977, 75.19729431638135
977.5, 75.29756474201105
978, 75.41003079832966
978.5, 75.53659426690308
979.0000000000001, 75.66341756329045
979.5000000000001, 75.78128358364548
980.0000000000001, 75.91112467378636
980.5, 76.0240283583234
981, 76.19308307331806
981.5, 76.3164486592717
982.0000000000001, 76.4515987501802
982.5000000000001, 76.48058675093334
983.0000000000001, 76.49635890401328
983.5, 76.46177582182531
984, 76.4295165295903
984.5, 76.38325044586404
985, 76.3703949344206
985.5000000000001, 76.39791287356823
986.0000000000001, 76.49243357141142
986.5000000000001, 76.64647475724013
987, 76.74476295455584
987.5, 76.8446786333697
988, 76.90711729489125
988.5000000000001, 76.97366596384016
989.0000000000001, 77.12270035977517
989.5000000000001, 77.23663561134396
990.0000000000001, 77.37776134214121
990.5, 77.44124869008249
991, 77.48486701447874
991.5, 77.53733908991529
992.0000000000001, 77.59797450872497
992.5000000000001, 77.69532596519458
993.0000000000001, 77.77640598672194
993.5, 77.86978609601341
994, 77.93631778815308
994.5, 78.01153376536683
995, 78.04656518274611
995.5000000000001, 78.07268494000975
996.0000000000001, 78.09576763036583
996.5000000000001, 78.12305502109888
997, 78.18533596504648
997.5, 78.23980554931249
998, 78.31477581905753
998.5000000000001, 78.38301481134476
999.0000000000001, 78.48591187768761
999.5000000000001, 78.60467876062293
1000.0000000000001, 78.75538242081123
1000.5, 78.85418346944805
1001, 78.94938181994972
1001.5, 78.99473799109519
1002.0000000000001, 79.03518981589492
1002.5000000000001, 79.10087102201916
1003.0000000000001, 79.151897357138
1003.5, 79.21746061120848
1004, 79.2607250466414
1004.5, 79.30431932388736
1005.0000000000001, 79.35902156410008
1005.5000000000001, 79.41747432917494
1006.0000000000001, 79.48958838610471
1006.5000000000001, 79.5468967010673
1007, 79.6127677685865
1007.5, 79.67499823221587
1008, 79.76842516606943
1008.5000000000001, 79.84074932850784
1009.0000000000001, 79.91908567993573
1009.5000000000001, 79.96065925568655
1010, 80.00351614963621
1010.5, 80.06699898138976
1011, 80.12700187033424
1011.5, 80.22943019268905
1012.0000000000001, 80.32582648259508
1012.5000000000001, 80.45543721999604
1013.0000000000001, 80.5910107261387
1013.5, 80.75784850336842
1014, 80.88220331429926
1014.5, 80.99213619603493
1015.0000000000001, 81.01055848267669
1015.5000000000001, 80.99886509430084
1016.0000000000001, 80.91462975606059
1016.5000000000001, 80.8590437627585
1017, 80.80403583591705
1017.5, 80.85563977191775
1018, 80.94222779805983
1018.5000000000001, 81.08803002982653
1019.0000000000001, 81.22850876324631
1019.5000000000001, 81.34759818350174
1020, 81.44678298891398
1020.5, 81.58724979389154
1021, 81.6974613095679
1021.5000000000001, 81.8258740827139
1022.0000000000001, 81.88324243595858
1022.5000000000001, 81.93541690086064
1023.0000000000001, 81.98406035468304
1023.5, 82.0407001687948
1024, 82.15980422885549
1024.5, 82.25011567124103
1025, 82.35361483565504
1025.5, 82.40626718955129
1026, 82.44220829553338
1026.5, 82.49823782183945
1027, 82.56686676576157
1027.5, 82.61624049636198
1028, 82.67093008784659
1028.5, 82.77226289011259
1029, 82.86370963484708
1029.5, 83.00502059063601
1030, 83.05917997663931
1030.5, 83.07621325646507
1031, 83.07867380495591
1031.5, 83.07843279264085
1032, 83.18746622391494
1032.5, 83.29373399860664
1033, 83.43210708889096
1033.5, 83.51550094428723
1034, 83.57179378400743
1034.5, 83.63268472053933
1035, 83.71449901900888
1035.5, 83.83807319246242
1036, 83.98130372619698
1036.5, 84.1169390473985
1037, 84.23815163614847
1037.5, 84.3492648044436
1038, 84.4183570498708
1038.5, 84.47497904618663
1039, 84.49631222515316
1039.5, 84.50487790409386
1040, 84.48523782605841
1040.5, 84.46091699774169
1041, 84.46952778477059
1041.5, 84.48635352043252
1042, 84.55135141416845
1042.5, 84.59864010513242
1043, 84.65453897227842
1043.5, 84.76228578461368
1044, 84.92502793771145
1044.5, 85.06640443870712
1045, 85.21317038016586
1045.5, 85.24064689792165
1046, 85.25209957894562
1046.5, 85.22386936854252
1047, 85.16020949128067
1047.5, 85.01006224114371
1048, 84.91862543799466
1048.5, 84.82968731644607
1049, 84.9341546146605
1049.5, 85.06788267656897
1050, 85.20973357603694
1050.5, 85.31592374066636
1051, 85.39076756059876
1051.5, 85.46288367901477
1052, 85.57553865843217
1052.5, 85.63597953637162
1053, 85.68867979001033
1053.5, 85.69969602494282
1054, 85.70930964403658
1054.5, 85.73597927700057
1055, 85.75861797492009
1055.5, 85.78687179301848
1056, 85.83620642372853
1056.5, 85.93905313128968
1057, 86.04663507202532
1057.5, 86.17948084984772
1058, 86.24767010848798
1058.5, 86.310313189921
1059, 86.32850654451175
1059.5, 86.33490993304233
1060, 86.31600623027919
1060.5, 86.2726678475317
1061, 86.17921908421374
1061.5, 86.10129986853187
1062, 86.01361216201002
1062.5, 85.94868583864236
1063, 85.88341272411856
1063.5, 85.8203478647131
1064, 85.78106441114369
1064.5, 85.77157262698685
1065, 85.75322962352608
1065.5, 85.71595389270787
1066, 85.66121092228379
1066.5, 85.59112905689143
1067, 85.52667174136367
1067.5, 85.46193151591234
1068, 85.39848387668712
1068.5, 85.35318828983483
1069, 85.31497392992165
1069.5, 85.33805959715016
1070, 85.42227670090978
1070.5, 85.57348478238163
1071, 85.77521277027247
1071.5, 85.90852522344203
1072, 86.02760520987762
1072.5, 86.06431438594608
1073, 86.076624341877
1073.5, 86.04876029982091
1074, 86.01740224325034
1074.5, 85.97118739977986
1075, 85.9266891262688
1075.5, 85.87465285408919
1076, 85.72920859214854
1076.5, 85.59325472323371
1077, 85.51099290127334
1077.5, 85.47762859257696
1078, 85.51512707579604
1078.5, 85.53225372938951
1079, 85.54118298786058
1079.5, 85.51744336884366
1080, 85.48315415379447
1080.5, 85.38558467775839
1081, 85.28669940969412
1081.5, 85.15854455840353
1082, 85.08926337644547
1082.5, 85.07931536960143
1083, 85.10761793065218
1083.5, 85.17234248896028
1084, 85.17540749380302
1084.5, 85.16706300421062
1085, 85.15921057111477
1085.5, 85.14603535966079
1086, 85.100093761026
1086.5, 85.06831872607918
1087, 85.03960054777248
1087.5, 85.06811146862619
1088, 85.14194185064841
1088.5, 85.21053364918025
1089, 85.2872241754013
1089.5, 85.32153122232448
1090, 85.34236872622134
1090.5, 85.3053686953782
1091, 85.25906966192079
1091.5, 85.16533593642376
1092, 85.08376249313085
1092.5, 84.98396193126926
1093, 84.91167085967435
1093.5, 84.83571222678643
1094, 84.76777224381654
1094.5, 84.70869632770817
1095, 84.6624226009421
1095.5, 84.6386359765579
1096, 84.629482321926
1096.5, 84.58682309752874
1097, 84.51401334909094
1097.5, 84.4315619294344
1098, 84.33935463092486
1098.5, 84.28629172200205
1099, 84.24140225966319
1099.5, 84.1856173648062
1100, 84.1355523735989
1100.5, 84.06040469138384
1101, 84.00890981516508
1101.5, 83.95527111093342
1102, 83.90199679553727
1102.5, 83.84243489351077
1103, 83.77196866514436
1103.5, 83.71649356516379
1104, 83.66992069630862
1104.5, 83.63642008127464
1105, 83.59876492808961
1105.5, 83.58364193689529
1106, 83.57500909119105
1106.5, 83.57447675620418
1107, 83.5735309404062
1107.5, 83.55611327842584
1108, 83.55304792515156
1108.5, 83.59987543466133
1109, 83.65631302549257
1109.5, 83.75943671481028
1110, 83.83375742309379
1110.5, 83.91347653413793
1111, 83.94973796193082
1111.5, 83.97591475047066
1112, 83.8959136585704
1112.5, 83.79998604996713
1113, 83.57538616359616
1113.5, 83.42436468946717
1114, 83.26460660795796
1114.5, 83.21016097157023
1115, 83.18519871484276
1115.5, 83.14736357096075
1116, 83.10330317458268
1116.5, 83.0227814884511
1117, 82.96146170035176
1117.5, 82.90521067701734
1118, 82.87640345929961
1118.5, 82.85772854619927
1119, 82.80195450295196
1119.5, 82.72240532637977
1120, 82.62001407202656
1120.5, 82.51673487597321
1121, 82.44443028869183
1121.5, 82.39818577534918
1122, 82.37939902751242
1122.5, 82.37614340771816
1123, 82.38545303274473
1123.5, 82.38137352463458
1124, 82.3725588527973
1124.5, 82.31830258680706
1125, 82.26371889349046
1125.5, 82.2276330034434
1126, 82.22474036685263
1126.5, 82.29965238998852
1127, 82.3398373500363
1127.5, 82.36713841336118
1128, 82.33644957636017
1128.5, 82.28401805431943
1129, 82.23736392426193
1129.5, 82.1709790670797
1130, 81.9528638542755
1130.5, 81.76183470513598
1131, 81.48083801755438
1131.5, 81.28997340712365
1132, 81.09735403938845
1132.5, 80.97434941894758
1133, 80.84325914319862
1133.5, 80.78412362448438
1134, 80.72817197124112
1134.5, 80.6731007200673
1135, 80.61488599231134
1135.5, 80.50247485315255
1136, 80.41970741009175
1136.5, 80.32811436392694
1137, 80.30746919583952
1137.5, 80.29873094932353
1138, 80.22685283387153
1138.5, 80.14143193289976
1139, 79.95799499261017
1139.5, 79.80371251378817
1140, 79.58767241242282
1140.5, 79.45265228840054
1141, 79.3254564389442
1141.5, 79.30104731798824
1142, 79.29193599020182
1142.5, 79.33332963008193
1143, 79.37193324940507
1143.5, 79.40854228709806
1144, 79.40836087524023
1144.5, 79.34312955225552
1145, 79.26137811105686
1145.5, 79.14250541582793
1146, 79.02846790402555
1146.5, 78.90097022231359
1147, 78.72350107794253
1147.5, 78.57142329170291
1148, 78.47900904368579
1148.5, 78.42733728495314
1149, 78.39927230096058
1149.5, 78.35677128709742
1150, 78.29296894646335
1150.5, 78.2381125587847
1151, 78.17845085776621
1151.5, 78.04247950796803
1152, 77.92167160944678
1152.5, 77.81072117297738
1153, 77.76513314007
1153.5, 77.78346480198735
1154, 77.82821433363073
1154.5, 77.90106384168429
1155, 77.84944083842224
1155.5, 77.77102688839197
1156, 77.6228971313302
1156.5, 77.51146665366501
1157, 77.46491002071517
1157.5, 77.41314805964731
1158, 77.31956524332232
1158.5, 77.21172161378935
1159, 77.06754905177166
1159.5, 76.96245263686326
1160, 76.85769619454344
1160.5, 76.86558392272264
1161, 76.8824010912189
1161.5, 76.93809953476057
1162, 76.95008561536822
1162.5, 76.9129103832865
1163, 76.8498444714464
1163.5, 76.76025813602064
1164, 76.50599546818322
1164.5, 76.2141314610894
1165, 75.93055250285514
1165.5, 75.7464212781195
1166, 75.74645343342078
1166.5, 75.76264541900282
1167, 75.80947732861438
1167.5, 75.84279038147446
1168, 75.8781764416034
1168.5, 75.91027493393281
1169, 75.94024429868922
1169.5, 75.92255311110145
1170, 75.89408681193221
1170.5, 75.80966920289593
1171, 75.71967509275117
1171.5, 75.56978372395379
1172, 75.46764410542143
1172.5, 75.36224621797535
1173, 75.26731939854233
1173.5, 75.16712705584561
1174, 75.05059459364071
1174.5, 74.96768508206007
1175, 74.91133425300075
1175.5, 74.86801606919258
1176, 74.81198044932876
1176.5, 74.72495187624804
1177, 74.61039321881199
1177.5, 74.46798753819701
1178, 74.3273779570345
1178.5, 74.2548087322409
1179, 74.20902948188736
1179.5, 74.19022197246588
1180, 74.18289539142411
1180.5, 74.18281735701223
1181, 74.20006003902827
1181.5, 74.22673761406499
1182, 74.13968887223609
1182.5, 74.01397020242565
1183, 73.61626163677131
1183.5, 73.29204091784042
1184, 72.88894269562091
1184.5, 72.66770181697703
1185, 72.51278140026677
1185.5, 72.45577761835425
1186, 72.41163579400832
1186.5, 72.33959315183034
1187, 72.26833548251037
1187.5, 72.20477596715773
1188, 72.17946000893517
1188.5, 72.21738335357443
1189, 72.20508321520614
1189.5, 72.14901416465524
1190, 72.0787571374278
1190.5, 71.99168075929556
1191, 71.92569514814213
1191.5, 71.86189173658939
1192, 71.79799809509714
1192.5, 71.76389089489524
1193, 71.76364684630502
1193.5, 71.77682241611801
1194, 71.80460278745343
1194.5, 71.84638548249625
1195, 71.89816478646792
1195.5, 71.9564370834456
1196, 72.00569052614796
1196.5, 72.01480282949976
1197, 71.99893928226278
1197.5, 71.9243782406756
1198, 71.8355831905108
1198.5, 71.70714217483413
1199, 71.50359715699447
1199.5, 71.25500912081685
1200, 71.08798636510355
1200.5, 70.93111096306323
1201, 70.77434171622298
1201.5, 70.64549815253726
1202, 70.4667858499885
1202.5, 70.3679864019697
1203, 70.2869912233926
1203.5, 70.22412026960698
1204, 70.15600766222698
1204.5, 70.10597446510147
1205, 70.0551757056415
1205.5, 69.9812490275816
1206, 69.92337713112478
1206.5, 69.84842448613385
1207, 69.77250607504263
1207.5, 69.67253747420926
1208, 69.62026520655964
1208.5, 69.56951567282645
1209, 69.51933200594655
1209.5, 69.46403090051366
1210, 69.36218168508172
1210.5, 69.29413432652132
1211, 69.22836021832067
1211.5000000000002, 69.17416966552106
1212, 69.11112817279498
1212.5, 68.98916585883796
1213, 68.84676844990815
1213.5, 68.75885846646612
1214, 68.70640223912841
1214.5, 68.75294501399755
1215, 68.79936310156384
1215.5, 68.87504325840726
1216, 68.84925956170545
1216.5, 68.7669279820993
1217, 68.63392425575279
1217.5, 68.48539674980555
1218.0000000000002, 68.40522963184578
1218.5, 68.33990236112021
1219, 68.26508173022425
1219.5, 68.16808590504233
1220, 67.98052448837002
1220.5, 67.836738818155
1221, 67.67622112628757
1221.5, 67.62119288777814
1222, 67.56520250062337
1222.5, 67.41469488684169
1223, 67.27431511866104
1223.5, 67.05022602057826
1224, 66.90525271943683
1224.5, 66.76424296008072
1225, 66.68046861009667
1225.5, 66.60118870637945
1226, 66.5741324867425
1226.5, 66.546049130645
1227, 66.47466418303321
1227.5, 66.40162937865014
1228, 66.2612605541858
1228.5, 66.17340723970909
1229, 66.08907365829253
1229.5, 65.99083579345374
1230, 65.86702678569925
1230.5, 65.68567579204839
1231, 65.49659118770273
1231.5000000000002, 65.3553423167721
1232, 65.28257083501896
1232.5, 65.34144297377986
1233, 65.39299411953277
1233.5, 65.46647023989425
1234, 65.4760649285898
1234.5, 65.46533897976055
1235, 65.3908343508144
1235.5, 65.29482748818496
1236, 65.0513422633401
1236.5, 64.88940586864268
1237, 64.81446587170053
1237.5, 64.90306718281512
1238.0000000000002, 64.74011776476517
1238.5, 64.32549404388371
1239, 63.8347513738465
1239.5, 63.306367560074726
1240, 62.77882040798965
1240.5, 62.29058772301245
1241, 61.880147310564375
1241.5, 61.70289076735947
1242, 61.69624528442365
1242.5, 61.69632305118691
1243, 61.66074607340974
1243.5, 61.60828909197304
1244, 61.55077556433612
1244.5000000000002, 61.50255927734551
1245, 61.52055458802335
1245.5, 61.54524695416988
1246, 61.60149752771437
1246.5, 61.650888827142616
1247, 61.689977624218685
1247.5, 61.737704749721935
1248, 61.79303917414403
1248.5, 61.84872577067419
1249, 61.8975094125016
1249.5, 61.928141394021274
1250, 61.903375164502755
1250.5, 61.79818798731156
1251, 61.697152856401495
1251.5, 61.56174341850077
1252, 61.541099993724224
1252.5, 61.54129928786642
1253, 61.519869405196744
1253.5, 61.48612893073675
1254, 61.3725495239694
1254.5, 61.28848067780181
1255, 61.19870939215116
1255.5, 61.184015288429116
1256, 61.21465183064366
1256.5, 61.28412235718668
1257, 61.3712030751736
1257.5, 61.42794066294065
1258.0000000000002, 61.45194185900972
1258.5, 61.312284552623744
1259, 61.16872674357323
1259.5, 60.917159921258936
1260, 60.795382933095006
1260.5, 60.715135812863046
1261, 60.606598468543844
1261.5, 60.47918847634802
1262, 60.376429986661705
1262.5, 60.30740491629633
1263, 60.37187806769254
1263.5, 60.424651440658785
1264, 60.49095262318666
1264.5000000000002, 60.48138282683941
1265, 60.425906078537416
1265.5, 60.26496982804617
1266, 60.07180348343485
1266.5, 59.908988265802485
1267, 59.78694292568785
1267.5, 59.78693867271406
1268, 59.80597982863041
1268.5, 59.862187175328174
1269, 59.913266582111575
1269.5, 59.97648875284167
1270, 60.012060897135726
1270.5, 60.04122200784763
1271.0000000000002, 59.928619038853775
1271.5, 59.83339331839508
1272, 59.74090735277993
1272.5, 59.72940955920437
1273, 59.82297294554069
1273.5, 59.899746558843624
1274, 59.989511310400076
1274.5, 60.012798547984765
1275, 60.02722308891424
1275.5, 59.98317498426498
1276, 59.922305260184054
1276.5, 59.745297621387174
1277, 59.619205316435604
1277.5000000000002, 59.47801810784334
1278, 59.42004299660801
1278.5, 59.38548095591828
1279, 59.35311168287119
1279.5, 59.32527215284062
1280, 59.39562541190239
1280.5, 59.461780602806165
1281, 59.56439737246863
1281.5, 59.61438384928555
1282, 59.63332975580661
1282.5, 59.64342493300236
1283, 59.65223341589654
1283.5, 59.63130508324253
1284, 59.606405359322295
1284.5, 59.57976153958389
1285, 59.56851002204207
1285.5, 59.59655740261148
1286, 59.61194220393568
1286.5, 59.621570935075276
1287, 59.57354729620363
1287.5, 59.49316112739971
1288, 59.4285074454993
1288.5, 59.36550888080343
1289, 59.338349869557156
1289.5, 59.32252426153151
1290, 59.32265680673865
1290.5, 59.350912968542424
1291.0000000000002, 59.42543617844471
1291.5, 59.55078422780051
1292, 59.71841241283152
1292.5, 59.833944021535174
1293, 59.94097926920094
1293.5, 59.9686282527615
1294, 59.98986799806006
1294.5, 60.0180791767996
1295, 60.03983207527629
1295.5, 60.06785391528399
1296, 60.097296126410896
1296.5, 60.13215641045772
1297, 60.17990625355944
1297.5000000000002, 60.2272290555281
1298, 60.26340013031581
1298.5, 60.275199481370905
1299, 60.238047168771466
1299.5, 60.19938590497712
1300, 60.14381811875872
1300.5, 60.11029190044408
1301, 60.075024413921625
1301.5, 60.08988887177981
1302, 60.1020633305108
1302.5, 60.08382337081565
1303, 60.054884649847935
1303.5, 59.979880469361404
1304.0000000000002, 59.93597235821285
1304.5, 59.899486956499835
1305, 59.89354328807639
1305.5, 59.893383776988514
1306, 59.91022337298218
1306.5, 59.917672463135254
1307, 59.8629833188817
1307.5, 59.81592009335313
1308, 59.750035425455174
1308.5, 59.722952071219915
1309, 59.71429891820476
1309.5, 59.700460366364126
1310, 59.68329337339795
1310.5000000000002, 59.63541974070059
1311, 59.57517171607743
1311.5, 59.428344467008294
1312, 59.300595174138934
1312.5, 59.11261795591592
1313, 59.00518336897684
1313.5, 58.914691728160456
1314, 58.8892486527179
1314.5, 58.871742332092815
1315, 58.896859677768404
1315.5, 58.916811366840896
1316, 58.9166520705172
1316.5, 58.89262656789144
1317, 58.80869606052308
1317.5000000000002, 58.70234354389951
1318.0000000000002, 58.54689502848833
1318.5000000000002, 58.49400392234987
1319.0000000000002, 58.45103480741749
1319.5, 58.51851014826189
1320, 58.58205206933573
1320.5, 58.65609502711346
1321, 58.722578046108566
1321.5, 58.82592200765171
1322, 58.89585384560664
1322.5, 58.96803709170633
1323, 59.01696741952625
1323.5, 59.06774661976322
1324.0000000000002, 59.135278072428676
1324.5000000000002, 59.20185686408427
1325.0000000000002, 59.29450464566263
1325.5000000000002, 59.358447003434705
1326.0000000000002, 59.424535845917774
1326.5, 59.43841757672895
1327, 59.42865874877362
1327.5, 59.39352879116574
1328, 59.351994584504965
1328.5, 59.33442113585407
1329, 59.33164172105015
1329.5, 59.38745806514551
1330, 59.437632362218444
1330.5000000000002, 59.512921626110746
1331.0000000000002, 59.543696101855325
1331.5000000000002, 59.56107258225079
1332.0000000000002, 59.54861725209652
1332.5000000000002, 59.53300136449162
1333, 59.541758005858064
1333.5, 59.55768271273933
1334, 59.61366110997164
1334.5, 59.66482124222704
1335, 59.74043388437317
1335.5, 59.70689965138425
1336, 59.615968414995685
1336.5, 59.49386395255668
1337.0000000000002, 59.36595988791922
1337.5000000000002, 59.338439274571726
1338.0000000000002, 59.320737897546245
1338.5000000000002, 59.31154982940025
1339.0000000000002, 59.3308439047118
1339.5, 59.3962437404659
1340, 59.471973410096936
1340.5, 59.57006029851004
1341, 59.57103858059551
1341.5, 59.55904461735099
1342, 59.4883939616395
1342.5, 59.456030492539746
1343, 59.52159841350497
1343.5, 59.57940698148894
1344.0000000000002, 59.66374051717352
1344.5000000000002, 59.7222964278221
1345.0000000000002, 59.78394454088514
1345.5000000000002, 59.74530975884722
1346, 59.68651175556438
1346.5, 59.507867199336175
1347, 59.38195205670239
1347.5, 59.307003323342265
1348, 59.29133869138443
1348.5, 59.328313100633245
1349, 59.433861505894065
1349.5, 59.58419941440935
1350, 59.66257006332688
1350.5000000000002, 59.719070059671594
1351.0000000000002, 59.593545405446086
1351.5000000000002, 59.473213045367366
1352.0000000000002, 59.275929062218474
1352.5000000000002, 59.160384024645914
1353, 59.05728670706601
1353.5, 59.024027115130764
1354, 59.007589343447535
1354.5, 59.00566845645635
1355, 59.01532459368135
1355.5, 59.114875855592885
1356, 59.212209417503836
1356.5, 59.380996909181285
1357.0000000000002, 59.46851117913188
1357.5000000000002, 59.522924134174595
1358.0000000000002, 59.47895494937533
1358.5000000000002, 59.40040740166208
1359.0000000000002, 59.34207654922694
1359.5, 59.2928906927802
1360, 59.30183720204617
1360.5, 59.32101144295915
1361, 59.3765898743197
1361.5, 59.456516597927916
1362, 59.58602966003106
1362.5, 59.65634942968388
1363, 59.72620887681174
1363.5000000000002, 59.78351059197499
1364.0000000000002, 59.84240530762016
1364.5000000000002, 59.92453595893449
1365.0000000000002, 59.972977694276494
1365.5000000000002, 59.99149265696501
1366, 60.028861475468325
1366.5, 60.09349150615295
1367, 60.09691828857386
1367.5, 60.08881254322298
1368, 59.97528641912043
1368.5, 59.85803634144958
1369, 59.69294594244855
1369.5, 59.579762048420704
1370.0000000000002, 59.47651068390595
1370.5000000000002, 59.3966465295881
1371.0000000000002, 59.30539605878201
1371.5000000000002, 59.222205351890295
1372.0000000000002, 59.12772216509885
1372.5, 59.11099527651246
1373, 59.09209913253271
1373.5, 59.05531842021343
1374, 59.032606229690835
1374.5, 59.0215605052355
1375, 59.16931854025303
1375.5, 59.46343617449342
1376, 59.69832542766836
1376.5, 59.95350202492648
1377.0000000000002, 59.96874889817705
1377.5000000000002, 59.99546291270186
1378.0000000000002, 60.07867928475089
1378.5000000000002, 60.15339914454975
1379.0000000000002, 60.266541252493134
1379.5, 60.30005273107075
1380, 60.29903257107264
1380.5, 60.171279176689836
1381, 60.012117651939434
1381.5, 59.892582544131365
1382, 59.79653518199789
1382.5, 59.75925405308722
1383, 59.71617403475247
1383.5000000000002, 59.63163276596177
1384.0000000000002, 59.57746442737631
1384.5000000000002, 59.52365463508892
1385.0000000000002, 59.50427889639942
1385.5000000000002, 59.48744831970151
1386, 59.47861040455154
1386.5, 59.472729709181095
1387, 59.47292789271796
1387.5, 59.500493805328894
1388, 59.58469771644869
1388.5, 59.674487670996896
1389, 59.791512043173306
1389.5, 59.83120937142893
1390.0000000000002, 59.86253168089657
1390.5000000000002, 59.83649631617098
1391.0000000000002, 59.81011721224707
1391.5000000000002, 59.76375806133027
1392.0000000000002, 59.76573983347993
1392.5, 59.831070833026914
1393, 59.911407713313174
1393.5, 60.019003378935885
1394, 60.050191513139566
1394.5, 60.072226293878884
1395, 60.03697174506313
1395.5, 59.9959121714809
1396, 59.90246464232909
1396.5000000000002, 59.832720921995644
1397.0000000000002, 59.74813905264124
1397.5000000000002, 59.711042730295034
1398.0000000000002, 59.685023462755346
1398.5000000000002, 59.689666383810724
1399, 59.70136218819667
1399.5, 59.76337035860407
