302, 25.276343757985543
302.5, 25.136304886163444
303, 25.15714057903527
303.5, 25.30923308366833
304, 25.310723034340654
304.5, 25.316806588673373
305, 25.37845355296345
305.5, 25.43590840496185
306, 25.482522330465628
306.5, 25.53395303743426
307, 25.581397863077726
307.5, 25.616024538025812
308, 25.64517070454987
308.5, 25.677740261160594
309, 25.72094785741541
309.5, 25.772921871523607
310, 25.825130135207175
310.5, 25.873979639259417
311, 25.920722740917313
311.5, 25.97669395910222
312, 26.045442728943044
312.5, 26.106935526018148
313, 26.155363624954816
313.5, 26.20683954130547
314, 26.25718224463961
314.5, 26.292698560790413
315, 26.355603699686498
315.5, 26.486489665676004
316, 26.618532262186605
316.5, 26.692810044883373
317, 26.727158997011585
317.5, 26.756622983370747
318, 26.820363330745025
318.5, 26.889409640594877
319, 26.899269393256972
319.5, 26.89679856305345
320, 26.95152261156599
320.5, 27.03479197294091
321, 27.106580077685607
321.5, 27.15281794505148
322, 27.18294253421317
322.5, 27.228162416892232
323, 27.280231321816416
323.5, 27.31038447126322
324, 27.349164684954957
324.5, 27.430910956618874
325, 27.514249141861498
325.5, 27.566001384331315
326, 27.604341364891454
326.5, 27.65321887114129
327, 27.73259858585108
327.5, 27.81783930685785
328, 27.866865837150527
328.5, 27.92212057205299
329, 28.02716756340446
329.5, 28.11369069556322
330, 28.143330541296464
330.5, 28.18097043541357
331, 28.252260996517833
331.5, 28.32679158808189
332, 28.390937351945936
332.5, 28.44477460663491
333, 28.49209542610157
333.5, 28.539168680040007
334, 28.596020271951417
334.5, 28.664144831072747
335, 28.728553206478566
335.5, 28.79371422431329
336, 28.882345125424138
336.5, 28.96366133983129
337, 28.988594106090318
337.5, 29.00262888232328
338, 29.061336639437386
338.5, 29.143984680135432
339, 29.216779525974545
339.5, 29.251183250108255
340, 29.262397069824914
340.5, 29.305454978502226
341, 29.381838876249915
341.5, 29.46389751547406
342, 29.549463457360048
342.5, 29.638278990069367
343, 29.709156641497728
343.5, 29.757117034206857
344, 29.810602386334565
344.5, 29.879787560942887
345, 29.954987921550625
345.5, 30.04258918466749
346, 30.150182914747816
346.5, 30.239557101711668
347, 30.28607984492001
347.5, 30.347081234742106
348, 30.45038309794316
348.5, 30.552874099767124
349, 30.63346510192592
349.5, 30.699365625325115
350, 30.767225872081937
350.5, 30.851520025816313
351, 30.932371207155725
351.5, 30.995691565129704
352, 31.07243714579279
352.5, 31.163111159421575
353, 31.211597666621046
353.5, 31.220508547507293
354, 31.246742207047348
354.5, 31.30913369133033
355, 31.3982253172164
355.5, 31.471928862264534
356, 31.504764064492278
356.5, 31.540049720409925
357, 31.606668218017163
357.5, 31.694347239993093
358, 31.77850248045506
358.5, 31.83133671825921
359, 31.881860936454828
359.5, 31.973499705170028
360, 32.08176160395948
360.5, 32.17219409991284
361, 32.23472573055693
361.5, 32.281105965015314
362, 32.347116052643614
362.5, 32.43523109355718
363, 32.52103672564252
363.5, 32.60375972690569
364, 32.69034717732471
364.5, 32.76886140548366
365, 32.83370715780195
365.5, 32.90655442205416
366, 32.99250065843874
366.5, 33.069387758754814
367, 33.13365343650747
367.5, 33.19756772124141
368, 33.266415833307036
368.5, 33.34334612872924
369, 33.43715761150216
369.5, 33.54338236747745
370, 33.624424517970596
370.5, 33.67118035690571
371, 33.71781941961889
371.5, 33.78948562133836
372, 33.894761019267506
372.5, 33.98877692335688
373, 34.026624571383834
373.5, 34.05820066553993
374, 34.124715983624455
374.5, 34.19692343732483
375, 34.26181006616304
375.5, 34.33759791455488
376, 34.4236339615432
376.5, 34.50633910737092
377, 34.59127769275193
377.5, 34.683064807238054
378, 34.75099955137915
378.5, 34.7823473091203
379, 34.81927421281078
379.5, 34.88740117166684
380, 34.98252285210819
380.5, 35.08466836511518
381, 35.16684524817495
381.5, 35.222207774539754
382, 35.26212570138054
382.5, 35.333326330687626
383, 35.4534251847863
383.5, 35.56633951649522
384, 35.646767974759896
384.5, 35.71504220579122
385, 35.78155026107328
385.5, 35.85108039267003
386, 35.947866405387586
386.5, 36.08478515222316
387, 36.208996092305554
387.5, 36.28095187281207
388, 36.3147902951204
388.5, 36.34461995870154
389, 36.41608584616584
389.5, 36.52661178149503
390, 36.64153943224986
390.5, 36.727403732244376
391, 36.76651012962739
391.5, 36.79093276669044
392, 36.835210881948036
392.5, 36.918178236070275
393, 37.02350041390331
393.5, 37.103573753458946
394, 37.16566586979523
394.5, 37.24494584511854
395, 37.33091804711718
395.5, 37.40924401317708
396, 37.505571133008964
396.5, 37.626494332780126
397, 37.73216581952128
397.5, 37.81197668252075
398, 37.88940356155708
398.5, 37.97565814490348
399, 38.07249383920655
399.5, 38.17589597095828
400, 38.27904477093673
400.5, 38.37263203784174
401, 38.45533887961636
401.5, 38.539590591890104
402, 38.624094932327544
402.5, 38.69482032696698
403, 38.7603849024803
403.5, 38.83889287386912
404, 38.927179518034926
404.5, 39.02159065260091
405, 39.136870818038304
405.5, 39.261617943268455
406, 39.33970786382359
406.5, 39.38198820685765
407, 39.45953243962307
407.5, 39.56985204095184
408, 39.674820118660946
408.5, 39.77050392956813
409, 39.85901458316866
409.5, 39.929387761340614
410, 39.979062091079705
410.5, 40.02207654451379
411, 40.0728395953649
411.5, 40.1434189650884
412, 40.23353765343488
412.5, 40.3349754349091
413, 40.432920313362445
413.5, 40.52537075305046
414, 40.648157615726134
414.5, 40.79176413906038
415, 40.87496475217888
415.5, 40.91489997855934
416, 41.007427161273476
416.5, 41.13565430686395
417, 41.24017752980889
417.5, 41.33791818236816
418, 41.453457629032
418.5, 41.57536894410793
419, 41.68010102018643
419.5, 41.737405674175065
420, 41.76418795950942
420.5, 41.81463960833497
421, 41.918380748964616
421.5, 42.075295817615576
422, 42.210852354516625
422.5, 42.27771419703773
423, 42.341340518263856
423.5, 42.429736650696036
424, 42.49889948434964
424.5, 42.543892420160056
425, 42.59711419946059
425.5, 42.70174632649801
426, 42.88204512428908
426.5, 43.0646272916337
427, 43.18832114271873
427.5, 43.27816423452349
428, 43.36071208670853
428.5, 43.44955313698253
429, 43.57281681279974
429.5, 43.75511505314082
430, 43.90598435537698
430.5, 43.938574727338406
431, 43.98553234564208
431.5, 44.139666648789216
432, 44.28858128002356
432.5, 44.38204285798623
433, 44.479234953918166
433.5, 44.5813111887271
434, 44.65061657292915
434.5, 44.71875693490023
435, 44.82901361928857
435.5, 44.954370962748364
436, 45.0607553204663
436.5, 45.13522989262628
437, 45.197114198860405
437.5, 45.298182451349426
438, 45.44212924240338
438.5, 45.59506631938935
439, 45.71169917866434
439.5, 45.765570713322035
440, 45.813865110178845
440.5, 45.89755582991137
441, 45.98754506438442
441.5, 46.06969356519479
442, 46.15570987420735
442.5, 46.2386587273372
443, 46.30373558012235
443.5, 46.37422044504798
444, 46.47352228148534
444.5, 46.57365949377228
445, 46.6560370716681
445.5, 46.74120917641591
446, 46.84255078857432
446.5, 46.95920781877771
447, 47.07637086876567
447.5, 47.176553880608786
448, 47.27895884729735
448.5, 47.40063630354548
449, 47.50629667116601
449.5, 47.5844872882304
450, 47.68506961164155
450.5, 47.7919796502729
451, 47.82323473139232
451.5, 47.835319681181204
452, 47.944501858041185
452.5, 48.093676127545265
453, 48.19262214443227
453.5, 48.24443381819508
454, 48.274986299826764
454.5, 48.31733619951532
455, 48.38696010583251
455.5, 48.4779208492699
456, 48.55790413520131
456.5, 48.59340215785645
457, 48.62938198824436
457.5, 48.71029700368276
458, 48.79841042622368
458.5, 48.87635820354524
459, 48.98481498331922
459.5, 49.10740757606027
460, 49.17532902767953
460.5, 49.21907714380635
461, 49.30921389551661
461.5, 49.41614236475831
462, 49.49974266180412
462.5, 49.583982535308635
463, 49.66213823227053
463.5, 49.66309836897352
464, 49.60073124053092
464.5, 49.56784135530536
465, 49.58315086378485
465.5, 49.620780355232704
466, 49.64722506585515
466.5, 49.65302427782675
467, 49.69988180133562
467.5, 49.80568350026068
468, 49.90321976557689
468.5, 49.96442130665382
469, 50.003704514899376
469.5, 50.034521794321044
470, 50.06265067895446
470.5, 50.06364859151297
471, 50.027120788134916
471.5, 50.002614258497765
472, 50.01935267461392
472.5, 50.061688084623256
473, 50.113675075413546
473.5, 50.16389196930013
474, 50.214306026866346
474.5, 50.26913220377682
475, 50.31193064563228
475.5, 50.330862465384264
476, 50.340365915405336
476.5, 50.355716468072416
477, 50.38732903782817
477.5, 50.44117521811239
478, 50.51808832450564
478.5, 50.604928867487494
479, 50.68716497466558
479.5, 50.77365618446945
480, 50.86457814439639
480.5, 50.924862334473886
481, 50.95321594983026
481.5, 50.99834091568398
482, 51.05130459041262
482.5, 51.06301644916605
483, 51.05803445898295
483.5, 51.082602880977596
484, 51.12714817437387
484.5, 51.175784476601585
485, 51.23116948714118
485.5, 51.2841626275834
486, 51.30937494961178
486.5, 51.32294534007515
487, 51.368609822068294
487.5, 51.44906796981824
488, 51.54292576379632
488.5, 51.607877329481575
489, 51.63377210279754
489.5, 51.69036635839995
490, 51.78289227523644
490.5, 51.82796175147972
491, 51.83553122815458
491.5, 51.879283625046895
492, 51.96137957714723
492.5, 52.05235658651085
493, 52.12213824808886
493.5, 52.16663884987176
494, 52.23416354859655
494.5, 52.29540530170405
495, 52.231541606158245
495.5, 52.09672331423531
496, 52.042533846040854
496.5, 52.01796413453065
497, 51.93272369049698
497.5, 51.85833305221438
498, 51.84470509282034
498.5, 51.82620617598366
499, 51.772225835415995
499.5, 51.7077874760417
500, 51.64018407478252
500.5, 51.566171234370344
501, 51.506746779816574
501.5, 51.4703992121205
502, 51.38985332329307
502.5, 51.236143150459206
503, 51.08394293103472
503.5, 50.97065014297559
504, 50.87769054573721
504.5, 50.7745955446918
505, 50.63342149139582
505.5, 50.47725957337813
506, 50.33189185120562
506.5, 50.1692818408249
507, 49.99101641758456
507.5, 49.87094685099199
508, 49.81382462495615
508.5, 49.74534949741749
509, 49.6326056652821
509.5, 49.475791961352954
510, 49.30108311106754
510.5, 49.140116718758954
511, 49.01271249635547
511.5, 48.91543170317697
512, 48.80866366473819
512.5, 48.67187542669908
513, 48.50774003386312
513.5, 48.31554197610878
514, 48.09711903607973
514.5, 47.8832672861377
515, 47.71169632429848
515.5, 47.610411146154426
516, 47.55540959404671
516.5, 47.442071655542854
517, 47.26279337913226
517.5, 47.10612709828653
518, 46.98200075684991
518.5, 46.859920443530974
519, 46.7495697411277
519.5, 46.65650460530586
520, 46.536867598531074
520.5, 46.380780895501275
521, 46.245913713463416
521.5, 46.15165140219626
522, 46.07654725046889
522.5, 46.01357855677252
523, 45.95430857819209
523.5, 45.83850428345698
524, 45.62850815421631
524.5, 45.392772742105564
525, 45.212474992308685
525.5, 45.153918173215914
526, 45.15193143932557
526.5, 45.04492425938887
527, 44.87605127733457
527.5, 44.769880790345056
528, 44.70890798283125
528.5, 44.64589817251874
529, 44.56780414105755
529.5, 44.481184977360016
530, 44.410705589860704
530.5, 44.32766419646923
531, 44.16768489962121
531.5, 43.97357829163501
532, 43.828443451297815
532.5, 43.746357248222175
533, 43.695461117819924
533.5, 43.580282918693776
534, 43.38565795374802
534.5, 43.221668335232515
535, 43.13498645397305
535.5, 43.10517203533701
536, 43.066372708312954
536.5, 42.95806784285945
537, 42.835034556388564
537.5, 42.74963118867557
538, 42.6738116154413
538.5, 42.58906770591672
539, 42.506491910689505
539.5, 42.44266349417199
540, 42.410525353227804
540.5, 42.37384871382274
541, 42.288012045109156
541.5, 42.169036174577606
542, 42.05561672192493
542.5, 42.00034646746993
543, 41.97949223433422
543.5, 41.87542751064577
544, 41.71034368013209
544.5, 41.604270236575765
545, 41.56163559744827
545.5, 41.53584070322203
546, 41.48830413943805
546.5, 41.40452690550705
547, 41.31787046605687
547.5, 41.25120512088167
548, 41.20564567229893
548.5, 41.17563441941487
549, 41.147560761922605
549.5, 41.078858139047384
550, 40.937372921087054
550.5, 40.776791985507806
551, 40.651220199676416
551.5, 40.57247245109419
552, 40.52646778561329
552.5, 40.474439594923794
553, 40.3815163021244
553.5, 40.226476513593305
554, 40.05359064514616
554.5, 39.91985679075585
555, 39.831601663991066
555.5, 39.77919158339121
556, 39.743590378204104
556.5, 39.69581114539985
557, 39.60215547738798
557.5, 39.499299563741765
558, 39.454903439841
558.5, 39.42557064332849
559, 39.35574435282803
559.5, 39.29841004474487
560, 39.275139806738295
560.5, 39.20498865594521
561, 39.078525548378046
561.5, 38.973470098053625
562, 38.89752939240961
562.5, 38.81569750327077
563, 38.73158074078517
563.5, 38.65981050556215
564, 38.60263645139747
564.5, 38.554106144793906
565, 38.498271362344724
565.5, 38.42992144204248
566, 38.356991208871264
566.5, 38.292550349020864
567, 38.24959299133613
567.5, 38.22433593538019
568, 38.207402361996806
568.5, 38.190820861674275
569, 38.172841362747484
569.5, 38.1614282841397
570, 38.14607669148163
570.5, 38.099146167087454
571, 38.02421822109513
571.5, 37.94159660515409
572, 37.85704139158018
572.5, 37.779041709373246
573, 37.739018830348975
573.5, 37.741962830243374
574, 37.741599155234304
574.5, 37.70488606715314
575, 37.62228087056999
575.5, 37.53958462301692
576, 37.514447656108466
576.5, 37.50136898406876
577, 37.44426661436241
577.5, 37.35368325245814
578, 37.26295812231596
578.5, 37.219478475677235
579, 37.192744335568094
579.5, 37.0939765678302
580, 36.99649775883377
580.5, 37.02750212322941
581, 37.12648443603582
581.5, 37.20278931744047
582, 37.24415434586623
582.5, 37.247802753047296
583, 37.2062055535865
583.5, 37.13378260789706
584, 37.062438196233536
584.5, 36.99763043444391
585, 36.9360730776091
585.5, 36.90157769045144
586, 36.911838249098594
586.5, 36.9473920203385
587, 36.98360039963398
587.5, 36.998402100219835
588, 36.9947565884603
588.5, 36.99443796510095
589, 36.994112354495755
589.5, 36.98114162345935
590, 36.96033933360614
590.5, 36.941162916284526
591, 36.93178759630522
591.5, 36.9199163564114
592, 36.86862053132551
592.5, 36.81540115565883
593, 36.84728024189955
593.5, 36.9315841101142
594, 36.98832406967964
594.5, 36.98944648045977
595, 36.939492827337304
595.5, 36.886304664653395
596, 36.85437372140454
596.5, 36.82869208396732
597, 36.81337806710065
597.5, 36.82538117833522
598, 36.8434970623573
598.5, 36.83652114569675
599, 36.806518113660076
599.5, 36.76891450061804
600, 36.74936775537315
600.5, 36.75196581687988
601, 36.75115106750916
601.5, 36.73052853496607
602, 36.685369305958716
602.5, 36.63303179704479
603, 36.594711574048866
603.5, 36.56822555092448
604, 36.54927361870611
604.5, 36.54139921593539
605, 36.54248348978016
605.5, 36.541480463851315
606, 36.52071696310794
606.5, 36.463493159220214
607, 36.39148554095106
607.5, 36.334986642645376
608, 36.29471785924207
608.5, 36.253009534629925
609, 36.16962819175306
609.5, 36.0465865404298
610, 35.93659554400236
610.5, 35.83961657462892
611, 35.723529132682344
611.5, 35.60782258684141
612, 35.52031397354584
612.5, 35.44173672157041
613, 35.35659690440497
613.5, 35.27746951736769
614, 35.19651751157424
614.5, 35.08152007993627
615, 34.941389628377834
615.5, 34.80783473952481
616, 34.67251037820054
616.5, 34.52116735100712
617, 34.373664631219626
617.5, 34.24122031758169
618, 34.10525626913895
618.5, 33.969190969462716
619, 33.86247418097287
619.5, 33.787081491373826
620, 33.72170910437751
620.5, 33.61885871952249
621, 33.45754916458118
621.5, 33.334680874962714
622, 33.30243507749964
622.5, 33.28850608073863
623, 33.26846997283839
623.5, 33.27849354689063
624, 33.29740612966357
624.5, 33.273646437376726
625, 33.199490260936216
625.5, 33.09366335761253
626, 33.007663334079695
626.5, 32.97169231574979
627, 32.96641279943648
627.5, 32.95185964928329
628, 32.87864774850574
628.5, 32.76777023335427
629, 32.673658320181474
629.5, 32.59946318356859
630, 32.52563150850348
630.5, 32.41817050429988
631, 32.27787443258255
631.5, 32.16624513219121
632, 32.0891861901173
632.5, 31.995297162149242
633, 31.867836921248525
633.5, 31.719593733291802
634, 31.605435779916576
634.5, 31.564003994902365
635, 31.549129847109086
635.5, 31.52997626258407
636, 31.523763530209692
636.5, 31.526111946799773
637, 31.510045948146868
637.5, 31.468283207822424
638, 31.406141483854057
638.5, 31.334792041897927
639, 31.265537120348938
639.5, 31.205092648173732
640, 31.15496697493967
640.5, 31.10958171769775
641, 31.05917707253299
641.5, 30.99345906756902
642, 30.92669820539257
642.5, 30.877606324306015
643, 30.823820064397637
643.5, 30.75149205432531
644, 30.700324335221907
644.5, 30.685976380258126
645, 30.67566142276877
645.5, 30.638826876280902
646, 30.55525746902009
646.5, 30.447012503422584
647, 30.34746794574575
647.5, 30.244439956908025
648, 30.142088898709787
648.5, 30.11610229490779
649, 30.175348327378487
649.5, 30.22198233460597
650, 30.230967472468052
650.5, 30.236745045844316
651, 30.20416381950659
651.5, 30.086325253648994
652, 29.93641719305124
652.5, 29.81250720102433
653, 29.719455509952056
653.5, 29.652761707443943
654, 29.60489843774768
654.5, 29.554961400034543
655, 29.479811502090428
655.5, 29.421063462720312
656, 29.427725598546616
656.5, 29.454237318140045
657, 29.447471717029018
657.5, 29.393784161416804
658, 29.319811001161284
658.5, 29.292699346372927
659, 29.301109912161692
659.5, 29.28075994831154
660, 29.2402935303857
660.5, 29.214687973768235
661, 29.21168340550058
661.5, 29.227647108327247
662, 29.24898731204597
662.5, 29.26590418532338
663, 29.27501038401553
663.5, 29.27255579516641
664, 29.253626476456887
664.5, 29.209182582858517
665, 29.138760243426603
665.5, 29.08057494312952
666, 29.051420880960265
666.5, 29.005570010087382
667, 28.93402103342021
667.5, 28.878048780242864
668, 28.830092486179538
668.5, 28.756746128096992
669, 28.698500473625614
669.5, 28.68617736018325
670, 28.607233019630172
670.5, 28.42352191377175
671, 28.305738442712155
671.5, 28.303831146709896
672, 28.305293482816097
672.5, 28.28220202361976
673, 28.264952463225953
673.5, 28.247519064391923
674, 28.215986261994516
674.5, 28.179718122629154
675, 28.14663241367333
675.5, 28.112526752801884
676, 28.078479132436144
676.5, 28.052648172217758
677, 28.039192516341956
677.5, 28.03777208027863
678, 28.03820142469138
678.5, 28.040412600522302
679, 28.08895176373163
679.5, 28.19394193549951
680, 28.287559379464597
680.5, 28.349376983076525
681, 28.415229640227736
681.5, 28.482380428744776
682, 28.526726393910195
682.5, 28.55079660262932
683, 28.566628924591186
683.5, 28.58544820571896
684, 28.584175044270424
684.5, 28.48438221696958
685, 28.319185321490906
685.5, 28.22753940927835
686, 28.193427471375728
686.5, 28.13099493431737
687, 28.099880345287303
687.5, 28.161871173049363
688, 28.236440604848426
688.5, 28.25754598702052
689, 28.228894530140124
689.5, 28.17419056871792
690, 28.127849280659447
690.5, 28.100178162561463
691, 28.085113658383918
691.5, 28.065271399412694
692, 28.030450660101764
692.5, 28.00101616477535
693, 27.98581750589082
693.5, 27.96813625949821
694, 27.96779305844032
694.5, 28.030408750150087
695, 28.096699852507115
695.5, 28.078369916422062
696, 28.035033110735284
696.5, 28.04120269006235
697, 28.08613743548881
697.5, 28.140366075633267
698, 28.169827122857583
698.5, 28.182427463933323
699, 28.217359451218968
699.5, 28.24837386172146
700, 28.233011279898548
700.5, 28.21976129699108
701, 28.25193454881736
701.5, 28.289326965570268
702, 28.305277651340006
702.5, 28.311621702052264
703, 28.292329276378453
703.5, 28.21435777980352
704, 28.13072424978411
704.5, 28.11458200863794
705, 28.130628238560902
705.5, 28.140946152681366
706, 28.176898484431206
706.5, 28.234439384371655
707, 28.248117199876972
707.5, 28.22289544694732
708, 28.217776034807372
708.5, 28.219035028242743
709, 28.19018862626521
709.5, 28.153057463757804
710, 28.133237521566855
710.5, 28.12761067145901
711, 28.128367956846176
711.5, 28.127627399851207
712, 28.127519044138836
712.5, 28.134722253286895
713, 28.128793689404034
713.5, 28.0916812629022
714, 28.067526110817667
714.5, 28.08508663318537
715, 28.10227647824864
715.5, 28.099825637163775
716, 28.100804028313533
716.5, 28.121395516835804
717, 28.16697575611437
717.5, 28.21894395094226
718, 28.245124880858768
718.5, 28.201817875195175
719, 28.091474434093897
719.5, 28.02075509064329
720, 28.01402685725276
720.5, 27.981314695143126
721, 27.925029749288612
721.5, 27.909763059972363
722, 27.918248108864276
722.5, 27.908675732278127
723, 27.880902554956506
723.5, 27.86473642370528
724, 27.929344968437846
724.5, 28.05885672984958
725, 28.13687316681805
725.5, 28.155958025238803
726, 28.178582805870505
726.5, 28.188203521657
727, 28.149870340314678
727.5, 28.080597954281316
728, 28.008886062005118
728.5, 27.96268526747636
729, 27.963783848814543
729.5, 28.023788873907037
730, 28.11533052502334
730.5, 28.191897536071934
731, 28.25172407103902
731.5, 28.30575298319991
732, 28.3480878855881
732.5, 28.369392590110166
733, 28.361024536623432
733.5, 28.32494425016057
734, 28.27335512860587
734.5, 28.200961632291992
735, 28.101777768832378
735.5, 28.036805869546612
736, 28.058727866500206
736.5, 28.11161189632513
737, 28.14643402082166
737.5, 28.167477548458052
738, 28.183404902403012
738.5, 28.200688104336706
739, 28.21714697681449
739.5, 28.22875349571555
740, 28.251671378940287
740.5, 28.29271254944291
741, 28.30752050639832
741.5, 28.28471798243065
742, 28.286190481762333
742.5, 28.32572422430563
743, 28.36347738100031
743.5, 28.395297946816882
744, 28.434074834276785
744.5, 28.460308158670315
745, 28.46611212964956
745.5, 28.51050972472858
746, 28.603558788785662
746.5, 28.65596761709135
747, 28.6632522704695
747.5, 28.70396774605932
748, 28.757049422806887
748.5, 28.76185386707928
749, 28.76183719071686
749.5, 28.799778627278712
750, 28.820340059528775
750.5, 28.799212903193848
751, 28.787824979732434
751.5, 28.791761115976584
752, 28.767518022428348
752.5, 28.679193628957833
753, 28.518541326805448
753.5, 28.3885669211095
754.0000000000001, 28.366085000186544
754.5, 28.36406613747259
755, 28.33952167625783
755.5, 28.35680953109167
756, 28.415386364908343
756.5, 28.457301658455677
757, 28.51392404380671
757.5, 28.640588325517626
758, 28.776475312139752
758.5, 28.863132262766314
759, 28.93751113984598
759.5, 29.023114216532107
760, 29.101480827347885
760.5000000000001, 29.165973910240425
761, 29.224593397708247
761.5, 29.29693403555744
762, 29.397745377042014
762.5, 29.494378803522892
763, 29.561728227726434
763.5, 29.626750978557254
764, 29.7226868971549
764.5, 29.87558757146509
765, 30.029463818325482
765.5, 30.079760585526557
766, 30.081342000015553
766.5, 30.136549950590947
767, 30.2148386905305
767.5, 30.27818573423643
768, 30.355464265820757
768.5, 30.44499835109754
769, 30.494563074657535
769.5, 30.522268819949645
770, 30.59370665198699
770.5000000000001, 30.68223764037822
771, 30.73160642031327
771.5, 30.743143557845983
772, 30.747524317259078
772.5, 30.806555780721837
773, 30.916378504703303
773.5, 30.988047096090796
774, 31.030846192047733
774.5, 31.127884515961327
775, 31.315443389176835
775.5, 31.57495932833639
776, 31.758256495219825
776.5, 31.78922174626969
777, 31.814701698531877
777.5, 31.89137102820601
778, 31.932168183639433
778.5, 31.94093328072107
779, 31.98584217807742
779.5, 32.06728024261895
780, 32.16236653748764
780.5000000000001, 32.27170097922097
781, 32.38226032353819
781.5, 32.44356040372618
782, 32.48250318993503
782.5, 32.613200389630265
783, 32.79302303001977
783.5, 32.88967193631241
784, 32.9390717264168
784.5, 33.018734528968324
785, 33.10672224855932
785.5, 33.175491631358256
786, 33.23074529026512
786.5, 33.28027342353552
787.0000000000001, 33.329427723884706
787.5, 33.37995274022968
788, 33.43417994692446
788.5, 33.51308095941394
789, 33.629640079542966
789.5, 33.74493595012784
790, 33.83045655136037
790.5, 33.898222826054464
791, 33.948600876514746
791.5, 33.9675339108088
792, 33.983624409804534
792.5, 34.04165626720449
793, 34.11304270785568
793.5, 34.161771118626945
794, 34.216846516166086
794.5, 34.289338257225424
795, 34.33483003443391
795.5, 34.34637731298383
796, 34.36025161768764
796.5, 34.37798081991008
797.0000000000001, 34.38569092722197
797.5, 34.413649011463804
798, 34.48348218727811
798.5, 34.54126846941996
799, 34.56751609946771
799.5, 34.62601396400173
800, 34.716883897964365
800.5, 34.77300413649718
801.0000000000001, 34.797463714828154
801.5, 34.829272332128454
802, 34.863042350786245
802.5, 34.88352281194683
803, 34.89143655060673
803.5000000000001, 34.88012359711777
804.0000000000001, 34.82752800663029
804.5000000000001, 34.75525625327539
805, 34.72189299777587
805.5, 34.71166730791623
806, 34.67866928381672
806.5, 34.6478852324892
807.0000000000001, 34.64729823312338
807.5000000000001, 34.64806190518749
808, 34.64250188089548
808.5, 34.67089156945046
809, 34.72690056162432
809.5, 34.760948110474644
810, 34.76973554399564
810.5000000000001, 34.77251923131597
811.0000000000001, 34.76893877148834
811.5, 34.74718716202594
812, 34.68165794946144
812.5, 34.57667432035747
813, 34.48372105080769
813.5000000000001, 34.403827122510705
814.0000000000001, 34.29727767019942
814.5000000000001, 34.202378563622574
815, 34.17179237992383
815.5, 34.12700570684423
816, 34.01501977721384
816.5, 33.94804038355868
817.0000000000001, 33.95962639507927
817.5000000000001, 33.93344122712625
818, 33.855566513607
818.5, 33.8008941182987
819, 33.75112090821219
819.5, 33.65274033503404
820.0000000000001, 33.51358219946168
820.5000000000001, 33.38403461006207
821.0000000000001, 33.37447225057143
821.5, 33.48926614159694
822, 33.575019991528066
822.5, 33.57593900158318
823, 33.528868807626594
823.5000000000001, 33.47866040795381
824.0000000000001, 33.44924658339076
824.5, 33.36384307295323
825, 33.18734602109063
825.5, 33.04598532535208
826, 33.000977111114224
826.5, 32.9936890710125
827.0000000000001, 32.97541264974994
827.5000000000001, 32.91634462903774
828, 32.81768102863637
828.5, 32.697757510582065
829, 32.587059165071665
829.5, 32.502594177879416
830.0000000000001, 32.42340435655079
830.5000000000001, 32.31148033258165
831.0000000000001, 32.12070001886647
831.5, 31.914613615079062
832, 31.8163794148209
832.5, 31.764325133641606
833, 31.65327004230126
833.5000000000001, 31.532574512328708
834.0000000000001, 31.45895665339873
834.5, 31.422232308195007
835, 31.392685566916782
835.5, 31.33030705404434
836, 31.240165016305212
836.5000000000001, 31.15276506558466
837.0000000000001, 31.040444314377098
837.5000000000001, 30.868275556316235
838, 30.667815323784154
838.5, 30.487290637335988
839, 30.375303482999442
839.5, 30.317602132952373
840.0000000000001, 30.231164562490648
840.5000000000001, 30.125781230286393
841.0000000000001, 30.065587263349812
841.5, 30.019491857000062
842, 29.93888452672067
842.5, 29.85271206696845
843, 29.795798710668507
843.5000000000001, 29.77922087577069
844.0000000000001, 29.784000463891786
844.5, 29.762503190652993
845, 29.702682297272048
845.5, 29.61615976966317
846, 29.504258945143107
846.5000000000001, 29.376330854907735
847.0000000000001, 29.282705131156447
847.5000000000001, 29.207747560340778
848, 28.999720776020794
848.5, 28.67595004672519
849, 28.441284378457183
849.5, 28.298305058524292
850.0000000000001, 28.130236338913917
850.5000000000001, 27.93467060468879
851, 27.74534619159671
851.5, 27.572554893542346
852, 27.41964416305771
852.5, 27.284870812767295
853.0000000000001, 27.13710573735692
853.5000000000001, 26.924457452543223
854.0000000000001, 26.706209441736732
854.5, 26.590775868866515
855, 26.565873454160936
855.5, 26.567610321625722
856, 26.506878816802995
856.5000000000001, 26.364328468755602
857.0000000000001, 26.247276384201456
857.5000000000001, 26.172801554700726
858, 26.059094235981547
858.5, 25.893370887772036
859, 25.710287005955976
859.5, 25.562550774037604
860.0000000000001, 25.484927485508436
860.5000000000001, 25.441372583406746
861, 25.382930976867627
861.5, 25.26321750012997
862, 25.087076493410976
862.5, 24.910311581648514
863.0000000000001, 24.797355977509582
863.5000000000001, 24.7973893077683
864.0000000000001, 24.86091277584002
864.5, 24.913022931832685
865, 24.898304720545397
865.5, 24.822402846227106
866, 24.779134074050333
866.5000000000001, 24.77088770038253
867.0000000000001, 24.719567030569678
867.5000000000001, 24.67264157119095
868, 24.719138584596053
868.5, 24.80225589376927
869, 24.861686363489255
869.5, 24.949421217096273
870.0000000000001, 25.07528922104119
870.5000000000001, 25.158429565381496
871, 25.181530838635396
871.5, 25.187812258026383
872, 25.184221778957905
872.5, 25.164251263183573
873.0000000000001, 25.15382718502603
873.5000000000001, 25.170738862470586
874.0000000000001, 25.187323135987683
874.5, 25.199190246905246
875, 25.244612580284652
875.5, 25.317316533546546
876, 25.372593330316136
876.5000000000001, 25.393719978652598
877.0000000000001, 25.387427047891336
877.5, 25.399302795828504
878, 25.45320639064117
878.5, 25.49296123571517
879, 25.49070832147754
879.5000000000001, 25.475998078282117
880.0000000000001, 25.47837318148379
880.5000000000001, 25.518345319011203
881, 25.572996892795643
881.5, 25.614099256966384
882, 25.6804540440735
882.5, 25.789126731691155
883.0000000000001, 25.86424177119845
883.5000000000001, 25.87623283585755
884.0000000000001, 25.87472008990939
884.5, 25.8756178828273
885, 25.870306563631416
885.5, 25.904044494624728
886, 26.01288809334018
886.5000000000001, 26.09151463149186
887.0000000000001, 26.081339285227713
887.5, 26.108718879760005
888, 26.191412427915267
888.5, 26.188559176468672
889, 26.204298096020878
889.5000000000001, 26.48129698896375
890.0000000000001, 26.838255955499818
890.5000000000001, 26.99383555748055
891, 27.018569542308484
891.5, 27.02167968021982
892, 27.010998861910124
892.5, 27.054682954868383
893.0000000000001, 27.294329542393328
893.5000000000001, 27.60794323739681
894.0000000000001, 27.72973349592769
894.5, 27.76991813358468
895, 27.912859532360784
895.5, 28.01824409069833
896.0000000000001, 28.011130024015657
896.5000000000001, 28.103797200984616
897.0000000000001, 28.328101730098325
897.5, 28.470634253013728
898, 28.512929419914272
898.5, 28.568454700046544
899, 28.642105651695246
899.5000000000001, 28.700581386663544
900.0000000000001, 28.736046423600882
900.5000000000001, 28.77217274979148
901, 28.880839906289438
901.5, 29.04376292996696
902, 29.14162602260042
902.5, 29.175499737029313
903.0000000000001, 29.219925117177823
903.5000000000001, 29.273086035371037
904, 29.310918782301215
904.5, 29.33650434756025
905, 29.354750349935046
905.5, 29.363661966602862
906.0000000000001, 29.378376844270463
906.5000000000001, 29.42989003086845
907.0000000000001, 29.50223443447767
907.5, 29.55669684400526
908, 29.604877300380693
908.5, 29.662222484931647
909, 29.695767953101566
909.5000000000001, 29.693063584855125
910.0000000000001, 29.695725788145722
910.5000000000001, 29.715528682136622
911, 29.729363811232744
911.5, 29.747451700055606
912, 29.797250328728637
912.5000000000001, 29.879654135900054
913.0000000000001, 29.988311638232645
913.5000000000001, 30.123818920711244
914, 30.276930669441654
914.5, 30.419348581832352
915, 30.533925936757157
915.5, 30.62126556618172
916.0000000000001, 30.728144556877055
916.5000000000001, 30.90658646964981
917.0000000000001, 31.08920382824961
917.5, 31.209291999734248
918, 31.32153912986955
918.5, 31.447916044910002
919, 31.52208060415863
919.5000000000001, 31.563105353137757
920.0000000000001, 31.671348989530003
920.5000000000001, 31.839888441168767
921, 32.0011249678724
921.5, 32.102685392983105
922, 32.13973689774629
922.5000000000001, 32.22562870058991
923.0000000000001, 32.37810390868118
923.5000000000001, 32.43533508188314
924, 32.3818139981034
924.5, 32.343470972696764
925, 32.336364620466995
925.5, 32.321721797745056
926.0000000000001, 32.303846591998166
926.5000000000001, 32.30569678514587
927.0000000000001, 32.36340824778199
927.5, 32.47056444191456
928, 32.55470633138941
928.5, 32.5975784250013
929.0000000000001, 32.63420452868823
929.5000000000001, 32.69217116180424
930.0000000000001, 32.78599402740214
930.5, 32.89181441114157
931, 32.9817169491927
931.5, 33.04676364074561
932, 33.09443230041373
932.5000000000001, 33.14988288309969
933.0000000000001, 33.20080643021218
933.5000000000001, 33.20929150377522
934, 33.20671222576874
934.5, 33.24947861932655
935, 33.34705196144273
935.5, 33.474974971252394
936.0000000000001, 33.55915544923607
936.5000000000001, 33.58505497140399
937.0000000000001, 33.631145206412086
937.5, 33.742669896564195
938, 33.920330320949475
938.5, 34.076441623531466
939.0000000000001, 34.122583815530746
939.5000000000001, 34.147815148579255
940.0000000000001, 34.206234278669626
940.5, 34.16035624146262
941, 34.018607023304455
941.5, 34.01096418206082
942, 34.14147883964918
942.5000000000001, 34.24045861100679
943.0000000000001, 34.28885323351349
943.5000000000001, 34.33311361343853
944, 34.39267479551488
944.5, 34.45617099318096
945, 34.46043664155398
945.5000000000001, 34.41560701001859
946.0000000000001, 34.428823323173916
946.5000000000001, 34.490628715867544
947.0000000000001, 34.513504601251
947.5, 34.529914100483396
948, 34.60242046793398
948.5, 34.699882310188784
949.0000000000001, 34.79459503964473
949.5000000000001, 34.91451389869735
950.0000000000001, 35.03971621573751
950.5, 35.08810512365034
951, 35.073240520156645
951.5, 35.06719198475017
952, 35.039002300312674
952.5000000000001, 34.953778055357105
953.0000000000001, 34.92666230779129
953.5000000000001, 35.0256423687557
954, 35.15064966172497
954.5, 35.26210947973355
955, 35.411550634842456
955.5000000000001, 35.5632497120547
956.0000000000001, 35.632311146515164
956.5000000000001, 35.641574289187375
957, 35.649382296607044
957.5, 35.683241686855865
958, 35.75910604411473
958.5, 35.88293475639851
959.0000000000001, 36.03801680317112
959.5000000000001, 36.18096517771848
960.0000000000001, 36.24481462730563
960.5, 36.17193958468468
961, 36.05749101388041
961.5, 36.024206464252515
962.0000000000001, 36.087149903290054
962.5000000000001, 36.221153335297444
963.0000000000001, 36.3696043154332
963.5000000000001, 36.51752523043509
964, 36.69241493722683
964.5, 36.833716565587316
965, 36.8495467746007
965.5000000000001, 36.81193208141815
966.0000000000001, 36.81873135642863
966.5000000000001, 36.85391709576088
967, 36.89936670108965
967.5, 36.97487228293066
968, 37.095220616961306
968.5, 37.261440959149326
969.0000000000001, 37.42841010762428
969.5000000000001, 37.539500168932484
970.0000000000001, 37.63428898832399
970.5, 37.763406155822885
971, 37.90578516564381
971.5, 38.01829113507319
972.0000000000001, 38.04624071001231
972.5000000000001, 38.00142951699747
973.0000000000001, 37.95685655986196
973.5000000000001, 37.90361431880825
974, 37.8158410784381
974.5, 37.850705176984405
975, 38.10764117158849
975.5000000000001, 38.33415979327
976.0000000000001, 38.39205409417114
976.5000000000001, 38.43771181979974
977, 38.530089547913235
977.5, 38.60855820359754
978, 38.64563145294164
978.5, 38.63612443712419
979.0000000000001, 38.5770417096318
979.5000000000001, 38.49159416682737
980.0000000000001, 38.47386544749244
980.5, 38.53699185726956
981, 38.552656940715515
981.5, 38.55925189480801
982.0000000000001, 38.73748685151762
982.5000000000001, 39.01912887523505
983.0000000000001, 39.22850281700411
983.5, 39.350307698523814
984, 39.43553310251258
984.5, 39.578217500300916
985, 39.80295876663941
985.5000000000001, 40.018878006480534
986.0000000000001, 40.17781843266787
986.5000000000001, 40.28169032693026
987, 40.3557606489894
987.5, 40.43251439728354
988, 40.52489154587414
988.5000000000001, 40.6218321328602
989.0000000000001, 40.666205101422015
989.5000000000001, 40.64477833205037
990.0000000000001, 40.62019048967845
990.5, 40.66215802303271
991, 40.81740112090452
991.5, 40.9306120918932
992.0000000000001, 40.82850137937818
992.5000000000001, 40.71304130241555
993.0000000000001, 40.76042262296607
993.5, 40.82498204931554
994, 40.83209115249581
994.5, 40.87329433393484
995, 40.98677841825409
995.5000000000001, 41.14724827322764
996.0000000000001, 41.26017818031571
996.5000000000001, 41.247141497962666
997, 41.23787591433699
997.5, 41.33564932982792
998, 41.45140671716127
998.5000000000001, 41.558252248252664
999.0000000000001, 41.74138198646808
999.5000000000001, 41.93057242734281
1000.0000000000001, 41.96181315048638
1000.5, 41.95201164066828
1001, 42.07617898095652
1001.5, 42.21074314521929
1002.0000000000001, 42.236005306496345
1002.5000000000001, 42.21315093310645
1003.0000000000001, 42.19567540861156
1003.5, 42.195581872322
1004, 42.236996982468916
1004.5, 42.344607734161634
1005.0000000000001, 42.4640788808971
1005.5000000000001, 42.52328231170614
1006.0000000000001, 42.517346114274694
1006.5000000000001, 42.47619583667178
1007, 42.4685945301452
1007.5, 42.53674982404
1008, 42.679021750822336
1008.5000000000001, 42.833125375556
1009.0000000000001, 42.9113855858846
1009.5000000000001, 42.94503014977308
1010, 43.00042215144006
1010.5, 43.086234572256146
1011, 43.19889809554649
1011.5, 43.33666496222415
1012.0000000000001, 43.4747457276463
1012.5000000000001, 43.569252929832004
1013.0000000000001, 43.692105843921816
1013.5, 43.95735646062773
1014, 44.213007107287865
1014.5, 44.279588887285584
1015.0000000000001, 44.263953256917425
1015.5000000000001, 44.277546115454726
1016.0000000000001, 44.31448350330756
1016.5000000000001, 44.35005038592616
1017, 44.35456088310288
1017.5, 44.30835935517102
1018, 44.214838565516054
1018.5000000000001, 44.178107087877905
1019.0000000000001, 44.276573345285534
1019.5000000000001, 44.37065247658683
1020, 44.37864659536701
1020.5, 44.41305755629099
1021, 44.50623721983574
1021.5000000000001, 44.582767882946804
1022.0000000000001, 44.62327311838158
1022.5000000000001, 44.64965371893929
1023.0000000000001, 44.69124710906646
1023.5, 44.76201164029686
1024, 44.8185662012234
1024.5, 44.85643953894168
1025, 44.9593062847907
1025.5, 45.12146056948151
1026, 45.24101288870195
1026.5, 45.31081385011417
1027, 45.38488375720946
1027.5, 45.51294387934573
1028, 45.70637624760087
1028.5, 45.864682677421534
1029, 45.9427564921005
1029.5, 46.02642451785495
1030, 46.13279931678227
1030.5, 46.20401076429914
1031, 46.27019187020321
1031.5, 46.39171014924149
1032, 46.496889968426196
1032.5, 46.51071559053543
1033, 46.4803177110202
1033.5, 46.45908941587658
1034, 46.471254524424566
1034.5, 46.49230323848314
1035, 46.472645372731016
1035.5, 46.55967828627381
1036, 46.92757382627142
1036.5, 47.30271975518771
1037, 47.43896330545468
1037.5, 47.57223445461004
1038, 47.7900902624158
1038.5, 47.82123825289724
1039, 47.66813975147535
1039.5, 47.595245772514595
1040, 47.628741338698056
1040.5, 47.67600027343603
1041, 47.73089641698994
1041.5, 47.81609428642793
1042, 47.95814543067897
1042.5, 48.13568717945273
1043, 48.25548086418465
1043.5, 48.27407129967391
1044, 48.20254363525478
1044.5, 48.08900069629257
1045, 48.00868707969121
1045.5, 48.07751133043707
1046, 48.316111978303425
1046.5, 48.472757809769064
1047, 48.45492239797516
1047.5, 48.459060458892004
1048, 48.52276460496281
1048.5, 48.53861802597243
1049, 48.50523143714559
1049.5, 48.4826973319145
1050, 48.55625711213631
1050.5, 48.74820101163026
1051, 48.9107003369991
1051.5, 48.9719562584131
1052, 48.99984594438896
1052.5, 48.9960858207285
1053, 48.91199021295489
1053.5, 48.80600879442684
1054, 48.76085173853765
1054.5, 48.73893793715652
1055, 48.74353257327722
1055.5, 48.944761396582734
1056, 49.29906129520011
1056.5, 49.464927753164574
1057, 49.47880647900598
1057.5, 49.64263398953009
1058, 49.855096473849514
1058.5, 49.892336926235366
1059, 49.8045220874974
1059.5, 49.68605819398203
1060, 49.57267866570317
1060.5, 49.48753186959681
1061, 49.446011168242634
1061.5, 49.43626099181738
1062, 49.430644640115965
1062.5, 49.43547131527443
1063, 49.46473941886242
1063.5, 49.50329127652524
1064, 49.53694448664375
1064.5, 49.568188200463986
1065, 49.57304520785186
1065.5, 49.49877153536197
1066, 49.3895240961873
1066.5, 49.344761528133425
1067, 49.34516347386898
1067.5, 49.34563852924153
1068, 49.39370553031733
1068.5, 49.50322413522461
1069, 49.57638965199848
1069.5, 49.58483277501313
1070, 49.596604780638025
1070.5, 49.63698688476238
1071, 49.70022015044274
1071.5, 49.801008296765794
1072, 49.94259598634915
1072.5, 50.05764200780211
1073, 50.10818330396672
1073.5, 50.14351805904864
1074, 50.1646620781225
1074.5, 50.112606768963936
1075, 50.01814772779183
1075.5, 49.955826754390515
1076, 49.87992578351401
1076.5, 49.73960532104081
1077, 49.62486674084906
1077.5, 49.61202968757942
1078, 49.69417056558507
1078.5, 49.835503698607475
1079, 49.97842522760027
1079.5, 50.06287315862985
1080, 50.047220383157935
1080.5, 50.00484857833458
1081, 50.00902797248935
1081.5, 49.99657259418436
1082, 49.96979285819194
1082.5, 50.09203228539336
1083, 50.33460216669541
1083.5, 50.46276790209328
1084, 50.412232885054145
1084.5, 50.24336268483656
1085, 50.08727764413909
1085.5, 50.03550129672789
1086, 49.98341672351296
1086.5, 49.88527724069508
1087, 49.85889788763256
1087.5, 49.923380150910205
1088, 49.98760254908022
1088.5, 50.03199900648167
1089, 50.075309735084026
1089.5, 50.096645126541
1090, 50.07321549687719
1090.5, 50.01645214333672
1091, 49.93575277103421
1091.5, 49.8289223042479
1092, 49.74309117011947
1092.5, 49.76233345213173
1093, 49.849052581644926
1093.5, 49.90444506779743
1094, 49.87746514136529
1094.5, 49.76307524010179
1095, 49.64090194920193
1095.5, 49.546710731796786
1096, 49.426465566019964
1096.5, 49.30468890766529
1097, 49.272614809015806
1097.5, 49.285567932972285
1098, 49.264767578437855
1098.5, 49.33692430595175
1099, 49.58172714156487
1099.5, 49.784352894267954
1100, 49.828945079171454
1100.5, 49.8227469145643
1101, 49.806216439188795
1101.5, 49.74700329323112
1102, 49.65127416359152
1102.5, 49.5458441269194
1103, 49.45310418580309
1103.5, 49.391860956945095
1104, 49.375034097266436
1104.5, 49.407096695473996
1105, 49.48038178231754
1105.5, 49.56743239226766
1106, 49.62757517351225
1106.5, 49.64583825497626
1107, 49.623651488804725
1107.5, 49.5770377198473
1108, 49.53278846748016
1108.5, 49.53291631330294
1109, 49.560533834371725
1109.5, 49.51913131887312
1110, 49.423094581346504
1110.5, 49.3699124040392
1111, 49.345881282825474
1111.5, 49.2989027580217
1112, 49.2468573749635
1112.5, 49.229107681561146
1113, 49.28942188391815
1113.5, 49.38849412001077
1114, 49.383208002419394
1114.5, 49.277896704165975
1115, 49.182779834777776
1115.5, 49.07558333856824
1116, 48.919620833443865
1116.5, 48.87342794810408
1117, 49.01554366130334
1117.5, 49.13636067387188
1118, 49.15544861605031
1118.5, 49.201184495959005
1119, 49.25538105047462
1119.5, 49.199220804229235
1120, 49.073536808483844
1120.5, 48.97216756336412
1121, 48.91646788682675
1121.5, 48.87164442550015
1122, 48.72387701210034
1122.5, 48.487923231067
1123, 48.34005390527458
1123.5, 48.29782913500158
1124, 48.266664877666834
1124.5, 48.23252181961883
1125, 48.21153456922038
1125.5, 48.201571847105264
1126, 48.19950962892252
1126.5, 48.20876713042152
1127, 48.22667304666192
1127.5, 48.24187103849666
1128, 48.23727182294802
1128.5, 48.19430025636457
1129, 48.108737432309184
1129.5, 47.97874396772068
1130, 47.79075295165578
1130.5, 47.58296011808101
1131, 47.49604506943793
1131.5, 47.531866602846684
1132, 47.53138290451801
1132.5, 47.48634221421171
1133, 47.4755341347545
1133.5, 47.4481678527069
1134, 47.345890970167346
1134.5, 47.25525134551589
1135, 47.20635350619151
1135.5, 47.06989079323417
1136, 46.851835208874135
1136.5, 46.71117371007043
1137, 46.625268433458785
1137.5, 46.48529502101418
1138, 46.3997879301481
1138.5, 46.48330348298229
1139, 46.6099030496137
1139.5, 46.667781079388504
1140, 46.65956313627806
1140.5, 46.620311699002
1141, 46.5973236517689
1141.5, 46.535347895452816
1142, 46.3418673861643
1142.5, 46.0762404959034
1143, 45.84271166033321
1143.5, 45.717492544450074
1144, 45.716636153292505
1144.5, 45.76020215916505
1145, 45.74377458768116
1145.5, 45.567434811180476
1146, 45.33569227227056
1146.5, 45.22652781097549
1147, 45.15778151074295
1147.5, 45.03600391174838
1148, 44.991709301347264
1148.5, 45.07141447112234
1149, 45.116883718934275
1149.5, 45.035745779930735
1150, 44.82984426122803
1150.5, 44.61057397818903
1151, 44.515605627023675
1151.5, 44.50727358840577
1152, 44.49577046163283
1152.5, 44.40483490746884
1153, 44.24106479349353
1153.5, 44.135243326739925
1154, 44.13396803459529
1154.5, 44.19373115156848
1155, 44.26271867251982
1155.5, 44.29174504691213
1156, 44.25760174320104
1156.5, 44.17673165721201
1157, 44.14847848967136
1157.5, 44.157237508206
1158, 44.00146490067153
1158.5, 43.68666738416861
1159, 43.404484885132305
1159.5, 43.22151395653157
1160, 43.12037050643932
1160.5, 43.01373275726973
1161, 42.85212360858815
1161.5, 42.73417922545496
1162, 42.717725446680795
1162.5, 42.766094537102184
1163, 42.83768791096598
1163.5, 42.89713442064073
1164, 42.942516005168244
1164.5, 42.978744785300414
1165, 42.96671406243789
1165.5, 42.88592257090293
1166, 42.79054268613057
1166.5, 42.68353571616453
1167, 42.48700750861324
1167.5, 42.24058821216118
1168, 42.0710983278542
1168.5, 41.98382224731974
1169, 41.93468193948919
1169.5, 41.92373994152262
1170, 41.96163158228085
1170.5, 42.05491102046141
1171, 42.16521535295124
1171.5, 42.19542838557371
1172, 42.065649694997994
1172.5, 41.74469892030107
1173, 41.44257028977598
1173.5, 41.379717538638154
1174, 41.37044959637839
1174.5, 41.25036458044256
1175, 41.13343713424371
1175.5, 41.087849772132856
1176, 41.07364262968722
1176.5, 41.05654621947326
1177, 41.016065431605824
1177.5, 40.96012389019316
1178, 40.89569283087397
1178.5, 40.77825744215152
1179, 40.59203393630979
1179.5, 40.409007572296495
1180, 40.276251670563866
1180.5, 40.19606407826706
1181, 40.17572180045114
1181.5, 40.21070358484922
1182, 40.17614403633418
1182.5, 39.973892696029054
1183, 39.791163485774725
1183.5, 39.71943321426948
1184, 39.524150105756505
1184.5, 39.17866182779008
1185, 38.9322042306815
1185.5, 38.76959682890055
1186, 38.51949548842711
1186.5, 38.2789913242235
1187, 38.188597753636046
1187.5, 38.15576275583902
1188, 38.11996706326944
1188.5, 38.179577769850276
1189, 38.268521111094685
1189.5, 38.13916725681723
1190, 37.89118510209033
1190.5, 37.80987188018588
1191, 37.83635763413857
1191.5, 37.82637901301703
1192, 37.79961966787762
1192.5, 37.794983633246844
1193, 37.82135675084798
1193.5, 37.85872239676747
1194, 37.861550273869824
1194.5, 37.814735152110366
1195, 37.732823404460426
1195.5, 37.68456808226467
1196, 37.698231637015425
1196.5, 37.60947519017324
1197, 37.36059381824594
1197.5, 37.152332143684205
1198, 37.082986843358405
1198.5, 37.111430190327944
1199, 37.16929246747255
1199.5, 37.18821592436974
1200, 37.1720607049761
1200.5, 37.12945096549788
1201, 37.00633421085589
1201.5, 36.80942624840023
1202, 36.664877507012015
1202.5, 36.54426170455758
1203, 36.278411820628165
1203.5, 35.99040022646717
1204, 35.91612915095867
1204.5, 35.94277368295873
1205, 35.9256392166253
1205.5, 35.97060556082903
1206, 36.09449971005387
1206.5, 36.09899775367029
1207, 35.97449503772749
1207.5, 35.89446196579861
1208, 35.83097703006719
1208.5, 35.67814226246709
1209, 35.54153482314308
1209.5, 35.528413837477416
1210, 35.56006364371183
1210.5, 35.575184450072925
1211, 35.59094427411395
1211.5000000000002, 35.608811124142036
1212, 35.61196451070684
1212.5, 35.61102628799311
1213, 35.61713678810965
1213.5, 35.56866443548512
1214, 35.431949977597085
1214.5, 35.306793562214736
1215, 35.23192419997483
1215.5, 35.12184020970007
1216, 34.94374007294924
1216.5, 34.72602875639522
1217, 34.53700403252766
1217.5, 34.45574973476009
1218.0000000000002, 34.51921124900943
1218.5, 34.65150835380079
1219, 34.52563234729739
1219.5, 34.113141361680675
1220, 33.85902266407861
1220.5, 33.819909122231806
1221, 33.719801270579566
1221.5, 33.57211331185893
1222, 33.48462737960274
1222.5, 33.314800067117204
1223, 32.98788510346023
1223.5, 32.76249340139621
1224, 32.71847986272658
1224.5, 32.625283621415576
1225, 32.4379077734432
1225.5, 32.27532954087401
1226, 32.18651711593752
1226.5, 32.173007707636955
1227, 32.18765750981032
1227.5, 32.1895121903964
1228, 32.18218318195619
1228.5, 32.16673322990785
1229, 32.13275185818887
1229.5, 32.07860328221109
1230, 32.006130983544466
1230.5, 31.88583642656694
1231, 31.703778312435745
1231.5000000000002, 31.567488465051056
1232, 31.528629409669207
1232.5, 31.44771611743674
1233, 31.29845154468464
1233.5, 31.22246920513534
1234, 31.18253630988501
1234.5, 31.025006030560704
1235, 30.800932955510106
1235.5, 30.615401455688513
1236, 30.429753253866195
1236.5, 30.318828173276074
1237, 30.647029879801494
1237.5, 30.77977150797649
1238.0000000000002, 30.350951511335623
1238.5, 30.297801718257716
1239, 30.241823756635668
1239.5, 30.1831255438954
1240, 30.12181499746289
1240.5, 30.05800003476415
1241, 29.99178857322515
1241.5, 29.923288530271847
1242, 29.85260782333023
1242.5, 29.779854369826282
1243, 29.705136087185977
1243.5, 29.628560892835296
1244, 29.55023670420023
1244.5000000000002, 29.47027143870673
1245, 29.388773013780792
1245.5, 29.30584934684839
1246, 29.221608355335505
1246.5, 29.136157956668114
1247, 29.049606068272197
1247.5, 28.962060607573747
1248, 28.873629491998713
1248.5, 28.784420638973074
1249, 28.694541965922838
1249.5, 28.604101390273968
1250, 28.51320682945247
1250.5, 28.421966200884256
1251, 28.330487421995343
1251.5, 28.238878410211726
1252, 28.147247082959353
1252.5, 28.055701357664248
1253, 27.964349151752316
1253.5, 27.873298382649622
1254, 27.78265696778206
1254.5, 27.69253282457568
1255, 27.603033870456414
1255.5, 27.51426802285026
1256, 27.42634319918318
1256.5, 27.339367316881166
1257, 27.253448293370212
1257.5, 27.16869404607627
1258.0000000000002, 27.08521249242534
1258.5, 27.003111549843382
1259, 26.922499135756368
1259.5, 26.843483167590293
1260, 26.76617156277115
1260.5, 26.6906722387249
1261, 26.617093112877484
1261.5, 26.545542102654963
1262, 26.476127125483245
1262.5, 26.408956098788337
1263, 26.344136939996233
1263.5, 26.281777566532867
1264, 26.22198589582426
1264.5000000000002, 26.164869845296366
1265, 26.110537332375173
1265.5, 26.059096274486663
1266, 25.589131947215293
1266.5, 25.962897132552385
1267, 25.867862906251858
1267.5, 25.646273132488318
1268, 25.628815945064574
1268.5, 25.640360081173895
1269, 25.63269965639431
1269.5, 25.699725043428273
1270, 25.76343656043983
1270.5, 25.690701281690167
1271.0000000000002, 25.551928405501684
1271.5, 25.465859825969943
1272, 25.511532066838072
1272.5, 25.656629051460158
1273, 25.718598074694853
1273.5, 25.694232870844047
1274, 25.73072410156709
1274.5, 25.78401574439981
1275, 25.74163084015305
1275.5, 25.651194873499364
1276, 25.582230561686842
1276.5, 25.540345188865658
1277, 25.532761039162637
1277.5000000000002, 25.57892068976787
1278, 25.611642231908633
1278.5, 25.511913590390932
1279, 25.35803686515061
1279.5, 25.292815551394625
1280, 25.30262124881112
1280.5, 25.324373834441133
1281, 25.28224702699967
1281.5, 25.15592181495957
1282, 25.004901130118654
1282.5, 24.87679892939373
1283, 24.796631872716446
1283.5, 24.726933938958112
1284, 24.633669878499248
1284.5, 24.62297365713968
1285, 24.755733946960405
1285.5, 24.901706572142828
1286, 24.99595199177591
1286.5, 25.094533696915207
1287, 25.19668233739621
1287.5, 25.263789839383463
1288, 25.363083811990734
1288.5, 25.529062889243065
1289, 25.466022968057217
1289.5, 25.079349181603618
1290, 24.901550927141486
1290.5, 25.109676893926803
1291.0000000000002, 25.326544819900718
1291.5, 25.39470184769756
1292, 25.371534094503176
1292.5, 25.45643061874675
1293, 25.790095368594862
1293.5, 26.0553279981267
1294, 26.03917585414061
1294.5, 25.98500311662751
1295, 26.013549938867584
1295.5, 26.024759049008566
1296, 25.978087656962202
1296.5, 25.891109371744534
1297, 25.81310844007683
1297.5000000000002, 25.792390939591073
1298, 25.82616003738869
1298.5, 25.846191581848288
1299, 25.681324896350546
1299.5, 25.38208843621109
1300, 25.25290685975719
1300.5, 25.27357383155598
1301, 25.22593990324846
1301.5, 25.15167029923053
1302, 25.161355320296366
1302.5, 25.234979995645645
1303, 25.34427037611185
1303.5, 25.4989849787612
1304.0000000000002, 25.642277925647477
1304.5, 25.649326602654213
1305, 25.55697029236346
1305.5, 25.492156062222307
1306, 25.451241405624657
1306.5, 25.397803165268527
1307, 25.35577003991564
1307.5, 25.32982757617242
1308, 25.26692858114272
1308.5, 25.175754925060417
1309, 25.132188646316834
1309.5, 25.125176761801953
1310, 25.093850829777494
1310.5000000000002, 25.027245603441827
1311, 24.93320879715921
1311.5, 24.820429935085997
1312, 24.722319287408382
1312.5, 24.710639024743458
1313, 24.708923372404357
1313.5, 24.510736243796643
1314, 24.24191068361253
1314.5, 24.167338511164758
1315, 24.15633473282351
1315.5, 24.029644297300436
1316, 23.886046492046376
1316.5, 23.814866573303817
1317, 23.796331151279546
1317.5000000000002, 23.783377283896357
1318.0000000000002, 23.723450997243802
1318.5000000000002, 23.67940013512039
1319.0000000000002, 23.75147618249578
1319.5, 23.87260726157166
1320, 23.972381836790746
1320.5, 24.13404459283717
1321, 24.37937833195342
1321.5, 24.5864467991984
1322, 24.7254867265452
1322.5, 24.86041703496815
1323, 24.96781350678843
1323.5, 24.99123971184055
1324.0000000000002, 24.970611363166284
1324.5000000000002, 24.96254994864796
1325.0000000000002, 24.983643968631483
1325.5000000000002, 25.03380649698289
1326.0000000000002, 25.09776066871865
1326.5, 25.165233651810226
1327, 25.230296375614813
1327.5, 25.27233937344866
1328, 25.27008246239194
1328.5, 25.238457160372505
1329, 25.1939497835899
1329.5, 25.128076716109177
1330, 25.054673914705475
1330.5000000000002, 25.02563219072141
1331.0000000000002, 25.05144439567063
1331.5000000000002, 25.102822172708798
1332.0000000000002, 25.151500455371774
1332.5000000000002, 25.17640790920173
1333, 25.18411540945756
1333.5, 25.193309113165128
1334, 25.2320564533249
1334.5, 25.277240793671425
1335, 25.23497760883002
1335.5, 25.119433208845905
1336, 25.03331847356199
1336.5, 25.003341732008437
1337.0000000000002, 25.009240499827143
1337.5000000000002, 24.997295258085913
1338.0000000000002, 24.941788401972218
1338.5000000000002, 24.90701853392359
1339.0000000000002, 24.925883914864002
1339.5, 24.969203354504387
1340, 25.02077522294354
1340.5, 25.07731589813521
1341, 25.12273335594432
1341.5, 25.13778789327509
1342, 25.116738888939153
1342.5, 25.075032995944724
1343, 25.068386650256983
1343.5, 25.12080199748503
1344.0000000000002, 25.205543854456167
1344.5000000000002, 25.289590409082436
1345.0000000000002, 25.341994524992856
1345.5000000000002, 25.36373044260391
1346, 25.368410118756657
1346.5, 25.361784291290846
1347, 25.364322624104645
1347.5, 25.432164632531283
1348, 25.558599640718725
1348.5, 25.65278453027534
1349, 25.670169630920796
1349.5, 25.613604676128844
1350, 25.54351029922283
1350.5000000000002, 25.51507240939965
1351.0000000000002, 25.468125784952647
1351.5000000000002, 25.37346042655504
1352.0000000000002, 25.325127822577684
1352.5000000000002, 25.336032257381916
1353, 25.3057439045061
1353.5, 25.22732402188818
1354, 25.163668514832054
1354.5, 25.154125052833706
1355, 25.194777670328207
1355.5, 25.16176743850454
1356, 24.993362514871663
1356.5, 24.809680447003544
1357.0000000000002, 24.679753294419953
1357.5000000000002, 24.591922145232274
1358.0000000000002, 24.618649398388598
1358.5000000000002, 24.851341449289066
1359.0000000000002, 25.10031635282185
1359.5, 25.164966158292387
1360, 25.202440430147973
1360.5, 25.33837593792917
1361, 25.482851087914895
1361.5, 25.54927170975138
1362, 25.493870364930416
1362.5, 25.400537502335624
1363, 25.409488283589226
1363.5000000000002, 25.4888401173542
1364.0000000000002, 25.561021455926394
1364.5000000000002, 25.617939294740097
1365.0000000000002, 25.6571517613436
1365.5000000000002, 25.660532534028917
1366, 25.63915056897946
1366.5, 25.632137711137602
1367, 25.61153225796589
1367.5, 25.526476306233903
1368, 25.45132173171008
1368.5, 25.44847340602469
1369, 25.39553787309238
1369.5, 25.225660418347033
1370.0000000000002, 25.037320815739008
1370.5000000000002, 24.906655762577373
1371.0000000000002, 24.859694343643056
1371.5000000000002, 24.830406899734044
1372.0000000000002, 24.732127653002195
1372.5, 24.673514416110407
1373, 24.75416427863719
1373.5, 24.83729945369025
1374, 24.823568832585607
1374.5, 24.75609065707259
1375, 24.68678374476127
1375.5, 24.654550003047547
1376, 24.61929501648818
1376.5, 24.523139936164924
1377.0000000000002, 24.46175023018631
1377.5000000000002, 24.56463713410487
1378.0000000000002, 24.90720723544149
1378.5000000000002, 25.365990325773865
1379.0000000000002, 25.523745090545376
1379.5, 25.36507441194138
1380, 25.264494856942534
1380.5, 25.339569068836525
1381, 25.525232772536313
1381.5, 25.614459751576916
1382, 25.463353765836104
1382.5, 25.22809867311409
1383, 25.052658901248947
1383.5000000000002, 24.976123055342057
1384.0000000000002, 24.971984343429284
1384.5000000000002, 24.973414975688726
1385.0000000000002, 25.0254162343588
1385.5000000000002, 25.19817669884503
1386, 25.384194958533413
1386.5, 25.47152830113346
1387, 25.48069793909316
1387.5, 25.422574860826032
1388, 25.268482305916933
1388.5, 25.14681584074792
1389, 25.286097022007937
1389.5, 25.53499847296287
1390.0000000000002, 25.61703863780572
1390.5000000000002, 25.602495391679682
1391.0000000000002, 25.629486133635226
1391.5000000000002, 25.74922709488476
1392.0000000000002, 25.917295780092346
1392.5, 25.97804773003483
1393, 25.921863030398185
1393.5, 25.865543466999995
1394, 25.872835690389195
1394.5, 25.95681424829266
1395, 26.032355480507974
1395.5, 26.035877756740476
1396, 26.022135701478945
1396.5000000000002, 26.037314229031765
1397.0000000000002, 26.085388537295344
1397.5000000000002, 26.07952525102209
1398.0000000000002, 25.894006452907192
1398.5000000000002, 25.667269892988813
