300, 70.9887447260184
300.5, 70.90301130990986
301, 70.93414339059228
301.5, 70.96513545114091
302, 70.99886598609056
302.5, 71.03428603213048
303, 71.06432847858524
303.5, 71.10167220404588
304, 71.13415382528129
304.5, 71.18108106079987
305, 71.21446178106547
306, 71.28118391022659
306.5, 71.31521535878281
307, 71.35974218531092
307.5, 71.40075938843772
308, 71.46619555909638
308.5, 71.510398323236
309, 71.55733949076257
309.5, 71.59073965456719
310, 71.62601664277345
310.5, 71.66481685375715
311, 71.70641996872084
311.5, 71.75126200939104
312, 71.79230965644528
312.5, 71.85795187871848
313, 71.91252754964214
313.5, 71.98747938748606
314, 72.03850764463691
314.5, 72.09107177590377
315, 72.13111748282066
315.5, 72.17393601498209
316, 72.23688312086222
316.5, 72.29101628466692
317, 72.36614513812219
317.5, 72.42065286235302
318, 72.48615056926727
318.5, 72.54089098778896
319, 72.60203720169851
319.5, 72.6582100060118
320, 72.71496818263799
320.5, 72.76927241608749
321, 72.811077412051
321.5, 72.85757036012667
322, 72.90388419228432
322.5, 72.96881045433169
323, 73.02756656068937
323.5, 73.09807198834541
324, 73.14727841636801
324.5, 73.19640381240679
325, 73.25093824954364
325.5, 73.29485711859003
326, 73.35090656908254
326.5, 73.396767915283
327, 73.45211205767352
327.5, 73.49765319679474
328, 73.55017630263713
328.5, 73.59116053152033
329, 73.63186256080773
329.5, 73.67755445410138
330, 73.71878080042413
330.5, 73.78431506660056
331, 73.83350594989179
331.5, 73.8885795328518
332, 73.93440312274828
332.5, 73.98647598543407
333, 74.05178010202893
333.5, 74.11643293230208
334, 74.18972022105594
334.5, 74.24554940649523
335, 74.31124805330232
335.5, 74.35590763240907
336, 74.40152921410737
336.5, 74.43362727189873
337, 74.46806037273964
337.5, 74.52571339328851
338, 74.58194699246698
338.5, 74.64625299855972
339, 74.6891017921059
339.5, 74.72648805254634
340, 74.77108829352127
340.5, 74.83520763307492
341, 74.90217334402121
341.5, 74.97910485570596
342, 75.03753423189926
342.5, 75.09366190575182
343, 75.15830715799638
343.5, 75.21442104638797
344, 75.29879989438473
344.5, 75.37258636736524
345, 75.46352585901788
345.5, 75.52130710021862
346, 75.58067902476698
346.5, 75.6223738254154
347, 75.66666523800109
347.5, 75.74068355433523
348, 75.79884347493307
348.5, 75.8740288092628
349, 75.92583105897268
349.5, 75.97987010117441
350, 76.04584810772099
350.5, 76.12268771409165
351, 76.20135607394064
351.5, 76.26812874161591
352, 76.34232899681392
352.5, 76.40099509687248
353, 76.47622151606669
353.5, 76.52278675602578
354, 76.56746230253422
354.5, 76.6194483877805
355, 76.67946571181606
355.5, 76.75849048255078
356, 76.82501069619485
356.5, 76.89944877746842
357, 76.95791476186601
357.5, 77.03304551609796
358, 77.08966785857531
358.5, 77.15221384442863
359, 77.20657844010925
359.5, 77.2660187386063
360, 77.33677074532947
360.5, 77.39525967048709
361, 77.46058083087672
361.5, 77.51150618890955
362, 77.57712519933519
362.5, 77.64203133465995
363, 77.72234009925029
363.5, 77.78590634024684
364, 77.85243475756586
364.5, 77.91489671569906
365, 77.96893331872387
365.5, 78.0438144214952
366, 78.10886673867117
366.5, 78.20258658351175
367, 78.28021246150455
367.5, 78.36870601629786
368, 78.43279597039223
368.5, 78.50128309924655
369, 78.59967606425089
369.5, 78.68371513681481
370, 78.79613202051553
370.5, 78.86572775788893
371, 78.93138485416551
371.5, 78.98601728520336
372, 79.04753866596515
372.5, 79.11049826783712
373, 79.17735523263154
373.5, 79.25832272616272
374, 79.32312560626094
374.5, 79.39823234360117
375, 79.4452038298057
375.5, 79.49198622213486
376, 79.54849573493999
376.5, 79.61868071265614
377, 79.68290423661581
377.5, 79.74789074803277
378, 79.81138926794563
378.5, 79.87108782764018
379, 79.97357005345158
379.5, 80.06148960466062
380, 80.17257394303927
380.5, 80.23406799146154
381, 80.29589845354822
381.5, 80.3446496246203
382, 80.39467207479004
382.5, 80.45837045240442
383, 80.51855953481731
383.5, 80.62122903747088
384, 80.70933725272894
384.5, 80.82008909541838
385, 80.88127989125253
385.5, 80.94266301101813
386, 80.99946287323912
386.5, 81.05843127257232
387, 81.14055224105878
387.5, 81.20882713048617
388, 81.30250374230982
388.5, 81.37034595052927
389, 81.4437101446052
389.5, 81.51096336892464
390, 81.58901931766646
390.5, 81.68735331566538
391, 81.78091898335475
391.5, 81.86343894406001
392, 81.92352932748103
392.5, 81.98890368729909
393, 82.06046103236575
393.5, 82.16154234971827
394, 82.25232108413559
394.5, 82.35576045968965
395, 82.43041650827661
395.5, 82.50415112078207
396, 82.59609080078572
396.5, 82.66613425870476
397, 82.75054158479705
397.5, 82.81963414228224
398, 82.90171283569958
398.5, 82.99058551977194
399, 83.09304722822328
399.5, 83.19345226162626
400, 83.28681476562353
400.5, 83.37906891038699
401, 83.44316120090059
401.5, 83.50893216106189
402, 83.55801412722248
402.5, 83.61240004777257
403, 83.67224002888676
403.5, 83.7399867004949
404, 83.81591119211902
404.5, 83.88613985037492
405, 83.96018409851031
405.5, 84.01495552274375
406, 84.08059283177194
406.5, 84.14435184501146
407, 84.2258801012123
407.5, 84.31533137417023
408, 84.41706376412037
408.5, 84.49604814187353
409, 84.56395770214313
409.5, 84.647488895792
410, 84.71928362042469
410.5, 84.82252759812631
411, 84.90736079380056
411.5, 85.00629056526142
412, 85.1050724662047
412.5, 85.21500137667584
413, 85.32064269651545
413.5, 85.40639326259746
414, 85.49018754995217
414.5, 85.56197647876314
415, 85.66506272041332
415.5, 85.77078256652145
416, 85.9054333783326
416.5, 85.99489008997439
417, 86.08604056381571
417.5, 86.14844077865965
418, 86.20561603929802
418.5, 86.29895759891872
419, 86.37518540818502
419.5, 86.47843456185751
420, 86.55290273811428
420.5, 86.63279917896135
421, 86.68868044401783
421.5, 86.74943827052596
422, 86.8471919088977
422.5, 86.92974482981239
423, 87.03258139825783
423.5, 87.09879499938953
424, 87.16439540637174
424.5, 87.24088758330343
425, 87.33856523502911
425.5, 87.44030711387583
426, 87.5465844482565
426.5, 87.63642890213627
427, 87.71446500361684
427.5, 87.82706074146576
428, 87.92855148495573
428.5, 88.07832208328611
429, 88.20289783713913
429.5, 88.34358231947506
430, 88.44148248096806
430.5, 88.53871291316275
431, 88.62011026316297
431.5, 88.69880688724058
432, 88.83970644791202
432.5, 88.94932512930522
433, 89.08975238211792
433.5, 89.1549126687262
434, 89.20629965037502
434.5, 89.26857024800807
435, 89.3408134261836
435.5, 89.48522237634714
436, 89.6015449073637
436.5, 89.74184328250949
437, 89.8321122100823
437.5, 89.9148896567866
438, 89.97122992881657
438.5, 90.03279122977396
439, 90.15133411043145
439.5, 90.27276864756526
440, 90.39990940220052
440.5, 90.48656803886689
441, 90.55189477874639
441.5, 90.61403900911178
442, 90.69720359270435
442.5, 90.80773940924222
443, 90.94740952079266
443.5, 91.10186766486109
444, 91.2521066457074
444.5, 91.38907607549746
445, 91.48655881768315
445.5, 91.58041378849452
446, 91.63972562001914
446.5, 91.69452626851111
447, 91.76486389192623
447.5, 91.851555791732
448, 91.93379612049544
448.5, 92.01351176789261
449, 92.09599123363765
449.5, 92.15664263659099
450, 92.22252043080927
450.5, 92.2540032468439
451, 92.27185603167699
451.5, 92.36291838534875
452, 92.48307476408944
452.5, 92.62505985562133
453, 92.74556029147526
453.5, 92.78262007763777
454, 92.8077067990224
454.5, 92.83553761862974
455, 92.88630677164579
455.5, 92.96892398133127
456, 93.03854316433227
456.5, 93.11546279918439
457, 93.1821536616633
457.5, 93.24758206080334
458, 93.33063992537919
458.5, 93.39593798366187
459, 93.48044097898088
459.5, 93.54477789687752
460, 93.6173304541247
460.5, 93.67304385775975
461, 93.73259045657886
461.5, 93.85914890385486
462, 93.97837970421435
462.5, 94.11699691052401
463, 94.19388264924955
463.5, 94.23167163932727
464, 94.25278499197695
464.5, 94.27065872194956
465, 94.29274367207694
465.5, 94.3180996558934
466, 94.33574573430275
466.5, 94.35368092028486
467, 94.39081552457444
467.5, 94.42302307509078
468, 94.46995066189801
468.5, 94.50849370645608
469, 94.55346007362837
469.5, 94.5923499482643
470, 94.6340998739421
470.5, 94.66068065983922
471, 94.68309697130746
471.5, 94.71099508656177
472, 94.72968626137191
472.5, 94.7484413756646
473, 94.7691905258467
473.5, 94.79609840861767
474, 94.84035530589387
474.5, 94.89082799759856
475, 94.94393402115068
475.5, 94.9856188875148
476, 95.02295444385564
476.5, 95.05196666798854
477, 95.08940686851297
477.5, 95.13650252931764
478, 95.19906578618122
478.5, 95.26111219795737
479, 95.32805602584524
479.5, 95.39927327624655
480, 95.45370753562148
480.5, 95.50056124857996
481, 95.54702601152883
481.5, 95.6218727186317
482, 95.70592125501324
482.5, 95.81251329784949
483, 95.87130710901346
483.5, 95.9278273970437
484, 95.96385945827664
484.5, 95.9933884079068
485, 96.03095781220547
485.5, 96.07066475121175
486, 96.13614246660843
486.5, 96.19631020185902
487, 96.26672795452797
487.5, 96.32284908574725
488, 96.38146920406083
488.5, 96.45343129159811
489, 96.50875104306203
489.5, 96.56508219301737
490, 96.59755334654348
490.5, 96.62564189607691
491, 96.66074813821352
491.5, 96.7046036329564
492, 96.74503059596408
492.5, 96.78365933322233
493, 96.8018787412887
493.5, 96.81426860129694
494, 96.82373655147009
494.5, 96.82324030191315
495, 96.81382813739833
495.5, 96.79441807308467
496, 96.76811236112339
496.5, 96.72076081959652
497, 96.67089001687326
497.5, 96.60730196724576
498, 96.55814895246567
498.5, 96.5019558652004
499, 96.46433552032619
499.5, 96.42760901116226
500, 96.35510914270368
500.5, 96.25921680075565
501, 96.13756499208202
501.5, 96.0198982744392
502, 95.91936395025094
502.5, 95.84440448745241
503, 95.76046800768879
503.5, 95.6697734386733
504, 95.54070387171129
504.5, 95.40303564404738
505, 95.23808796517477
505.5, 95.15418346241664
506, 95.07532341119634
506.5, 95.00174713394887
507, 94.92642629652201
507.5, 94.78613037305387
508, 94.6579774038832
508.5, 94.49291408058806
509, 94.37989717721808
509.5, 94.25919706516287
510, 94.15166037869224
510.5, 94.04455358275588
511, 93.90650956003164
511.5, 93.78984417869222
512, 93.6212822858643
512.5, 93.46479938856012
513, 93.26383109009736
513.5, 93.10675500078256
514, 92.93588032320109
514.5, 92.76881379054105
515, 92.60874843165693
515.5, 92.42418879720643
516, 92.2874233500105
516.5, 92.1276664330169
517, 92.0161026757317
517.5, 91.89846462942626
518, 91.78422593758161
518.5, 91.65721479343652
519, 91.51335259603377
519.5, 91.38535463239495
520, 91.2742627365305
520.5, 91.19655931011378
521, 91.11203293225188
521.5, 91.04258623324597
522, 90.9613045143719
522.5, 90.84540494983919
523, 90.70921276925947
523.5, 90.57807293927357
524, 90.47464512392943
524.5, 90.40038319715754
525, 90.336137107124
525.5, 90.24255233137072
526, 90.12995597814871
526.5, 89.9764235236291
527, 89.837518783576
527.5, 89.68622724582514
528, 89.56267608622059
528.5, 89.46218926025824
529, 89.3597378358165
529.5, 89.27013616441752
530, 89.13887350853763
530.5, 89.0151557057728
531, 88.86276068505856
531.5, 88.76490192668659
532, 88.66451640797747
532.5, 88.57576620332198
533, 88.50259036746073
533.5, 88.41855953417489
534, 88.34978138653993
534.5, 88.25603746618438
535, 88.16782013764781
535.5, 88.06089297187219
536, 87.96674402889374
536.5, 87.86630652958567
537, 87.75941471335543
537.5, 87.67516733929338
538, 87.5909980398112
538.5, 87.53579733496898
539, 87.47954294452035
539.5, 87.42187512072323
540, 87.3509310375584
540.5, 87.29520336163344
541, 87.23570266697389
541.5, 87.15514469014721
542, 87.08798615172417
542.5, 87.00359773111555
543, 86.94179018660266
543.5, 86.86689325372103
544, 86.79316496780116
544.5, 86.70512033658277
545, 86.61820241904253
545.5, 86.52658254085652
546, 86.41856410099163
546.5, 86.33358613087218
547, 86.23964657120821
547.5, 86.17446049928225
548, 86.09964874341185
548.5, 86.01951645727323
549, 85.92327201718635
549.5, 85.80426311394542
550, 85.68443601767103
550.5, 85.58479256931736
551, 85.51497538646746
551.5, 85.45898002756746
552, 85.41296350046196
552.5, 85.35746265133375
553, 85.28273043153517
553.5, 85.1860782665896
554, 85.08106478455507
554.5, 84.97954945354422
555, 84.90661854388084
555.5, 84.85105048048605
556, 84.78607810963301
556.5, 84.70316208235432
557, 84.57351845480363
557.5, 84.47910922350549
558, 84.37401377230849
558.5, 84.33155905998527
559, 84.28972601150728
559.5, 84.23511338034331
560, 84.20547941937086
560.5, 84.2054258546806
561, 84.20511138193831
561.5, 84.20511839964335
562, 84.13717777798816
562.5, 84.04212771932161
563, 83.92758395860595
563.5, 83.81452499742086
564, 83.68623104305532
564.5, 83.59174541409033
565, 83.48848190001104
565.5, 83.41770241670518
566, 83.34473373212933
566.5, 83.29608652408167
567, 83.2443065544448
567.5, 83.21921140532831
568, 83.19499008862785
568.5, 83.16733467706901
569, 83.14041867651935
569.5, 83.09365420039337
570, 83.04606272278457
570.5, 82.98206406552333
571, 82.92798674235334
571.5, 82.86817003692991
572, 82.82606069156039
572.5, 82.79005710685028
573, 82.77144975638035
573.5, 82.74633783137635
574, 82.69022571116759
574.5, 82.62993159663512
575, 82.54793735520234
575.5, 82.5044890529599
576, 82.46207884805901
576.5, 82.42804731218226
577, 82.4006116416663
577.5, 82.39139213717186
578, 82.39315801626658
578.5, 82.41197880829402
579, 82.4173911521078
579.5, 82.41722692214795
580, 82.39084900651652
580.5, 82.35605352479473
581, 82.2950465829291
581.5, 82.24180373419742
582, 82.177025302142
582.5, 82.14985472088581
583, 82.1590058309221
583.5, 82.18168427755687
584, 82.21799654791437
584.5, 82.2018195877617
585, 82.17487659809257
585.5, 82.104858320849
586, 82.04725117406441
586.5, 81.99150611603194
587, 81.96345269889
587.5, 81.95398394090061
588, 81.94616821420807
588.5, 81.93723865043799
589, 81.9223703504021
589.5, 81.90599345570709
590, 81.89711448179234
590.5, 81.89307766010451
591, 81.9024321894387
591.5, 81.9132130018005
592, 81.93207597456968
592.5, 81.92606330433526
593, 81.90788382558672
593.5, 81.88469349015112
594, 81.86119661206195
594.5, 81.86088117404313
595, 81.85395067138164
595.5, 81.81652654747019
596, 81.78722488463242
596.5, 81.74963051765478
597, 81.74058625234885
597.5, 81.74101600328792
598, 81.733781963804
598.5, 81.72551052809509
599, 81.71665939306942
599.5, 81.7169134967461
600, 81.7450370385423
600.5, 81.76731371933616
601, 81.79556164253188
601.5, 81.7735220389642
602, 81.7288204621342
602.5, 81.65897684019976
603, 81.58617174667734
603.5, 81.52306350178002
604, 81.4774160382612
604.5, 81.43969960810311
605, 81.38832562219473
605.5, 81.29493308321912
606, 81.21690478780886
606.5, 81.12956069850229
607, 81.09512250739158
607.5, 81.06042423119975
608, 81.00613217149576
608.5, 80.95791450193589
609, 80.8837068845115
609.5, 80.79823383888625
610, 80.66829953422135
610.5, 80.56819594078289
611, 80.45366253694476
611.5, 80.38720295048968
612, 80.32165838041668
612.5, 80.24862297375084
613, 80.1678019775106
613.5, 79.99993346900222
614, 79.84582869730778
614.5, 79.64270156588222
615, 79.5295825251123
615.5, 79.41567711450473
616, 79.3253432828004
616.5, 79.23694052580011
617, 79.14548084472578
617.5, 79.06556116063743
618, 78.94398703744636
618.5, 78.84029755526552
619, 78.71159570460067
619.5, 78.62931857204383
620, 78.54244039570139
620.5, 78.46862844537189
621, 78.39242130939066
621.5, 78.28243017461446
622, 78.19217813775985
622.5, 78.07010180309533
623, 77.99310922504725
623.5, 77.92032149027278
624, 77.88425562478098
624.5, 77.84976530933514
625, 77.79995844911474
625.5, 77.75428422388555
626, 77.71742916033244
626.5, 77.688713274364
627, 77.65135303280267
627.5, 77.60681113918064
628, 77.54272239210133
628.5, 77.5078339370297
629, 77.47378162028839
629.5, 77.38200171019383
630, 77.29147556494473
630.5, 77.17159087963556
631, 77.0912704161718
631.5, 77.01627177399439
632, 76.94033842270875
632.5, 76.84024114387756
633, 76.74154162969639
633.5, 76.63182723088882
634, 76.57319008175674
634.5, 76.51428512803271
635, 76.4308599526356
635.5, 76.35405678076472
636, 76.23202935782776
636.5, 76.1370472397776
637, 76.02871767450526
637.5, 75.96258129336366
638, 75.89544415978864
638.5, 75.86861850666654
639, 75.84060632178412
639.5, 75.77567939813278
640, 75.7304300482735
640.5, 75.68330395874642
641, 75.66496714040586
641.5, 75.65639588738807
642, 75.62857520211469
642.5, 75.59370820718384
643, 75.53214281933447
643.5, 75.47285484401709
644, 75.3704865160467
644.5, 75.29609466225806
645, 75.21128063742191
645.5, 75.18872142110712
646, 75.18962287507281
646.5, 75.19050531244024
647, 75.18743584843062
647.5, 75.12587900278176
648, 75.0727204997696
648.5, 75.00738898724079
649, 74.95984409121569
649.5, 74.90362371311102
650, 74.84109069526316
650.5, 74.76072126465098
651, 74.7253901326149
651.5, 74.69337536329996
652, 74.68419814465393
652.5, 74.6733961095643
653, 74.64532536493921
653.5, 74.62376602967673
654, 74.59574115872691
654.5, 74.55029953493212
655, 74.4880418459529
655.5, 74.42494826776816
656, 74.36100673214325
656.5, 74.32501263229778
657, 74.3033251083686
657.5, 74.30330783725245
658, 74.30330501176368
658.5, 74.30332376009615
659, 74.29767615323729
659.5, 74.28877418387036
660, 74.28846281170337
660.5, 74.28696342244976
661, 74.26898417955054
661.5, 74.24987383299316
662, 74.2122939141844
662.5, 74.18322750182585
663, 74.14582470850176
663.5, 74.11445218231097
664, 74.07961497262662
664.5, 74.02462038486716
665, 73.96806270640369
665.5, 73.91380908123746
666, 73.88045483201658
666.5, 73.8710260281539
667, 73.86728061824064
667.5, 73.86734960492275
668, 73.83794630748676
668.5, 73.79415270560942
669, 73.73043440170808
669.5, 73.66517578569184
670, 73.59236598315678
670.5, 73.53159616523115
671, 73.44749805009904
671.5, 73.37875048476221
672, 73.29579691918966
672.5, 73.23949754403073
673, 73.17822541307358
673.5, 73.14473458249066
674, 73.11316986972884
674.5, 73.0855720335861
675, 73.04951393085938
675.5, 72.96533727253802
676, 72.89676995215399
676.5, 72.81409312528535
677, 72.80724446448285
677.5, 72.81551372687359
678, 72.8635907382439
678.5, 72.91653133982813
679, 73.00814208848708
679.5, 73.08147081368132
680, 73.17550500684504
680.5, 73.22513182589384
681, 73.2612041446728
681.5, 73.30443769926178
682, 73.35601485250386
682.5, 73.39845238232698
683, 73.42858300833689
683.5, 73.40111394950598
684, 73.37598394840498
684.5, 73.33837682222413
685, 73.31698037274035
685.5, 73.29893725341513
686, 73.27700884140042
686.5, 73.25146886717621
687, 73.21789668068695
687.5, 73.1873037111957
688, 73.1596085738181
688.5, 73.14078419237507
689, 73.1220492729761
689.5, 73.1018773923372
690, 73.07456278980479
690.5, 73.05126726736059
691, 73.02597204819368
691.5, 73.01758754144228
692, 73.00958518973718
692.5, 73.0003689275211
693, 72.99888209842949
693.5, 73.00819861273887
694, 73.02085143454855
694.5, 73.03899785962864
695, 73.06785643390458
695.5, 73.10167599769836
696, 73.12803499550832
696.5, 73.15063269271907
697, 73.17843493802232
697.5, 73.1944647457644
698, 73.20399854019256
698.5, 73.19650566071955
699, 73.17822928871487
699.5, 73.16982643502908
700, 73.16027539659875
700.5, 73.12534611360137
701, 73.09967197601918
701.5, 73.09044712883711
702, 73.09580664424264
702.5, 73.12393265143164
703, 73.14184807970139
703.5, 73.15962593967812
704, 73.17551864850277
704.5, 73.19102551369147
705, 73.18234574564895
705.5, 73.17287374232963
706, 73.15420282783535
706.5, 73.13988399164846
707, 73.12123675542922
707.5, 73.08423225273914
708, 73.03048521255509
708.5, 72.99047046019126
709, 72.94861485441587
709.5, 72.90398280588082
710, 72.86486342241687
710.5, 72.8087828774429
711, 72.77861227548823
711.5, 72.75969476312984
712, 72.76626315744333
712.5, 72.78432546999761
713, 72.81455514160454
713.5, 72.84900715580841
714, 72.90261915468169
714.5, 72.94159394291897
715, 72.96965301308492
715.5, 72.97346706944772
716, 72.9547806527667
716.5, 72.95629606144807
717, 72.9653734195659
717.5, 72.98147125455571
718, 72.9935475461903
718.5, 72.95774289359089
719, 72.92344277043304
719.5, 72.86706243421503
720, 72.82331005259995
720.5, 72.76718051000049
721, 72.73197875930519
721.5, 72.69724979436491
722, 72.6954660871193
722.5, 72.69619099126194
723, 72.70520329752647
723.5, 72.71267063268955
724, 72.72206650323255
724.5, 72.7256298486985
725, 72.72555083477052
725.5, 72.7257137321041
726, 72.72556575679992
726.5, 72.78752322079026
727, 72.85351945532749
727.5, 72.93513767438935
728, 72.98087213146914
728.5, 72.98113612657684
729, 72.96863899197378
729.5, 72.94074132132715
730, 72.92399315507367
730.5, 72.90639315328642
731, 72.92964211977322
731.5, 72.95383155319274
732, 72.98108655428864
732.5, 72.98849048968765
733, 72.96023153390344
733.5, 72.95494424336371
734, 72.96446318908718
734.5, 73.00911421787785
735, 73.06982014628312
735.5, 73.05499903892876
736, 73.0368187605061
736.5, 73.00033231017323
737, 72.9860440856592
737.5, 73.0046097151632
738, 73.02887630491529
738.5, 73.06565151819017
739, 73.1026671463998
739.5, 73.14575864300191
740, 73.1470135802449
740.5, 73.13707039240323
741, 73.0637362039804
741.5, 73.02046076930971
742, 73.0011706046213
742.5, 73.0275730869929
743, 73.09218620857531
743.5, 73.1336276665308
744, 73.17623720087457
744.5, 73.25169213305033
745, 73.32213891396806
745.5, 73.39584999309481
746, 73.43162944081524
746.5, 73.43182583555337
747, 73.42244767025002
747.5, 73.40408654550075
748, 73.4217826642094
748.5, 73.44705193007655
749, 73.48173354789013
749.5, 73.50163584391262
750, 73.46467902189238
750.5, 73.43780990142682
751, 73.40941809827548
751.5, 73.41101027826276
752, 73.42955566395453
752.5, 73.43877971821642
753, 73.4462954221742
753.5, 73.42039437358706
754.0000000000001, 73.39878179638056
754.5, 73.38028450400674
755, 73.37480718005233
755.5, 73.38418623690609
756, 73.3868589645212
756.5, 73.38672974454451
757, 73.41383561729276
757.5, 73.44832338077221
758, 73.50115346066643
758.5, 73.55131491423063
759, 73.63525204701831
759.5, 73.71987517948301
760, 73.8605680918615
760.5000000000001, 73.97639660799783
761, 74.1104857966982
761.5, 74.1997049983105
762, 74.29152716416992
762.5, 74.37165973944583
763, 74.44740929406564
763.5, 74.57807334356669
764, 74.67056942932011
764.5, 74.77404296413441
765, 74.81627079066448
765.5, 74.84210870814957
766, 74.86469658100297
766.5, 74.89411454062392
767, 74.99176435900458
767.5, 75.07638239477868
768, 75.18853397236175
768.5, 75.2449096560382
769, 75.27319535216334
769.5, 75.29681347137196
770, 75.32319885110358
770.5000000000001, 75.40563212466816
771, 75.4948769151412
771.5, 75.56670885569989
772, 75.61826693051852
772.5, 75.65594624639552
773, 75.71024557002852
773.5, 75.81312015282437
774, 75.89316339994954
774.5, 75.98082402829833
775, 76.05993390962554
775.5, 76.14621385458864
776, 76.28118609064188
776.5, 76.39071381771707
777, 76.52223296504636
777.5, 76.60908616981695
778, 76.70263722628287
778.5, 76.79268329090648
779, 76.89745483693243
779.5, 77.01651884272488
780, 77.14040790941424
780.5000000000001, 77.28519381187516
781, 77.39223938494119
781.5, 77.49530010888625
782, 77.555042100439
782.5, 77.6007995343411
783, 77.67372909409613
783.5, 77.77030384609913
784, 77.85206090471763
784.5, 77.92996510911844
785, 77.98480589509312
785.5, 78.03499664170845
786, 78.11889815997519
786.5, 78.20035255657866
787.0000000000001, 78.31118082493089
787.5, 78.40845695440402
788, 78.5220399375323
788.5, 78.58877133379214
789, 78.65181929392378
789.5, 78.70697929727746
790, 78.77451502458939
790.5, 78.92429889735763
791, 79.03759433147857
791.5, 79.16599697192405
792, 79.19861887796363
792.5, 79.21634674227455
793, 79.21665975427713
793.5, 79.21675151482927
794, 79.21690053533523
794.5, 79.23175259283018
795, 79.28763983674064
795.5, 79.35599706390828
796, 79.45708003170955
796.5, 79.51615733713535
797.0000000000001, 79.5766807182812
797.5, 79.56114018926826
798, 79.54027345398134
798.5, 79.4852372810048
799, 79.45446818551099
799.5, 79.4448755254132
800, 79.45110662030724
800.5, 79.46960319415192
801.0000000000001, 79.48524478567687
801.5, 79.50219637866206
802, 79.55247023862373
802.5, 79.60033075331133
803, 79.65570696714802
803.5000000000001, 79.69389696611721
804.0000000000001, 79.731744109219
804.5000000000001, 79.73355458780047
805, 79.71488282142265
805.5, 79.6593190752168
806, 79.59200609992139
806.5, 79.54953954895832
807.0000000000001, 79.51418660757464
807.5000000000001, 79.49576987008514
808, 79.49898499986183
808.5, 79.53645399455736
809, 79.56699644462607
809.5, 79.60316495878608
810, 79.58099438139676
810.5000000000001, 79.54578355883713
811.0000000000001, 79.46739150614864
811.5, 79.40025926157134
812, 79.3259650848202
812.5, 79.26461780544061
813, 79.18024972705558
813.5000000000001, 79.09567072670669
814.0000000000001, 78.98753328447327
814.5000000000001, 78.93522883329533
815, 78.88529580091132
815.5, 78.85865782735056
816, 78.8395031145001
816.5, 78.83015165060736
817.0000000000001, 78.81728180728084
817.5000000000001, 78.78962183087975
818, 78.69307217971333
818.5, 78.53975915704365
819, 78.4196633796256
819.5, 78.29878872898396
820.0000000000001, 78.2715068185815
820.5000000000001, 78.26206548378043
821.0000000000001, 78.29947475795127
821.5, 78.33897287285613
822, 78.4048428180744
822.5, 78.41039710974549
823, 78.39178992747603
823.5000000000001, 78.32581168006247
824.0000000000001, 78.2513071074482
824.5, 78.17979054879928
825, 78.11650787261621
825.5, 78.02289384174308
826, 77.95012258542806
826.5, 77.85639287431248
827.0000000000001, 77.77864979132359
827.5000000000001, 77.69033418216553
828, 77.61853955980823
828.5, 77.54373162073271
829, 77.46288755152827
829.5, 77.39013014039544
830.0000000000001, 77.2775750561068
830.5000000000001, 77.19376366689917
831.0000000000001, 77.0907204635027
831.5, 77.01627414899241
832, 76.93752192346196
832.5, 76.86560417994768
833, 76.79278075821857
833.5000000000001, 76.7295710086365
834.0000000000001, 76.67995441433816
834.5, 76.62358702066228
835, 76.58730786384507
835.5, 76.54985715156027
836, 76.52421450433931
836.5000000000001, 76.49828127164628
837.0000000000001, 76.42784304888839
837.5000000000001, 76.35927743373594
838, 76.33227824710973
838.5, 76.34722579221942
839, 76.47779938889659
839.5, 76.5802479218671
840.0000000000001, 76.70031862689981
840.5000000000001, 76.75159412041836
841.0000000000001, 76.79576535150073
841.5, 76.84305711241225
842, 76.90050706032424
842.5, 77.03649468732158
843, 77.12992364894427
843.5000000000001, 77.19704884657638
844.0000000000001, 77.14066469157821
844.5, 76.96345542968538
845, 76.8119170323551
845.5, 76.63749160516727
846, 76.41905460065827
846.5000000000001, 76.1969562993679
847.0000000000001, 75.92307748115303
847.5000000000001, 75.7257467279195
848, 75.5292100216183
848.5, 75.35948384447484
849, 75.14814261632576
849.5, 74.92880212709305
850.0000000000001, 74.6691006690243
850.5000000000001, 74.42093996013516
851, 74.19153918334695
851.5, 74.01716234734108
852, 73.90521555440223
852.5, 73.82088147767692
853.0000000000001, 73.74241911774389
853.5000000000001, 73.64166587552165
854.0000000000001, 73.45547073233845
854.5, 73.22377318197357
855, 73.03197336270996
855.5, 72.85468092910031
856, 72.69789559621967
856.5000000000001, 72.5618369342966
857.0000000000001, 72.35554726459704
857.5000000000001, 72.18692725337871
858, 71.98650236188321
858.5, 71.84238505869033
859, 71.68882770747219
859.5, 71.53806202096924
860.0000000000001, 71.39555787774361
860.5000000000001, 71.2386139361321
861, 71.12924208808329
861.5, 71.01627582624236
862, 70.95295855750604
862.5, 70.8990799726867
863.0000000000001, 70.88587291076549
863.5000000000001, 70.8773242827727
864.0000000000001, 70.87701140676545
864.5, 70.88145191958515
865, 70.90912955712646
865.5, 70.91959854081331
866, 70.91043632616567
866.5000000000001, 70.88301747761817
867.0000000000001, 70.83748445603888
867.5000000000001, 70.81300709944281
868, 70.78547848094324
868.5, 70.69847150602735
869, 70.62370177808373
869.5, 70.54042406244368
870.0000000000001, 70.51400125613588
870.5000000000001, 70.55120142688872
871, 70.60228088639255
871.5, 70.67453750781762
872, 70.72944677220494
872.5, 70.78984747740796
873.0000000000001, 70.87787947775553
873.5000000000001, 70.95662439972212
874.0000000000001, 71.06837231438301
874.5, 71.15293320187932
875, 71.25632679944113
875.5, 71.32032603838701
876, 71.3824934065359
876.5000000000001, 71.40862045845576
877.0000000000001, 71.43578237388068
877.5, 71.49756094653301
878, 71.54697525436598
878.5, 71.59361473359616
879, 71.6198997392474
879.5000000000001, 71.63860056654228
880.0000000000001, 71.6757592965465
880.5000000000001, 71.72944677902154
881, 71.78400506577115
881.5, 71.84138277205686
882, 71.88608710721329
882.5, 71.91962513034858
883.0000000000001, 71.94782004787794
883.5000000000001, 71.98689385680058
884.0000000000001, 72.06175837963718
884.5, 72.12951594440861
885, 72.20905044027526
885.5, 72.29468015438012
886, 72.38724976121684
886.5000000000001, 72.50354942963791
887.0000000000001, 72.58288694664884
887.5, 72.62046141838492
888, 72.6497220167634
888.5, 72.68717136391507
889, 72.71823626844072
889.5000000000001, 72.7534138514691
890.0000000000001, 72.74061634328625
890.5000000000001, 72.72354242517117
891, 72.69661994076111
891.5, 72.68069047823242
892, 72.68100068501421
892.5, 72.74809977626678
893.0000000000001, 72.91600775523762
893.5000000000001, 73.05644911294958
894.0000000000001, 73.21349375000987
894.5, 73.26596764769998
895, 73.32065357942004
895.5, 73.42924832251309
896.0000000000001, 73.52600823291263
896.5000000000001, 73.67468455614583
897.0000000000001, 73.83360372061937
897.5, 74.06535985286544
898, 74.2192035213977
898.5, 74.38664010248127
899, 74.43131223849517
899.5000000000001, 74.47636216722508
900.0000000000001, 74.55833086328039
900.5000000000001, 74.64048467855075
901, 74.79017237750294
901.5, 74.89958432348315
902, 75.01910001274244
902.5, 75.08770415479495
903.0000000000001, 75.15763797622614
903.5000000000001, 75.23158474311136
904, 75.29825351970763
904.5, 75.32589563512931
905, 75.34930270887808
905.5, 75.38626687344447
906.0000000000001, 75.45185944815077
906.5000000000001, 75.56271073917667
907.0000000000001, 75.64240998256497
907.5, 75.72899820667905
908, 75.84299827406842
908.5, 75.96290186683449
909, 76.14620864712639
909.5000000000001, 76.28484060314756
910.0000000000001, 76.44457673348757
910.5000000000001, 76.54313501634122
911, 76.63397753169546
911.5, 76.69176244122461
912, 76.75187376251702
912.5000000000001, 76.85164686377021
913.0000000000001, 76.9427931033043
913.5000000000001, 77.0165423853397
914, 77.0736010296607
914.5, 77.14797994323725
915, 77.27016136930334
915.5, 77.4625933711227
916.0000000000001, 77.65814168751463
916.5000000000001, 77.87934855012155
917.0000000000001, 78.16489184757887
917.5, 78.4280309605665
918, 78.6864274100913
918.5, 78.84384610753946
919, 78.95648947464342
919.5000000000001, 79.06844524928604
920.0000000000001, 79.21383129275212
920.5000000000001, 79.41815096522599
921, 79.65366207691035
921.5, 79.78216698481494
922, 79.8733223754797
922.5000000000001, 79.83644670482109
923.0000000000001, 79.80892788463954
923.5000000000001, 79.78066032592328
924, 79.76748653055735
924.5, 79.75864792093441
925, 79.75747555075247
925.5, 79.75799250949775
926.0000000000001, 79.7753529814454
926.5000000000001, 79.79068213526946
927.0000000000001, 79.80927621285012
927.5, 79.82676921219971
928, 79.85480556035442
928.5, 79.89333206313373
929.0000000000001, 79.94747738661079
929.5000000000001, 80.01490777524377
930.0000000000001, 80.08992433850118
930.5, 80.14294951348325
931, 80.17990148593182
931.5, 80.18926211472159
932, 80.2029011365389
932.5000000000001, 80.23095969943415
933.0000000000001, 80.26462414856094
933.5000000000001, 80.30949241351887
934, 80.34068624955658
934.5, 80.37802899852873
935, 80.4841538182906
935.5, 80.58506313261849
936.0000000000001, 80.75310490092251
936.5000000000001, 80.87117776613498
937.0000000000001, 81.0027143167392
937.5, 81.08416471422821
938, 81.16364941499761
938.5, 81.18438900047857
939.0000000000001, 81.20021111748399
939.5000000000001, 81.20048883131192
940.0000000000001, 81.20949112158296
940.5, 81.25639151275912
941, 81.30986656836536
941.5, 81.40344891614906
942, 81.49232639904221
942.5000000000001, 81.59842566770467
943.0000000000001, 81.70762092408489
943.5000000000001, 81.82641244700697
944, 81.9877013649695
944.5, 82.11791866544586
945, 82.26789600419531
945.5000000000001, 82.35205577565581
946.0000000000001, 82.41778139898653
946.5000000000001, 82.46669803838701
947.0000000000001, 82.51926707007507
947.5, 82.53655599895843
948, 82.5576896402933
948.5, 82.6296445340014
949.0000000000001, 82.69558615754347
949.5000000000001, 82.79881223502882
950.0000000000001, 82.84483528001655
950.5, 82.86364952656442
951, 82.90862208087334
951.5, 82.97014845589638
952, 83.01868896793187
952.5000000000001, 83.0688356123013
953.0000000000001, 83.13246251758184
953.5000000000001, 83.20125526543146
954, 83.34143895473375
954.5, 83.43946659708287
955, 83.54079671843844
955.5000000000001, 83.60640933589109
956.0000000000001, 83.67667585405215
956.5000000000001, 83.78843698854566
957, 83.90059256397112
957.5, 84.0100111996461
958, 84.10430788099856
958.5, 84.24437905887916
959.0000000000001, 84.36730610918036
959.5000000000001, 84.52406078088619
960.0000000000001, 84.59301291562328
960.5, 84.65431289226017
961, 84.73521280529744
961.5, 84.81730531473276
962.0000000000001, 84.91769243746488
962.5000000000001, 84.98353986375712
963.0000000000001, 85.0304047354895
963.5000000000001, 85.06880143922791
964, 85.11469315588
964.5, 85.16534095660069
965, 85.22591435600101
965.5000000000001, 85.27569530376896
966.0000000000001, 85.32182333515868
966.5000000000001, 85.35863571639868
967, 85.39232101452228
967.5, 85.44820221903953
968, 85.52144379209732
968.5, 85.63169193600986
969.0000000000001, 85.76219935002486
969.5000000000001, 85.9167935200811
970.0000000000001, 86.01700842198758
970.5, 86.1109864275916
971, 86.20312836532048
971.5, 86.27508459456742
972.0000000000001, 86.36848044040725
972.5000000000001, 86.48268609500273
973.0000000000001, 86.64731730528459
973.5000000000001, 86.8125258179086
974, 87.00015896833781
974.5, 87.0752966520066
975, 87.14619928006927
975.5000000000001, 87.22015879937598
976.0000000000001, 87.28070266654021
976.5000000000001, 87.36511020331406
977, 87.43919466187145
977.5, 87.52992309401321
978, 87.64106862633358
978.5, 87.76737716009552
979.0000000000001, 87.86076059824914
979.5000000000001, 87.94093791738246
980.0000000000001, 87.99686218233266
980.5, 88.07509707023675
981, 88.2440781912758
981.5, 88.36238800025095
982.0000000000001, 88.48841765429603
982.5000000000001, 88.51494212205057
983.0000000000001, 88.5345479244275
983.5, 88.62149368502325
984, 88.69498546575497
984.5, 88.76944075856214
985, 88.84919543093731
985.5000000000001, 88.98983747906604
986.0000000000001, 89.11550391128505
986.5000000000001, 89.26840656257666
987, 89.331265403507
987.5, 89.39228582587485
988, 89.4890795752393
988.5000000000001, 89.57375479974476
989.0000000000001, 89.68529183791469
989.5000000000001, 89.73499960717785
990.0000000000001, 89.73545964321161
990.5, 89.69381206869109
991, 89.62143965676974
991.5, 89.64853521855729
992.0000000000001, 89.69664719680422
992.5000000000001, 89.8644263035428
993.0000000000001, 90.01316841261013
993.5, 90.21843352693186
994, 90.3390782490193
994.5, 90.43323143857087
995, 90.48384559647795
995.5000000000001, 90.52773938087479
996.0000000000001, 90.55220417780988
996.5000000000001, 90.57957234389299
997, 90.6420842558302
997.5, 90.71114124816218
998, 90.86081862947083
998.5000000000001, 90.95574411299064
999.0000000000001, 91.04934371020055
999.5000000000001, 91.18275805316813
1000.0000000000001, 91.36029102111328
1000.5, 91.51325543283961
1001, 91.65991366202456
1001.5, 91.67891279888623
1002.0000000000001, 91.69618763120053
1002.5000000000001, 91.73377157160522
1003.0000000000001, 91.7737022867923
1003.5, 91.83918799283981
1004, 91.88829529667785
1004.5, 91.94065913782595
1005.0000000000001, 92.05547165200707
1005.5000000000001, 92.18119146626553
1006.0000000000001, 92.3430500212633
1006.5000000000001, 92.44544746389239
1007, 92.47370482657209
1007.5, 92.48782653063317
1008, 92.49712593810644
1008.5000000000001, 92.54591747053387
1009.0000000000001, 92.61637236145164
1009.5000000000001, 92.66578486037525
1010, 92.71253748649556
1010.5, 92.74014060622213
1011, 92.78347058053741
1011.5, 92.9047848407184
1012.0000000000001, 92.99981058153887
1012.5000000000001, 93.11061064910687
1013.0000000000001, 93.18977512692392
1013.5, 93.27758327575864
1014, 93.3980522988091
1014.5, 93.5164118486884
1015.0000000000001, 93.61665878304333
1015.5000000000001, 93.68971300186729
1016.0000000000001, 93.76427554780543
1016.5000000000001, 93.84257753468475
1017, 93.95343407731585
1017.5, 94.07492907522386
1018, 94.2232825507884
1018.5000000000001, 94.27539338504809
1019.0000000000001, 94.31906222915802
1019.5000000000001, 94.32844456003224
1020, 94.34239308179936
1020.5, 94.37963150301648
1021, 94.4235873290332
1021.5000000000001, 94.48808203223378
1022.0000000000001, 94.60874283774466
1022.5000000000001, 94.76140200373872
1023.0000000000001, 95.03809871056835
1023.5, 95.29928448994661
1024, 95.52635672811597
1024.5, 95.67919732609022
1025, 95.81486881001675
1025.5, 95.95539884101608
1026, 96.14799191834885
1026.5, 96.24844992023345
1027, 96.3471763484261
1027.5, 96.3423973117907
1028, 96.33352982749518
1028.5, 96.30086660123843
1029, 96.30584043967204
1029.5, 96.38304512896292
1030, 96.48821899059908
1030.5, 96.64603404530618
1031, 96.73063670288592
1031.5, 96.81311273567812
1032, 96.98140305801621
1032.5, 97.13649261757536
1033, 97.29185643886537
1033.5, 97.3573442190405
1034, 97.32698957951908
1034.5, 97.30818887889282
1035, 97.28973437565061
1035.5, 97.30635908972819
1036, 97.33031808751615
1036.5, 97.44306009992964
1037, 97.5475270279492
1037.5, 97.66440737662049
1038, 97.74113642194729
1038.5, 97.81353514029836
1039, 97.87406025070314
1039.5, 97.94524282508786
1040, 98.06256781257399
1040.5, 98.20078131425281
1041, 98.33195253692175
1041.5, 98.42552988506355
1042, 98.44154531107014
1042.5, 98.46817182183457
1043, 98.52700681508229
1043.5, 98.58709304278243
1044, 98.66427847442121
1044.5, 98.71207435609368
1045, 98.76042272289853
1045.5, 98.790873666959
1046, 98.81638337274454
1046.5, 98.8479489551753
1047, 98.87310964795458
1047.5, 98.9054664627949
1048, 98.90299186901547
1048.5, 98.8837266336964
1049, 98.88987527563393
1049.5, 98.90220132124631
1050, 98.95727439462117
1050.5, 99.0004146149984
1051, 99.03603051318225
1051.5, 99.08114334205025
1052, 99.16549844158693
1052.5, 99.2296778451453
1053, 99.30066784163044
1053.5, 99.31334729674391
1054, 99.32189344475965
1054.5, 99.33074052361545
1055, 99.33266708647879
1055.5, 99.31390817550427
1056, 99.29262125291363
1056.5, 99.25522991579514
1057, 99.21023374329621
1057.5, 99.15262283987778
1058, 99.10418824376542
1058.5, 99.05800229833504
1059, 99.05329492634647
1059.5, 99.05695763427178
1060, 99.0851368608969
1060.5, 99.11452425815256
1061, 99.16139930741332
1061.5, 99.16483729476842
1062, 99.15398392982682
1062.5, 99.0647435954719
1063, 98.96870392559187
1063.5, 98.87554862348686
1064, 98.82026881164533
1064.5, 98.81855693617806
1065, 98.82944114835205
1065.5, 98.85834375183262
1066, 98.87498625646754
1066.5, 98.89050434867825
1067, 98.91121303857129
1067.5, 98.93177867948435
1068, 98.94734934734366
1068.5, 98.95004974296444
1069, 98.92324725555997
1069.5, 98.89229042750631
1070, 98.84525902795014
1070.5, 98.81317616352446
1071, 98.77815157585667
1071.5, 98.74077271365529
1072, 98.69910482993787
1072.5, 98.62369957688968
1073, 98.56760853230054
1073.5, 98.51056478579129
1074, 98.48729113305419
1074.5, 98.48192674750806
1075, 98.48508573471194
1075.5, 98.49086643809345
1076, 98.48141996897301
1076.5, 98.46654402768529
1077, 98.41553461199354
1077.5, 98.36299915700285
1078, 98.2658921826518
1078.5, 98.18043103182393
1079, 98.07211517530563
1079.5, 98.01981185003554
1080, 97.97003370616507
1080.5, 97.97678496234151
1081, 97.99055657086222
1081.5, 98.0454865592204
1082, 98.08700488969323
1082.5, 98.13393407543359
1083, 98.16778425975136
1083.5, 98.20425371743555
1084, 98.25406899750158
1084.5, 98.31414491611494
1085, 98.34810571069336
1085.5, 98.3738099638317
1086, 98.36453264230633
1086.5, 98.3390034697329
1087, 98.26484392494594
1087.5, 98.12863138937925
1088, 97.9086727244724
1088.5, 97.73620419580463
1089, 97.54837489306813
1089.5, 97.56543951237924
1090, 97.58491738587908
1090.5, 97.63089803033849
1091, 97.64523496303998
1091.5, 97.6174602982247
1092, 97.56550126308903
1092.5, 97.48337274991484
1093, 97.40646597394316
1093.5, 97.32210465258548
1094, 97.23848391201268
1094.5, 97.14682021896976
1095, 96.9800519848513
1095.5, 96.85064700635625
1096, 96.68970347335281
1096.5, 96.71828531729362
1097, 96.85658698860142
1097.5, 97.0488408967049
1098, 97.26406831678048
1098.5, 97.30944660225884
1099, 97.33178514310833
1099.5, 97.29444285102475
1100, 97.24104060076833
1100.5, 97.1286198227135
1101, 97.02076897267942
1101.5, 96.88584550707415
1102, 96.7817023016937
1102.5, 96.67690421740662
1103, 96.6848462230538
1103.5, 96.70485583091443
1104, 96.77920228333758
1104.5, 96.80869415609023
1105, 96.79949295891502
1105.5, 96.78643580424026
1106, 96.76855044711601
1106.5, 96.70428028831456
1107, 96.62652325973767
1107.5, 96.50272632755406
1108, 96.40942909225154
1108.5, 96.34401234636837
1109, 96.2934293659162
1109.5, 96.22801994328704
1110, 96.12497810850641
1110.5, 95.98204734217431
1111, 95.86970733893637
1111.5, 95.7566879861593
1112, 95.69373215234559
1112.5, 95.64409204002834
1113, 95.5881116055937
1113.5, 95.58268705896498
1114, 95.62936067097688
1114.5, 95.66233726444311
1115, 95.69765541187657
1115.5, 95.65545773995234
1116, 95.60925728832522
1116.5, 95.59993364368819
1117, 95.58897765420816
1117.5, 95.56075346713904
1118, 95.52432221906221
1118.5, 95.45882760998545
1119, 95.42120944823242
1119.5, 95.38658215262588
1120, 95.30227338437338
1120.5, 95.2117486848781
1121, 95.11244803840006
1121.5, 95.03098023878863
1122, 94.92756880568678
1122.5, 94.8510992304505
1123, 94.75757753219435
1123.5, 94.69668743265618
1124, 94.63619198732769
1124.5, 94.53339779690856
1125, 94.43218245974784
1125.5, 94.36857049125518
1126, 94.32903699364515
1126.5, 94.31105672694392
1127, 94.25032783995724
1127.5, 94.12934881281473
1128, 94.00096074853391
1128.5, 93.84301870685577
1129, 93.71269897234173
1129.5, 93.58123521256958
1130, 93.42653397370377
1130.5, 93.31336398242804
1131, 93.20069068144646
1131.5, 93.13875626894922
1132, 93.09330209055967
1132.5, 93.08533147356833
1133, 93.0855815040183
1133.5, 92.93544711101923
1134, 92.77232753267903
1134.5, 92.5169780472974
1135, 92.35784391995946
1135.5, 92.27304280877675
1136, 92.23019488022332
1136.5, 92.20319655968966
1137, 92.15548558797617
1137.5, 92.09505101398885
1138, 92.03689859781451
1138.5, 91.98516207562945
1139, 91.95751332627074
1139.5, 91.93594324177107
1140, 91.90771818381977
1140.5, 91.89371729650723
1141, 91.88476721146077
1141.5, 91.84492010538169
1142, 91.79384788321578
1142.5, 91.65272402995988
1143, 91.52045175872416
1143.5, 91.39139840794321
1144, 91.29008727051061
1144.5, 91.15870593441696
1145, 91.05604764917851
1145.5, 90.93779576685293
1146, 90.86334018495673
1146.5, 90.78661150636457
1147, 90.71923327589201
1147.5, 90.6594806670466
1148, 90.61310366419862
1148.5, 90.56304149258224
1149, 90.46916181079833
1149.5, 90.4018134659092
1150, 90.32956411946554
1150.5, 90.2001538492003
1151, 90.0481076826184
1151.5, 89.83518323333003
1152, 89.65485105080849
1152.5, 89.53436258286301
1153, 89.45599372748427
1153.5, 89.38077956326062
1154, 89.32401988342562
1154.5, 89.26101301064556
1155, 89.18649216515936
1155.5, 89.10257299188511
1156, 89.04982389392772
1156.5, 89.01676012511817
1157, 89.03528567176848
1157.5, 89.04126664793807
1158, 89.03240510454813
1158.5, 88.95787772487168
1159, 88.83104543935366
1159.5, 88.67281303434949
1160, 88.4999320133363
1160.5, 88.4197859191953
1161, 88.36765981942551
1161.5, 88.36758747915995
1162, 88.35775586912067
1162.5, 88.32961939715851
1163, 88.31155903448314
1163.5, 88.29388356224557
1164, 88.22917732220989
1164.5, 88.15330218270486
1165, 88.06467307885357
1165.5, 87.99826420613105
1166, 87.9514292399705
1166.5, 87.89851268162381
1167, 87.80494590924322
1167.5, 87.70021350405187
1168, 87.56665469898881
1168.5, 87.42629047555957
1169, 87.28009633643293
1169.5, 87.18156030168815
1170, 87.11308554965701
1170.5, 87.07561426767343
1171, 87.05004561757652
1171.5, 87.02198209272231
1172, 86.98173480413668
1172.5, 86.92861090968654
1173, 86.82923255616062
1173.5, 86.72424688843485
1174, 86.64319335421682
1174.5, 86.57852997930902
1175, 86.50322354897943
1175.5, 86.4049572793605
1176, 86.22727043672404
1176.5, 86.10184391336163
1177, 85.97091353441986
1177.5, 85.8207940583308
1178, 85.66735781327446
1178.5, 85.53213633661939
1179, 85.45264687495751
1179.5, 85.45224895472265
1180, 85.38860984520615
1180.5, 85.23016566035037
1181, 85.05629346864167
1181.5, 84.84652091844121
1182, 84.72968975130541
1182.5, 84.61632942305413
1183, 84.50712215611729
1183.5, 84.3980486443571
1184, 84.19341806520431
1184.5, 83.98451178611498
1185, 83.68815551360031
1185.5, 83.52271172115138
1186, 83.35528774362331
1186.5, 83.31079223369653
1187, 83.2656955348439
1187.5, 83.1836066319867
1188, 83.096909090704
1188.5, 82.92874201356643
1189, 82.78729500469782
1189.5, 82.61228670816152
1190, 82.56508732182468
1190.5, 82.53824764313454
1191, 82.60136447101152
1191.5, 82.66483756330386
1192, 82.72891522148834
1192.5, 82.78056001654754
1193, 82.84703026565465
1193.5, 82.82993361548077
1194, 82.74599818889867
1194.5, 82.62683050572608
1195, 82.47998635093617
1195.5, 82.35592738450478
1196, 82.23611482318847
1196.5, 82.1076969451013
1197, 82.02360876888325
1197.5, 81.9575930166827
1198, 81.93121685180645
1198.5, 81.9226069970795
1199, 81.93384706822643
1199.5, 81.95128224000094
1200, 81.8457851611779
1200.5, 81.71985376543043
1201, 81.4439421702182
1201.5, 81.2485362769853
1202, 81.05072395121638
1202.5, 80.9551339063032
1203, 80.89272403006238
1203.5, 80.82525115843764
1204, 80.74900639030011
1204.5, 80.51356481753834
1205, 80.29204504916741
1205.5, 80.0430964632543
1206, 79.92611936864904
1206.5, 79.93481177058891
1207, 79.97612352417407
1207.5, 80.04924599620361
1208, 80.14489314491213
1208.5, 80.2535161552864
1209, 80.25500610670478
1209.5, 80.23100699361456
1210, 80.08295719826296
1210.5, 79.98679310721091
1211, 79.90219337734833
1211.5000000000002, 79.83286238655818
1212, 79.75169008057841
1212.5, 79.70837235015046
1213, 79.66798283747228
1213.5, 79.69330282697679
1214, 79.70021576574734
1214.5, 79.62558045922103
1215, 79.5269995857258
1215.5, 79.3298000970077
1216, 79.20389467089346
1216.5, 79.07895758341371
1217, 78.99951030618617
1217.5, 78.90912224220585
1218.0000000000002, 78.68951159634966
1218.5, 78.50340449956491
1219, 78.28942493713875
1219.5, 78.17934382144679
1220, 78.1320772627535
1220.5, 78.0994927886216
1221, 78.06572684102848
1221.5, 78.03250105304338
1222, 77.99523109886327
1222.5, 77.94027848260535
1223, 77.8944746410549
1223.5, 77.84083053801976
1224, 77.80429719430244
1224.5, 77.76530924158051
1225, 77.7133221159785
1225.5, 77.61706110921475
1226, 77.48073222918059
1226.5, 77.32721396997661
1227, 77.15888697569896
1227.5, 76.97813189044376
1228, 76.78732935830718
1228.5, 76.58886002338535
1229, 76.3851045297744
1229.5, 76.17844352157049
1230, 75.97125764286974
1230.5, 75.76592753776832
1231, 75.56483385036232
1231.5000000000002, 75.37035722474795
1232, 75.1848783050213
1232.5, 75.0107777352785
1233, 74.85043615961575
1233.5, 74.70623422212915
1234, 74.58055256691486
1234.5, 74.41495263142822
1235, 74.29619144895432
1235.5, 74.17123719466484
1236, 74.0177610328507
1236.5, 73.88756204184443
1237, 73.7090151157643
1237.5, 73.5940669894373
1238.0000000000002, 73.47257693315161
1238.5, 73.31200001503178
1239, 73.11075851425196
1239.5, 72.96235063608408
1240, 72.82684349600844
1240.5, 72.78969614317128
1241, 72.7419006809141
1241.5, 72.62041495716048
1242, 72.53385401368479
1242.5, 72.441757982124
1243, 72.44332844664694
1243.5, 72.46914803886186
1244, 72.54849297565713
1244.5000000000002, 72.6268361000625
1245, 72.69057182829148
1245.5, 72.72710951113928
1246, 72.73571079340176
1246.5, 72.79898487741387
1247, 72.92894348685897
1247.5, 73.04769596175429
1248, 73.1874125455803
1248.5, 73.17594746801666
1249, 73.15047965971196
1249.5, 73.05003953353388
1250, 72.9621133729873
1250.5, 72.83134183016
1251, 72.70208179979213
1251.5, 72.52737067995498
1252, 72.35699569003809
1252.5, 72.15804886831823
1253, 72.04098018050972
1253.5, 71.93257977548767
1254, 71.84055753825947
1254.5, 71.76042744815494
1255, 71.63843874586212
1255.5, 71.5527571322856
1256, 71.46162090826743
1256.5, 71.45510502911748
1257, 71.46327957572895
1257.5, 71.49710777768765
1258.0000000000002, 71.52130508879878
1258.5, 71.50298604913502
1259, 71.48796833589495
1259.5, 71.46915398124553
1260, 71.45856819888448
1260.5, 71.44954841650966
1261, 71.46137727172626
1261.5, 71.47833646654554
1262, 71.4630548068259
1262.5, 71.4273812568884
1263, 71.27963566662685
1263.5, 71.16235264800426
1264, 71.0117621440065
1264.5000000000002, 70.93250928381852
1265, 70.86991492183529
1265.5, 70.85594444756228
1266, 70.84777703507088
1266.5, 70.89045682142539
1267, 70.92697043795164
1267.5, 70.9547573129075
1268, 70.97070834430987
1268.5, 70.98037109256194
1269, 70.95809882062487
1269.5, 70.91245691217837
1270, 70.86145314815452
1270.5, 70.79869948499362
1271.0000000000002, 70.6415715807327
1271.5, 70.50312434431365
1272, 70.32690718340335
1272.5, 70.23726980840904
1273, 70.20874207758297
1273.5, 70.20084598346706
1274, 70.201132795252
1274.5, 70.21527231093447
1275, 70.23096606267896
1275.5, 70.22230161353282
1276, 70.21122451189898
1276.5, 70.18315561884353
1277, 70.14523658653613
1277.5000000000002, 70.07024192698792
1278, 70.00861575292603
1278.5, 69.93715167509971
1279, 69.94524036917637
1279.5, 69.96080285639653
1280, 69.9611161206332
1280.5, 69.97137348346949
1281, 70.02750145982542
1281.5, 70.08158073407714
1282, 70.1661248174204
1282.5, 70.19785657964883
1283, 70.21488510887167
1283.5, 70.22301508159234
1284, 70.2331134373663
1284.5, 70.26873908949976
1285, 70.3025831342202
1285.5, 70.35884288365476
1286, 70.41244699071792
1286.5, 70.4965437409685
1287, 70.61125015269748
1287.5, 70.7619207290441
1288, 70.89775612213455
1288.5, 71.03266129813105
1289, 71.10495705377139
1289.5, 71.1557633801252
1290, 71.19352419261031
1290.5, 71.25916956164662
1291.0000000000002, 71.39004847876684
1291.5, 71.55421968450182
1292, 71.57853545620968
1292.5, 71.57180051530906
1293, 71.56451115013124
1293.5, 71.55670614036353
1294, 71.54842426569331
1294.5, 71.53970430580792
1295, 71.53058504039464
1295.5, 71.52110524914089
1296, 71.51130371173396
1296.5, 71.5012192078612
1297, 71.49089051720996
1297.5000000000002, 71.4803564194676
1298, 71.4696556943214
1298.5, 71.45882712145875
1299, 71.447909480567
1299.5, 71.43694155133346
1300, 71.42596211344551
1300.5, 71.41500994659043
1301, 71.4041238304556
1301.5, 71.39334254472838
1302, 71.38270486909606
1302.5, 71.372249583246
1303, 71.36201546686559
1303.5, 71.35204129964208
1304.0000000000002, 71.34236586126289
1304.5, 71.33302793141533
1305, 71.32406628978673
1305.5, 71.31551971606444
1306, 71.30742698993583
1306.5, 71.2998268910882
1307, 71.29275819920889
1307.5, 71.28625969398529
1308, 71.27600706924922
1308.5, 71.25906948331702
1309, 71.24065876858019
1309.5, 71.16905764981128
1310, 71.0742884765299
1310.5000000000002, 70.9676197639453
1311, 70.85928645630081
1311.5, 70.71243923262656
1312, 70.60098874877004
1312.5, 70.4696248740719
1313, 70.37115262812816
1313.5, 70.26173482905014
1314, 70.08639843827571
1314.5, 69.87218674078007
1315, 69.74530439881573
1315.5, 69.64431746637722
1316, 69.64413153374858
1316.5, 69.65606442576828
1317, 69.69354495423246
1317.5000000000002, 69.72417290386798
1318.0000000000002, 69.76056933958263
1318.5000000000002, 69.78503235693371
1319.0000000000002, 69.81056112505013
1319.5, 69.84414908669072
1320, 69.87610917633968
1320.5, 69.91326139837508
1321, 69.96202841661125
1321.5, 70.06527294585757
1322, 70.14004813033553
1322.5, 70.2213725295041
1323, 70.29162865797542
1323.5, 70.3678787332072
1324.0000000000002, 70.48750947082557
1324.5000000000002, 70.58484200698156
1325.0000000000002, 70.63125050096262
1325.5000000000002, 70.66406505118277
1326.0000000000002, 70.70187740396945
1326.5, 70.70241510513392
1327, 70.68390464697006
1327.5, 70.57901632942936
1328, 70.45680217976387
1328.5, 70.47320896326522
1329, 70.50340962939916
1329.5, 70.60542837777096
1330, 70.654686203648
1330.5000000000002, 70.66419449560777
1331.0000000000002, 70.67741233041794
1331.5000000000002, 70.6953511869574
1332.0000000000002, 70.7799237227994
1332.5000000000002, 70.88064249700865
1333, 70.9775718365988
1333.5, 71.04073821010078
1334, 71.03140710167742
1334.5, 71.02117480087472
1335, 71.002455809022
1335.5, 70.98162462553715
1336, 70.95480167106217
1336.5, 70.90997911543953
1337.0000000000002, 70.86067039139384
1337.5000000000002, 70.82517402425216
1338.0000000000002, 70.80761806770954
1338.5000000000002, 70.83570454449027
1339.0000000000002, 70.86750491111931
1339.5, 70.9237224203581
1340, 70.97007132765441
1340.5, 71.02336530589237
1341, 71.01331072008723
1341.5, 70.99513278298015
1342, 70.95070529227323
1342.5, 70.91872698798112
1343, 70.89997582569049
1343.5, 70.88517516182092
1344.0000000000002, 70.86636920009663
1344.5000000000002, 70.86764193986757
1345.0000000000002, 70.87672763505412
1345.5000000000002, 70.90654407575695
1346, 70.94096677152847
1346.5, 70.99472913783275
1347, 71.03542761809194
1347.5, 71.07282279582367
1348, 71.0693976025649
1348.5, 71.02281880714855
1349, 70.9723612317109
1349.5, 70.91087584086341
1350, 70.84807640615409
1350.5000000000002, 70.77753431438622
1351.0000000000002, 70.65146799355882
1351.5000000000002, 70.55578982284263
1352.0000000000002, 70.46181866479502
1352.5000000000002, 70.41090009162126
1353, 70.3732695290465
1353.5, 70.40662500029714
1354, 70.46869621927115
1354.5, 70.51901861131232
1355, 70.55589247352474
1355.5, 70.48389027334059
1356, 70.42393558462311
1356.5, 70.34904714058169
1357.0000000000002, 70.30035598035462
1357.5000000000002, 70.25443318882516
1358.0000000000002, 70.22859188473362
1358.5000000000002, 70.20215294637835
1359.0000000000002, 70.20728300470772
1359.5, 70.23109106496638
1360, 70.38559938272823
1360.5, 70.52301114929071
1361, 70.72920080223749
1361.5, 70.86293549355449
1362, 70.99111211796621
1362.5, 71.03635247858752
1363, 71.07167942366836
1363.5000000000002, 71.02454869333079
1364.0000000000002, 70.97730492254934
1364.5000000000002, 70.9315122796074
1365.0000000000002, 70.89512927153898
1365.5000000000002, 70.84824820108365
1366, 70.81451900160754
1366.5, 70.77791730267498
1367, 70.78475678235309
1367.5, 70.80190607875682
1368, 70.80270839303158
1368.5, 70.7967814531565
1369, 70.75104635238897
1369.5, 70.72215496552246
1370.0000000000002, 70.70353076263294
1370.5000000000002, 70.67451685705825
1371.0000000000002, 70.6285698729298
1371.5000000000002, 70.60929738446242
1372.0000000000002, 70.59196101561002
1372.5, 70.60903942461469
1373, 70.61840427278587
1373.5, 70.59079355604494
1374, 70.5633746753472
1374.5, 70.51658643865815
1375, 70.46895996397704
1375.5, 70.40507230892082
1376, 70.3970531282707
1376.5, 70.39678704852571
1377.0000000000002, 70.5067120885432
1377.5000000000002, 70.60445030217741
1378.0000000000002, 70.68775036320012
1378.5000000000002, 70.7552640912496
1379.0000000000002, 70.84902366376954
1379.5, 70.93553104039299
1380, 71.04440421324973
1380.5, 71.11119953049851
1381, 71.17889114379425
1381.5, 71.263940797262
1382, 71.33873621355237
1382.5, 71.40365103738567
1383, 71.45112660951311
1383.5000000000002, 71.50755180554096
1384.0000000000002, 71.54369097418623
1384.5000000000002, 71.5795719798558
1385.0000000000002, 71.58332489427258
1385.5000000000002, 71.58374345836835
1386, 71.59247454124835
1386.5, 71.60160729499904
1387, 71.62013153817892
1387.5, 71.6253908945397
1388, 71.61601437782868
1388.5, 71.61352752900736
1389, 71.61360710057475
1389.5, 71.62752331651055
1390.0000000000002, 71.64397337887645
1390.5000000000002, 71.65288890314149
1391.0000000000002, 71.66031255793578
1391.5000000000002, 71.66963483466736
1392.0000000000002, 71.67680910847346
1392.5, 71.68613049270392
1393, 71.70447623140429
1393.5, 71.73142342818278
1394, 71.75629520630547
1394.5, 71.77515287206808
1395, 71.68695943624707
1395.5, 71.60052428372863
1396, 71.45121436515899
1396.5000000000002, 71.37467836525859
1397.0000000000002, 71.33676407932344
1397.5000000000002, 71.34363545973059
1398.0000000000002, 71.3709956867686
