21.999999999999996, 63.1831493115193
22.999999999999996, 63.48356338995593
23.999999999999996, 63.953043401470545
24.999999999999996, 64.42759402280001
26.000000000000004, 64.5990695272105
28.999999999999996, 64.87506195577618
29.999999999999996, 65.23476905269605
30.999999999999996, 65.41554027755907
31.999999999999996, 65.54640103967085
33, 66.09535139775676
34, 66.71619919305701
34.999999999999986, 67.39826693809687
36, 67.66064097375666
37, 67.82953897723607
38, 67.94044516505895
39, 68.19183315062067
40, 68.58480764098326
41, 69.09595242805729
42, 69.56918190959837
42.999999999999986, 70.06963699348334
44, 70.36591205713323
45, 70.57185129487698
46, 70.91125038246207
47, 71.56004524129098
48, 72.12513210941245
49, 72.50326824463247
50, 72.74265749333452
51, 73.04660034950125
52, 73.21229815976517
53, 73.45476462718342
54, 73.76588145076232
55, 74.15045524935226
56, 74.59085604297636
57, 75.22335983591348
58, 75.81048618009206
59, 76.36610637799303
60, 76.41480208292222
61, 76.14717072310384
62, 76.25768856687984
63, 76.47296511064505
64, 76.69648101312072
65, 77.0745286746056
66, 77.44144976230938
67, 77.83730405765998
68, 77.79014482556772
69.00000000000001, 77.84935538261261
70.00000000000001, 78.24558830164405
70.99999999999999, 78.4772627271265
72, 78.53139396407899
73, 78.66065553541134
74, 78.98771132120687
75, 79.38483778512285
76, 79.27286656395896
77, 78.91901195511954
78, 78.92343785449165
79, 79.00668131893467
80, 79.2963957754947
81, 79.79138750460159
82, 80.01912012985215
83, 79.95667711300432
84, 79.50510911418948
85.00000000000001, 79.58088264177864
86.00000000000001, 79.61375079191713
86.99999999999999, 79.61177715667577
88, 79.73825324561476
89, 79.98440520432473
90, 80.29243150782247
91, 80.1125863442523
92, 80.01088712371165
93, 80.01946156445516
94, 80.03960732547746
95, 80.01896389323146
96, 79.91352802655713
97, 79.99463135023447
98, 80.08682454619465
99, 80.28005417946301
100, 80.17496303533116
101.00000000000001, 79.97895106702586
102.00000000000001, 79.95032056764013
102.99999999999999, 79.98150658579131
104, 80.09195701854362
105, 80.27099223977818
106, 80.19703534434194
107, 80.07831034973532
108, 79.96371100180446
109, 79.89530092010185
110, 79.89959059700668
111, 79.84516341525956
112, 79.5976251607396
113, 79.68597930367325
114, 79.79246677802834
115, 79.81254506955399
116, 79.66756857716585
117, 79.71388200531058
118, 79.67668671844558
119, 79.53711693760778
120, 79.45952463803478
121, 79.46223692356047
122, 79.53044129722363
123, 79.52873737451766
124, 79.28012778781545
125, 79.18995507332954
126, 79.15124247987009
127, 79.18059066819676
128, 79.17217273445459
129, 79.1548696639808
130, 79.0340185441821
131, 78.99365766412826
132, 78.93049055425021
133, 78.81794912403015
134, 78.66872000667261
135, 78.65394689915426
136, 78.66425825788737
137, 78.83234008864073
138, 78.9254233562903
139, 78.70933313756292
140, 78.60085659861682
141, 78.56825502362712
142, 78.58391968101641
143, 78.4515284573831
144, 78.20178501526615
145, 78.12228751338353
146, 78.2460300139477
147, 78.32336754231348
148, 78.1710857620805
149, 77.86788760366105
150, 77.82083099953832
151, 78.09284109641555
152, 78.07427062574311
153, 77.97240000712333
154, 77.96672078098732
155.00000000000003, 77.94481984700555
156.00000000000003, 77.98417240636869
157.00000000000003, 77.8911058684322
158.00000000000003, 77.63854684685448
158.99999999999997, 77.63146567780174
159.99999999999997, 77.6351823077825
160.99999999999997, 77.62336674375415
162, 77.40331690499978
163, 77.29111794334707
164, 77.28980454495671
165, 77.36733733578497
166, 77.38012973078133
167, 77.27575000392497
168, 77.23267805354978
169, 77.2661697775484
170, 77.41768646337503
171, 77.16466689099887
172, 77.07005448649655
173, 77.03774722406925
174, 77.08416715278348
175, 77.0838560248981
176, 76.98175816358861
177, 76.91175922685564
178, 76.92728399226777
179, 76.95213625949148
180, 76.90020104112031
181, 76.75421956026877
182, 76.72616926036699
183, 76.71714974885296
184, 76.71556124995635
185, 76.68705434470257
186, 76.65370938863869
187.00000000000003, 76.61419071695909
188.00000000000003, 76.64038036349847
189.00000000000003, 76.66272263373604
190.00000000000003, 76.42995948206193
190.99999999999997, 76.35692574803596
191.99999999999997, 76.3525571489885
192.99999999999997, 76.45791597900482
194, 76.47259269271447
195, 76.38740961518977
196, 76.23322636491504
197, 76.31806710892947
198, 76.30338793277215
199, 76.18537302475033
200, 76.04035793276725
201, 76.01611950053794
202, 76.01579251686944
203, 76.01779745580059
204, 76.02069605788157
205, 75.96994109927344
206, 75.95003194878711
207, 75.95088448075666
208, 75.95378063056164
209, 75.88201037926746
210, 75.76778070638083
211, 75.82693491613966
212, 75.8837366356307
213, 75.77184148041647
214, 75.68859536782601
215, 75.69082106888793
216, 75.74355846800248
217, 75.73600604993312
218, 75.6965908639428
219.00000000000003, 75.62106027616707
220.00000000000003, 75.50874433536664
221.00000000000003, 75.46981443921588
222.00000000000003, 75.43902009115244
222.99999999999997, 75.4200616311313
223.99999999999997, 75.41822268309441
224.99999999999997, 75.41950440160306
226, 75.45055579130005
227, 75.39515374582926
228, 75.34779406567765
229, 75.35632079798454
230, 75.31592945408603
231, 75.22617598264189
232, 75.1306192098063
233, 75.05550760591956
234, 75.10270963425633
235, 75.29320387301387
236, 75.27691082814933
237, 74.94720955275949
238.00000000000003, 74.9093493870677
239.00000000000003, 75.01870357304763
240.00000000000003, 74.98751254423014
241.00000000000003, 74.95795832960297
242.00000000000003, 74.87018713038987
243.00000000000003, 74.75960862783907
244.00000000000003, 74.79960258437092
245.00000000000003, 74.84337920336249
246.00000000000003, 74.68798423314809
247.00000000000003, 74.71290603419446
248.00000000000003, 74.75006938328406
249.00000000000003, 74.69623758030812
250.00000000000003, 74.63679197766767
251.00000000000003, 74.55488200122404
252.00000000000003, 74.49865150539674
253.00000000000003, 74.48105511536419
254.00000000000003, 74.6267799766146
255.00000000000003, 74.6416588446837
256, 74.3905374479058
257, 74.39170728243413
258, 74.45374235768483
259, 74.41776512211791
260, 74.2815162813387
261, 74.23718116104052
262, 74.19625561877055
263, 74.22120974748822
264, 74.18877879463476
265, 74.12652176417843
266, 74.11268596329258
267, 74.18928539110253
268, 74.16821051815452
269, 74.14773536261448
270, 74.0126241066635
271, 73.8948457699824
272, 73.95618221743021
273, 73.95776822864215
274, 73.91091039610347
275, 73.82955486704853
276, 73.85068288174905
277, 73.90601970553985
278, 73.80013718825789
279, 73.67675574172046
280, 73.61130023790197
281, 73.61341462850783
282, 73.62536492588089
283, 73.61477110428206
284, 73.47175557678786
285, 73.50743955930176
286, 73.56087293979924
287, 73.50934554114616
288, 73.47947694402251
289, 73.38618785995664
290, 73.359624719175
291, 73.38418296743475
292, 73.40167380612628
293, 73.28414308304248
294, 73.2084878543757
295, 73.29190880952379
296, 73.29120038347943
297, 73.28402184246256
298, 73.24280970673733
299, 73.19107187747002
300, 73.13542693473067
301, 73.08249345858935
302, 73.03889002911612
303, 72.92143513185424
304, 72.99978004313127
305, 73.03489296924172
306, 73.05398178311535
307, 73.0703355430985
308, 72.86936206176124
309, 72.74556752154537
310, 72.69168933127791
311, 72.69250382245771
312, 72.6651700712703
313, 72.62758504496266
314, 72.62625096539156
315, 72.6911669684262
316, 72.6337561860957
317, 72.5579904423872
318, 72.4968838847311
319, 72.47863262483973
320, 72.38396522213979
321.00000000000006, 72.26890755417992
322.00000000000006, 72.22679770058765
323.00000000000006, 72.3230562503579
324.00000000000006, 72.40366789936196
325.00000000000006, 72.33499592934774
326.00000000000006, 72.18710652804036
327.00000000000006, 72.13017380184895
327.99999999999994, 72.09353663159342
328.99999999999994, 72.23390605020761
329.99999999999994, 72.05915156854826
330.99999999999994, 71.96695290737
331.99999999999994, 71.95918206080721
332.99999999999994, 71.95924522673342
334, 71.95933002895558
335, 71.94488919547992
336, 71.92696905854285
337, 71.92774853084018
338, 71.90566530491124
339, 71.8718104848053
340, 71.77531576002846
341, 71.76658907696067
342, 71.80462151858522
343, 71.8040607867972
344, 71.73739741889437
345, 71.61884399520682
346, 71.65822978233098
347, 71.6971974304265
348, 71.67288944616548
349, 71.6256611736862
350, 71.62471772849811
351, 71.6267037019936
352, 71.62109603659805
353, 71.65709683589243
354, 71.49120633041237
355, 71.39470164164167
356, 71.4958508740958
357, 71.50428995966577
358, 71.3856417878035
359, 71.36839337026511
360, 71.38129155696372
361, 71.4409728587404
362, 71.42641820678446
363, 71.38014092473993
364, 71.3235689563326
365, 71.26282835555779
366, 71.22139896277598
367, 71.15960812649121
368, 71.09398095896795
369, 71.10477537305795
370, 71.27896137316813
371, 71.23031833391993
372, 71.14069065764436
373, 71.0554900991195
374, 71.03203005542635
375, 71.10531770436705
376, 71.11962571889586
377, 70.89116468878622
378, 70.92807652789216
379, 70.98099235283473
380, 71.02212964579725
381, 70.88182496025631
382, 70.77300539884281
383, 70.81504772030937
384, 70.88999834533796
385.00000000000006, 70.95057778867373
386.00000000000006, 70.86863024739108
387.00000000000006, 70.73606483313223
388.00000000000006, 70.78953193906172
389.00000000000006, 70.82969850861288
390.00000000000006, 70.83123418580635
391.00000000000006, 70.83089376296965
391.99999999999994, 70.82953870529302
392.99999999999994, 70.82803047796668
393.99999999999994, 70.79300256821229
394.99999999999994, 70.82130103329531
395.99999999999994, 70.77739040682164
396.99999999999994, 70.6839911867343
398, 70.6300089050436
399, 70.71537128640382
400, 70.53978712093226
401, 70.49528298660681
402, 70.51550520152682
403, 70.57957050514982
404, 70.6580278981963
405, 70.57920224893812
406, 70.57146650835652
407, 70.59232458545458
408, 70.47748877895164
409, 70.30772630568697
410, 70.29773025760166
411, 70.29534810181082
412, 70.45853960205363
413, 70.55868948181367
414, 70.50208294129345
415, 70.43189983750008
416, 70.45292142151166
417, 70.47688157984483
418, 70.47693721615927
419, 70.25821933599933
420, 70.19832499597491
421, 70.22537511531927
422, 70.23259881670005
423, 70.23216323864877
424, 70.22908614458379
425, 70.12111867825678
426, 70.03158524645143
427, 70.16708152841234
428, 70.15118303146629
429, 69.99702150364784
430, 70.16390578695312
431, 70.23563221387755
432, 70.23622323725981
433, 70.08341285534262
434, 69.99573736584537
435, 70.00411992387697
436, 70.05811723745963
437, 70.07353796935772
438, 69.95423693759024
439, 69.8172976374443
440, 69.90458355944217
441, 69.97916365264336
442, 69.97646834043788
443, 69.8715622052489
444, 69.77591646557315
445, 69.89572403398168
446, 69.96682085676196
447, 69.90120074589113
448, 69.7578564776641
449.00000000000006, 69.69782193471025
450.00000000000006, 69.7141602368702
451.00000000000006, 69.69407419136887
452.00000000000006, 69.69631796578942
453.00000000000006, 69.68799202469974
454.00000000000006, 69.65829366954446
455.00000000000006, 69.7598285200441
455.99999999999994, 69.70319224112126
456.99999999999994, 69.68634280106214
457.99999999999994, 69.61203817419226
458.99999999999994, 69.59492521701146
459.99999999999994, 69.69057722233646
460.99999999999994, 69.58857325498163
462, 69.47241611792323
463, 69.4524308942179
464, 69.55890264387081
465, 69.56148339590827
466, 69.40826676398565
467, 69.38998165936924
468, 69.42690520372835
469, 69.41455325018559
470, 69.39457835966105
471, 69.37546125380248
472, 69.37039898466621
473, 69.43287540415726
474, 69.43197864944302
475, 69.34870932900903
476, 69.3273768986791
477, 69.30967317458794
478, 69.29760423603163
479, 69.28067177368193
480, 69.1828851393796
481, 69.13378274495605
482, 69.1410373159242
483, 69.30980963578905
484, 69.2059815527044
485, 69.00661305867564
486, 68.97654109497526
487, 69.034026803573
488, 69.08999413217214
489, 69.0849922926979
490, 69.00070542458099
491, 69.01364694600855
492, 69.06949240735175
493, 69.09109481565437
494, 68.96344530939515
495, 68.89087470625734
496, 68.87936453855113
497, 68.96227624114863
498, 68.8912709485798
499, 68.8385977369204
500, 68.91778783811247
501, 68.9368406553179
502, 68.94403061815504
503, 68.9395887709722
504, 68.85970511514846
505, 68.8650457731456
506, 68.91737135250163
507, 68.84251943951394
508, 68.74566918892701
509, 68.75876602912209
510, 68.81534150909187
511, 68.87786349954197
512, 68.80044668958588
513, 68.67518304064635
514, 68.63634249374917
515, 68.72161487914917
516, 68.75177981402419
517, 68.7669973490672
518, 68.77360838122894
519, 68.78117136992755
520, 68.78866648313777
521, 68.79507388883442
522, 68.77261369363463
523, 68.76429989366763
524, 68.76398568502036
525, 68.76394241120403
526, 68.76419828720609
527, 68.7491397501862
528, 68.75079096490212
529, 68.83081096227225
530, 68.8596271121925
531, 68.8362945415332
532, 68.83986204573176
533, 68.86329823720394
534, 68.88670103249545
535, 68.89597964603288
536, 68.89492510502679
537, 68.86795501222983
538, 68.85742989074055
539, 68.99697166848529
540, 68.97048271339614
541, 68.96122623470605
542, 68.97882994395954
543, 69.02584268058456
544, 69.06659809938745
545, 69.0610085381735
546, 69.04458597704507
547, 69.07235039238813
548, 69.14016436185584
549, 69.3084127333295
550, 69.23104802723093
551, 69.25433594492875
552, 69.28917259835
553, 69.36987809020064
554, 69.43418425802368
555, 69.37614446424995
556, 69.40305276313187
557, 69.46898781239469
558, 69.58887297686722
559, 69.6533750738662
560, 69.59710306083313
561, 69.62797900554934
562, 69.74726182817697
563, 69.82321607183545
564, 69.91787298782216
565, 69.90588088884589
566, 69.87081301541446
567, 69.97511803329529
568, 70.08599777441313
569, 70.16376722335319
570, 70.16287660702848
571, 70.26020883760187
572, 70.38994026427258
573, 70.488253452275
574, 70.49405350593085
575, 70.49566867295906
576, 70.62286195058581
577, 70.68272643866783
578, 70.72954427974138
579, 70.75525415326149
580, 70.91415039776554
581, 71.05586187520808
582, 71.17237885596026
583, 71.20893846270386
584, 71.26204536733214
585, 71.36332207323912
586, 71.45560707900889
587, 71.57852619204817
588, 71.62457247449873
589, 71.67111092215319
590, 71.7533106687548
591, 71.8626889833012
592, 72.10122119284047
593, 72.16260219218582
594, 72.16906855524304
595, 72.1945178043811
596, 72.34092273576141
597, 72.52257914208944
598, 72.48540984695612
599, 72.47460488420245
600, 72.78181930400707
601, 72.94630506860396
602, 72.95524136598677
620, 74.41441049650943
621, 74.42155903327085
622, 74.42178362448782
623, 74.4268805125605
624, 74.53693986463877
624.9999999999999, 74.6181601268945
626, 74.69059009220231
626.9999999999999, 74.85765363002339
628, 74.86968795368229
629, 74.79292694477847
630, 74.82287059362596
631, 74.8478446007004
632, 74.8393091163725
633, 74.93824405324483
634, 74.95576149007093
635, 74.95248428202781
636, 74.94167724414382
637, 74.89828935679719
638, 74.9853242883546
639, 75.12002170112586
640, 75.19198953377897
641, 75.08479861823551
642, 75.09920217395403
643, 75.26916399015354
644, 75.1923139158866
645, 75.09176958815009
646, 75.0699267033468
647, 75.05861582325889
648, 75.10216250660426
649, 75.14131764006791
650, 75.10483866669651
651, 75.10414202462292
652, 75.16036011975166
653, 75.1880376511802
654, 75.0263279414033
655, 74.92083852517834
656, 74.94628712644642
657, 74.99204543206902
658, 74.96167210238417
660, 74.88605194644785
663, 74.85540000343782
664, 74.67968737945382
666.0000000000001, 74.65608445230401
669, 74.6121879984836
670.0000000000001, 74.40267090657903
673, 74.32230877351908
674.0000000000001, 74.14569779904363
675, 73.97671974990494
676.0000000000001, 73.95926918027166
677, 73.89889949471437
678.0000000000001, 73.75246449682493
679, 73.61956702566654
679.9999999999999, 73.60754119633812
681, 73.45924556356265
681.9999999999999, 73.3007070730692
683, 73.13979622052376
683.9999999999999, 73.02332049129899
685, 73.0079874900065
685.9999999999999, 72.95822478467606
687, 72.79367982530478
687.9999999999999, 72.55361254853543
689, 72.55658118819758
689.9999999999999, 72.4463931208618
691, 72.3689897988295
692, 72.1707279474475
693, 72.03808471397231
694, 71.92565243664649
695, 71.90062402024492
696, 71.76645440217902
697, 71.57424923362187
698, 71.45854726716907
699, 71.38241515601771
700, 71.29079703276261
701, 71.21869536240705
702, 70.98853723197487
703, 70.83020597579622
704, 70.85526432867461
705, 70.85111351140125
706, 70.68169434991776
707, 70.48569302107653
708, 70.31417865551259
709, 70.24629134819688
710, 70.15977159892557
711, 69.99654919835464
712, 69.7262724433265
713, 69.66981169710598
714, 69.69536834067198
715, 69.51452059407744
716, 69.35813948711028
717, 69.24518527848483
718, 69.22101812457363
719, 69.13672488392916
720, 68.95181939907751
721, 68.76341602486039
722, 68.71892658806233
723, 68.6548187187171
724, 68.60571458084976
725, 68.4346393412681
726, 68.09825611300573
727, 68.15166787922195
728, 68.12768275758363
729, 68.07004699323205
730, 67.93927248181339
731.0000000000001, 67.80100246815282
732, 67.7211465264748
733.0000000000001, 67.54298163001255
734, 67.40163795174874
735.0000000000001, 67.30064918130333
736, 67.284378093794
737.0000000000001, 67.24818222519548
738, 67.18560382122885
739.0000000000001, 66.97895355834379
740, 66.83737510777381
741.0000000000001, 66.76488142842953
742, 66.69605732190033
743.0000000000001, 66.56091523623287
744, 66.42225570121735
744.9999999999999, 66.29660535166471
746, 66.25743662142696
746.9999999999999, 66.22811575775327
748, 66.19127799754813
748.9999999999999, 65.96163836085432
750, 65.96409610148463
750.9999999999999, 65.92659473635375
752, 65.87754988470545
752.9999999999999, 65.75915462663701
754, 65.56046183993027
754.9999999999999, 65.51582687255124
756, 65.48039448792434
757, 65.44557290612238
758, 65.29732653143516
759, 65.1629245590255
760, 65.11895823678427
761, 65.05723543005615
762, 64.93686568939104
763, 64.86719463116206
764, 64.7920849535062
765, 64.71181307977847
766, 64.64453439923108
767, 64.48071478138596
768, 64.43972986808734
769, 64.38398745988661
770, 64.35711480119221
771, 64.29065155959844
772, 64.19601983982888
773, 64.13980321980787
774, 64.07063263034016
775, 64.03291362210715
776, 63.92180046473038
777, 63.84421365526083
778, 63.80560418795383
779, 63.75628185879491
780, 63.677981861149966
781, 63.595738382103754
782, 63.49033482017356
783, 63.45269345525121
784, 63.45655427940536
785, 63.38307119021398
786, 63.32762294812393
787, 63.203348953062836
788, 63.19105619871719
789, 63.18184110971721
790, 63.1714108149568
791, 62.96083736699924
792, 62.90613029927642
793, 62.90659561609193
794.0000000000001, 62.86348248917014
795, 62.80674549182823
796.0000000000001, 62.71727907345218
797, 62.612860170286986
798.0000000000001, 62.57303709535151
799, 62.57467947780692
800.0000000000001, 62.5329501507845
801, 62.44207144052112
802.0000000000001, 62.370152548251
803, 62.31559632994067
804.0000000000001, 62.199032846610834
805, 62.14620161161992
806.0000000000001, 62.086140842856
807, 62.038897350750894
807.9999999999999, 62.00117406283423
809, 61.97615054842504
809.9999999999999, 61.97664322920588
811, 61.807796719588744
811.9999999999999, 61.84133662683553
813, 61.795568897578526
813.9999999999999, 61.69116236626763
815, 61.63531721356442
815.9999999999999, 61.622815927056145
817, 61.61197782167763
817.9999999999999, 61.60360238857266
819, 61.584293829963784
820, 61.59166796444935
821, 61.63094396146223
822, 61.64118672237025
823, 61.624514488486895
824, 61.60337255726643
825, 61.584127682716286
826, 61.585462646707875
827, 61.64879158269492
828, 61.71013673274459
829, 61.70732755487636
830, 61.709863107071655
831, 61.810428440902726
832, 61.843950522653984
833, 61.842903941870546
834, 61.981875159219435
835, 62.094965224856075
836, 62.20913044894419
837, 62.287517968502705
838, 62.39186952770549
839, 62.48478767437221
840, 62.73973131093805
841, 62.79278176503297
842, 62.84535615780294
843, 62.97350985651872
844, 63.12844152134646
845, 63.29455723256269
846, 63.491439974111735
847, 63.62446515254191
848, 63.73966836162619
849, 64.0122306393771
850, 64.22971484267086
851, 64.2923067885463
852, 64.44190363061259
853, 64.63091910209003
854, 64.8605066407803
855, 65.17059111151084
856, 65.32243109548256
857.0000000000001, 65.46829380379089
858, 65.75786069437102
859.0000000000001, 66.03766749563096
860, 66.17300831364504
861.0000000000001, 66.28065681205598
862, 66.46148262939849
863.0000000000001, 66.75012445488693
864, 67.01904165771276
865.0000000000001, 67.15477351477503
866, 67.12204861505253
867.0000000000001, 67.54136089395067
868, 67.84495223573288
869.0000000000001, 68.01596557069769
870, 68.10278388739555
871.0000000000001, 68.16448985330055
872, 68.35049017212742
872.9999999999999, 68.64413253478156
874, 68.75794865771232
874.9999999999999, 68.79744284277066
876, 68.93917544620658
876.9999999999999, 69.24682904536039
878, 69.41919163897742
878.9999999999999, 69.61646572893157
880, 69.58798086251737
880.9999999999999, 69.70312827187895
882, 69.95311406376072
883, 70.09846804794232
884, 70.07420378267774
885, 70.08246515529748
886, 70.33006488914783
887, 70.53869222452195
888, 70.65199479435019
889, 70.81274843687841
890, 70.7841610766784
891, 70.8728773905976
892, 71.03967758755464
893, 71.094122383312
894, 71.09576091470886
895, 71.09540343679807
896, 71.34219702149053
897, 71.45554316522829
898, 71.52600001363209
899, 71.50063657944877
900, 71.63049675796486
901, 71.71347997711509
902, 71.81644831901258
903, 71.76240277004825
904, 71.79158010832438
905, 71.9874218199283
906, 72.22023315751643
907, 72.27977560001408
908, 72.22324178520542
909, 72.22780544311108
910, 72.45728363544808
911, 72.63187981732999
912, 72.62786424759803
913, 72.58557975797517
914, 72.66289289536462
915, 72.88725102290644
916, 73.1387433867409
917, 73.13798175213142
918, 73.02484201297437
919, 73.30011381711753
920, 73.45649549959332
921, 73.56104514738044
922.0000000000001, 73.55693849476008
923, 73.54526312409568
924.0000000000001, 73.66354946127517
925, 73.80086275324699
926.0000000000001, 73.91175350579884
927, 73.976619897235
928.0000000000001, 74.04439203499605
929, 74.37240637099296
930.0000000000001, 74.46911405482372
931, 74.44480295634267
932.0000000000001, 74.46560933286
933, 74.52317940216312
934.0000000000001, 74.75536473089004
935, 74.94524470542493
935.9999999999999, 74.94492718105458
937, 75.0251753104772
937.9999999999999, 75.32914099688412
939, 75.43841734932478
939.9999999999999, 75.38519791262297
941, 75.3582322814382
941.9999999999999, 75.43498202983247
943, 75.6533026405251
943.9999999999999, 75.93385959546033
945, 75.90105627588285
945.9999999999999, 75.80179545141917
947, 75.96294878256752
948, 76.28839528590458
949, 76.43723011742205
950, 76.38675648470718
951, 76.26826286726771
952, 76.44280081232839
953, 76.66702783314925
954, 76.72816440390837
955, 76.70496215099506
956, 76.67364377224763
957, 76.9022340868172
958, 77.06528694947457
959, 77.01440598227927
960, 76.94489081958474
961, 77.05942606404795
962, 77.23261628709209
963, 77.33953549175328
964, 77.38719336181171
965, 77.24292257156539
966, 77.37654089668968
967, 77.72924941301567
968, 77.93041359468883
969, 77.71834965391105
970, 77.6959269462012
971, 77.81876711378496
972, 77.84957787818612
973, 77.71505177283832
974, 77.56228774905573
975, 77.66053335562579
976, 77.7817670208713
977, 77.89614913316457
978, 77.97384008087786
979, 77.71022076556132
980, 77.93196811479406
981, 78.01855535186509
982, 78.01674920989178
983, 77.79011944019992
984, 77.7233880039938
985.0000000000001, 77.9395314264034
986, 78.03582254460987
987.0000000000001, 77.96320712818125
988, 77.89643542159163
989.0000000000001, 77.9522364436174
990, 78.00988495430961
991.0000000000001, 77.94404454250669
992, 77.83984487368775
993.0000000000001, 77.64643903498745
994, 77.68758840053064
995.0000000000001, 77.91531703734805
996, 77.84196839358503
997.0000000000001, 77.6990732562993
998, 77.6302671024096
999.0000000000001, 77.68247690355868
1000, 77.76201319951282
1000.9999999999999, 77.50899327835864
1002, 77.35461992609022
1002.9999999999999, 77.39874603456381
1004, 77.56934628204297
1004.9999999999999, 77.61530222063251
1005.9999999999999, 77.43260091029488
1006.9999999999999, 77.06474872186816
1011.9999999999999, 76.99627218593847
1012.9999999999999, 77.31318439210713
1014.9999999999999, 77.07919965969302
1015.9999999999999, 76.823530734866
1016.9999999999999, 76.85586889204241
1017.9999999999999, 76.78780311926029
1018.9999999999999, 76.83995921154671
1019.9999999999999, 76.72225923509426
1020.9999999999999, 76.48065686815548
1021.9999999999999, 76.48609864830485
1022.9999999999999, 76.42880407898272
1023.9999999999999, 76.34079329842805
1025, 76.2227782042175
1026, 76.10783367828216
1027, 76.07171758155815
1028, 76.0121153775703
1029, 75.78535949619888
1030, 75.69365719868802
1031, 75.62029315839189
1032, 75.58154392179028
1033, 75.57785342699162
1034, 75.24715021692644
1035, 75.15293089343909
1036, 75.23352248212116
1037, 75.06749777630225
1038, 75.25993343099942
1039, 74.94610115418183
1040, 74.89486375688517
1041, 74.70433583740382
1042, 74.54873748433558
1043, 74.56796616144645
1044, 74.42905672660467
1045, 74.48422201528969
1046, 74.50922701567283
1047, 74.44493019204472
1048, 74.2571919552935
1049, 74.00577286952182
1050, 73.85642586302002
1051, 73.81993006987696
1052, 73.89510686489665
1053, 73.57431401340455
1054, 73.4081897673955
1055, 73.56727312836632
1056, 73.36411976540566
1057, 73.26373039204505
1058, 73.01807572016898
1059, 73.35490028562448
1060, 73.29215674196588
1061, 72.79126671925106
1062, 72.40898562045405
1063, 72.07280661443536
1064, 71.95215734127224
1065, 71.92361848808481
1066, 71.89441312492265
1067, 71.71178610613973
1068, 71.40383321894289
1069, 71.20039072209933
1070, 71.15081037936748
1071, 71.03743510294593
1072, 70.78376345499592
1073, 70.54897875771837
1074, 70.46693996323322
1075, 70.38418542390903
1076, 70.2696376068365
1077, 70.01324406740679
1078, 69.87221096880745
1079, 69.78046427293098
1080, 69.6641823011366
1081, 69.44910999397415
1082, 69.14682106375668
1083, 69.01996996324922
1084, 68.88925552533422
1085, 68.68470356656724
1086, 68.49500370109024
1087, 68.24116569588458
1088, 68.16558669215041
1089, 68.04403314653425
1090, 67.7676005111625
1091, 67.46318924328278
1092, 67.30201523031883
1093, 67.3505538188767
1094, 67.28507400832649
1095, 67.01201773103912
1096, 66.73863672592185
1097, 66.63052904278031
1098, 66.5651751999097
1099, 66.41900993398141
1100, 66.14877704644074
1101, 65.9419467504049
1102, 65.89242552110127
1103, 65.78220561770394
1104, 65.55888433883749
1105, 65.2842346653131
1106, 65.15757627054026
1107, 65.09730281135379
1108, 65.04108523859665
1109, 64.90890520350968
1110, 64.6699074274083
1111, 64.43072663010707
1112, 64.3643743792091
1113, 64.3083647863227
1114, 64.06954638970461
1115, 63.71287085642496
1116, 63.66019688301486
1117, 63.609130566806634
1118, 63.57434061094706
1119, 63.41387022399011
1120, 63.23151250953955
1121, 63.071795049613456
1122, 62.985914336373334
1123, 62.97094866336565
1124, 62.8798815059938
1125, 62.723885756753056
1126, 62.60391478611683
1127, 62.513713800168766
1128, 62.42900759632984
1129, 62.27057842209957
1130, 62.15482162071196
1131, 62.084972198842635
1132, 62.0381949327516
1133, 61.91232397552245
1134, 61.80079341416546
1135, 61.726824871801966
1136, 61.68624539383891
1137, 61.57003130753703
1138, 61.473080762567314
1139, 61.43246511629371
1140, 61.379880357556445
1141, 61.27803488756703
1142, 61.11059262250613
1143, 60.99897514190982
1144, 60.930178004993394
1145, 60.8488566769637
1146, 60.760169918984985
1147, 60.6810988375423
1148, 60.647513260898506
1149, 60.625250205374826
1150, 60.58964791934201
1151, 60.5608411177258
1152, 60.501698436471365
1153, 60.42272898136019
1154, 60.343679677787506
1155, 60.314323656098814
1156, 60.29397552064614
1157, 60.181421536596304
1158, 60.14421186604866
1159, 60.06119534536853
1160, 60.0050066340579
1161, 59.948564607690834
1162, 59.87845676007312
1163, 59.8502242598742
1164, 59.88636891893366
1165, 59.858821815863
1166, 59.728190765188465
1167, 59.660156184974824
1168, 59.645498390559254
1169, 59.68662817328884
1170, 59.60445209520882
1171, 59.575200833718824
1172, 59.54752336194005
1173, 59.51845833073929
1174, 59.46029358090123
1175, 59.40832802647945
1176, 59.374587279913165
1177, 59.33452783157299
1178, 59.28326371046101
1179, 59.228810458850056
1180, 59.17918361901296
1181, 59.15273117344222
1182, 59.13068163030085
1183, 59.14517775977058
1184, 59.093265838551716
1185, 59.06099446592117
1186, 58.989729094536884
1187, 59.0243930529814
1188, 59.062297699282716
1189, 58.96051907638161
1190, 58.86247063358171
1191, 58.84185729883848
1192, 58.83435604665212
1193, 58.79832376569262
1194, 58.757085239144665
1195, 58.721339332228624
1196, 58.69903451403085
1197, 58.673994357158
1198, 58.652113067195216
1199, 58.63979316820077
1200, 58.62181457908641
1201, 58.6005616436133
1202, 58.582406416631166
1203, 58.57853421831094
1204, 58.57692385744983
1205, 58.531224802501285
1206, 58.513579644642654
1207, 58.457764218729544
1208, 58.441903833814415
1209, 58.38531082504282
1210, 58.380783015937254
1211, 58.374721410306655
1212, 58.32816695979569
1213, 58.31309261235732
1214, 58.31291808149919
1215, 58.312936242328945
1216, 58.31291436498556
1217, 58.31279689784973
1218, 58.28972878934764
1219, 58.251156474195895
1220, 58.2477692214464
1221, 58.24320873040487
1222, 58.22867474663967
1223, 58.148251043885125
1224, 58.17210760743734
1225, 58.115137554172186
1226, 58.04588687037393
1227, 58.071426616108
1228, 58.08059373822228
1229, 58.111258759353284
1230, 58.05500678728307
1231, 58.047869550628704
1232, 58.04463920225363
1233, 58.04658189335485
1234, 58.03977579356525
1235, 58.03109050990175
1236, 58.02120746975083
1237, 58.0108081004989
1238, 58.00057382953247
1239, 57.99118608423798
1240, 57.9833262920019
1241, 57.98238721273172
1242, 57.974024627312424
1243, 57.9350293517368
1244, 57.91529847771117
1245, 57.91350776314014
1246, 57.913565539985
1247, 57.91364086335704
1248, 57.913664987709545
1249, 57.91356916749582
1250, 57.89618181634488
1251, 57.84526435544963
1252, 57.84439232271818
1253, 57.84579045356762
1254, 57.8469759612811
1255, 57.846927344518264
1256, 57.84693772772085
1257, 57.84693808827075
1258, 57.84693841667269
1259, 57.846938204189314
1260, 57.84693877773614
1261, 57.84694918193905
1262, 57.84720297875414
1263, 57.850597533131854
1264, 57.82190150401151
1265, 57.786591022175195
1266, 57.78104930663982
1267, 57.800630790488235
1268.0000000000002, 57.80939669194994
1269, 57.78143798109037
1270, 57.780199794476346
1271, 57.78013154210095
1272.0000000000002, 57.7787497562091
1273, 57.83815873004326
1274, 57.82474527493835
1275, 57.78111747100013
1276.0000000000002, 57.77978107407874
1277, 57.776797562678524
1278, 57.71903160381081
1279, 57.77756675018794
1280.0000000000002, 57.7805245932292
1281, 57.7803732269721
1282, 57.78105678194183
1283, 57.75596383655683
1283.9999999999998, 57.74379058634879
1285, 57.78209221861054
1286, 57.77918663557784
1287, 57.77925302503286
1287.9999999999998, 57.72616756157483
1289, 57.73735938720081
1290, 57.78337711202972
1291, 57.77472680896347
1291.9999999999998, 57.74613724228208
1293, 57.718163526209736
1294, 57.71534227500051
1295, 57.74056084192043
1295.9999999999998, 57.781423235085455
1297, 57.791474182483675
1299, 57.70846874974731
1299.9999999999998, 57.700074182009196
1303, 57.72557288367286
1306, 57.7566503993553
1309, 57.75085890037994
1310, 57.72899460961436
1311, 57.71368820299608
1312, 57.71379455863952
1313, 57.71391769277092
1314, 57.714569487017314
1315, 57.69607075637215
1316, 57.70291997385713
1320, 57.714737146904326
1321, 57.76520570267113
1335.0000000000002, 57.7362708260925
1336, 57.71366931449782
1337, 57.71343092182233
1338, 57.71388610085268
1339.0000000000002, 57.71330803519074
1340, 57.713254288294785
1341, 57.684538441573785
1342, 57.74776671002484
1344, 57.77039762529954
1345, 57.68335223277531
1348, 57.750851621581745
1350.9999999999998, 57.827282952677564
1352, 57.74319214554292
1356, 57.72339559419658
1360, 57.796590857658536
1362.9999999999998, 57.76196533991162
1364, 57.6660662525133
1366.9999999999998, 57.69895600262338
1368, 57.71184264592698
1369, 57.71361256507666
1370, 57.71371146697605
1371, 57.71393070736011
1372, 57.712959346062945
1373, 57.70658925335108
1374, 57.687716762116544
1375, 57.713927639065645
1376, 57.71397717079131
1377, 57.713804809016125
1378, 57.71380503189843
1379, 57.71380413579385
1380, 57.71380410044427
1381, 57.71380405808073
1382.0000000000002, 57.71380405930042
1383, 57.71380405888544
1384, 57.713804058725636
1385, 57.71380406268051
1386.0000000000002, 57.71380408386571
1387, 57.71380400907893
1388, 57.71380656782095
1389, 57.713808868569394
1390.0000000000002, 57.71386285830535
1391, 57.714742878750826
608.9773253123553, 73.53951890034364
611.568718186025, 73.81443298969072
614.1601110596946, 73.95189003436425
616.7515039333641, 74.22680412371133
606.3859324386858, 73.4020618556701
604.4423877834336, 73.19587628865979
