21.999999999999996, 72.90655223369853
22.999999999999996, 73.30816755556934
23.999999999999996, 73.25691612038254
24.999999999999996, 73.41523205742925
26.000000000000004, 73.58939368576723
26.99999999999999, 73.6703867334391
27.999999999999996, 73.79362915867294
28.999999999999996, 73.93994729498533
29.999999999999996, 74.07826690964114
30.999999999999996, 74.10322511946687
31.999999999999996, 74.2282758553894
33, 74.3643470191103
34, 74.65003755712516
34.999999999999986, 74.69051127055609
36, 74.90501086855078
37, 75.13434347190946
38, 75.15480411362445
39, 75.23858276661751
40, 75.49577657717056
41, 75.63597451761996
42, 75.99434846013374
42.999999999999986, 76.15541379134572
44, 76.27271365638899
45, 76.40982023986211
46, 76.72705734488525
47, 76.9503263481677
48, 77.27270938890094
49, 77.44334146307067
50, 77.48229714482623
51, 77.54511069948056
52, 77.76870463160546
53, 77.87193999506
54, 77.96980119696948
55, 78.17492792694323
56, 78.40274148608009
57, 78.72023940060076
58, 79.15553017843607
59, 79.15775276975191
60, 79.41296403425889
61, 79.50182199547977
62, 79.43196960352475
63, 79.5274982138828
64, 79.71404768879663
65, 79.89863071932096
66, 80.08707469832241
67, 80.19969141053856
68, 80.39674612278257
69.00000000000001, 80.46741763946048
72, 80.94825338957973
73, 81.05153812883948
75, 81.36460854282353
76, 81.32475860725553
77, 81.27712182260288
78, 81.25551749904398
79, 81.34055063006511
80, 81.42830516093119
81, 81.52447077600735
82, 81.62613182628097
83, 81.686096079468
84, 81.7574057798848
85.00000000000001, 81.7798049596742
86.00000000000001, 81.65095119133619
86.99999999999999, 81.80394541289232
88, 81.76925559449694
89, 81.99275905283774
90, 82.20996117538068
91, 82.17180205757714
92, 82.16279916770488
93, 82.23139086102228
94, 82.28607434593364
95, 82.26195749906675
96, 82.23933287914505
97, 82.21604101103422
98, 82.24550482755976
99, 82.25874808818814
100, 82.03181906633331
101.00000000000001, 82.09324819785677
102.00000000000001, 82.11232508768062
102.99999999999999, 82.22640015808561
104, 82.20947398962821
105, 82.33197476870977
106, 82.35283375639368
107, 82.31939559616275
108, 82.28586481138196
109, 82.25063748033469
110, 82.22043368892056
111, 82.1850381320691
112, 82.07835840101262
113, 82.08756443117973
114, 82.14793605755746
115, 82.16526455846746
116, 82.18740211204985
117, 82.2063088379597
118, 82.14549222578091
119, 82.02829106752311
120, 81.87228100772779
121, 81.75756818457411
122, 81.84114662797418
123, 81.88545227768368
124, 81.76633083740772
125, 81.77703914577256
126, 81.77009446909547
127, 81.762494240702
128, 81.75508178389607
129, 81.74870042198165
130, 81.74167618549603
131, 81.73405463883779
132, 81.62723651198995
133, 81.54615854006256
134, 81.43818996114635
135, 81.46095569919085
136, 81.55815036797388
137, 81.4953499196814
138, 81.40376241543719
139, 81.4724858096482
140, 81.37523461912029
141, 81.34807149055177
142, 81.24679726441204
143, 81.28534547367377
144, 81.21616590393769
145, 81.15289306034147
146, 81.25079860830603
147, 81.14918517181556
148, 81.06100948745983
149, 81.08031152700491
150, 81.07212687245435
151, 80.94882702686937
152, 80.99126623375862
153, 80.9102045701535
154, 80.82707579239293
155.00000000000003, 80.76842446075464
156.00000000000003, 80.78397901411738
157.00000000000003, 80.75362530136579
158.00000000000003, 80.7452875661078
158.99999999999997, 80.74785348771032
159.99999999999997, 80.72158863463966
160.99999999999997, 80.8015576635093
162, 80.7436600573283
163, 80.71035550098782
164, 80.631877054955
165, 80.5407158765274
166, 80.52505783160261
167, 80.51575882692012
168, 80.5479764784744
169, 80.50748783527386
170, 80.58171499771885
171, 80.44506854046696
172, 80.46088700188648
173, 80.41717429707195
174, 80.26562026985249
175, 80.18151462488699
176, 80.13469527561217
177, 80.0824724371884
178, 80.08742125769126
179, 80.1102262409386
180, 80.13425563991706
181, 80.14575248938945
182, 80.14601229131605
183, 80.14788776852367
184, 80.12086362301224
185, 80.06084222664407
186, 80.0233049340155
187.00000000000003, 79.98864769253836
188.00000000000003, 79.95031087665284
189.00000000000003, 79.82579116275599
190.00000000000003, 79.68915883783447
190.99999999999997, 79.66419942179935
191.99999999999997, 79.61314882395752
192.99999999999997, 79.68974765649759
194, 79.72910570361542
195, 79.54423190196933
196, 79.66405739281367
197, 79.54770214851982
198, 79.43350499950822
199, 79.4659868022891
200, 79.38296578260467
201, 79.48220711473982
202, 79.48138681954732
203, 79.4822763034963
204, 79.47647660898929
205, 79.36589809434581
206, 79.31693682195746
207, 79.26751596084476
208, 79.11477498451929
209, 79.11895993163638
210, 79.07962996183802
211, 79.07242215249215
212, 78.9911594626702
213, 79.00575929024734
214, 79.06898905679394
215, 79.04453649237779
216, 79.02240401210456
217, 78.96344386729845
218, 78.89806638308774
219.00000000000003, 78.86402734086491
220.00000000000003, 78.87417599634524
221.00000000000003, 78.84130766286124
222.00000000000003, 78.8369990330576
222.99999999999997, 78.66943240501867
223.99999999999997, 78.6613320360115
224.99999999999997, 78.74083683767161
226, 78.48226409439839
227, 78.47285008112662
228, 78.45996064148764
229, 78.45050941199604
230, 78.50030956190895
231, 78.35110939569223
232, 78.37062309771169
233, 78.39194106015579
234, 78.40942344638586
235, 78.38210022804175
236, 78.34426919630816
237, 78.23005693944312
238.00000000000003, 78.27742411034855
239.00000000000003, 78.22142134196685
240.00000000000003, 78.00569062823728
241.00000000000003, 77.97337038517436
242.00000000000003, 77.95252169697724
243.00000000000003, 77.92331301344049
244.00000000000003, 77.88187037215769
245.00000000000003, 77.85223103149522
246.00000000000003, 77.85410731319057
247.00000000000003, 77.93285607749283
248.00000000000003, 77.87529175482584
249.00000000000003, 77.7531423972551
250.00000000000003, 77.64456616734319
251.00000000000003, 77.7255148849186
252.00000000000003, 77.70431907618291
253.00000000000003, 77.73350913615761
254.00000000000003, 77.74637096113861
255.00000000000003, 77.72365840942808
256, 77.56568041826328
257, 77.48061016890041
258, 77.44012262909604
259, 77.48528105963473
260, 77.41633689333663
261, 77.4246139394828
262, 77.30763604740089
263, 77.28438186780437
264, 77.29230365206823
265, 77.31298997291191
266, 77.28468800286586
267, 77.20460557190788
268, 77.12152178002049
269, 77.05702116943584
270, 77.14006373713357
271, 77.05661845407445
272, 77.02878091543867
273, 77.07471510858069
274, 77.12316269268659
275, 77.1394068144821
276, 77.03032116377709
277, 76.91347233543469
278, 76.88404477539703
279, 76.82422247809511
280, 76.93965235380062
281, 76.82156442104042
282, 76.74922637894699
283, 76.73178115170393
284, 76.70667212508579
285, 76.67795903761738
286, 76.64970162782349
287, 76.6259596342289
288, 76.6176329050006
289, 76.61757644129378
290, 76.6208217493308
291, 76.64755523616792
292, 76.67700398896923
293, 76.68580785306894
294, 76.68511206631308
295, 76.64050803008827
296, 76.54638970554133
297, 76.45229438434976
298, 76.50075943397495
299, 76.37595649438055
300, 76.39900191997064
301, 76.3491870832917
302, 76.23419667612288
303, 76.25608580708962
304, 76.34677616156469
305, 76.42011484082273
306, 76.426493678091
307, 76.27688035975856
308, 76.2845042268548
309, 76.1826849448725
310, 76.08707130136632
311, 76.13508914510908
312, 76.1970965190597
313, 76.22705145475635
314, 76.1267788624364
315, 76.15313685472644
316, 76.15271833006591
317, 76.18715633196697
318, 76.10180929720934
319, 76.06610297821398
320, 75.95416588544255
321.00000000000006, 75.83666819268208
322.00000000000006, 75.99693514964623
323.00000000000006, 75.85718297515147
324.00000000000006, 75.81844742479086
325.00000000000006, 75.7869403679368
326.00000000000006, 75.78451873449293
327.00000000000006, 75.7139481323544
327.99999999999994, 75.73713168237185
328.99999999999994, 75.79268235116326
329.99999999999994, 75.62491007153865
330.99999999999994, 75.7453572779478
331.99999999999994, 75.8126440778747
332.99999999999994, 75.6405817574087
334, 75.74321357972032
335, 75.68717123140337
336, 75.64159101161864
337, 75.574781742975
338, 75.50342280871588
339, 75.44189859203826
340, 75.4212313119413
341, 75.41483227525264
342, 75.6208228792373
343, 75.5673225282699
344, 75.54556974182582
345, 75.46310119232946
346, 75.36430852996614
347, 75.28753602233165
348, 75.28585990230567
349, 75.2865742489889
350, 75.28752801995475
351, 75.27728729972698
352, 75.22149214764154
353, 75.26906838216198
354, 75.18884038884426
355, 75.14780123124318
356, 75.09071337983946
357, 75.09123326523127
358, 75.12021114297816
359, 75.21194520047621
360, 75.04250832801243
361, 75.023344530286
362, 75.01907739217528
363, 75.04555794837114
364, 75.08476607689977
365, 75.00568085733993
366, 74.98139313310487
367, 74.96768868288011
368, 75.02695371548681
369, 75.02670940156963
370, 75.02641637709452
371, 74.97879317122916
372, 74.90248824294734
373, 74.84978271674143
374, 74.95490203729608
375, 74.956846692056
376, 74.88100638088123
377, 74.80349103979157
378, 74.74656527626246
379, 74.68846226602551
380, 74.75804925780099
381, 74.64766511348847
382, 74.69853183225086
383, 74.62838903579258
384, 74.6070988201782
385.00000000000006, 74.57677809875223
386.00000000000006, 74.54182840735898
387.00000000000006, 74.5057305958706
388.00000000000006, 74.4719655141594
389.00000000000006, 74.44401401209753
390.00000000000006, 74.42535693955723
391.00000000000006, 74.52249478386786
391.99999999999994, 74.5459083182934
392.99999999999994, 74.53818541884684
393.99999999999994, 74.41360844407652
394.99999999999994, 74.43166173352415
395.99999999999994, 74.47513205230106
396.99999999999994, 74.52432664819494
398, 74.5685136703746
399, 74.53920651914477
400, 74.50017837842302
401, 74.45863964914423
402, 74.42661081658983
403, 74.39275150175109
404, 74.35616020537248
405, 74.32336257821831
406, 74.27502160214871
407, 74.21991669533146
408, 74.16485690254211
409, 74.1166512685563
410, 74.09426113068287
411, 74.09455754329753
412, 74.08972770930866
413, 74.08989984175653
414, 74.05793347962572
415, 74.09067039377165
416, 74.12207726873847
417, 74.01906811334021
418, 73.99128762047204
419, 73.95965421025188
420, 73.95768385836915
421, 73.95855563429393
422, 73.91993914707393
423, 73.8959993859275
424, 73.95803678602941
425, 74.07319293597656
426, 73.95992838350534
427, 74.02252792459855
428, 73.91513868690627
429, 74.03981994203136
430, 73.98981570627546
431, 73.95720018035178
432, 73.9094616819868
433, 73.86011254555908
434, 73.85067956818291
435, 73.82353479138736
436, 73.82656856566102
437, 73.79260072193746
438, 73.80754776378257
439, 73.82204321723614
440, 73.82206656140659
441, 73.85176481542251
442, 73.62710671657798
443, 73.55345609492056
444, 73.55508511760212
445, 73.51541969679141
446, 73.51459396440843
447, 73.56033505435383
448, 73.55713730955182
449.00000000000006, 73.55855486426326
450.00000000000006, 73.5172810918248
451.00000000000006, 73.4897202614024
452.00000000000006, 73.49055784244614
453.00000000000006, 73.46433885152553
454.00000000000006, 73.47098923083581
455.00000000000006, 73.60160568823338
455.99999999999994, 73.41614942181234
456.99999999999994, 73.41959077283774
457.99999999999994, 73.43004511093228
458.99999999999994, 73.44592978680345
459.99999999999994, 73.46556013952276
460.99999999999994, 73.4863008992439
462, 73.46972309941944
463, 73.43774825452512
464, 73.40163562299094
465, 73.36465888701181
466, 73.3300917287827
467, 73.30120783049848
468, 73.26602835573007
469, 73.22470634869102
470, 73.37091276213398
471, 73.38257472454929
472, 73.27850830664681
473, 73.38212604661261
474, 73.41146450690434
475, 73.35716446291491
476, 73.27455642756955
477, 73.22114105156751
478, 73.31408395290426
479, 73.35830174678439
480, 73.35704595110775
481, 73.35716172238212
482, 73.35335926874073
483, 73.2968330532029
484, 73.29110625086479
485, 73.29050373098663
486, 73.29053962901367
487, 73.29053996016839
488, 73.29054009108725
489, 73.29054010232495
490, 73.29054018068354
491, 73.29054010352864
492, 73.29055896218667
493, 73.29063598750882
494, 73.2897105713607
495, 73.24243941192442
496, 73.15591787966252
497, 73.09255079742896
498, 73.17373998774404
499, 73.28099926741329
500, 73.29008082700899
501, 73.29195094942094
502, 73.20690558959429
503, 73.1672092936115
504, 73.17580895633284
505, 73.08269074505156
506, 73.08653598826614
507, 73.13576275680332
508, 73.22884393095713
509, 73.3005351482885
510, 73.2461542059004
511, 73.0874185582581
512, 73.0819677741489
513, 73.08572634712131
514, 73.09081598600096
515, 73.09019250827349
516, 73.09427070423149
517, 73.11572156887749
518, 73.14216858159453
519, 73.1681420883044
520, 73.18817243492884
521, 73.19435778918651
522, 73.20397140638471
523, 73.21534950069041
524, 73.2240057295618
525, 73.22428281506612
526, 73.22418891439247
527, 73.22398589306071
528, 73.22399446073244
529, 73.22397511975164
530, 73.22402797495197
531, 73.22333525532765
532, 73.21962044452528
533, 73.21897878329582
534, 73.19549008345177
535, 73.16704806110315
536, 73.13791236677788
537, 73.11234265100407
538, 73.0945985643097
539, 73.14501033209157
540, 73.05521695775407
541, 73.02454288705286
542, 73.02533393070122
543, 73.02459432661259
544, 73.02425098237661
545, 73.0242706376418
546, 73.02427138932534
547, 73.02427110332556
548, 73.02427111087474
549, 73.0242711102073
550, 73.02427111024636
551, 73.02427111031433
552, 73.02427111121435
553, 73.02427110659805
554, 73.02427126128288
555, 73.0242710957567
556, 73.02430774987698
557, 73.0246475684388
558, 73.02304412945755
559, 73.02246319696575
560, 73.0111864950885
561, 72.95919103646423
562, 72.97782540364335
563, 73.0302678642028
564, 72.98010854326694
565, 72.99014340478891
566, 72.9845383316272
567, 72.9764840592884
568, 72.96793944925247
569, 72.96086336299933
570, 72.95628754238194
571, 72.94875751145861
572, 72.93890758888286
573, 72.9277167513908
574, 72.91616397571865
575, 72.90522823860248
576, 72.89588851677848
577, 72.89248703325495
578, 72.89177424576062
579, 72.91483921132674
580, 72.94874581525629
581, 72.8924860078719
582, 72.92050875747614
583, 73.02707636089848
584, 73.07196907261985
604, 72.9518695123476
611, 72.81486171734495
616, 72.81742598260428
617, 72.82591450107061
618, 72.8245322653201
619, 72.82456948602749
620, 72.82456850270562
621, 72.82456592075
622, 72.82460114637752
623, 72.82294422288511
624, 72.82009747133743
624.9999999999999, 72.79827355573805
626, 72.77379884940179
626.9999999999999, 72.75116524648074
628, 72.75934148418271
629, 72.76488872311913
630, 72.80288253847974
631, 72.80425259500906
632, 72.75097020808184
633, 72.78375564524889
634, 72.82392522082782
635, 72.82278838949068
636, 72.82320876899071
637, 72.82418146902899
638, 72.8163925416748
639, 72.8487911967801
640, 72.88039408566468
641, 72.81308544247972
642, 72.79421297413913
643, 72.80434115910629
644, 72.76767006902891
645, 72.81868977505931
648, 73.24581860161479
657, 73.82457849036506
658, 73.77376500865893
664, 74.59810831877844
666.0000000000001, 74.77750449305329
667, 74.87458292484742
674.0000000000001, 75.8204695001792
675, 75.86962370954154
676.0000000000001, 75.91572866702354
677, 76.08294611263943
678.0000000000001, 76.2922981178786
679, 76.36595791936347
679.9999999999999, 76.38344958478402
681, 76.4278818956353
681.9999999999999, 76.49799303779402
683, 76.65033491966828
683.9999999999999, 76.68718948000557
685, 76.75398966698894
685.9999999999999, 76.83427558674641
687, 76.95793322557596
687.9999999999999, 77.1128742251075
689, 77.26901903020486
689.9999999999999, 77.39628808573171
691, 77.35502843233532
692, 77.30699149765461
693, 77.37202584058072
694, 77.48520397224313
695, 77.60628915849401
696, 77.76361436110597
697, 77.87335171134025
698, 77.89838567761967
699, 77.91384408572317
700, 77.8615247353935
701, 77.81525035825699
702, 77.86610318294292
703, 77.97586649528871
704, 78.01139749390224
705, 78.0872124093316
706, 78.17771817697891
707, 78.26595890492675
708, 78.30504620016423
709, 78.33487101575653
710, 78.34948038019029
711, 78.3479821299121
712, 78.31093540569844
713, 78.28363353231389
714, 78.28715876113453
715, 78.29064326972158
716, 78.32356647798584
717, 78.36168215368477
718, 78.39547936601933
719, 78.41544718419051
720, 78.2496572042579
721, 78.34133194363069
722, 78.36255329567268
723, 78.18482552277662
724, 78.02796773375206
725, 78.01905516949233
726, 78.03453111779018
727, 78.05583837347861
728, 78.07596375489705
729, 78.00811676286408
730, 77.81554901024546
731.0000000000001, 77.85530191150947
732, 77.7451021305411
733.0000000000001, 77.55734452535965
734, 77.3492865748208
735.0000000000001, 77.29443960143222
736, 77.21670486864082
737.0000000000001, 77.06579656694814
738, 76.80189799193654
739.0000000000001, 76.95182795708352
740, 76.68169011786317
741.0000000000001, 76.42746081296664
742, 76.21803891435661
743.0000000000001, 76.21598454858702
744, 76.13432903662127
744.9999999999999, 76.00402543528737
746, 75.5985472582489
746.9999999999999, 75.61244866141918
748, 75.52420963452731
748.9999999999999, 75.27822305361342
750, 75.23342895746269
750.9999999999999, 75.08709726875615
752, 74.85958877469218
752.9999999999999, 74.56470079920064
754, 74.66936029371621
754.9999999999999, 74.4068143032937
756, 74.27087033674509
757, 74.0867114971953
758, 73.9319468557184
759, 73.83469921955576
760, 73.48530826174834
761, 73.35436894541404
762, 73.3695910080348
763, 73.13206816487957
764, 72.9492233392193
765, 72.84386197374485
766, 72.85085015272414
767, 72.57978549724211
768, 72.55825849943402
769, 72.39040249207176
770, 72.45032047213924
771, 72.36502931602882
772, 72.21397366337123
773, 72.18703923945014
774, 71.98971016507109
775, 71.84638920179553
776, 71.84111527122167
777, 71.78416710583457
778, 71.72839078304412
779, 71.70135626868866
780, 71.69315563078582
781, 71.69770514571715
782, 71.66624084916086
783, 71.62865565993461
784, 71.6137012633852
785, 71.55778422612481
786, 71.44615805162628
787, 71.43353119631507
788, 71.42821175434564
789, 71.52501731145462
790, 71.59452637866642
791, 71.62537357360469
792, 71.62720503562957
793, 71.6072056038494
794.0000000000001, 71.58722225694305
795, 71.56014549619259
796.0000000000001, 71.58534524489787
797, 71.64549166189624
798.0000000000001, 71.73171617590134
799, 71.82911782657952
800.0000000000001, 71.94605668728597
801, 72.12285051602991
802.0000000000001, 72.23583698224338
803, 72.3435376748277
804.0000000000001, 72.33816267207175
805, 72.27890081804055
806.0000000000001, 72.44648047688247
807, 72.56650089831584
807.9999999999999, 72.74791064090498
809, 72.95151281469228
809.9999999999999, 73.10002768978765
811, 73.30701313396806
811.9999999999999, 73.39488925433358
834, 79.22268579714228
835, 79.90836766207518
836, 80.50793929917008
837, 80.71879237771378
889, 91.78871853868134
892, 91.03278824677976
893, 91.46639366320892
894, 91.00487550672793
895, 90.95196905117822
896, 90.74091268026201
897, 90.66200621536906
898, 90.58382124551895
899, 90.30218733463153
900, 90.17606393862303
901, 90.16393715415981
902, 90.09781323192406
903, 89.92159143645547
904, 89.69310862423849
905, 89.78910618259228
906, 89.7100804946729
907, 89.654606525133
908, 89.59052497386912
909, 89.32166345660268
910, 89.34268826182783
911, 89.33568460873876
912, 89.05735510028622
913, 89.00075578979266
914, 89.02423107581126
915, 88.97418467176597
916, 88.79376289460703
917, 88.73956282145107
918, 88.78114361803212
919, 88.55867267161771
920, 88.55041460419203
921, 88.35097420308753
922.0000000000001, 88.41860880426898
923, 88.40266012691451
924.0000000000001, 88.4527503758435
925, 88.1941440102393
926.0000000000001, 87.98028162754572
927, 87.9257939852104
928.0000000000001, 87.88073780516721
929, 87.97036806144983
930.0000000000001, 87.83101221961236
931, 87.7303815529986
932.0000000000001, 87.70199399168486
933, 87.62872839585343
934.0000000000001, 87.26367709921747
935, 87.3022605723736
935.9999999999999, 87.28319961921342
937, 87.2848415039269
937.9999999999999, 87.3978938714751
939, 87.22353335740412
939.9999999999999, 86.95843865356638
941, 86.81287382425944
941.9999999999999, 86.81123562659725
943, 86.86865647867312
943.9999999999999, 86.73645168469073
945, 86.60476491689117
945.9999999999999, 86.53308962522138
947, 86.28016681464669
948, 86.28999143410283
949, 86.15519457859017
950, 86.0381698800019
951, 86.01856509951827
952, 85.74266159922004
953, 85.6345867800538
954, 85.52613849954187
955, 85.47298939186194
956, 85.39481402637115
957, 85.07612049044457
958, 84.95140953951437
959, 85.01434769655613
960, 84.90845720130488
961, 84.76702809122196
962, 84.5951582686494
963, 84.3722840553566
964, 84.19507327251374
965, 84.11449835901288
966, 84.05462953793793
967, 83.96135739693204
968, 83.814401553754
969, 83.78996485272643
970, 83.60360630058072
971, 83.40153345986569
972, 83.20505462745847
973, 82.98185867074223
974, 82.90043870284116
975, 82.81699343170463
976, 82.7432238624705
977, 82.50736838528915
978, 82.42416261493447
979, 82.22940516996645
980, 82.12603727736969
981, 81.94340796604642
982, 81.66322364948178
983, 81.61841028397006
984, 81.62258343654003
985.0000000000001, 81.57862226042779
986, 81.3499175679614
987.0000000000001, 81.0426529454796
988, 80.87633925524605
989.0000000000001, 80.74841856433339
990, 80.655632020849
991.0000000000001, 80.45673964874895
992, 80.31709430914695
993.0000000000001, 80.19341658427724
994, 80.07625327254028
995.0000000000001, 80.01682461802304
996, 79.87663470494594
997.0000000000001, 79.72093154661555
998, 79.47816509829902
999.0000000000001, 79.27709931776945
1000, 79.16811515616347
1000.9999999999999, 79.0447149468132
1002, 78.98355970152946
1002.9999999999999, 78.8659706742171
1007.9999999999999, 78.03328376273647
1008.9999999999999, 77.87223401813557
1009.9999999999999, 77.88330056040573
1010.9999999999999, 77.79951560039481
1011.9999999999999, 77.59484576477108
1012.9999999999999, 77.43997519541638
1013.9999999999999, 77.23045518050573
1014.9999999999999, 77.04351137451023
1015.9999999999999, 77.13211702563737
1016.9999999999999, 76.98524439612649
1017.9999999999999, 76.92138230656855
1018.9999999999999, 76.61059259358264
1021.9999999999999, 76.38163186498693
1022.9999999999999, 76.58950598212888
1023.9999999999999, 76.43553896341541
1025, 76.47917636517504
1026, 76.20951188318125
1027, 76.02730271585791
1028, 76.09155146219341
1029, 75.9682956948155
1030, 75.7074974026419
1032, 75.52551585707799
1033, 75.45598824585505
1034, 75.33349145492629
1036, 75.17667092967308
1038, 75.21931497061226
1039, 75.03522549798217
1040, 74.96039707165959
1041, 74.72092658350014
1042, 74.72265335107271
1043, 74.70438223225196
1044, 74.57827826384151
1045, 74.26269619085498
1046, 74.44985208555305
1047, 74.28278102462032
1048, 74.32534005915264
1049, 74.0180678924703
1050, 73.99359479857338
1051, 74.02543637501856
1052, 73.9686309443935
1053, 73.72475871905792
1055, 73.57039728209602
1056, 73.59256273321405
1061, 73.19976382971221
1064, 73.06101520703425
1065, 73.02156386397115
1066, 72.99394880063046
1067, 72.8746441689127
1068, 72.82295246901924
1069, 72.76317708286487
1070, 72.88377904075209
1071, 72.82744713641613
1072, 72.77593336378216
1073, 72.74922468009225
1074, 72.73509794809219
1075, 72.65420028220254
1076, 72.56114035650324
1077, 72.48050218714995
1078, 72.45117404418488
1079, 72.43292341909199
1080, 72.22144736830683
1081, 72.16299225858627
1082, 72.27457133455145
1083, 72.15287004917694
1084, 72.16364666855759
1085, 72.09195280527715
1086, 72.08813938215444
1087, 71.9065744125091
1088, 71.84520411172772
1089, 71.77326532527516
1090, 71.69456396358937
1091, 71.72487783162809
1092, 71.63102134421916
1093, 71.68698068089408
1094, 71.72703447168952
1095, 71.65354448110617
1096, 71.61187821837042
1097, 71.40746694957446
1098, 71.37188716805782
1099, 71.28444613860843
1100, 71.22598666351507
1101, 71.1874035056009
1102, 71.13882265176441
1103, 71.097043505393
1104, 71.12939814795324
1105, 71.15987913637828
1106, 71.10392447532465
1107, 71.08030216395383
1108, 70.92685575846613
1109, 70.82246054764967
1110, 70.73068754150269
1111, 70.69739589336118
1112, 70.69078888168062
1113, 70.64799942068062
1114, 70.59431811120074
1115, 70.54164823335334
1116, 70.50189306725083
1117, 70.61690858265031
1118, 70.55295045368948
1119, 70.46106259825524
1120, 70.43533833659225
1121, 70.42282204839834
1122, 70.42262624231408
1123, 70.30765440696746
1124, 70.23511737244107
1125, 70.27475103889526
1126, 70.22011191244904
1127, 70.15697013575779
1128, 70.10335099331634
1129, 70.12193870006632
1130, 70.12555072197407
1131, 70.1178620736573
1132, 70.1089656384622
1133, 70.1006294417021
1134, 70.09186943123385
1135, 70.09541338944518
1136, 70.09524404291753
1137, 70.10417920550756
1138, 69.98508044769139
1139, 70.01100141428023
1140, 70.03632796314074
1141, 69.98011432085312
1142, 69.96166773305356
1143, 69.96209957319921
1144, 69.96370298640356
1145, 69.88893027001276
1146, 69.76479095291938
1147, 69.76614290358529
1148, 69.7626229620961
1149, 69.73879866359702
1150, 69.70013862623706
1151, 69.69599817040371
1152, 69.69608010621363
1153, 69.69594489491452
1154, 69.72524877577008
1155, 69.79341969538665
1156, 69.67120114012684
1157, 69.62774993672134
1158, 69.62879754056988
1159, 69.62960325988652
1160, 69.62990273117529
1161, 69.62971141797368
1162, 69.62432249374436
1163, 69.61230164949089
1164, 69.59829768025578
1165, 69.5842097155131
1166, 69.57193688473684
1167, 69.56337831740109
1168, 69.55834206891465
1169, 69.5513073047059
1170, 69.54268120034652
1171, 69.53309396136383
1172, 69.52317579328519
1173, 69.51355690163794
1174, 69.5048674919494
1175, 69.49773776974692
1176, 69.49787333567843
1177, 69.49624907061553
1178, 69.49638303549031
1179, 69.49645362364262
1180, 69.49630799276
1181, 69.50061048946408
1182, 69.5752462477534
1183, 69.63900707748651
1184, 69.62916059295884
1185, 69.63012297233229
1186, 69.62858019164673
1187, 69.6163211841677
1188, 69.60153331418378
1189, 69.58473256549699
1190, 69.56643492190935
1191, 69.5471563672229
1192, 69.52741288523964
1193, 69.50772045976159
1194, 69.48859507459078
1195, 69.47055271352922
1196, 69.45410936037892
1197, 69.43978099894196
1198, 69.42822647190577
1199, 69.422798186642
1200, 69.48468456995184
1201, 69.55801354535835
1202, 69.54967908468538
1203, 69.54037225060017
1204, 69.53021606424912
1205, 69.5193335467786
1206, 69.50784771933498
1207, 69.49588160306466
1208, 69.48355821911403
1209, 69.47100058862945
1210, 69.45833173275734
1211, 69.44567467264405
1212, 69.43315242943598
1213, 69.42088802427949
1214, 69.409004478321
1215, 69.39762481270685
1216, 69.38687204858348
1217, 69.37686920709722
1218, 69.36773930939448
1219, 69.39467265780002
1220, 69.4723494833528
1221, 69.49712781303087
1222, 69.49620138095003
1223, 69.49621087056036
1224, 69.49620716371811
1225, 69.4962074184233
1226, 69.4961820582765
1227, 69.49625725151309
1228, 69.49060342188967
1229, 69.43800704242331
1230, 69.27491104589937
1231, 69.3500920665899
1232, 69.43380212773405
1233, 69.42938950376859
1234, 69.42962928526657
1235, 69.42964284675614
1236, 69.42963961808523
1237, 69.42963972095723
1238, 69.429639715082
1239, 69.42963971556202
1240, 69.42963971558851
1241, 69.4296397154472
1242, 69.42963971615787
1243, 69.42963967411445
1244, 69.4296396628437
1245, 69.42964217504894
1246, 69.4295802519915
1247, 69.42998959278263
1248, 69.40113122902882
1249, 69.3797298118803
1250, 69.428150145244
1251, 69.42974004746588
1252, 69.42193400004012
1253, 69.36559953899135
1254, 69.36312232625896
1255, 69.36304183521672
1256, 69.36307052780039
1257, 69.36307279852065
1258, 69.3630724538931
1259, 69.36307246779204
1260, 69.36307247372592
1261, 69.36307249098029
1262, 69.36307215818933
1263, 69.36308388291525
1264, 69.36317226349469
1265, 69.36323437533288
1266, 69.32731807717418
1267, 69.35719653333128
1268.0000000000002, 69.3000532954445
1269, 69.36142209796446
1270, 69.36321806852416
1271, 69.36307785605858
1272.0000000000002, 69.36304114278484
1273, 69.36385817207375
1274, 69.364364918584
1275, 69.32244071403423
1276.0000000000002, 69.23122860878046
1277, 69.16748985405741
1278, 69.13664602086376
1279, 69.12724864489266
1280.0000000000002, 69.18719218008874
1281, 69.16349541739065
1282, 69.12595861481353
1283, 69.09872480697246
1283.9999999999998, 69.09638220041262
1285, 69.09692100360375
1286, 69.0967499312575
1287, 69.13333080260261
1287.9999999999998, 69.1640528229918
1289, 69.14524650922279
1290, 69.09314453126339
1291, 69.09543934888436
1291.9999999999998, 69.09686857997679
1293, 69.09680682069175
1294, 69.09680270966436
1295, 69.09680350232223
1295.9999999999998, 69.09680347427421
1297, 69.09680347545016
1298, 69.09680347530747
1299, 69.09680347584583
1299.9999999999998, 69.09680345889365
1301, 69.09680353153175
1302, 69.09679854713613
1303, 69.09679359171172
1303.9999999999998, 69.09708125408238
1305, 69.08282212465801
1306, 69.19184676044631
1307, 69.16833901177004
1308, 69.09772412701108
1309, 69.09700781991125
1310, 69.0968209936595
1311, 69.09680164506781
1312, 69.0968035787592
1313, 69.09680347583077
1314, 69.09680347841922
1315, 69.0968034897817
1316, 69.09680336145578
1317, 69.09680901794329
1318, 69.09680041137365
1319.0000000000002, 69.09818903857989
1320, 69.103356253183
1321, 69.23035679140597
1322, 69.23172020211925
1323.0000000000002, 69.09843445340834
1324, 69.12419515844621
1325, 69.22607432969959
1326, 69.16086732039882
1327.0000000000002, 69.22238836493628
1328, 69.09893082516837
1329, 69.17285319564833
1330, 69.11946735798549
1331.0000000000002, 69.12032392836191
1332, 69.0935749946183
1333, 69.09713161550859
1334, 69.0937429374911
1335.0000000000002, 69.2029760707423
1336, 69.14717683727494
1337, 69.09592718676483
1338, 69.09687406429833
1339.0000000000002, 69.09679865468985
1340, 69.09680339580022
1341, 69.09680346391713
1342, 69.09680351864377
1343.0000000000002, 69.09680319776102
1344, 69.09681925848366
1345, 69.09680757902444
1346, 69.10054328736618
1346.9999999999998, 69.1224314216355
1348, 69.20185724813017
1349, 69.13297795908724
1350, 69.09660481305335
1350.9999999999998, 69.09673949741031
1352, 69.09612807294769
1353, 69.12405546986739
1354, 69.24518781582175
1356, 69.0839249024553
1357, 69.09615988965172
1358, 69.09695636346586
1358.9999999999998, 69.0967981856266
1360, 69.09680368761396
1361, 69.09680419314752
1362, 69.09680551011407
1362.9999999999998, 69.09676374107916
1364, 69.09804312895835
1365, 69.09238555558339
1366, 69.23127761405752
1366.9999999999998, 69.16662120569892
1368, 69.08063003818569
1369, 69.09709182919188
1370, 69.0967798180979
1371, 69.09680494205608
1372, 69.0968033663415
1373, 69.0967750021035
1374, 69.0966260857487
1375, 69.09791946738156
1376, 69.19390434689001
1377, 69.19942218597616
1378, 69.09984063959092
1379, 69.09713105944522
1380, 69.09583593833358
1381, 69.15862176375636
1382.0000000000002, 69.1685968632637
1383, 69.09775451921846
1384, 69.09686106145911
1385, 69.09679188165308
1386.0000000000002, 69.0968489110484
1387, 69.0967326336932
1388, 69.11401359247506
1389, 69.12614310924697
1390.0000000000002, 69.0949742677206
1391, 69.09686622129226
1392, 69.0968008103615
1393, 69.09680378079787
1394.0000000000002, 69.09680348698183
1395, 69.096803471425
1396, 69.09680347544628
1397, 69.09680347532277
838.3155946321148, 81.37457044673539
840.9069875057844, 82.19931271477662
842.2026839426192, 83.16151202749141
844.7940768162888, 83.8487972508591
847.3854696899583, 85.36082474226804
847.3854696899583, 84.94845360824742
846.0897732531236, 84.39862542955326
851.2725590004628, 86.32302405498281
848.6811661267932, 85.91065292096219
851.2725590004628, 87.01030927835052
852.5682554372976, 87.69759450171821
853.8639518741322, 88.10996563573883
853.8639518741322, 88.52233676975945
856.4553447478019, 88.79725085910653
859.0467376214715, 89.62199312714776
861.638130495141, 90.58419243986253
864.2295233688106, 90.99656357388315
865.5252198056454, 91.54639175257732
868.116612679315, 91.95876288659794
872.0037019898194, 92.23367697594502
875.8907913003238, 92.5085910652921
879.7778806108283, 92.37113402061856
882.3692734844979, 92.09621993127148
886.2563627950022, 92.02749140893471
860.3424340583063, 90.10309278350515
857.1031929662192, 89.20962199312714
843.4983803794539, 83.43642611683848
842.2026839426192, 82.61168384879724
839.6112910689495, 81.78694158075601
830.541416011106, 78.07560137457044
831.8371124479407, 78.48797250859106
833.1328088847755, 78.90034364261169
827.9500231374363, 77.66323024054982
826.6543267006016, 76.97594501718213
825.3586302637667, 76.56357388316151
824.062933826932, 76.28865979381443
822.7672373900971, 75.73883161512028
818.8801480795927, 74.91408934707903
821.4715409532623, 75.32646048109966
816.2887552059232, 74.22680412371133
817.5844516427579, 74.63917525773195
813.6973623322535, 73.81443298969072
662.1008792225821, 74.36426116838487
660.1573345673298, 74.0893470790378
669.8750578435909, 75.32646048109966
671.8186024988431, 75.53264604810997
651.7353077279038, 73.4020618556701
654.3267006015733, 73.53951890034364
646.5525219805646, 72.98969072164948
668.5793614067561, 75.05154639175257
598.6117538176769, 72.98969072164948
593.4289680703378, 72.98969072164948
586.9504858861638, 72.98969072164948
589.5418787598334, 72.98969072164948
596.0203609440074, 72.98969072164948
607.6816288755206, 72.85223367697594
601.8509949097639, 72.92096219931271
1005.4604349838037, 78.35051546391752
