22.999999999999996, 77.07757841408343
23.499999999999996, 77.14508146095207
23.999999999999996, 77.2003639827138
24.499999999999996, 77.26420495801518
24.999999999999996, 77.33500018137858
25.499999999999996, 77.41114544732633
26.000000000000004, 77.4910365503808
26.49999999999999, 77.57306928506439
26.99999999999999, 77.65563944589944
27.499999999999996, 77.7371428274083
27.999999999999996, 77.81597522411337
28.499999999999996, 77.89053243053698
28.999999999999996, 77.95921024120152
29.499999999999996, 78.02040445062931
29.999999999999996, 78.07251085334278
30.499999999999996, 78.14471918224764
30.999999999999996, 78.24888629211549
31.499999999999996, 78.36918024821227
31.999999999999996, 78.49389556034374
32.5, 78.61132673831573
33, 78.70976829193391
33.5, 78.78619082667359
34, 78.87659652554731
34.499999999999986, 78.98297392447782
34.999999999999986, 79.10149351578883
35.5, 79.22832579180404
36, 79.3596412448472
36.5, 79.491610367242
37, 79.62040365131219
37.5, 79.74219158938148
38, 79.85314467377357
38.5, 79.94943339681221
39, 80.06218271379619
39.5, 80.26463735047595
40, 80.39140232273145
40.5, 80.53992021848688
41, 80.71046212333346
41.5, 80.8940433218708
42, 81.08167909869852
42.499999999999986, 81.26438473841624
42.999999999999986, 81.43317552562358
43.5, 81.5790667449202
44, 81.69263349550612
44.5, 81.80464690798672
45, 81.94109703895775
45.5, 82.09565383185137
46, 82.2619872300997
46.5, 82.43376717713495
47, 82.60466361638925
47.5, 82.76834649129476
48, 82.91848574528366
48.5, 83.0487513217881
49, 83.1560777710754
49.5, 83.1956230237842
50, 83.28556578533852
50.5, 83.39693431047992
51, 83.52573555922531
51.5, 83.66509713119963
52, 83.8081466260278
52.5, 83.94801164333478
53, 84.0778197827455
53.5, 84.19069864388489
54, 84.2843331710128
54.5, 84.4093859759374
55, 84.56344675356404
55.5, 84.7504125333201
56, 84.91811088716787
56.5, 85.11667917054709
57, 85.33516281545909
57.5, 85.56260725390517
58, 85.78805791788662
58.5, 86.00056023940476
59, 86.1891596504609
59.5, 86.34290158305633
60, 86.37258838873213
60.5, 86.33611803719174
61, 86.24554630843356
61.5, 86.17234262259792
62, 86.26028729748667
62.5, 86.37460044026113
63, 86.50301692823346
63.5, 86.63327163871583
64, 86.75309944902035
64.5, 86.8502352364592
65, 87.0944801874815
65.5, 87.29189655826622
66, 87.35157073453765
66.5, 87.4019532756102
67, 87.46573921388836
67.5, 87.5481864089236
68, 87.64222847855119
68.5, 87.74127895540303
69.00000000000001, 87.838751372111
69.50000000000001, 87.92805926130701
70.00000000000001, 88.00261615562293
70.49999999999999, 88.06095469325486
70.99999999999999, 88.14288752505202
71.49999999999999, 88.1802938127511
72, 88.22139035665049
72.5, 88.27799730638016
73, 88.42703807688547
73.5, 88.59715764435926
74, 88.7629385978801
74.5, 88.89896352652644
75, 88.93560681396964
75.5, 88.9387041608906
76, 88.942189658635
76.5, 88.94591882781043
77, 88.94974718902444
77.5, 88.95353026288453
78, 88.95712356999826
78.5, 88.96038263097316
79, 88.96316296641676
79.5, 88.96532009693664
80, 88.96670954314028
80.5, 89.02504998811784
81, 89.1696271567893
81.5, 89.19834244686545
82, 89.23279813574979
82.5, 89.27202280719635
83, 89.31504504495916
83.5, 89.36089343279227
84, 89.40859655444967
84.5, 89.45718299368538
85.00000000000001, 89.50568133425348
85.50000000000001, 89.55312015990795
86.00000000000001, 89.59852805440282
86.49999999999999, 89.64093360149216
86.99999999999999, 89.67936538492995
87.49999999999999, 89.71285198847022
88, 89.74127730881698
88.5, 89.7781843518452
89, 89.8232617227105
89.5, 89.86963997037934
90, 89.91044964381808
90.5, 89.93240526529367
91, 89.93251252755594
91.5, 89.93251217341576
92, 89.93242187107664
92.5, 89.92950210378488
93, 89.92327734544175
93.5, 89.91615863416817
94, 89.90828085868337
94.5, 89.89977890770656
95, 89.89078766995694
95.5, 89.88144203415376
96, 89.8718768890162
96.5, 89.8622271232635
97, 89.85262762561483
97.5, 89.84321328478947
98, 89.83411898950658
98.5, 89.82547962848541
99, 89.81743009044514
99.5, 89.81010526410503
100, 89.80364003818426
100.5, 89.80313761442798
101.00000000000001, 89.83085067619709
101.50000000000001, 89.85965178431456
102.00000000000001, 89.91483600790002
102.49999999999999, 90.00655138935232
102.99999999999999, 90.06690827319933
103.49999999999999, 90.06470930618954
104, 90.09565565301735
104.5, 90.13841009920488
105, 90.18516519111239
105.5, 90.22898547633186
106, 90.26293550245519
106.5, 90.2636213675105
107, 90.25007430074882
107.5, 90.21963946523694
108, 90.19346245238005
108.5, 90.14956688488911
109, 90.09393417378196
109.5, 90.032377211682
110, 89.97070889121262
110.5, 89.91474210499722
111, 89.87028974565915
111.5, 89.89875935415017
112, 89.89903013272773
112.5, 89.87160995360011
113, 89.86578116501151
113.5, 89.86577453264033
114, 89.86578560215032
114.5, 89.86566762589668
115, 89.8523982227415
115.5, 89.8333188155898
116, 89.8449843505519
116.5, 89.85965819346373
117, 89.87513018818406
117.5, 89.88919017857165
118, 89.89602364420011
118.5, 89.8303757604418
119, 89.75615100738284
119.5, 89.73362164373502
120, 89.72653397138846
120.5, 89.6977772686094
121, 89.66998735644816
121.5, 89.6851794625968
122, 89.71578416071429
122.5, 89.73331448369103
123, 89.73202591117258
123.5, 89.70742354739653
124, 89.67705562144582
124.5, 89.64236774751011
125, 89.60480553977911
125.5, 89.56581461244247
126, 89.52684057968987
126.5, 89.489329055711
127, 89.45472565469551
127.5, 89.42447599083309
128, 89.40002567831343
128.5, 89.41051512765192
129, 89.42492632940564
129.5, 89.44058571245822
130, 89.45511379876336
130.5, 89.46613111027477
131, 89.40683736258805
131.5, 89.32594446392412
132, 89.24695586089065
132.5, 89.19808442406921
133, 89.20000055106681
133.5, 89.19835922560047
134, 89.19647155778691
134.5, 89.1899539933086
135, 89.18227906408367
135.5, 89.17384164256883
136, 89.16503660122082
136.5, 89.15625881249632
137, 89.14790314885205
137.5, 89.14036448274476
138, 89.13403768663113
138.5, 89.17339659617718
139, 89.18451490892174
139.5, 89.15579047345565
140, 89.12235722453103
140.5, 89.0856357094361
141, 89.04704647545911
141.5, 89.0080100698883
142, 88.96994704001187
142.5, 88.93427793311805
143, 88.90242329649509
143.5, 88.87580367743121
144, 88.86713003705727
144.5, 88.86718201459335
145, 88.86603140686996
145.5, 88.84984455659057
146, 88.82939365998507
146.5, 88.81012215974776
147, 88.78675969084179
147.5, 88.72874176422171
148, 88.67388544357397
148.5, 88.6622651712554
149, 88.65455242312244
149.5, 88.64568325329176
150, 88.63596847373785
150.5, 88.62571889643513
151, 88.61524533335808
151.5, 88.60485859648115
152, 88.59486949777877
152.5, 88.58558884922545
153, 88.57732746279562
153.5, 88.57039615046374
154, 88.55417009121209
154.5, 88.48621574926578
155.00000000000003, 88.40103423486717
155.50000000000003, 88.38928735662628
156.00000000000003, 88.3747643477164
156.50000000000003, 88.35830573106608
157.00000000000003, 88.34075202960385
157.50000000000003, 88.32294376625829
158.00000000000003, 88.30572146395791
158.49999999999997, 88.28992564563127
158.99999999999997, 88.27639683420693
159.49999999999997, 88.26642736399776
159.99999999999997, 88.25209180375366
160.49999999999997, 88.21514138081253
160.99999999999997, 88.202220592459
161.5, 88.20253942525736
162, 88.20242968574966
162.5, 88.20208424083421
163, 88.20169595740929
163.5, 88.20186631503536
164, 88.19269057814444
164.5, 88.16688295168325
165, 88.13624851664369
165.5, 88.10550456811302
166, 88.0793684011786
166.5, 88.05893299289419
167, 88.02908188387667
167.5, 88.00494257083035
168, 87.99135898079831
168.5, 87.9784232834159
169, 87.96402954494187
169.5, 87.94835776481771
170, 87.93158794248497
170.5, 87.91390007738515
171, 87.89547416895984
171.5, 87.87649021665051
172, 87.85712821989874
172.5, 87.83756817814604
173, 87.81799009083396
173.5, 87.79857395740402
174, 87.77949977729774
174.5, 87.76094754995665
175, 87.7430972748223
175.5, 87.72612895133624
176, 87.71022257893995
176.5, 87.69555815707501
177, 87.68231568518291
177.5, 87.67067516270524
178, 87.65635861845256
178.5, 87.63656625762017
179, 87.61654905496289
179.5, 87.59852590313929
180, 87.5588042669411
180.5, 87.53565416299278
181, 87.53584729092331
181.5, 87.56304717169085
182, 87.5870490989681
182.5, 87.60211912171866
183, 87.59885412027003
183.5, 87.57067057584867
184, 87.53183253765806
184.5, 87.51385372658288
185, 87.4911646196613
185.5, 87.46622303443682
186, 87.4414867884529
186.5, 87.41941369925301
187.00000000000003, 87.40246287779202
187.50000000000003, 87.38548901938813
188.00000000000003, 87.36354498155626
188.50000000000003, 87.3389898827616
189.00000000000003, 87.3141828414692
189.50000000000003, 87.29148297614425
190.00000000000003, 87.27324940525187
190.49999999999997, 87.26966046032022
190.99999999999997, 87.26972262427205
191.49999999999997, 87.26976001136894
191.99999999999997, 87.26966518843786
192.49999999999997, 87.20894194011298
192.99999999999997, 87.12788588117742
193.5, 87.04911853909314
194, 87.01179794657155
194.5, 87.0676989340514
195, 87.12499060972974
195.5, 87.11611880050056
196, 87.07723476596021
196.5, 87.03641539077213
197, 87.00465219975084
197.5, 86.9997113397459
198, 86.9711206375705
198.5, 86.90997288338518
199, 86.8736261255146
199.5, 86.90114290158334
200, 86.93012455213022
200.5, 86.9364667149446
201, 86.92265298417902
201.5, 86.9018075692656
202, 86.8898190030947
202.5, 86.8759556578539
203, 86.86046106963586
203.5, 86.84357877453323
204, 86.82555230863862
204.5, 86.80662520804466
205, 86.78704100884404
205.5, 86.76704324712935
206, 86.74687545899324
206.5, 86.72678118052835
207, 86.70700394782732
207.5, 86.6877872969828
208, 86.6693747640874
208.5, 86.65200988523375
209, 86.63593619651454
209.5, 86.62139723402237
210, 86.60863653384988
210.5, 86.57151469946078
211, 86.54437564405333
211.5, 86.53648335630464
212, 86.52056374697597
212.5, 86.50023526584594
213, 86.48083456154123
213.5, 86.45272691517978
214, 86.4032113251686
214.5, 86.38060796873373
215, 86.35147215304201
215.5, 86.32036311814333
216, 86.29184010408757
216.5, 86.2709159628946
217, 86.26404082267634
217.5, 86.25532804307657
218, 86.24544799549882
218.5, 86.23507105134654
219.00000000000003, 86.22486758202318
219.50000000000003, 86.21550795893226
220.00000000000003, 86.20766255347728
220.50000000000003, 86.19709957479509
221.00000000000003, 86.18013012364995
221.50000000000003, 86.16046980978872
222.00000000000003, 86.13861725121104
222.49999999999997, 86.11507106591657
222.99999999999997, 86.09032987190487
223.49999999999997, 86.06489228717558
223.99999999999997, 86.03925692972832
224.49999999999997, 86.01392241756274
224.99999999999997, 85.98938736867841
225.5, 85.96615040107498
226, 85.94471013275206
226.5, 85.92556518170926
227, 85.90921416594622
227.5, 85.889213924805
228, 85.90316102583704
228.5, 85.92790531799359
229, 85.93839617377728
229.5, 85.9147528086649
230, 85.8844637328364
230.5, 85.87170298244469
231, 85.87159161566031
231.5, 85.87149698914924
232, 85.87144454724903
232.5, 85.87145973429713
233, 85.87156799463115
233.5, 85.87959285681856
234, 85.93610321033182
234.5, 85.91233449639769
235, 85.8767832079701
235.5, 85.83578679132748
236, 85.79108449756143
236.5, 85.7444155777635
237, 85.6975192830253
237.5, 85.6521348644384
238.00000000000003, 85.61000157309434
238.50000000000003, 85.57285866008475
239.00000000000003, 85.54244537650119
239.50000000000003, 85.53020040568245
240.00000000000003, 85.51743984737323
240.50000000000003, 85.50278083598762
241.00000000000003, 85.4872371688725
241.50000000000003, 85.47182264337468
242.00000000000003, 85.45755105684101
242.50000000000003, 85.4454362066183
243.00000000000003, 85.44164458559648
243.50000000000003, 85.43836290278932
244.00000000000003, 85.42516216980285
244.50000000000003, 85.41034843361655
245.00000000000003, 85.39306844174463
245.50000000000003, 85.36283338352351
246.00000000000003, 85.33820218322508
246.50000000000003, 85.31680179027683
247.00000000000003, 85.2892713038818
247.50000000000003, 85.25855105723532
248.00000000000003, 85.22758138353272
248.50000000000003, 85.19930261596933
249.00000000000003, 85.17665508774047
249.50000000000003, 85.15265441327897
250.00000000000003, 85.14671618298674
250.50000000000003, 85.16546217157136
251.00000000000003, 85.18617173219592
251.50000000000003, 85.20321027872717
252.00000000000003, 85.19332232411288
252.50000000000003, 85.17366481476799
253.00000000000003, 85.1511488039452
253.50000000000003, 85.12633038648246
254.00000000000003, 85.09976565721767
254.50000000000003, 85.07201071098878
255.00000000000003, 85.04362164263367
255.50000000000003, 85.01515454699025
256, 84.98716551889648
256.5, 84.96021065319026
257, 84.93484604470952
257.5, 84.91162778829215
258, 84.8911119787761
258.5, 84.87385471099928
259, 84.87299980994662
259.5, 84.87309891637324
260, 84.89255911908029
260.5, 84.95212347238174
261, 85.0043006880218
261.5, 84.96342163356611
262, 84.90296278222945
262.5, 84.84341813105637
263, 84.80666714719354
263.5, 84.80681215949966
264, 84.80681438452345
264.5, 84.77245158458594
265, 84.73568702763879
265.5, 84.72317232358307
266, 84.70853008231386
266.5, 84.69220002106294
267, 84.67462185706209
267.5, 84.6562353075431
268, 84.6374800897377
268.5, 84.61879592087773
269, 84.60062251819494
269.5, 84.58339959892113
270, 84.56756688028806
270.5, 84.55356407952748
271, 84.54183091387122
271.5, 84.51928393060105
272, 84.48886904826558
272.5, 84.46830445425908
273, 84.44976400702738
273.5, 84.4277406182879
274, 84.40304600928603
274.5, 84.37649190126707
275, 84.34889001547644
275.5, 84.32105207315949
276, 84.2937897955616
276.5, 84.26791490392809
277, 84.24423911950434
277.5, 84.22357416353574
278, 84.20853939271997
278.5, 84.23453657648818
279, 84.26439307560153
279.5, 84.26664008389476
280, 84.24787728447339
280.5, 84.22724945692329
281, 84.21025388128237
281.5, 84.20760121894591
282, 84.20766365306876
282.5, 84.2077322683166
283, 84.20778837551279
283.5, 84.2078132854807
284, 84.20778830904364
284.5, 84.20769475702502
285, 84.19418335207975
285.5, 84.14118542151085
286, 84.12730683832442
286.5, 84.11162983996037
287, 84.09422221800533
287.5, 84.075299793902
288, 84.05507838909314
288.5, 84.03377382502143
289, 84.01160192312962
289.5, 83.98877850486043
290, 83.96551939165658
290.5, 83.9420404049608
291, 83.91855736621582
291.5, 83.89528609686437
292, 83.87244241834914
292.5, 83.8502421521129
293, 83.82890111959831
293.5, 83.80863514224818
294, 83.78966004150517
294.5, 83.77219163881203
295, 83.75644575561148
295.5, 83.74263821334624
296, 83.7414054844114
296.5, 83.74159545993619
297, 83.74159165337421
297.5, 83.74167195867201
298, 83.74232111392224
298.5, 83.69729951762342
299, 83.6365070496782
299.5, 83.60512330666145
300, 83.595876509173
300.5, 83.58575381805609
301, 83.5748193027315
301.5, 83.56313703261993
302, 83.55077107714214
302.5, 83.53778550571887
303, 83.52424438777084
303.5, 83.51021179271878
304, 83.49575178998347
304.5, 83.48092844898561
305, 83.46580583914596
305.5, 83.45044802988522
306, 83.43491909062416
306.5, 83.41928309078352
307, 83.40360409978402
307.5, 83.3879461870464
308, 83.3723734219914
308.5, 83.35694987403977
309, 83.3417396126122
309.5, 83.3268067071295
310, 83.31221522701237
310.5, 83.29802924168153
311, 83.28431282055773
311.5, 83.27113003306171
312, 83.25854494861423
312.5, 83.24662163663598
313, 83.23542416654774
313.5, 83.22501660777023
314, 83.21546302972418
314.5, 83.20233799665382
315, 83.16810820299507
315.5, 83.12713638426813
316, 83.08983631032535
316.5, 83.10466874035383
317, 83.18430630987272
317.5, 83.27542703500201
318, 83.257670695879
318.5, 83.23698518607411
319, 83.21395026657211
319.5, 83.18885657644016
320, 83.1619947547454
320.5, 83.13365544055493
321.00000000000006, 83.10412927293599
321.5, 83.07370689095566
322.00000000000006, 83.04267893368112
322.5, 83.0113360401795
323.00000000000006, 82.97996884951796
323.5, 82.94886800076367
324.00000000000006, 82.91832413298374
324.5, 82.88862788524536
325.00000000000006, 82.86006989661564
325.5, 82.83294080616176
326.00000000000006, 82.80753125295082
326.5, 82.78413187605004
327.00000000000006, 82.76303331452655
327.5, 82.74452620744745
327.99999999999994, 82.737816386019
328.5, 82.7306991071017
328.99999999999994, 82.7225700559403
329.5, 82.71384640688947
329.99999999999994, 82.70494533430393
330.5, 82.69628401253837
330.99999999999994, 82.68827961594747
331.5, 82.6813493188859
331.99999999999994, 82.67341109334616
332.5, 82.64059185603912
332.99999999999994, 82.59956759697936
333.5, 82.56127613422458
334, 82.54661209362875
334.5, 82.54179468488368
335, 82.52375177754489
335.5, 82.5008719463582
336, 82.47571981283956
336.5, 82.45085999850487
337, 82.42885712487009
337.5, 82.41227581345116
338, 82.33679734117487
338.5, 82.29505585624487
339, 82.31126294323546
339.5, 82.31443726479718
340, 82.31825326431817
340.5, 82.3224949496388
341, 82.32694632859932
341.5, 82.33139140904005
342, 82.33561419880131
342.5, 82.33939870572338
343, 82.34252893764656
343.5, 82.33351426896338
344, 82.30987143769413
344.5, 82.28165603647346
345, 82.25091927916412
345.5, 82.21971237962896
346, 82.19008655173073
346.5, 82.16409300933223
347, 82.14390152132597
347.5, 82.13609578657619
348, 82.12672519258979
348.5, 82.11609674288637
349, 82.10451744098557
349.5, 82.09229429040701
350, 82.0797342946703
350.5, 82.06714445729506
351, 82.05483178180093
351.5, 82.04310327170751
352, 82.03226593053444
352.5, 82.0226267618013
353, 82.01449276902777
353.50000000000006, 81.98719784407888
354, 81.97833043493719
354.50000000000006, 82.00925180346778
355, 82.00459190224674
355.50000000000006, 81.9960767795392
356, 81.98625818923018
356.50000000000006, 81.97583664829592
357, 81.96551267371274
357.50000000000006, 81.95598678245688
358, 81.94795949150462
358.50000000000006, 81.94431497743481
359, 81.94443313677132
359.50000000000006, 81.94431568264544
360, 81.93460542361927
360.49999999999994, 81.9226054174332
361, 81.90928768020889
361.49999999999994, 81.89480266887168
362, 81.87930084034689
362.49999999999994, 81.86293265155982
363, 81.84584855943582
363.49999999999994, 81.8281990209002
364, 81.8101344928783
364.49999999999994, 81.79180543229543
365, 81.77336229607694
365.49999999999994, 81.7549555411481
366, 81.73673562443429
366.5, 81.7188530028608
367, 81.70145813335299
367.5, 81.68470147283612
368, 81.66873347823558
368.5, 81.65370460647665
369, 81.63976531448469
369.5, 81.62706605918498
370, 81.61575729750288
370.5, 81.60558191611665
371, 81.59227860427907
371.5, 81.57691285946183
372, 81.56175842543148
372.5, 81.54908904595462
373, 81.54525818665583
373.5, 81.54492751959982
374, 81.54317445014077
374.5, 81.49117871664075
375, 81.43156771306198
375.5, 81.41275926627262
376, 81.41170397033618
376.5, 81.4117407751159
377, 81.41167829674187
377.5, 81.41137315744504
378, 81.41091511124637
378.5, 81.41089443437934
379, 81.41143180210953
379.5, 81.35944959286209
380, 81.3084767236892
380.5, 81.27583265408535
381, 81.26973552737395
381.5, 81.2629747147226
382, 81.25561407949651
382.5, 81.24771748506089
383, 81.23934879478098
383.5, 81.23057187202201
384, 81.22145058014921
384.5, 81.21204878252782
385.00000000000006, 81.20243034252304
385.5, 81.19265912350012
386.00000000000006, 81.1827989888243
386.5, 81.17291380186077
387.00000000000006, 81.16306742597477
387.5, 81.15332372453156
388.00000000000006, 81.14374656089635
388.5, 81.13439979843434
389.00000000000006, 81.12534730051081
389.5, 81.11665293049096
390.00000000000006, 81.10838055174
390.5, 81.1005940276232
391.00000000000006, 81.09335722150574
391.5, 81.0867339967529
391.99999999999994, 81.08078821672989
392.5, 81.06183059523418
392.99999999999994, 81.03410422693644
393.5, 81.01073205283112
393.99999999999994, 80.99484586940332
394.5, 80.97443320323319
394.99999999999994, 80.95496366351516
395.5, 80.95771461304771
395.99999999999994, 80.96206320841152
396.5, 80.94924905224467
396.99999999999994, 80.93176098040074
397.5, 80.91056637090671
398, 80.88722000256548
398.5, 80.8651741219278
399, 80.8478809755444
399.5, 80.87709997218226
400, 80.9229103733164
400.5, 80.94350407609413
401, 80.92557133439412
401.5, 80.88805152788632
402, 80.86661704853371
402.5, 80.84673427443629
403, 80.82672226174786
403.5, 80.81261638939972
404, 80.8122180750041
404.5, 80.81184244442309
405, 80.81167349150303
405.5, 80.81189521009024
406, 80.81092545260981
406.5, 80.7522566077475
407, 80.73894573593023
407.5, 80.72764048352184
408, 80.7143228911538
408.5, 80.69959301403847
409, 80.68405090738827
409.5, 80.66829662641557
410, 80.65293022633273
410.5, 80.63855176235215
411, 80.62576128968621
411.5, 80.61515886354728
412, 80.60467544921653
412.5, 80.59101669073672
413, 80.57509535916991
413.5, 80.55776977624564
414, 80.53989826369353
414.5, 80.52233914324323
415, 80.50595073662426
415.5, 80.49159136556628
416, 80.48011935179885
416.50000000000006, 80.47565678666312
417, 80.4704498171186
417.50000000000006, 80.46450554568995
418, 80.45802491047665
418.50000000000006, 80.45120884957824
419, 80.44425830109424
419.50000000000006, 80.43737420312416
420, 80.43075749376754
420.50000000000006, 80.42460911112389
421, 80.41912999329273
421.50000000000006, 80.4145210783736
422, 80.40632472077698
422.50000000000006, 80.39272423738333
423, 80.37722429443514
423.50000000000006, 80.3621589056999
424, 80.34986208494512
424.49999999999994, 80.36369061378721
425, 80.39140919049366
425.49999999999994, 80.41049031456119
426, 80.38326085339406
426.49999999999994, 80.35430661154761
427, 80.31326313005628
427.49999999999994, 80.27175304381569
428, 80.28506771679064
428.49999999999994, 80.31461734611635
429, 80.34414422173624
429.5, 80.32951460462726
430, 80.29144454281767
430.5, 80.25036269985841
431, 80.21718766242145
431.5, 80.20778898859182
432, 80.20010642517877
432.5, 80.1915399294195
433, 80.18219749823082
433.5, 80.17218712852956
434, 80.16161681723254
434.5, 80.1505945612566
435, 80.13922835751855
435.5, 80.12762620293522
436, 80.11589609442343
436.5, 80.10414602890003
437, 80.09248400328183
437.5, 80.08101801448564
438, 80.06985605942829
438.5, 80.05910613502661
439, 80.04887623819745
439.5, 80.03927436585761
440, 80.0304085149239
440.5, 80.02238668231318
441, 80.01531686494226
441.5, 79.9953153167783
442, 79.96474746126118
442.5, 79.94981587793343
443, 79.96406984974564
443.5, 79.97816286468871
444, 79.9618438465248
444.5, 79.94237420603316
445, 79.92936240393448
445.5, 79.91407493322745
446, 79.89879908094291
446.5, 79.8858221341117
447, 79.88137578179318
447.5, 79.90506220088301
448, 79.94603682684736
448.5, 79.92256512419597
449.00000000000006, 79.89213677775263
449.5, 79.85678581140206
450.00000000000006, 79.82439584784679
450.5, 79.81504407338497
451.00000000000006, 79.81411402965163
451.5, 79.81413006059977
452.00000000000006, 79.81413001743232
452.5, 79.81413172762026
453.00000000000006, 79.8141459331759
453.5, 79.81368729100082
454.00000000000006, 79.8133845894343
454.5, 79.78552822543598
455.00000000000006, 79.75903392462737
455.5, 79.74849683649495
455.99999999999994, 79.74754775262632
456.5, 79.74756302758222
456.99999999999994, 79.74756269851925
457.5, 79.74756313327144
457.99999999999994, 79.74756264221188
458.5, 79.7475883833114
458.99999999999994, 79.74759524234108
459.5, 79.74003878009125
459.99999999999994, 79.71141627996028
460.5, 79.68372416779447
460.99999999999994, 79.71962340485136
461.5, 79.74728441165982
462, 79.73988701725301
462.5, 79.70977142551106
463, 79.6833974335428
463.5, 79.62129140157825
464, 79.56569151253422
464.5, 79.54782662998198
465, 79.54774186955322
465.5, 79.54768337997747
466, 79.54764883643318
466.5, 79.54763591409883
467, 79.54764228815286
467.5, 79.54766563377373
468, 79.54770362613989
468.5, 79.54775394042981
469, 79.54781425182196
469.5, 79.5553819282169
470, 79.59035918645515
470.5, 79.63173057875767
471, 79.6684843358493
471.5, 79.67771918234126
472, 79.67086278116591
472.5, 79.66317842601968
473, 79.65475654841903
473.5, 79.64568757988049
474, 79.63606195192057
474.5, 79.62597009605582
475, 79.61550244380273
475.5, 79.60474942667778
476, 79.59380147619757
476.5, 79.58274902387853
477, 79.57168250123726
477.5, 79.5606923397902
478, 79.54986897105391
478.5, 79.5393028265449
479, 79.52908433777968
479.5, 79.51930393627477
480, 79.51005205354669
480.50000000000006, 79.50141912111194
481, 79.49349557048706
481.50000000000006, 79.48637183318854
482, 79.47987604109127
482.50000000000006, 79.4708305878369
483, 79.45953279933069
483.50000000000006, 79.44715455160876
484, 79.43486772070726
484.50000000000006, 79.42384418266231
485, 79.41525581351
485.50000000000006, 79.41472026811574
486, 79.41471537857257
486.50000000000006, 79.4147126270122
487, 79.41471172753812
487.50000000000006, 79.41471239425387
488, 79.41471434126294
488.49999999999994, 79.4147172826688
489, 79.41472093257501
489.49999999999994, 79.41472500508503
490, 79.41472921430238
490.49999999999994, 79.41473327433059
491, 79.41473689927312
491.49999999999994, 79.41473980323349
492, 79.4147417003152
492.49999999999994, 79.41474230462178
493, 79.41474133025669
493.5, 79.41473849132349
494, 79.41473350192565
494.5, 79.41387192855547
495, 79.40250334115785
495.5, 79.38787205205534
496, 79.37228956430911
496.5, 79.35806738098036
497, 79.34815744504826
497.5, 79.34813577647004
498, 79.34812498536913
498.5, 79.34812283353341
499, 79.34812708275088
499.5, 79.34813549480951
500, 79.34814583149728
500.5, 79.34815585460214
501, 79.34815969747672
501.5, 79.34815972097131
502, 79.34815972629143
502.5, 79.3481597187241
503, 79.34815970355626
503.5, 79.34815968607491
504, 79.34815965069434
504.5, 79.34815931348263
505, 79.34817949840094
505.5, 79.34832846268627
506, 79.34842501394495
506.5, 79.3344556696023
507, 79.28161491349917
507.5, 79.28144249972439
508, 79.28135485556285
508.5, 79.28131906178555
509, 79.28132457071037
509.5, 79.28136083465516
510, 79.28141730593782
510.5, 79.28148343687621
511, 79.2815486797882
511.5, 79.28157227427512
512, 79.28141894332508
512.5, 79.30572189542477
513, 79.33594233178141
513.5, 79.3438362936213
514, 79.33106065686412
514.5, 79.3158187391201
515, 79.30043715139827
515.5, 79.2872425047077
516, 79.2848037499398
516.5, 79.29441508861194
517, 79.30606023741615
517.5, 79.31854797162055
518, 79.33068706649321
518.5, 79.34128629730226
519, 79.34529221510644
519.5, 79.31803604663999
520, 79.28888658040128
520.5, 79.28156196912907
521, 79.28675323247535
521.5, 79.30489830801726
522, 79.32565894441998
522.5, 79.34342276793512
523, 79.31492524149711
523.5, 79.28766210811013
524, 79.27949167301108
524.5, 79.25265066287115
525, 79.22326217809403
525.5, 79.21499175389779
526, 79.214774533739
526.5, 79.23565431755944
527, 79.27427345624052
527.5, 79.27491094212216
528, 79.26441401637776
528.5, 79.25229305564766
529, 79.2397604124086
529.5, 79.2280284391373
530, 79.21830948831045
530.5, 79.21536701348532
531, 79.21500643560579
531.5, 79.21502282643291
532, 79.21502523000241
532.5, 79.21502518092888
533, 79.21502517892873
533.5, 79.21502533064536
534, 79.21502585363534
534.5, 79.21502549066605
535, 79.21477358208973
535.5, 79.22666154152606
536, 79.25680624216432
536.5, 79.28145221427316
537, 79.2704816573973
537.5, 79.25603727291723
538, 79.24043810745515
538.5, 79.22600320763331
539, 79.21505162007394
539.5, 79.21499516306876
540, 79.21502342203603
540.5, 79.21502253511834
541, 79.2150228522956
541.5, 79.21502383046953
542, 79.21502492654189
542.5, 79.21502518192139
543, 79.21502518287646
543.5, 79.2150251813777
544, 79.2150251789482
544.5, 79.21502497880503
545, 79.21502401313137
545.5, 79.21508553334897
546, 79.21523631774512
546.5, 79.2152999808106
547, 79.21514284812876
547.5, 79.18097490626626
548, 79.15291417965211
548.5, 79.15168265947682
549, 79.17914015499915
549.5, 79.20814673477646
550, 79.21503099445103
550.5, 79.215037634791
551, 79.21502464219563
551.5, 79.2150251280907
552, 79.21502517967028
552.5, 79.21502517885172
553, 79.21502517887285
553.5, 79.21502517884815
554, 79.21502517887419
554.5, 79.21502517814675
555, 79.21502517880991
555.5, 79.21502515834503
556, 79.21502647551266
556.5, 79.21503912979256
557, 79.2146902178611
557.5, 79.21492179618133
558, 79.18819542052825
558.5, 79.16192888795996
559, 79.14847176391895
559.5, 79.16887746517737
560, 79.19942646074868
560.5, 79.21503785519845
561, 79.21505933607341
561.5, 79.21506093300286
562, 79.2150502050547
562.5, 79.21503471129681
563, 79.21502514933323
563.5, 79.21502513245557
564, 79.21502517160553
564.5, 79.21502517888194
565, 79.21502517884284
565.5, 79.21502518052077
566, 79.21502516478314
566.5, 79.21502465359399
567, 79.21502413525363
567.5, 79.2150238760872
568, 79.2150241424199
568.5, 79.21502450889146
569, 79.21560938439272
569.5, 79.21756892542142
570, 79.24579182455405
570.5, 79.27182744210798
571, 79.26448341133953
571.5, 79.23939644012236
572, 79.21544690367496
572.5, 79.21522260259644
573, 79.2149774359173
573.5, 79.21491065273393
574, 79.22561670699805
574.5, 79.23996932661399
575, 79.25555941062859
575.5, 79.27007546594633
576, 79.28120599947174
576.5, 79.2816161248586
577, 79.28156610601388
577.5, 79.281414138096
578, 79.30495360138345
578.5, 79.34464540692838
579, 79.3545762667672
579.5, 79.3623777514457
580, 79.37104432377635
580.5, 79.38046886760011
581, 79.39054426675798
581.5, 79.401163405091
582, 79.41221916644011
582.5, 79.42360443464636
583, 79.43521209355073
583.5, 79.44693502699423
584, 79.45866611881785
584.5, 79.47029825286256
585, 79.4817243129694
585.5, 79.49283718297937
586, 79.50352974673345
586.5, 79.51369488807265
587, 79.52322549083797
587.5, 79.53201443887039
588, 79.53995461601093
588.5, 79.5469389061006
589, 79.55408294439731
589.5, 79.56238603714773
590, 79.57167717933672
590.5, 79.58182532147175
591, 79.59269941406035
591.5, 79.60416840760998
592, 79.61610125262808
592.5, 79.62836689962218
593, 79.64083429909975
593.5, 79.65337240156826
594, 79.66585015753522
594.5, 79.67813651750808
595, 79.69010043199434
595.5, 79.70161085150148
596, 79.71253672653698
596.5, 79.72274700760832
597, 79.73211064522302
597.5, 79.74049658988847
598, 79.74600346907661
598.5, 79.75146290495753
599, 79.76370776989656
599.5, 79.79130001436727
600, 79.82230628083644
600.5, 79.85214296809396
601, 79.87622647492972
601.5, 79.8922088846498
602, 79.90993155980303
602.5, 79.93011933964377
603, 79.9523450092228
603.5, 79.97618135359087
604, 80.00120115779875
604.5, 80.02697720689719
605, 80.05308228593695
605.5, 80.07908917996878
606, 80.10457067404344
606.5, 80.1290995532117
607, 80.15224860252432
607.5, 80.17359060703207
608, 80.19269835178565
608.5, 80.20914462183589
609, 80.23002848263492
609.5, 80.26054951662668
610, 80.28058094752987
610.5, 80.27988295917763
611, 80.28795217286483
611.5, 80.3149467387288
612, 80.37078859391647
612.5, 80.41601276854554
613, 80.43850760292842
613.5, 80.46774553137365
614, 80.49902078791125
614.5, 80.52762760657131
615, 80.55051285719044
615.5, 80.58102331907872
616, 80.61554257448917
616.5, 80.65364956157507
617, 80.69492321848968
617.5, 80.73894248338632
618, 80.78528629441824
618.5, 80.83353358973878
619, 80.88326330750117
619.5, 80.93405438585873
620, 80.98548576296473
620.5, 81.03713637697246
621, 81.08858516603523
621.5, 81.13941106830629
622, 81.18919302193895
622.5, 81.23750996508647
623, 81.28394083590217
623.5, 81.32806457253932
624, 81.3694601131512
624.5, 81.40770639589111
624.9999999999999, 81.44238235891231
625.5, 81.47306694036814
626, 81.51455684231318
626.5, 81.57366203109272
626.9999999999999, 81.63397345615788
627.5, 81.68020873659972
628, 81.72940992384416
628.5, 81.78593370302997
629, 81.8489049841833
629.5, 81.9174486773303
630, 81.99068969249707
630.5, 82.06775293970976
631, 82.14776332899454
631.5, 82.2298457703775
632, 82.3131251738848
632.5, 82.39672644954258
633, 82.47977450737696
633.5, 82.5613942574141
634, 82.64071060968011
634.5000000000001, 82.71684847420116
635, 82.78893276100335
635.5, 82.85608838011287
636, 82.9174402415558
636.5000000000001, 82.9721132553583
637, 83.03209325596022
637.5, 83.07333445704045
638, 83.14116734209753
638.5000000000001, 83.18175064698856
639, 83.25356158129019
639.5, 83.33747463209326
640, 83.42511513745646
640.5000000000001, 83.50810843543852
641, 83.57807986409813
641.5, 83.59952988739244
642, 83.67951638987095
642.5000000000001, 83.7626577622481
643, 83.881196060492
643.5, 83.92185698100747
644, 84.00879512766508
644.5000000000001, 84.1111460059387
645, 84.223269804402
645.5, 84.33952671162865
646, 84.45427691619234
646.5000000000001, 84.56188060666672
647, 84.65669797162545
647.5, 84.73308919964224
648, 84.74656026629269
648.4999999999999, 84.77350024718933
649, 84.83210000390855
649.5, 84.91760081385982
650, 85.02171357266701
650.4999999999999, 85.13382333674558
651, 85.24331516251104
651.5, 85.33957410637882
652, 85.40960115101016
652.4999999999999, 85.46261673496315
653, 85.52145628773377
653.5, 85.63613366365638
654, 85.75993892556424
654.4999999999999, 85.84705973418271
655, 85.92885347976602
655.5, 85.97938492113575
656, 86.043474288531
656.4999999999999, 86.11670663002553
657, 86.19179731725646
657.5, 86.26146172186091
658, 86.31841521547594
658.4999999999999, 86.39579318242512
659, 86.48134932717113
659.5, 86.52414502548916
660, 86.57672365297331
660.5, 86.63590570341373
661, 86.69851167060054
661.5, 86.76136204832393
662, 86.82127733037399
662.5, 86.87507801054092
663, 86.91958458261485
663.5, 87.00290198272384
664, 87.11035346467975
664.5, 87.14315127556571
665, 87.18339868363628
665.5, 87.22916495547412
666.0000000000001, 87.27851935766193
666.5, 87.3295311567824
667, 87.38026961941826
667.5, 87.42880401215217
668.0000000000001, 87.47320360156687
668.5, 87.51153765424505
669, 87.55095176548622
669.5, 87.60122667348016
670.0000000000001, 87.60277016936793
670.5, 87.60261413154878
671, 87.60243032854595
671.5, 87.60226479278815
672.0000000000001, 87.60219664353771
672.5, 87.60237250754743
673, 87.63843765802311
673.5, 87.70856255875395
674.0000000000001, 87.76905582228244
674.5, 87.7700049491051
675, 87.77124315879806
675.5, 87.77273686488992
676.0000000000001, 87.77445248090933
676.5, 87.7763564203849
677, 87.77841509684525
677.5, 87.78059492381898
678.0000000000001, 87.78286231483472
678.5, 87.78518368342111
679, 87.78752544310674
679.5, 87.78985400742025
679.9999999999999, 87.79213578989022
680.5, 87.79433720404533
681, 87.79642466341413
681.5, 87.79836458152528
681.9999999999999, 87.80012337190739
682.5, 87.80166744808908
683, 87.80222771775404
683.5, 87.78600797296369
683.9999999999999, 87.72373445382478
684.5, 87.65136798490748
685, 87.58801803129165
685.5, 87.55288198297407
685.9999999999999, 87.53907652867173
686.5, 87.55147442059177
687, 87.56663756739334
687.5, 87.58217084460121
687.9999999999999, 87.59567912774014
688.5, 87.5852388987448
689, 87.5325593536002
689.5, 87.45394529395105
689.9999999999999, 87.36493181034047
690.5, 87.31856586763011
691, 87.2792621207224
691.5, 87.23263489338436
692, 87.18126810326761
692.5, 87.12774566802378
693, 87.07465150530449
693.5, 87.02456953276136
694, 86.98008366804602
694.5, 86.9437778288101
695, 86.93805407697039
695.5, 86.95221406266089
696, 86.9788801222653
696.5, 87.00328085312184
697, 86.97254289860683
697.5000000000001, 86.93589553364289
698, 86.89433797588401
698.5, 86.84886944298418
699, 86.80048915259742
699.5000000000001, 86.75019632237772
700, 86.69899016997907
700.5, 86.64786991305549
701, 86.59783476926096
701.5000000000001, 86.54988395624949
702, 86.5050166916751
702.5, 86.46423219319176
703, 86.42852967845349
703.5000000000001, 86.39887557216298
704, 86.36737990622939
704.5, 86.32961278400259
705, 86.28698838400426
705.5000000000001, 86.24092088475608
706, 86.1928244647797
706.5, 86.14411330259686
707, 86.0962015767292
707.5000000000001, 86.05050346569837
708, 86.00843314802611
708.5, 85.97140480223406
709, 85.94083260684393
709.5000000000001, 85.93149277128038
710, 85.9047434813479
710.5, 85.87723285088875
711, 85.86770341947918
711.5000000000001, 85.83234412356208
712, 85.78801174095398
712.5, 85.73810940961977
713, 85.68604026752436
713.4999999999999, 85.63520745263266
714, 85.58901410290957
714.5, 85.55086335632001
715, 85.52086413041502
715.4999999999999, 85.48636011816704
716, 85.44658664385955
716.5, 85.40253678470864
717, 85.35520361793037
717.4999999999999, 85.30558022074075
718, 85.2546596703559
718.5, 85.20343504399186
719, 85.15289941886469
719.4999999999999, 85.10404587219045
720, 85.0578674811852
720.5, 85.01535732306502
721, 84.97750847504594
721.4999999999999, 84.94531401434406
722, 84.85794147329226
722.5, 84.80622951042555
723, 84.80629868988598
723.5, 84.80672347937444
724, 84.78529859575815
724.5, 84.73486577224203
725, 84.67750012381951
725.5, 84.6593937741336
726, 84.58898227527771
726.5, 84.50575817765588
727, 84.43253022360723
727.5, 84.35386528552046
728, 84.2700469366884
728.5, 84.24254743404845
729, 84.21286486603562
729.5, 84.20810387973205
730, 84.1877280625385
730.5, 84.13242314329403
731.0000000000001, 84.07054551702484
731.5, 84.01831833003632
732, 83.96685640722433
732.5, 83.89788589538517
733.0000000000001, 83.81752086272441
733.5, 83.72921180072542
734, 83.63640920087157
734.5, 83.54256355464624
735.0000000000001, 83.45112535353277
735.5, 83.36554508901457
736, 83.28927325257497
736.5, 83.22576033569737
737.0000000000001, 83.13943017838805
737.5, 83.05337146893882
738, 82.98966878579469
738.5, 82.91332636312785
739.0000000000001, 82.82860548730689
739.5, 82.73976744470052
740, 82.65107352167735
740.5, 82.56678500460605
741.0000000000001, 82.4911631798553
741.5, 82.42846933379373
742, 82.38057628725971
742.5, 82.32936334496881
743.0000000000001, 82.27219353348414
743.5, 82.20972722417359
744, 82.14262478840512
744.5, 82.0715465975466
744.9999999999999, 81.99715302296599
745.5, 81.92010443603118
746, 81.84106120811013
746.5, 81.76068371057073
746.9999999999999, 81.67963231478092
747.5, 81.5985673921086
748, 81.5181493139217
748.5, 81.43903845158815
748.9999999999999, 81.36189517647585
749.5, 81.28737985995275
750, 81.21615287338675
750.5, 81.14887458814577
750.9999999999999, 81.08620537559774
751.5, 81.02880560711056
752, 80.97733565405217
752.5, 80.90915558460213
752.9999999999999, 80.84264041383571
753.5, 80.7696873455987
754, 80.67516324992927
754.5, 80.57396615655615
754.9999999999999, 80.48099409520809
755.5, 80.41165080407589
756, 80.36049335802483
756.5, 80.29453461954303
757, 80.22083885189411
757.5, 80.14647031834166
758, 80.07849328214924
758.5, 80.02397200658044
759, 79.95907197627973
759.5, 79.86744432210767
760, 79.80209450428812
760.5, 79.74354636213798
761, 79.67128152967845
761.5, 79.59074555994394
762, 79.50738400596879
762.5000000000001, 79.4266424207873
763, 79.35396635743386
763.5, 79.2948013689428
764, 79.2406212087353
764.5000000000001, 79.17154050539591
765, 79.09108197958204
765.5, 79.00270107699485
766, 78.90985324333542
766.5000000000001, 78.81599392430482
767, 78.7245785656042
767.5, 78.63906261293462
768, 78.56290151199723
768.5000000000001, 78.4995507084931
769, 78.45108441431594
769.5, 78.38996335721032
770, 78.3204436282749
770.5000000000001, 78.25280254311267
771, 78.19731741732647
771.5, 78.15285200534548
772, 78.09226712469295
772.5000000000001, 78.02290245691005
773, 77.95501337364294
773.5, 77.89885524653779
774, 77.81619533689135
774.5000000000001, 77.73396038766901
775, 77.67528911129824
775.5, 77.62178319766574
776, 77.58783263312407
776.4999999999999, 77.5464573055808
777, 77.49874558626757
777.5, 77.4467087222985
778, 77.39235796078768
778.4999999999999, 77.33770454884926
779, 77.28475973359735
779.5, 77.23553476214612
780, 77.19204088160961
780.4999999999999, 77.15628933910202
781, 77.12306559634203
781.5, 77.08318978135576
782, 77.03771195675836
782.4999999999999, 76.98774031908265
783, 76.93438306486145
783.5, 76.87874839062756
784, 76.8219444929138
784.4999999999999, 76.76507956825297
785, 76.7092618131779
785.5, 76.65559942422136
786, 76.60520059791621
786.4999999999999, 76.55917353079523
787, 76.51862641939123
787.5, 76.48513953992723
788, 76.46276206898894
788.5, 76.43379321390704
789, 76.40273490384996
789.5, 76.37408906798616
790, 76.35235589319247
790.5, 76.33349994403991
791, 76.31128890163647
791.5, 76.28624300692553
792, 76.25888250085055
792.5, 76.22972762435487
793, 76.19929861838193
793.5, 76.16811572387512
794.0000000000001, 76.13669918177784
794.5, 76.1055692330335
795, 76.07524611858553
795.5, 76.04625007937727
796.0000000000001, 76.0191013563522
796.5, 75.99432019045366
797, 75.9724268226251
797.5, 75.9539414938099
798.0000000000001, 75.91188762104508
798.5, 75.88718384178934
799, 75.88665339086604
799.5, 75.88663498492909
800.0000000000001, 75.88662110273093
800.5, 75.88661290344484
801, 75.88661154624423
801.5, 75.8866181903024
802.0000000000001, 75.88663399479272
802.5, 75.88666011888851
803, 75.90058025412443
803.5, 75.92067647668867
804.0000000000001, 75.94058144409618
804.5, 75.95368824088207
805, 75.95326674790216
805.5, 75.95322943208184
806.0000000000001, 75.953230022859
806.5, 75.95323008532885
807, 75.95322472180055
807.5, 75.953171189037
807.9999999999999, 75.95626398924827
808.5, 75.9707394588536
809, 76.00893619503421
809.5, 76.04999280856092
809.9999999999999, 76.08296864613263
810.5, 76.10707624002329
811, 76.13742042420745
811.5, 76.16356473468974
811.9999999999999, 76.19719615209397
812.5, 76.23503982290505
813, 76.2766427026612
813.5, 76.32155174690067
813.9999999999999, 76.36931391116164
814.5, 76.41947615098235
815, 76.47158542190105
815.5, 76.52518867945594
815.9999999999999, 76.57983287918525
816.5, 76.6350649766272
817, 76.69043192731999
817.5, 76.7454806868019
817.9999999999999, 76.7997582106111
818.5, 76.85281145428584
819, 76.90418737336434
820.5, 77.04372073840459
821, 77.08385691448036
821.5, 77.12005054365098
822, 77.14910870350451
834.5, 79.60980123200842
835, 79.78026622458381
835.5000000000001, 79.96656007288122
836, 80.14562619226683
838, 80.98062888887848
847.4999999999999, 83.67207896611505
848, 83.83448356680043
848.5, 84.01983378167715
853, 85.49574600704784
853.5, 85.62863441199724
854.5, 85.96425676786951
855, 86.15258376465913
855.5, 86.34498333792881
856, 86.53425201061195
858.5, 87.21729344528393
859.0000000000001, 87.34051889376138
859.5, 87.47777380880837
860, 87.62462971543724
860.5, 87.77665813866038
861.0000000000001, 87.92943060349019
861.5, 88.07851863493899
862, 88.21949375801918
862.5, 88.34792749774314
863.0000000000001, 88.45939137912322
863.5, 88.58282347544011
864, 88.7848151513481
864.5, 88.90760045448307
865.0000000000001, 89.05356473428974
865.5, 89.22060588637049
866, 89.39715258556258
866.5, 89.5716335067032
867.0000000000001, 89.73247732462958
867.5, 89.86811271417893
868, 89.95490251750739
868.5, 90.03086358418822
869.0000000000001, 90.09473792056124
869.5, 90.2733345197455
870, 90.36823329158345
870.5, 90.44705637988316
871.0000000000001, 90.53964425208339
871.5, 90.63163692008325
872, 90.70867439578194
872.5, 90.9398673927466
872.9999999999999, 91.39851174630871
876.5, 91.57036675537259
876.9999999999999, 91.6292413143598
877.5, 91.78871931175456
879.5, 92.04260644344912
880.9999999999999, 92.32409995395615
881.5, 92.21159602769667
882, 92.15910897283457
882.5, 92.0970806408553
883, 92.08704736680001
883.5, 92.2068555842956
884, 92.35047043586522
884.5, 92.48109095755662
885, 92.42452868174091
885.5, 92.26608068383275
889.5, 92.51534867933402
890, 92.58943602975886
894, 92.79336890660396
894.5000000000001, 92.85673951090737
895, 92.74461182926353
895.5, 92.5998771541965
896, 92.63070956192453
896.5000000000001, 92.66752903943662
897, 92.70781743920382
897.5, 92.74905661369715
898, 92.78872841538761
898.5000000000001, 92.82431469674628
899, 92.85329731024416
899.5, 92.81593770008944
900, 92.72423803484891
900.5000000000001, 92.66716020910975
901, 92.72159669192703
901.5, 92.73627766825236
902, 92.74661111456511
902.5000000000001, 92.75810898786462
903, 92.77062794324621
903.5, 92.78402463580535
904, 92.79815572063742
904.4999999999999, 92.81287785283783
905, 92.82804768750196
905.5, 92.84352187972523
906, 92.85915708460301
906.4999999999999, 92.87480995723075
907, 92.89033715270382
907.5, 92.90559532611765
908, 92.92044113256759
908.4999999999999, 92.93473122714909
909, 92.94832226495754
909.5, 92.96107090108832
910, 92.97283379063687
910.4999999999999, 92.98346758869855
911, 92.99282895036879
911.5, 93.00516205231007
912, 93.02191992743879
912.4999999999999, 93.04131908161598
913, 93.06200538871876
913.5, 93.0826247226243
914, 93.1018229572097
914.4999999999999, 93.11824596635216
915, 93.14434874480158
915.5, 93.22999074328926
916, 93.31405482317415
916.5, 93.32110800359901
917, 93.31065264307713
917.5, 93.29855126056239
918, 93.28601627690774
918.5, 93.27426011296615
919, 93.2644951895906
919.5, 93.29084522330882
920, 93.37402755896449
920.5, 93.46689506824103
921, 93.54497466947123
921.5, 93.6160349695901
922.0000000000001, 93.65567473266587
922.5, 93.64296994142434
923, 93.62767459941594
923.5, 93.61219919694965
924.0000000000001, 93.59895422433443
924.5, 93.61309882686935
925, 93.6725916219762
925.5, 93.72481985113288
926.0000000000001, 93.79789091192733
926.5, 93.88864445912925
927, 93.92301751455129
927.5, 93.91268382868536
928.0000000000001, 93.80240759816948
928.5, 93.68672675053456
929, 93.66007466887484
929.5, 93.65989767309766
930.0000000000001, 93.67973171256536
930.5, 93.85744423858141
931, 94.0464445843069
931.5, 94.10963581001762
932.0000000000001, 94.12352877053893
932.5, 94.12626552622989
933, 94.12687005806659
933.5, 94.0821183244406
934.0000000000001, 94.02119070509482
934.5, 94.02243259231182
935, 94.12994536974284
935.5, 94.2541046458495
935.9999999999999, 94.36198696840151
936.5, 94.39229040334185
937, 94.35193656878702
937.5, 94.30192609149263
937.9999999999999, 94.27180579576745
938.5, 94.2590632695404
939, 94.25919865491849
939.5, 94.26439588108892
939.9999999999999, 94.28301261851357
940.5, 94.30557696997974
941, 94.33080350040606
941.5, 94.35740677471127
941.9999999999999, 94.38410135781406
942.5, 94.40960181463308
943, 94.43262271008702
943.5, 94.45187860909458
943.9999999999999, 94.50473471191302
944.5, 94.61756533650922
945, 94.74116716769103
945.5, 94.842755307656
945.9999999999999, 94.86592863449656
946.5, 94.87768834787441
947, 94.89128241224675
947.5, 94.9061334057518
948, 94.92166390652781
948.5, 94.93729649271302
949, 94.95245374244568
949.5, 94.96655823386402
950, 94.97903254510628
950.5, 94.98929925431071
951, 94.93137334493599
951.5, 94.82340507167295
952, 94.7115886113357
952.5, 94.62632671208524
953, 94.60445707883034
953.5000000000001, 94.60646514909214
954, 94.63133648150901
954.5, 94.66027407883463
955, 94.69124868494286
955.5000000000001, 94.72223104370755
956, 94.75119189900254
956.5, 94.77610199470168
957, 94.78801813806578
957.5000000000001, 94.76032911438608
958, 94.7314691590106
958.5, 94.72499251376755
959, 94.7436800815203
959.5000000000001, 94.80299169773568
960, 94.85566240464976
960.5, 94.85822340961535
961, 94.85805903606403
961.5000000000001, 94.85790593951083
962, 94.85782977741492
962.5, 94.85789620723554
963, 94.85817088643189
963.5000000000001, 94.92618629444193
964, 94.97883427138996
964.5, 94.93413356772808
965, 94.88229582272771
965.5000000000001, 94.83722335176871
966, 94.77442691543436
966.5, 94.6677959709351
967, 94.59487491688117
967.5000000000001, 94.62742328620224
968, 94.66844031637456
968.5, 94.70690262893719
969, 94.72200665648856
969.4999999999999, 94.72403890225144
970, 94.70997534392788
970.5, 94.6922527312534
971, 94.67225674838792
971.4999999999999, 94.65137307949131
972, 94.63098740872344
972.5, 94.61248542024421
973, 94.5972527982135
973.4999999999999, 94.62298128036561
974, 94.64718449831764
974.5, 94.60344239019715
975, 94.55061402736384
975.4999999999999, 94.49168036807002
976, 94.42962237056796
976.5, 94.36742099311003
977, 94.30805719394847
977.4999999999999, 94.25451193133564
978, 94.2097661635238
978.5, 94.19711734533408
979, 94.11476827903672
979.5, 93.99183505864325
980, 93.91414436535581
980.5, 93.82480529623689
981, 93.8001677567187
981.5, 93.81879543739157
982, 93.83949648062104
982.5, 93.85668510909193
983, 93.82738728320919
983.5, 93.76880047386392
984, 93.7078189250353
984.5, 93.66075538632342
985.0000000000001, 93.6158071290405
985.5, 93.55908169462602
986, 93.49405352213871
986.5, 93.42412690726036
987.0000000000001, 93.35270614567276
987.5, 93.28319553305762
988, 93.2189993650968
988.5, 93.163521937472
989.0000000000001, 93.08347879422136
989.5, 92.87279853852431
990, 92.82432037193465
990.5, 92.77613006994277
991.0000000000001, 92.72099322263239
991.5, 92.66119045587278
992, 92.5990023955333
992.5, 92.5367096674832
993.0000000000001, 92.47659289759176
993.5, 92.42093271172828
994, 92.37200973576209
994.5, 92.33210459556248
995.0000000000001, 92.26167527002958
995.5, 92.17067320559975
996, 92.10628668095097
996.5, 92.03385883783433
997.0000000000001, 91.94601891682207
997.5, 91.8492964115528
998, 91.75022081566519
998.5, 91.65532162279784
999.0000000000001, 91.57112832658937
999.5, 91.50417042067843
1000, 91.4827045973864
1000.5, 91.49662276602776
1000.9999999999999, 91.50657792589939
1001.5, 91.42392590005758
1002, 91.32302729747447
1002.5, 91.21143209276991
1002.9999999999999, 91.09669026056379
1003.5, 90.98635177547595
1004, 90.88796661212625
1004.5, 90.80908474513454
1004.9999999999999, 90.79759266328819
1005.5, 90.79788313642048
1005.9999999999999, 90.77266626341705
1006.4999999999999, 90.67047588953007
1006.9999999999999, 90.544537171792
1007.4999999999999, 90.4078182178504
1007.9999999999999, 90.27328713535279
1008.4999999999999, 90.15391203194675
1008.9999999999999, 90.06360410898026
1009.4999999999999, 90.00732458657082
1009.9999999999999, 89.9389439735079
1010.4999999999999, 89.86109290679774
1010.9999999999999, 89.77640202344654
1011.4999999999999, 89.68750196046054
1011.9999999999999, 89.59702335484594
1012.4999999999999, 89.507596843609
1012.9999999999999, 89.4218530637559
1013.4999999999999, 89.3424226522929
1013.9999999999999, 89.2719362462262
1014.4999999999999, 89.21302448256206
1014.9999999999999, 89.1988699014433
1015.4999999999999, 89.1850791109478
1015.9999999999999, 89.15468084835648
1016.4999999999999, 89.09399055388856
1016.9999999999999, 89.02115231507771
1017.4999999999999, 88.93890749032285
1017.9999999999999, 88.84999743802283
1018.4999999999999, 88.75716351657657
1018.9999999999999, 88.6631470843829
1019.4999999999999, 88.57068949984078
1019.9999999999999, 88.48253212134904
1020.4999999999999, 88.40141630730658
1020.9999999999999, 88.33008341611229
1021.4999999999999, 88.27127480616504
1021.9999999999999, 88.20460735993935
1022.4999999999999, 88.11842343036886
1022.9999999999999, 88.01987556704502
1023.4999999999999, 87.91583344975525
1023.9999999999999, 87.81316675828697
1024.5, 87.71874517242762
1025, 87.6394383719646
1025.5, 87.59490766497787
1026, 87.43538853165704
1026.5, 87.22730058703333
1027, 87.1474789167463
1027.5, 87.06721231945991
1028, 86.98805121955066
1028.5, 86.93522634086376
1029, 86.93938659811955
1029.5, 86.87598113683255
1030, 86.78438780647623
1030.5, 86.68326327509801
1031, 86.58755374794572
1031.5, 86.51220543026707
1032, 86.45391242964449
1032.5, 86.38091738361624
1033, 86.29650118127944
1033.5, 86.20515011119838
1034, 86.11135046193739
1034.5, 86.01958852206076
1035, 85.93435058013283
1035.5, 85.86012292471787
1036, 85.79188509911475
1036.5, 85.61968848880656
1037, 85.47142585528346
1037.5, 85.40534934375205
1038, 85.40524286778513
1038.5, 85.40555165437458
1039, 85.40578482173221
1039.5, 85.32270488249846
1040, 85.18392116113364
1040.5, 85.04245095988975
1041, 84.94262802828645
1041.5, 84.8849992477224
1042, 84.83503636969121
1042.5, 84.77781521979908
1043, 84.72598029812653
1043.5, 84.66383180586146
1044, 84.58854417857634
1044.5, 84.50359021211385
1045, 84.4124427023167
1045.5, 84.31857444502758
1046, 84.22545823608921
1046.5, 84.13656687134427
1047, 84.05537314663549
1047.5, 83.98534985780555
1048, 83.93118553433169
1048.5, 83.88290518170855
1049, 83.82782521718639
1049.5, 83.7667803700468
1050, 83.70060536957133
1050.5, 83.63013494504155
1051, 83.55620382573902
1051.5, 83.47964674094536
1052, 83.40129841994208
1052.5, 83.32199359201077
1053, 83.24256698643302
1053.5, 83.1638533324904
1054, 83.08668735946445
1054.5, 83.01190379663676
1055, 82.9403373732889
1055.5, 82.87282281870246
1056, 82.81019486215898
1056.5, 82.75328823294005
1057, 82.70293766032724
1057.5, 82.68011095870689
1058, 82.60463482053078
1058.5, 82.55092419105054
1059, 82.49194330540337
1059.5, 82.4481296412233
1060, 82.39166833439391
1060.5, 82.32504940884704
1061, 82.25304230018546
1061.5, 82.18041644401195
1062, 82.11194127592941
1062.5, 82.05238623154058
1063, 82.00583804744872
1063.5, 81.9527180589171
1064, 81.88689840144812
1064.5, 81.81228580123822
1065, 81.73278698448397
1065.5, 81.65230867738184
1066, 81.57475760612839
1066.5, 81.50404049692011
1067, 81.44406407595352
1067.5, 81.41048060938964
1068, 81.33114623918507
1068.5, 81.2514451161955
1069, 81.20411202245722
1069.5, 81.13494278720867
1070, 81.06372329497101
1070.5, 81.01048879737216
1071, 80.95862177601529
1071.5, 80.8991111314721
1072, 80.85795824930614
1072.5, 80.81246739192751
1073, 80.75983970842137
1073.5, 80.70140533018653
1074, 80.63849438862187
1074.5, 80.5724370151262
1075, 80.50456334109838
1075.5, 80.43620349793724
1076, 80.36868761704163
1076.5, 80.3033458298104
1077, 80.24150826764236
1077.5, 80.1845050619364
1078, 80.13366634409135
1078.5, 80.09032224550602
1079, 80.0524525190162
1079.5, 80.00628254576314
1080, 79.95260427387328
1080.5, 79.8937027689223
1081, 79.83186309648603
1081.5, 79.7693703221402
1082, 79.70850951146056
1082.5, 79.65156573002287
1083, 79.60082404340288
1083.5, 79.55856951717635
1084, 79.52292274687416
1084.5, 79.48273145529892
1085, 79.4377358672943
1085.5, 79.38851208722116
1086, 79.33563621944037
1086.5, 79.27968436831273
1087, 79.22123263819915
1087.5, 79.16085713346044
1088, 79.09913395845747
1088.5, 79.03663921755106
1089, 78.9739490151021
1089.5, 78.91163945547137
1090, 78.85028664301981
1090.5, 78.79046668210823
1091, 78.73275567709749
1091.5, 78.67772973234838
1092, 78.62596495222182
1092.5, 78.57803744107864
1093, 78.53452330327967
1093.5, 78.49599864318579
1094, 78.46682129218202
1094.5, 78.43648940246167
1095, 78.40140027752688
1095.5, 78.36258264171407
1096, 78.32106521935967
1096.5, 78.2778767348001
1097, 78.23404591237185
1097.5, 78.1906014764113
1098, 78.14857215125492
1098.5, 78.10898666123913
1099, 78.07287373070035
1099.5, 78.04126208397501
1100, 78.01442004993038
1100.5, 77.97393550629631
1101, 77.92341414924562
1101.5, 77.86586785568139
1102, 77.80430850250663
1102.5, 77.7417479666244
1103, 77.68119812493777
1103.5, 77.62567085434972
1104, 77.57817803176337
1104.5, 77.54200104368184
1105, 77.50525020140829
1105.5, 77.46099719323429
1106, 77.41125045928194
1106.5, 77.35801843967332
1107, 77.30330957453052
1107.5, 77.24913230397561
1108, 77.19749506813066
1108.5, 77.15040630711778
1109, 77.10987446105902
1109.5, 77.06737132947237
1110, 77.01994345154979
1110.5, 76.95435785238722
1111, 76.93306266827405
1111.5, 76.90177495579688
1112, 76.8651275355656
1112.5, 76.82472259538343
1113, 76.78216232305357
1113.5, 76.73904890637928
1114, 76.69698453316379
1114.5, 76.6575713912103
1115, 76.62241166832204
1115.5, 76.59310755230229
1116, 76.5324498544748
1116.5, 76.46665076592502
1117, 76.40729005444757
1117.5, 76.35503162106458
1118, 76.32948896366025
1118.5, 76.29720241593519
1119, 76.26064465266364
1119.5, 76.22333532456187
1120, 76.18879408234613
1120.5, 76.16054057673273
1121, 76.13458868785138
1121.5, 76.1006012173557
1122, 76.06080825593908
1122.5, 76.01692650231308
1123, 75.97067265518928
1123.5, 75.92376341327922
1124, 75.87791547529446
1124.5, 75.83484553994658
1125, 75.79627030594715
1125.5, 75.76390647200772
1126, 75.68740013059116
1126.5, 75.6329323166294
1127, 75.61828124237074
1127.5, 75.5948305627576
1128, 75.5657215791232
1128.5, 75.53267812362152
1129, 75.49742402840637
1129.5, 75.46168312563168
1130, 75.42717924745132
1130.5, 75.39563622601916
1131, 75.36877789348907
1131.5, 75.36111787057605
1132, 75.35247318737069
1132.5, 75.32353622727616
1133, 75.28743288553973
1133.5, 75.24631553869132
1134, 75.20233656326089
1134.5, 75.15764833577832
1135, 75.11440323277355
1135.5, 75.07475363077653
1136, 75.04085190631717
1136.5, 75.0169519361904
1137, 74.9984592967293
1137.5, 74.97598442707985
1138, 74.95081277280303
1138.5, 74.9242297794598
1139, 74.89752089261108
1139.5, 74.87197155781786
1140, 74.8488672206411
1140.5, 74.82949332664177
1141, 74.81065509549701
1141.5, 74.78072567962616
1142, 74.75521322764767
1142.5, 74.7381807156144
1143, 74.71678335484671
1143.5, 74.6922828848544
1144, 74.66597187981976
1144.5, 74.63914291392511
1145, 74.61308856135271
1145.5, 74.58910139628486
1146, 74.56847399290386
1146.5, 74.55387089379269
1147, 74.55593716467382
1147.5, 74.54325948702072
1148, 74.52778351813016
1148.5, 74.5100580321427
1149, 74.49068690643593
1149.5, 74.47027401838739
1150, 74.44942324537463
1150.5, 74.42873846477522
1151, 74.40882355396674
1151.5, 74.3902823903267
1152, 74.37371885123272
1152.5, 74.35973681406232
1153, 74.32196601833904
1153.5, 74.2942662453501
1154, 74.28777002670846
1154.5, 74.27618356625032
1155, 74.26145267236998
1155.5, 74.2458859834623
1156, 74.23179213792213
1156.5, 74.22218405235023
1157, 74.22584617424883
1157.5, 74.21645766785934
1158, 74.20911442261608
1158.5, 74.20134162090847
1159, 74.19315775467771
1159.5, 74.18458131586512
1160, 74.17563079641187
1160.5, 74.16632468825924
1161, 74.15668148334849
1161.5, 74.14671967362082
1162, 74.13645775101753
1162.5, 74.12591420747982
1163, 74.11510753494896
1163.5, 74.1040562253662
1164, 74.09277877067277
1164.5, 74.08129366280993
1165, 74.0696193937189
1165.5, 74.05777445534095
1166, 74.04577733961732
1166.5, 74.03364653848924
1167, 74.02140054389798
1167.5, 74.00905784778476
1168, 73.99663694209083
1168.5, 73.98415631875747
1169, 73.97163446972588
1169.5, 73.95908988693733
1170, 73.94654106233308
1170.5, 73.93400648785433
1171, 73.92150465544235
1171.5, 73.90905405703842
1172, 73.8966731845837
1172.5, 73.88438053001953
1173, 73.8721945852871
1173.5, 73.86013384232767
1174, 73.84821679308247
1174.5, 73.83646192949277
1175, 73.8248877434998
1175.5, 73.81351272704481
1176, 73.80235537206906
1176.5, 73.79143417051377
1177, 73.78076761432018
1177.5, 73.77037419542958
1178, 73.76027240578316
1178.5, 73.75048073732219
1179, 73.74101768198794
1179.5, 73.73190173172162
1180, 73.72315137846448
1180.5, 73.7147851141578
1181, 73.70682143074278
1181.5, 73.69927882016067
1182, 73.69217577435278
1182.5, 73.68977159966542
1183, 73.69875082629811
1183.5, 73.72830169513935
1184, 73.75484940705692
1184.5, 73.7548877876955
1185, 73.7499045290869
1185.5, 73.73644506950777
1186, 73.72100134680224
1186.5, 73.70588539586073
1187, 73.69340925157371
1187.5, 73.68994277588185
1188, 73.68992917460213
1188.5, 73.68994666583086
1189, 73.68997565383978
1189.5, 73.68996880096695
1190, 73.6813546081565
1190.5, 73.66229017556736
1191, 73.64174623911245
1191.5, 73.62520189153932
1192, 73.62333851832913
1192.5, 73.62337053353669
1193, 73.62336104873035
1193.5, 73.6233550112403
1194, 73.62335594784238
1194.5, 73.62336738531232
1195, 73.61724700106147
1195.5, 73.60404229606851
1196, 73.58840246318529
1196.5, 73.5712006749076
1197, 73.55331010373125
1197.5, 73.53560392215206
1198, 73.51895530266582
1198.5, 73.50423741776837
1199, 73.49232343995544
1199.5, 73.53049740507653
1200, 73.55536191788053
1200.5, 73.55242596862148
1201, 73.54921693541377
1201.5, 73.54575392430331
1202, 73.54205604133593
1202.5, 73.5381423925575
1203, 73.53403208401384
1203.5, 73.52974422175089
1204, 73.52529791181446
1204.5, 73.52071226025039
1205, 73.51600637310457
1205.5, 73.51119935642286
1206, 73.50631031625112
1206.5, 73.5013583586352
1207, 73.49636258962096
1207.5, 73.49134211525426
1208, 73.48631604158096
1208.5, 73.48130347464692
1209, 73.47632352049801
1209.5, 73.47139528518008
1210, 73.46653787473898
1210.5, 73.46177039522058
1211, 73.45711195267076
1211.5, 73.45258165313534
1212, 73.4481986026602
1212.5, 73.44398190729122
1213, 73.43995067307421
1213.5, 73.43612400605507
1214, 73.43252101227964
1214.5, 73.4291607977938
1215, 73.4260624686434
1215.5, 73.42331304305677
1216, 73.42092868796107
1216.5, 73.41835190669778
1217, 73.41559360355187
1217.5, 73.41266468280827
1218, 73.40957604875192
1218.5, 73.40633860566776
1219, 73.40296325784071
1219.5, 73.39946090955574
1220, 73.39584246509774
1220.5, 73.3921188287517
1221, 73.38830090480253
1221.5, 73.38439959753518
1222, 73.38042581123456
1222.5, 73.37639045018564
1223, 73.37230441867335
1223.5, 73.36817862098262
1224, 73.36402396139839
1224.5, 73.35985134420561
1225, 73.35567167368919
1225.5, 73.35149585413409
1226, 73.34733478982524
1226.5, 73.34319938504758
1227, 73.33910054408605
1227.5, 73.33504917122559
1228, 73.33105617075113
1228.5, 73.32713244694762
1229, 73.32328890409998
1229.5, 73.31953644649315
1230, 73.31588597841208
1230.5, 73.31234840414172
1231, 73.30893462796696
1231.5, 73.3056555541728
1232, 73.30252208704412
1232.5, 73.2995451308659
1233, 73.29673558992306
1233.5, 73.29410436850053
1234, 73.29166237088326
1234.5, 73.29013948842783
1235, 73.28932032360937
1235.5, 73.28845631185861
1236, 73.28754917849918
1236.5, 73.28660064885472
1237, 73.28561244824883
1237.5, 73.28458630200514
1238, 73.28352393544729
1238.5, 73.2824270738989
1239, 73.28129744268362
1239.5, 73.28013676712506
1240, 73.27894677254682
1240.5, 73.27772918427256
1241, 73.27648572762588
1241.5, 73.27521812793044
1242, 73.27392811050987
1242.5, 73.27261740068776
1243, 73.27128772378775
1243.5, 73.26994080513347
1244, 73.26857837004856
1244.5, 73.26720214385662
1245, 73.2658138518813
1245.5, 73.26441521944622
1246, 73.26300797187501
1246.5, 73.26159383449128
1247, 73.26017453261868
1247.5, 73.25875179158083
1248, 73.25732733670135
1248.5, 73.25590289330385
1249, 73.25448018671199
1249.5, 73.25306094224939
1250, 73.25164688523968
1250.5, 73.25023974100645
1251, 73.24884123487338
1251.5, 73.24745309216405
1252, 73.24607703820212
1252.5, 73.2447147983112
1253, 73.24336809781492
1253.5, 73.24203866203692
1254, 73.24072821630078
1254.5, 73.23943848593018
1255, 73.23817119624874
1255.5, 73.23692807258008
1256, 73.23571084024782
1256.5, 73.23452122457557
1257, 73.23336095088699
1257.5, 73.23223174450568
1258, 73.2311353307553
1258.5, 73.23007343495945
1259, 73.22904778244175
1259.5, 73.22806009852584
1260, 73.22711210853537
1260.5, 73.22620553779393
1261, 73.22534211162517
1261.5, 73.22452355535269
1262, 73.2234778490768
1262.5, 73.22397286743875
1263, 73.22397309687926
1263.5, 73.22397314482407
1264, 73.22397306546675
1264.5, 73.22397291300096
1265, 73.22397274162033
1265.5, 73.22397260551844
1266, 73.22397255888896
1266.5, 73.22397265592551
1267, 73.22400239788314
1267.5, 73.22398035114516
1268.0000000000002, 73.19865619784287
1268.4999999999998, 73.16859830035604
1269, 73.16109673220951
1269.5, 73.17084750447826
1270, 73.18256303387646
1270.5, 73.19505597387555
1271, 73.207138977947
1271.5, 73.21762469956222
1272.0000000000002, 73.22398411312504
1272.4999999999998, 73.22402346854257
1273, 73.22404090256498
1273.5, 73.22403642564039
1274, 73.22401004821687
1274.5, 73.22259979203545
1275, 73.21363163527758
1275.5, 73.20236351704679
1276.0000000000002, 73.1899789108917
1276.5, 73.17766129036096
1277, 73.16659412900322
1277.5, 73.1579609003671
1278, 73.15735467818938
1278.5, 73.15733662670135
1279, 73.15735752341905
1279.5, 73.15817056927197
1280.0000000000002, 73.16411196213842
1280.5, 73.17145086218177
1281, 73.1797545629412
1281.5, 73.18859035795586
1282, 73.19752554076493
1282.5, 73.20612740490752
1283, 73.21396324392283
1283.5, 73.22060035134999
1283.9999999999998, 73.21635061214037
1284.5, 73.18712563908996
1285, 73.15998592817694
1285.5, 73.15737363580696
1286, 73.15737084509689
1286.5, 73.15738794715612
1287, 73.15740608752112
1287.5000000000002, 73.15740574663623
1287.9999999999998, 73.15740351354505
1288.5, 73.1574008169464
1289, 73.15739916124767
1289.5, 73.15739988157067
1290, 73.15740431303735
1290.5, 73.15855599893482
1291, 73.16015944255577
1291.5000000000002, 73.1615182707466
1291.9999999999998, 73.16213749628774
1292.5, 73.16152213195957
1293, 73.15917719054251
1293.5, 73.30656576777137
1294, 73.42557568200125
1294.5, 73.4212112363795
1295, 73.31776125692608
1295.5000000000002, 73.19836882343033
1295.9999999999998, 73.15767818780994
1296.5, 73.15825153689434
1297, 73.15795580669365
1297.5, 73.1909299747156
1298, 73.19065618192212
1298.5, 73.19058695827505
1299, 73.21859807604373
1299.5000000000002, 73.18990193547495
1299.9999999999998, 73.16229672915804
1300.5, 73.15958173714772
1301, 73.18788368404478
1301.5, 73.18995031740864
1302, 73.15837022835538
1302.5, 73.14899701453506
1303, 73.13796067876038
1303.5000000000002, 73.12564896081312
1303.9999999999998, 73.11324724145078
1304.5, 73.10194090143085
1305, 73.09291532151084
1305.5, 73.12517491289577
1306, 73.15340293324542
1306.5, 73.15759837335885
1307, 73.1574250121226
1307.5000000000002, 73.15740524697488
1308, 73.1574055919592
1308.5, 73.15740558089084
1309, 73.15740557919959
1309.5, 73.15740558401538
1310, 73.15740559246807
1310.5, 73.15740560168759
1311, 73.15740560636236
1311.5000000000002, 73.15740560634424
1312, 73.15740560634127
1312.5, 73.15740561712943
1313, 73.1574056197986
1313.5, 73.15740455019107
1314, 73.15740140765882
1314.5, 73.15739793314161
1315, 73.1573944586838
1315.4999999999998, 73.15739131632974
1316, 73.15738883812372
1316.5, 73.15738735611012
1317, 73.15738720233327
1317.5, 73.1573887088375
1318, 73.15739220766713
1318.5, 73.15739803086653
1319.0000000000002, 73.15823224596673
1319.4999999999998, 73.17152025126751
1320, 73.18629385649433
1320.5, 73.18414374063633
1321, 73.16897612733698
1321.5, 73.15726348236909
1322, 73.15740849776083
1322.5, 73.15740595476684
1323.0000000000002, 73.15740580002405
1323.4999999999998, 73.1574059372656
1324, 73.15740719901822
1324.5, 73.15740789388464
1325, 73.1574069140283
1325.5, 73.15695650583517
1326, 73.1560672577279
1342, 73.15702228256787
1342.5, 73.15739692900837
1343.0000000000002, 73.1574059249023
1343.5, 73.15740621955878
1344, 73.15740604961125
1344.5, 73.1574057119397
1345, 73.15740560625473
1345.5, 73.15740560635497
1346, 73.15740560636387
1346.5, 73.15740560635989
1346.9999999999998, 73.15740560635024
1347.5, 73.15740560622547
1348, 73.15740560599632
1348.5, 73.15740560575833
1349, 73.15740560554892
1349.5, 73.15740560540556
1350, 73.15740560536568
1350.5000000000002, 73.15740560546675
1350.9999999999998, 73.15740560574619
1351.5, 73.1574056062415
1352, 73.15740575040293
1352.5, 73.15740595063356
1353, 73.15740614036831
1353.5, 73.1574062765488
1354, 73.15740631611666
1354.5000000000002, 73.15740621601348
1354.9999999999998, 73.15740593318091
1355.5, 73.15737168968624
1356, 73.1575270612887
1356.5, 73.16017930647206
1357, 73.16324852845739
1357.5, 73.16668081487917
1358, 73.17042225337194
1358.5000000000002, 73.17441893157019
1358.9999999999998, 73.17861693710837
1359.5, 73.18296235762104
1360, 73.18740128074268
1360.5, 73.19187979410776
1361, 73.19634398535084
1361.5, 73.20073994210637
1362, 73.20501375200884
1362.5000000000002, 73.20911150269282
1362.9999999999998, 73.21297928179273
1363.5, 73.21656317694311
1364, 73.21980927577847
1364.5, 73.2226636659333
1365, 73.22399037978998
1365.5, 73.22400832823934
1366, 73.22400755800702
1366.5000000000002, 73.2239956230444
1366.9999999999998, 73.22398007730293
1367.5, 73.22397284002393
1368, 73.22397281780377
1368.5, 73.2239728062269
1369, 73.22397280334647
1369.5, 73.22397280721574
1370, 73.22397281588786
1370.5000000000002, 73.22397282741605
1371, 73.2239728398535
1371.5, 73.22397285125338
1372, 73.22397285446164
1372.5, 73.22397285444309
1373, 73.22397285439604
1373.5, 73.223972854396
1374, 73.22397285439597
1374.5000000000002, 73.22397285439597
1375, 73.22397285439594
1375.5, 73.22397285439594
1376, 73.22397285439594
1376.5, 73.22397285439595
1377, 73.22397285439595
1377.5, 73.22397285439595
1378, 73.22397285439598
1378.4999999999998, 73.22397285439598
1379, 73.223972854396
1379.5, 73.22397285439601
1380, 73.22397285439602
1380.5, 73.22397285439604
1381, 73.22397285439604
1381.5, 73.22397285439604
1382.0000000000002, 73.22397285439604
1382.4999999999998, 73.22397285439604
1383, 73.22397285439604
1383.5, 73.22397285439604
1384, 73.22397285439604
1384.5, 73.22397285439604
1385, 73.22397285439604
1385.5, 73.22397285439604
1386.0000000000002, 73.22397285439604
1386.4999999999998, 73.22397285439604
1333.2716335030077, 73.26460481099656
1337.1587228135122, 73.12714776632302
1329.3845441925034, 73.12714776632302
856.4553447478019, 86.87285223367698
851.2725590004628, 85.08591065292096
851.2725590004628, 84.81099656357388
849.976862563628, 84.5360824742268
848.6811661267932, 84.26116838487972
846.0897732531236, 83.16151202749141
844.7940768162888, 82.88659793814432
843.4983803794539, 82.4742268041237
842.2026839426192, 81.92439862542955
842.2026839426192, 81.78694158075601
840.9069875057844, 81.64948453608247
839.6112910689495, 81.30584192439862
837.0198981952799, 80.54982817869416
829.2457195742711, 78.76288659793815
827.9500231374363, 78.48797250859106
826.6543267006016, 78.21305841924398
825.3586302637667, 77.80068728522336
823.4150856085146, 77.52577319587628
831.8371124479407, 79.17525773195877
