201.5, 0.3984436022368075
202, 0.39830471678933943
202.5, 0.3983096575146807
203, 0.39831011624248847
203.5, 0.39814685573409225
204, 0.3979542678366772
204.5, 0.39792240063733597
205, 0.3979451222534962
205.5, 0.39783278391620147
206, 0.3976218093302689
206.5, 0.3974315614187143
207, 0.3972605623587372
207.5, 0.3970600782465732
208, 0.3968817318532326
208.5, 0.39681882607481644
209, 0.39684030469677245
209.5, 0.396849329203117
210, 0.39684275860225604
210.5, 0.39687148427622854
211, 0.39688084503750265
211.5, 0.39675094880342066
212, 0.3965458246758067
212.5, 0.39646556738214755
213, 0.3964942773005081
213.5, 0.39643021980211
214, 0.3962350277506612
214.5, 0.3960318473683593
215, 0.3958612367261083
215.5, 0.39567038184954284
216, 0.39547440306098425
216.5, 0.3953719330156549
217, 0.39537890993505276
217.5, 0.395398373394823
218, 0.39539039386126495
218.5, 0.39540704656393366
219, 0.3954362660859446
219.5, 0.39535387006156575
220, 0.3951477677679738
220.5, 0.3950197567453966
221, 0.3950447259652027
221.5, 0.3950082040285916
222, 0.3948081818420415
222.5, 0.3946580853645689
223, 0.39467657419813107
223.5, 0.3946553294794345
224, 0.3944623584674105
224.5, 0.39429906656489144
225, 0.39430943444464317
225.5, 0.3943009173613582
226, 0.39411852464116737
226.5, 0.39394139032813147
227, 0.3939337564157619
227.5, 0.3939443921769883
228, 0.39380594515787126
228.5, 0.39359122571467087
229, 0.39340804143265895
229.5, 0.39323452821465366
230, 0.39303145967726905
230.5, 0.39286718431096035
231, 0.39282299783770436
231.5, 0.39284978633575507
232, 0.3928628084853629
232.5, 0.3928558650436397
233, 0.3928519303143623
233.5, 0.3928537450399079
234, 0.39285536000488896
234.5, 0.39285483615203054
235, 0.39285263872734344
235.5, 0.39285281381284953
236, 0.3928597626836099
236.5, 0.3928602188039163
237, 0.39283526317398954
237.5, 0.3928309412208424
238, 0.392930972742331
238.5, 0.3931253427495346
239, 0.39333509207405604
239.5, 0.39351345643777724
240, 0.3936461378993581
240.5, 0.3938056793519289
241, 0.3941330813812809
241.5, 0.39453612430815066
242, 0.39469716784479403
242.5, 0.39464032208616007
243, 0.3947711752077443
243.5, 0.3951682138560272
244, 0.39548984647769303
244.5, 0.3956355720926452
245, 0.39586288435057826
245.5, 0.39624790272945465
246, 0.39655940411044865
246.5, 0.39671545312996914
247, 0.3969216885287725
247.5, 0.3972803737169892
248, 0.39765553733237125
248.5, 0.3979829479943362
249, 0.3983953647316165
249.5, 0.398946856051964
250, 0.3994604513608684
250.5, 0.3998230556549731
251, 0.4001609667941125
251.5, 0.400555545116982
252, 0.40085954555075465
252.5, 0.4009948576480534
253, 0.4012223773957062
253.5, 0.40174024953258636
254, 0.4022983871204472
254.5, 0.4026583600845596
255, 0.40300766486709594
255.5, 0.40354701885892474
256, 0.4040817815749884
256.5, 0.40437025747968125
257, 0.4044678532759872
257.5, 0.404531057955118
258, 0.4047736206602406
258.5, 0.40537192411833933
259, 0.40615255952376705
259.5, 0.4068340340319935
260, 0.4073063721947967
260.5, 0.4075510020201112
261, 0.4076960412355086
261.5, 0.4079261985100353
262, 0.4083185814191974
262.5, 0.4088763208577457
263, 0.4094245635779774
263.5, 0.40971607744069405
264, 0.40984798946312617
264.5, 0.41011473609160176
265, 0.4105046707723329
265.5, 0.4107993743164109
266, 0.4109569139690734
266.5, 0.411075884639855
267, 0.4112470476051866
267.5, 0.4115454005183883
268, 0.4119237693761336
268.5, 0.4122238520017891
269, 0.41239578951709355
269.5, 0.41250883495316104
270, 0.41266214069250773
270.5, 0.41297776017332277
271, 0.41338613654357426
271.5, 0.41357791967635227
272, 0.4135265621392573
272.5, 0.413621259782573
273, 0.41399987884097045
273.5, 0.41436249035841777
274, 0.4145442443105527
274.5, 0.4146774165525382
275, 0.4148553353090325
275.5, 0.41504129217837593
276, 0.4152120576948666
276.5, 0.4154036066404254
277, 0.4156141977533123
277.5, 0.41573596977728533
278, 0.4157238689882834
278.5, 0.41573674356543333
279, 0.4158941383324768
279.5, 0.4161052004404948
280, 0.41628074627614
280.5, 0.41646105454276827
281, 0.4166754024237025
281.5, 0.4168173524959682
282, 0.41680891843677914
282.5, 0.41681371097071485
283, 0.4169878491375467
283.5, 0.4171728498873035
284, 0.4171852999804977
284.5, 0.4171722098373808
285, 0.41732898676150454
285.5, 0.4175255225659025
286, 0.4175622743159252
286.5, 0.41753750058573214
287, 0.4176393820959763
287.5, 0.41785276923153614
288, 0.4180767423315599
288.5, 0.4182423234372916
289, 0.41830370839340536
289.5, 0.41828344753589874
290, 0.4182417172808952
290.5, 0.418245446544696
291, 0.4183580434837664
291.5, 0.41855398727161897
292, 0.4187525998203325
292.5, 0.41892705289765897
293, 0.41909125792479407
293.5, 0.41926729579069866
294, 0.41947897628273534
294.5, 0.4196719309682535
295, 0.419729277030217
295.5, 0.41969990633327314
296, 0.41979058847725026
296.5, 0.4200008526288519
297, 0.42010373942364554
297.5, 0.4200731110630769
298, 0.42013316509299337
298.5, 0.42033491032004044
299, 0.42048246663709077
299.5, 0.42048523266409865
300, 0.4204314177432913
300.5, 0.42040895350496377
301, 0.42048177314820223
301.5, 0.4206590997513098
302, 0.4208564463821495
302.5, 0.4210270716577409
303, 0.42121815790748274
303.5, 0.421431339027066
304, 0.42154387398546334
304.5, 0.42151652540871387
305, 0.42155481258677785
305.5, 0.4217677987582946
306, 0.4219015392842118
306.5, 0.42176241263119874
307, 0.4215265149364944
307.5, 0.4214120759245077
308, 0.4215426088077232
308.5, 0.42193288099343496
309, 0.42226069089074414
309.5, 0.4222612331264859
310, 0.422254512864076
310.5, 0.42258442020861486
311, 0.4229678014789542
311.5, 0.42303886217245823
312, 0.4229863865131791
312.5, 0.4231157904466387
313, 0.4233270213679394
313.5, 0.4234043346628482
314, 0.42336537625184145
314.5, 0.42331897262969653
315, 0.423334178221473
315.5, 0.4234538179327938
316, 0.4236533006929697
316.5, 0.42387299313884663
317, 0.4240456141136104
317.5, 0.4241080134459627
318, 0.424089272344536
318.5, 0.42407131427133604
319, 0.4240758244202838
319.5, 0.4240829986309267
320, 0.42408253848066013
320.5, 0.4240730118436691
321, 0.4240700146711063
321.5, 0.4240996432723414
322, 0.42411452576203423
322.5, 0.42400469977067523
323, 0.4238021021453984
323.5, 0.4236819726713901
324, 0.42369168480956554
324.5, 0.42372805076426867
325, 0.4237306297763488
325.5, 0.4237031127334089
326, 0.4236843633220686
326.5, 0.423755016168312
327, 0.42393355083788264
327.5, 0.42413969798596796
328, 0.4243209005852189
328.5, 0.4244852236017246
329, 0.42465305054681757
329.5, 0.4248565316657915
330, 0.42507412311448256
330.5, 0.4251712407692605
331, 0.4251248953083824
331.5, 0.4251997469856642
332, 0.42554778689535266
332.5, 0.4259312365019978
333, 0.4261472393093545
333.5, 0.4262663292990474
334, 0.42639952870664344
334.5, 0.4266332235549408
335, 0.42699853034490287
335.5, 0.4273477652201896
336, 0.42755070158476927
336.5, 0.42770380659769214
337, 0.42791207686132826
337.5, 0.4280683786192756
338, 0.4280624824942688
338.5, 0.42806202566530116
339, 0.42825183283408697
339.5, 0.4284310496088297
340, 0.428331813260725
340.5, 0.4281044911305625
341, 0.42802019989009565
341.5, 0.4280613066872796
342, 0.42809694856895564
342.5, 0.42808445124390637
343, 0.4280331287879313
343.5, 0.42803924229652757
344, 0.42821874559274276
344.5, 0.4284187563008126
345, 0.4283600732769014
345.5, 0.4281335922046481
346, 0.42804730097295407
346.5, 0.4280826919591465
347, 0.4279995065385509
347.5, 0.4277933788496855
348, 0.4276457758565114
348.5, 0.4276498412904317
349, 0.4278116286720375
349.5, 0.4280198395791641
350, 0.428063634837089
350.5, 0.4280098622445965
351, 0.42821267093751325
351.5, 0.4286408713180815
352, 0.4288045366460471
352.5, 0.428588499820704
353, 0.4283923384102828
353.5, 0.42840054365198443
354, 0.4284424011168677
354.5, 0.42843042467893044
355, 0.42845179606652184
355.5, 0.428589787755407
356, 0.4288929587082916
356.5, 0.4293013258988123
357, 0.4295522577612997
357.5, 0.42953926752369676
358, 0.42954105703492385
358.5, 0.42972951962454053
359, 0.42990222776333753
359.5, 0.4299100004566492
360, 0.42989077638138395
360.5, 0.4299957035970968
361, 0.4302751022498875
361.5, 0.4306919009422894
362, 0.43098113472698807
362.5, 0.4309666208320826
363, 0.43097581847305166
363.5, 0.4313116796493368
364, 0.4316917638363431
364.5, 0.4317815576063555
365, 0.4317093731607462
365.5, 0.4316916765698424
366, 0.43170519842294386
366.5, 0.43167605366152273
367, 0.4316884925145934
367.5, 0.43184978232403803
368, 0.43204293331560606
368.5, 0.4320931220039309
369, 0.43206596167274813
369.5, 0.4321240501524213
370, 0.43233966108475763
370.5, 0.43272033955065536
371, 0.4330882192688328
371.5, 0.4331961446458277
372, 0.43314972296853926
372.5, 0.433244499579304
373, 0.4334568716462681
373.5, 0.4335605171639991
374, 0.4335356211987369
374.5, 0.4335129788140377
375, 0.4335212582280443
375.5, 0.4335062391383817
376, 0.43349359436759705
376.5, 0.4335797778950472
377, 0.43376924065477984
377.5, 0.43397341271394707
378, 0.43415050886312967
378.5, 0.43431508965051846
379, 0.4344879367320764
379.5, 0.4346924957987608
380, 0.4348945381475793
380.5, 0.43498408437070857
381, 0.4349620656104284
381.5, 0.4350008359029849
382, 0.4351775260316899
382.5, 0.4353902491555549
383, 0.4355700665362937
383.5, 0.4357382573753944
384, 0.43591478913693515
384.5, 0.43609768289987405
385, 0.4362800959203488
385.5, 0.436450246694964
386, 0.43661301064171476
386.5, 0.4368163310383535
387, 0.43705344875768914
387.5, 0.4371476408117315
388, 0.4369910580495905
388.5, 0.4367794757253046
389, 0.4367109306290262
389.5, 0.43678870690681393
390, 0.4369636135117425
390.5, 0.4371462317767869
391, 0.4372799936992018
391.5, 0.4374928221628922
392, 0.4378898306208223
392.5, 0.4382231174444944
393, 0.43823736786950274
393.5, 0.43821829871916407
394, 0.43853270308937087
394.5, 0.43892515505779894
395, 0.43899412300027485
395.5, 0.43894659737579944
396, 0.43918090654694497
396.5, 0.4395974347050273
397, 0.4398939130755446
397.5, 0.4400310904786784
398, 0.44009702307773446
398.5, 0.4400856436450622
399, 0.4399467892231004
399.5, 0.43974973739737433
400, 0.4396332731459287
400.5, 0.4396497294401238
401, 0.4397865799384576
401.5, 0.43997922647332044
402, 0.44013185351490103
402.5, 0.44029087233504716
403, 0.44061323040917966
403.5, 0.441012501637176
404, 0.44118230519423207
404.5, 0.44113517837504457
405, 0.4412137104187973
405.5, 0.441443569040203
406, 0.4414770609740759
406.5, 0.4412587663806362
407, 0.4411262667764526
407.5, 0.4412736891901343
408, 0.44165854435961704
408.5, 0.4421953263471289
409, 0.44275892979447873
409.5, 0.4431959082425967
410, 0.44331192508832784
410.5, 0.4431059570032446
411, 0.4429491921856732
411.5, 0.4430047818757876
412, 0.4429128729910625
412.5, 0.4425059396692774
413, 0.44221849455521256
413.5, 0.44234921981168673
414, 0.442622002659842
414.5, 0.44279286182303934
415, 0.44297703967931445
415.5, 0.44329835778021864
416, 0.443699704881827
416.5, 0.4440931261082719
417, 0.44441098947989977
417.5, 0.44461519463614263
418, 0.4447684925635582
418.5, 0.4449413978006871
419, 0.44512421694647375
419.5, 0.44529417273064986
420, 0.44547714526850235
420.5, 0.44569438846943643
421, 0.4458533974745905
421.5, 0.44585833792343765
422, 0.4458485040476132
422.5, 0.4460105549639266
423, 0.4462067955465394
423.5, 0.4462074975108361
424, 0.4461882897294922
424.5, 0.44646828569650787
425, 0.4468728462186724
425.5, 0.44700636849416353
426, 0.4469504172414289
426.5, 0.4470422940322071
427, 0.44725753880256935
427.5, 0.44734892392422554
428, 0.44731967839605513
428.5, 0.44735275024412524
429, 0.4475397173143767
429.5, 0.4478883224398169
430, 0.4482745747464869
430.5, 0.4484688394158479
431, 0.44844569851298555
431.5, 0.44838060324449525
432, 0.44837592825725103
432.5, 0.44844616026211703
433, 0.4486107378058467
433.5, 0.4488985257458775
434, 0.44927076080159756
434.5, 0.44959982878765814
435, 0.44980118547174563
435.5, 0.4498626887684447
436, 0.44984000287278536
436.5, 0.44988753462953424
437, 0.4500676637369908
437.5, 0.4502638211504353
438, 0.4504208712605384
438.5, 0.45064076107954
439, 0.45098346535708167
439.5, 0.4513770724963593
440, 0.4517503764495272
440.5, 0.4520762264489304
441, 0.45231833832614865
441.5, 0.4523979732133332
442, 0.4522712347477158
442.5, 0.45202088278167385
443, 0.45176688104382934
443.5, 0.4516743880381071
444, 0.4518359858996577
444.5, 0.4520344932913094
445, 0.4520591834847971
445.5, 0.4520350999728504
446, 0.452138991447121
446.5, 0.4523730088236275
447, 0.45269189492088346
447.5, 0.45307237692146707
448, 0.4534844258324029
448.5, 0.45381470013899283
449, 0.45394039496380434
449.5, 0.4538804225678873
450, 0.45371311171067563
450.5, 0.4535267360908726
451, 0.4534121528848425
451.5, 0.4534443196109381
452, 0.45367964940872163
452.5, 0.454073049018332
453, 0.45451892342534017
453.5, 0.45487097799052845
454, 0.4549778474693478
454.5, 0.4549381380514763
455, 0.45500640598519126
455.5, 0.45521061832052423
456, 0.4554113491099554
456.5, 0.45558016773320764
457, 0.4557863816839568
457.5, 0.456128844739505
458, 0.45672222221213343
458.5, 0.4574755222052618
459, 0.45809388478827495
459.5, 0.45845279205698153
460, 0.45862788432749957
460.5, 0.4586504604096575
461, 0.4584871127601584
461.5, 0.45825092721917615
462, 0.45825698782236457
462.5, 0.4586096110189979
463, 0.4590734361094616
463.5, 0.45946111340199125
464, 0.4597134906759228
464.5, 0.45986405431177246
465, 0.460094324265116
465.5, 0.4604720593584526
466, 0.46079930374513356
466.5, 0.4609683901275786
467, 0.4611513308925388
467.5, 0.4614803611674787
468, 0.46188883884885645
468.5, 0.46228369933685753
469, 0.4625848408285633
469.5, 0.46276252450959343
470, 0.46293853115482353
470.5, 0.46318466890557386
471, 0.463291905845867
471.5, 0.4631057061943249
472, 0.46292988361042475
472.5, 0.4630630756108307
473, 0.4632829511319818
473.5, 0.46330935801035855
474, 0.4632861132193653
474.5, 0.4634295308809304
475, 0.4636334793371246
475.5, 0.4637116634574663
476, 0.4636696844079553
476.5, 0.46359389139459894
477, 0.4636201061348286
477.5, 0.4638776524874031
478, 0.4642782020834261
478.5, 0.4646497843703514
479, 0.4649959829718564
479.5, 0.4653960401253626
480, 0.4657562107082429
480.5, 0.46589965518977383
481, 0.4658604651070314
481.5, 0.4658031772340092
482, 0.46580874479635004
482.5, 0.46589664693570176
483, 0.4660808284407689
483.5, 0.4663771972067011
484, 0.46689703635816726
484.5, 0.46781759940133794
485, 0.4689578631404838
485.5, 0.46980382489943173
486, 0.4701557187389398
486.5, 0.47016023572389853
487, 0.46997201720920645
487.5, 0.4697343884303926
488, 0.4695438559645997
488.5, 0.4694370079009158
489, 0.46942614845550223
489.5, 0.4694950131404123
490, 0.46964755125631896
490.5, 0.46992211537615114
491, 0.4702943429868295
491.5, 0.47062612004212145
492, 0.4708291686351206
492.5, 0.47093296429198095
493, 0.4709613934041402
493.5, 0.4708981406673063
494, 0.4708087099195608
494.5, 0.4709646987709579
495, 0.4714921137364083
495.5, 0.4720536331839418
496, 0.47239986198577033
496.5, 0.47276288395526556
497, 0.47332731706972053
497.5, 0.473831661203171
498, 0.47404458709592723
498.5, 0.4741826067545516
499, 0.47448881619180694
499.5, 0.4748919219071892
500, 0.47526625647837695
500.5, 0.47560839869237503
501, 0.47594926769636803
501.5, 0.47631536123803064
502, 0.47671404671947326
502.5, 0.4770501357271092
503, 0.47722893296586943
503.5, 0.4773986494836159
504, 0.4777546430452795
504.5, 0.4781254019466499
505, 0.4782252555942026
505.5, 0.4781756022466517
506, 0.47826642438067146
506.5, 0.47847976082863974
507, 0.4786480902986665
507.5, 0.4788152003230983
508, 0.4791343129232781
508.5, 0.47951831567039305
509, 0.4797398903576382
509.5, 0.4798817591441411
510, 0.4802400849672792
510.5, 0.4808141638600689
511, 0.48136089618085065
511.5, 0.4817221109838752
512, 0.4818357593842595
512.5, 0.48193834542916325
513, 0.4825378408256784
513.5, 0.4835354188924993
514, 0.48417131416463444
514.5, 0.48428379758066487
515, 0.484466081286264
515.5, 0.4848881556061355
516, 0.4851007392036484
516.5, 0.48502442079547103
517, 0.48518466209667177
517.5, 0.4857580769135972
518, 0.4862745006284128
518.5, 0.48646869920868085
519, 0.4865532711096795
519.5, 0.4867081232211321
520, 0.48694705465651
520.5, 0.4872709297706279
521, 0.4876958269233984
521.5, 0.4882178169834741
522, 0.4887783591804996
522.5, 0.4892634184569955
523, 0.4894290272976193
523.5, 0.48914318186859806
524, 0.4886860549529539
524.5, 0.488370002004601
525, 0.48834693774241356
525.5, 0.48865950408914216
526, 0.4890627170753705
526.5, 0.48930798818339594
527, 0.4894282627303217
527.5, 0.48953607797371745
528, 0.48976286747193787
528.5, 0.49021174994623296
529, 0.4908023629559428
529.5, 0.491398935948856
530, 0.49190330724666853
530.5, 0.4922358413141843
531, 0.49234704910820914
531.5, 0.49222189462589416
532, 0.49201356493537995
532.5, 0.49194680420908
533, 0.49219115070882213
533.5, 0.49284663155754294
534, 0.4936092259595165
534.5, 0.4939960244647461
535, 0.4940987334689787
535.5, 0.4943410720416752
536, 0.494738609401302
536.5, 0.4950335242828593
537, 0.4951868361866999
537.5, 0.4953278805537874
538, 0.49550987825144155
538.5, 0.4957163837140731
539, 0.4959032981046332
539.5, 0.49600963012546995
540, 0.4961439807885869
540.5, 0.4965817228823579
541, 0.49732760421923494
541.5, 0.49807242284009967
542, 0.498628607841052
542.5, 0.4989840753510588
543, 0.4991701635648804
543.5, 0.49926218609195505
544, 0.49928718648910553
544.5, 0.49919401510194705
545, 0.49899946080868895
545.5, 0.4988464182316007
546, 0.49882382522698443
546.5, 0.49889625072801325
547, 0.4990416499710748
547.5, 0.49929437352206363
548, 0.4996523435347131
548.5, 0.5000129022255764
549, 0.5003308960704678
549.5, 0.5007458770372452
550, 0.5013194682632288
550.5, 0.501805157306402
551, 0.5020181879307626
551.5, 0.5021482149829708
552, 0.5023658718456083
552.5, 0.5025049542232605
553, 0.5023950086965736
553.5, 0.5021514463403814
554, 0.5019349016651388
554.5, 0.5017870355720805
555, 0.5017199340466321
555.5, 0.5017649166763097
556, 0.5019367173557747
556.5, 0.5021224183575165
557, 0.5021884139782741
557.5, 0.5021534376199773
558, 0.5020978099115542
558.5, 0.5021167575666172
559, 0.5022865386140856
559.5, 0.502478942284959
560, 0.5025016593846096
560.5, 0.5024775445788958
561, 0.5026573472127986
561.5, 0.5028662370423588
562, 0.5027162485106631
562.5, 0.5022918526431195
563, 0.5019673057145422
563.5, 0.5018204827336581
564, 0.5017129753463366
564.5, 0.5015379224204382
565, 0.5012250692193521
565.5, 0.5008436276455424
566, 0.5005765678517
566.5, 0.5004232461282706
567, 0.5002045401485358
567.5, 0.4998465679132511
568, 0.49939550980841196
568.5, 0.49887073203042354
569, 0.49825336600614234
569.5, 0.4975451453675116
570, 0.4967805373679337
570.5, 0.4961391479628836
571, 0.4960014928681177
571.5, 0.4963955787144314
572, 0.49676462610213323
572.5, 0.4967895791180039
573, 0.49666303212074103
573.5, 0.4965174347781379
574, 0.49626574449218974
574.5, 0.49588769927700804
575, 0.49556300655847263
575.5, 0.49539068800050523
576, 0.49521182052507595
576.5, 0.49489330705760126
577, 0.49447393534920936
577.5, 0.49404695891692973
578, 0.4937832220753233
578.5, 0.4937221485588241
579, 0.4934146554004387
579.5, 0.49253775155881796
580, 0.49162322932389935
580.5, 0.49119543587727066
581, 0.49090867746096456
581.5, 0.49030935609573456
582, 0.48950739530297693
582.5, 0.48874196211459675
583, 0.48806317976577973
583.5, 0.48746382986129544
584, 0.48696376723739365
584.5, 0.4865795034847056
585, 0.4862396641933029
585.5, 0.4858580594642552
586, 0.4855051436718756
586.5, 0.4852972653923997
587, 0.4851393768227157
587.5, 0.48485220853837174
588, 0.48446827029105055
588.5, 0.4841224094959753
589, 0.4837753930289441
589.5, 0.4832949652504338
590, 0.48273598420595776
590.5, 0.48227190393647845
591, 0.481934323366093
591.5, 0.48164482633789363
592, 0.4812988126272968
592.5, 0.4807769011570735
593, 0.48005323489565566
593.5, 0.47919474880800883
594, 0.47842496466970974
594.5, 0.4781070518559484
595, 0.4781761086578178
595.5, 0.4780940124149585
596, 0.4777023530354001
596.5, 0.4773364274981551
597, 0.4771581890458809
597.5, 0.47705287757781756
598, 0.47690339182466723
598.5, 0.4766203527899151
599, 0.47623010431785706
599.5, 0.4759455587124539
600, 0.4758138263240136
600.5, 0.47554622419090053
601, 0.47500805841058824
601.5, 0.47445131769987947
602, 0.474063464982744
602.5, 0.47377974209180196
603, 0.47355146084907673
603.5, 0.473457414709861
604, 0.4735043810987485
604.5, 0.4734420745802448
605, 0.4731029898060125
605.5, 0.4727183230186921
606, 0.47250630465779264
606.5, 0.4723680394901064
607, 0.4721821109535722
607.5, 0.47200998268687355
608, 0.47190268997384854
608.5, 0.4716697631320921
609, 0.47114397441715394
609.5, 0.47059622373429155
610, 0.47037410274967906
610.5, 0.4705096363764245
611, 0.4708972904383
611.5, 0.47124827569148797
612, 0.47125738072949397
612.5, 0.47099003589498123
613, 0.47064963275768945
613.5, 0.4702885950871567
614, 0.469896942592239
614.5, 0.46954436592447135
615, 0.4693257992218335
615.5, 0.46916879632909914
616, 0.4689279491549021
616.5, 0.46873543339582746
617, 0.4688757972998464
617.5, 0.4692888645147515
618, 0.46967575221343205
618.5, 0.4698469444857736
619, 0.46971807517030817
619.5, 0.4694853948476725
620, 0.4695657675959193
620.5, 0.4699736067639374
621, 0.4703417447039623
621.5, 0.47051377322229826
622, 0.4705698240458178
622.5, 0.47057007932484995
623, 0.47053919186897275
623.5, 0.47052283097432257
624, 0.47059485852320293
624.5, 0.47077211402902464
625, 0.4709884276338777
625.5, 0.4711818816266343
626, 0.4713071303416905
626.5, 0.4713324411938449
627, 0.4712473538845534
627.5, 0.4710712960858551
628, 0.4708766114872531
628.5, 0.4707043517577709
629, 0.4705166995530299
629.5, 0.4703094914454431
630, 0.47018144873331114
630.5, 0.47018120168269606
631, 0.47018726486948337
631.5, 0.47013462231471026
632, 0.4702038554218495
632.5, 0.47052646678849297
633, 0.47092796034789663
633.5, 0.4712054795705556
634, 0.4712802718882899
634.5, 0.47113966382736716
635, 0.4709253009489278
635.5, 0.4707688712053957
636, 0.47057617401312035
636.5, 0.4702342071191383
637, 0.4698644934780125
637.5, 0.46962841979673353
638, 0.46948582213950485
638.5, 0.46933528406148173
639, 0.4691439935775892
639.5, 0.4689185513506271
640, 0.4687537579896449
640.5, 0.46875273728525846
641, 0.4687671211268334
641.5, 0.46855464781764145
642, 0.4681481272601731
642.5, 0.4677230707250295
643, 0.46737762661283777
643.5, 0.46715416387794806
644, 0.4669939416067277
644.5, 0.46677401691832476
645, 0.46640823428426126
645.5, 0.4658518511539145
646, 0.46527927320703866
646.5, 0.46502389863355087
647, 0.4650720539168782
647.5, 0.4651011277435956
648, 0.46492938822868657
648.5, 0.4645333247593033
649, 0.46410911485604545
649.5, 0.4640737973023137
650, 0.4644700245228671
650.5, 0.464881068652909
651, 0.4650751367825706
651.5, 0.46510148315997524
652, 0.4649683183993266
652.5, 0.46459565080023923
653, 0.4639362190121037
653.5, 0.46300813853361444
654, 0.46191203296120886
654.5, 0.46088481039086293
655, 0.4600190295734592
655.5, 0.45909276645116415
656, 0.4580725157764358
656.5, 0.45742228993893497
657, 0.45738285164393044
657.5, 0.4574837215029348
658, 0.4573409130353048
658.5, 0.4570999257515196
659, 0.4569223790651502
659.5, 0.45674552932757506
660, 0.4565208099333473
660.5, 0.45639330560296876
661, 0.4564499638560533
661.5, 0.4563987681254271
662, 0.45596588294469875
662.5, 0.45534070535082904
663, 0.4547793278278467
663.5, 0.4542658934912367
664, 0.4537245237639065
664.5, 0.45319258080209524
665, 0.4527428988953496
665.5, 0.45243455912616304
666, 0.45228888597090133
666.5, 0.45210659357218685
667, 0.45164873869485667
667.5, 0.4510701856687569
668, 0.4506812494640373
668.5, 0.4505692649324262
669, 0.4506951276735516
669.5, 0.45090099046917187
670, 0.4509821248050524
670.5, 0.4509543827381981
671, 0.4509591304717855
671.5, 0.4509715535632757
672, 0.45086139754199817
672.5, 0.45066040361519666
673, 0.4505138908279631
673.5, 0.4503620567557305
674, 0.4499822674356615
674.5, 0.4494092529508462
675, 0.44891404814176794
675.5, 0.44857359116675644
676, 0.4482584166581467
676.5, 0.44790181553168606
677, 0.4475194682899064
677.5, 0.44714996900720616
678, 0.4468543411281821
678.5, 0.44666392843818437
679, 0.4465671790527903
679.5, 0.44655338096423414
680, 0.4466180514166509
680.5, 0.4467696016646243
681, 0.4470368547000978
681.5, 0.44740118825916775
682, 0.44775175680018164
682.5, 0.4479853035097554
683, 0.4480354114228893
683.5, 0.44788816637615636
684, 0.4476399517061198
684.5, 0.44740714172064033
685, 0.44731767931353417
685.5, 0.4474449002679808
686, 0.44770117982045743
686.5, 0.447957047214244
687, 0.4480405565839757
687.5, 0.4478653182401746
688, 0.44767953622894086
688.5, 0.44769536030890345
689, 0.44768482564260537
689.5, 0.4473987939102011
690, 0.4469823972327964
690.5, 0.4466346953075586
691, 0.44627535529210793
691.5, 0.445805063540175
692, 0.44550571518972415
692.5, 0.44570186558654246
693, 0.4461523050598376
693.5, 0.44645050352131377
694, 0.4465727544785618
694.5, 0.44664125202649796
695, 0.44662292878009446
695.5, 0.4464367437360912
696, 0.44624345670650745
696.5, 0.4462997710395502
697.0000000000001, 0.446525268019065
697.5, 0.44665723576946714
698, 0.44662928205789765
698.5, 0.4465027102573762
699.0000000000001, 0.4463164405625981
699.5000000000001, 0.44609467778418765
700, 0.44590805882194184
700.5, 0.4458558663844009
701, 0.4458815319699485
701.5000000000001, 0.445799282268897
702.0000000000001, 0.4455988548109777
702.5, 0.4454416727264241
703, 0.44543063096165825
703.5000000000001, 0.4455941495728696
704.0000000000001, 0.44581734286544117
704.5000000000001, 0.44582758112595544
705, 0.4456093257528696
705.5, 0.44548956260607553
706.0000000000001, 0.44564321714591126
706.5000000000001, 0.44599325061221506
707.0000000000001, 0.4463947750851429
707.5, 0.4466279501446815
708, 0.4466243295414085
708.5, 0.44659176174574067
709, 0.44662699486698143
709.5, 0.4465567914059818
710.0000000000001, 0.44625575922443206
710.5000000000001, 0.4457687882521322
711.0000000000001, 0.4451969555195472
711.5000000000001, 0.444722822955254
712, 0.44447581201982367
712.5, 0.4444116805997038
713, 0.44449507943588484
713.5, 0.44480234928186047
714, 0.4453482848695758
714.5000000000001, 0.4458743661831559
715.0000000000001, 0.4460996708000121
715.5000000000001, 0.445870846889848
716.0000000000001, 0.4451312499008575
716.5000000000001, 0.44410332366614624
717, 0.44307299925073684
717.5, 0.44228381174971565
718, 0.4419138025476481
718.5, 0.4418635349442981
719, 0.4419658572207914
719.5000000000001, 0.44218549593214806
720.0000000000001, 0.4425222606299525
720.5000000000001, 0.4428918109289147
721.0000000000001, 0.4431812587071826
721.5000000000001, 0.44331839809219
722, 0.44325890909875787
722.5, 0.44303864128802894
723, 0.44272903342987946
723.5, 0.4423602170214487
724, 0.44194723037236017
724.5000000000001, 0.4415906821648121
725.0000000000001, 0.44143183366141014
725.5000000000001, 0.44146506004258734
726.0000000000001, 0.4415895802498717
726.5000000000001, 0.44177129073085497
727, 0.44201974677074374
727.5, 0.44221900954243654
728, 0.4421569465654269
728.5, 0.4417823748837383
729, 0.44119274732416147
729.5000000000001, 0.44047319170190125
730.0000000000001, 0.43969226678348283
730.5000000000001, 0.4389536023428462
731.0000000000001, 0.438400283233096
731.5000000000001, 0.4381684348904582
732, 0.43837828133585965
732.5, 0.4389427407530262
733, 0.4394977463023888
733.5, 0.4397577614492234
734.0000000000001, 0.4395862036112379
734.5000000000001, 0.43903826555857983
735.0000000000001, 0.4384638852181375
735.5000000000001, 0.438081718315655
736.0000000000001, 0.4378207171042796
736.5, 0.43761920750486394
737, 0.437496795482031
737.5, 0.43747018763168755
738, 0.43752758241994116
738.5, 0.4376659451077969
739.0000000000001, 0.4379137227212768
739.5000000000001, 0.4382083032557962
740.0000000000001, 0.4382203105494322
740.5000000000001, 0.4377472782047649
741.0000000000001, 0.43712374834019485
741.5, 0.43668685768952864
742, 0.43642205573169646
742.5, 0.4362412072461618
743, 0.4360665175348699
743.5, 0.43585482471574544
744.0000000000001, 0.4357026080274242
744.5000000000001, 0.4356981065984764
745.0000000000001, 0.4357047801650926
745.5000000000001, 0.4355628948652437
746.0000000000001, 0.43535881249556607
746.5, 0.4352214176496241
747, 0.4350284956830216
747.5, 0.4346238426770169
748, 0.4342718806995145
748.5, 0.4343367682316175
749.0000000000001, 0.4345805313386919
749.5000000000001, 0.4345440224222463
750.0000000000001, 0.43430323881936306
750.5000000000001, 0.4341684321914845
751.0000000000001, 0.43400700252498636
751.5, 0.43348506894280936
752, 0.43289242354431534
752.5, 0.43286338403869995
753, 0.4333245879373231
753.5000000000001, 0.4337247172507225
754.0000000000001, 0.4338727424086857
754.5000000000001, 0.43386750796383944
755.0000000000001, 0.43384808035224864
755.5000000000001, 0.43397138405937863
756.0000000000001, 0.4341838196824128
756.5, 0.43423874006812824
757, 0.4340535379281747
757.5, 0.4337248179267226
758, 0.4333546549824092
758.5000000000001, 0.43304080993601657
759.0000000000001, 0.4328461219912696
759.5000000000001, 0.4327878070287635
760.0000000000001, 0.43280986188713366
760.5000000000001, 0.4327593443685993
761, 0.43257941043475223
761.5, 0.43237281494365953
762, 0.43219850158325035
762.5, 0.4320170798357369
763, 0.43182115499025564
763.5000000000001, 0.43168230571464095
764.0000000000001, 0.43165253873371046
764.5000000000001, 0.4317240298110415
765.0000000000001, 0.43188039413591683
765.5000000000001, 0.4321028521684276
766, 0.4323357695983784
766.5, 0.4324284999303907
767, 0.4322905583779967
767.5, 0.43205039849618987
768, 0.43184355045595657
768.5000000000001, 0.43170046172386445
769.0000000000001, 0.43163833157779696
769.5000000000001, 0.4317033704171379
770.0000000000001, 0.43190347955888786
770.5000000000001, 0.43206449846452566
771, 0.4320442602501089
771.5, 0.4320555159452206
772, 0.4323371298490908
772.5, 0.43274855814841606
773.0000000000001, 0.43305396699748333
773.5000000000001, 0.4331604164381695
774.0000000000001, 0.433047175831469
774.5000000000001, 0.43283198644561294
775.0000000000001, 0.4326604335160509
775.5000000000001, 0.4324850370549296
776, 0.4321912498583791
776.5, 0.43180870977298513
777, 0.43143013999978375
777.5, 0.431080603705261
778.0000000000001, 0.4307461062232776
778.5000000000001, 0.4303888066156726
779.0000000000001, 0.4299696994893719
779.5000000000001, 0.42960474039752616
780.0000000000001, 0.4295015544868135
780.5, 0.42971703621955604
781, 0.43019869150359424
781.5, 0.4309260974171887
782, 0.43189334221086706
782.5, 0.432842406884845
783.0000000000001, 0.43330403475814916
783.5000000000001, 0.4331127168142881
784.0000000000001, 0.43241316893799997
784.5000000000001, 0.4314727325665817
785.0000000000001, 0.4306734740497673
785.5, 0.43026762653090445
786, 0.4303396391383165
786.5, 0.43074400331682927
787, 0.4310493531826236
787.5, 0.4310573536325336
788.0000000000001, 0.43093808051987337
788.5000000000001, 0.4308815705991722
789.0000000000001, 0.43106106750123696
789.5000000000001, 0.43146240771383804
790.0000000000001, 0.43174078175897457
790.5, 0.43165369794642316
791, 0.43122900192414304
791.5, 0.43062442612700824
792, 0.430212679613432
792.5000000000001, 0.43025776199814825
793.0000000000001, 0.43068904014256515
793.5000000000001, 0.43137242619516414
794.0000000000001, 0.43213735605489
794.5000000000001, 0.4328014827675153
795.0000000000001, 0.43316535102209586
795.5, 0.433108171885606
796, 0.43278628983375467
796.5, 0.4323971391999757
797, 0.43207200019913117
797.5000000000001, 0.43188278783917333
798.0000000000001, 0.4317161833280283
798.5000000000001, 0.43143515298354496
799.0000000000001, 0.43102289878982436
799.5000000000001, 0.43053857045101274
800.0000000000001, 0.4302557224708512
800.5, 0.4304413083916856
801, 0.43089948541678935
801.5, 0.43130744626059014
802, 0.43163704046012374
802.5000000000001, 0.43197305958495136
803.0000000000001, 0.4323375010705357
803.5000000000001, 0.4327192904170414
804.0000000000001, 0.4330713641774947
804.5000000000001, 0.4333331856057119
805, 0.43348982203895015
805.5, 0.43355258833314547
806, 0.43353889857111283
806.5, 0.4334646314386008
807, 0.43328027293947313
807.5000000000001, 0.4329081224539302
808.0000000000001, 0.4325165077050419
808.5000000000001, 0.4324407062030118
809.0000000000001, 0.43266838683128794
809.5000000000001, 0.43289663251474364
810, 0.4329097218926554
810.5, 0.432589357809279
811, 0.4320189172315063
811.5, 0.43147909700802367
812.0000000000001, 0.4311151908379184
812.5000000000001, 0.4309109609230597
813.0000000000001, 0.43088104184808684
813.5000000000001, 0.43108636617467655
814.0000000000001, 0.43146738371088467
814.5000000000001, 0.4317976154536446
815, 0.43197619439647295
815.5, 0.432110471190438
816, 0.4322802303776486
816.5, 0.4324903924133442
817.0000000000001, 0.43278624945686694
817.5000000000001, 0.43330037856858883
818.0000000000001, 0.4340376983844627
818.5000000000001, 0.4347210667934276
819.0000000000001, 0.43507451289877563
819.5000000000001, 0.43490448135926774
820, 0.4342089750599809
820.5, 0.43344356785290106
821, 0.43298498122899387
821.5, 0.4327839033857974
822.0000000000001, 0.4327357141224719
822.5000000000001, 0.43279765534263714
823.0000000000001, 0.43294283224129093
823.5000000000001, 0.4331573198393752
824.0000000000001, 0.4334445331454646
824.5000000000001, 0.43386513443625696
825, 0.43443935895096697
825.5, 0.4349458521007197
826, 0.4351756596313927
826.5, 0.4353126059808504
827.0000000000001, 0.43557668604738464
827.5000000000001, 0.43571367427320173
828.0000000000001, 0.43535713633548245
828.5000000000001, 0.4344626014748494
829.0000000000001, 0.43315799596378957
829.5, 0.4319111243684344
830, 0.43124973236359443
830.5, 0.43102357606732533
831, 0.43080897729462375
831.5000000000001, 0.4306257063298444
832.0000000000001, 0.4306967117932399
832.5000000000001, 0.43092002899386195
833.0000000000001, 0.4310244697557283
833.5000000000001, 0.43099370347263344
834.0000000000001, 0.43096910959604195
834.5, 0.4309777714772497
835, 0.430967846073788
835.5, 0.43095995182349567
836, 0.43102359159832093
836.5000000000001, 0.43105302384264965
837.0000000000001, 0.430805104593295
837.5000000000001, 0.4303876442335238
838.0000000000001, 0.43023666547918515
838.5000000000001, 0.43044554539488333
839.0000000000001, 0.43073382106295655
839.5, 0.4309248124285293
840, 0.4309835405204818
840.5, 0.4308487679024702
841, 0.4304174650757612
841.5000000000001, 0.42970537480323956
842.0000000000001, 0.42890086076361267
842.5000000000001, 0.4281575733864178
843.0000000000001, 0.42755239285000957
843.5000000000001, 0.4270523712843243
844.0000000000001, 0.4264470045065787
844.5, 0.42576888237127075
845, 0.4255525813404972
845.5, 0.4260412849522408
846, 0.4267317907046285
846.5000000000001, 0.4271864940554616
847.0000000000001, 0.42735322689386657
847.5000000000001, 0.4272519810108171
848.0000000000001, 0.4269453527901693
848.5000000000001, 0.4265392540208264
849.0000000000001, 0.42624694181979095
849.5, 0.42620862168879614
850, 0.42625835232742215
850.5, 0.42623876187641496
851.0000000000001, 0.42625682538382614
851.5000000000001, 0.4264234941224305
852.0000000000001, 0.42661429082534474
852.5000000000001, 0.4266789111704892
853.0000000000001, 0.4266286992877061
853.5000000000001, 0.4265083322551799
854, 0.4262932546215221
854.5, 0.42595637459445124
855, 0.4255857739148925
855.5, 0.4252772049783634
856.0000000000001, 0.42490549342059336
856.5000000000001, 0.4242932912543933
857.0000000000001, 0.423531838423986
857.5000000000001, 0.42280788997558605
858.0000000000001, 0.4221050533445664
858.5000000000001, 0.4213301391022135
859, 0.42061715113854037
859.5, 0.42020289438363223
860, 0.4200845309027066
860.5, 0.42011183761514626
861.0000000000001, 0.42012215546515086
861.5000000000001, 0.41995461876190776
862.0000000000001, 0.419572582349635
862.5000000000001, 0.4190361600941088
863.0000000000001, 0.4184799334323749
863.5000000000001, 0.4180909021592475
864, 0.4179254178335743
864.5, 0.41791765578160445
865, 0.41794260973478925
865.5, 0.4178239328318274
866.0000000000001, 0.4174767338257017
866.5000000000001, 0.41692021934608847
867.0000000000001, 0.4162063710913586
867.5000000000001, 0.4154210625124011
868.0000000000001, 0.41467438346978347
868.5000000000001, 0.4141041676248107
869, 0.4137426563142863
869.5, 0.4134641881133352
870, 0.4132375804783439
870.5000000000001, 0.4132059947841469
871.0000000000001, 0.4133939407651902
871.5000000000001, 0.41358209338591745
872.0000000000001, 0.41361607622021457
872.5000000000001, 0.41352377148392316
873.0000000000001, 0.4133541076139122
873.5000000000001, 0.41315429368034895
874, 0.4129642717169604
874.5, 0.4128064856427853
875, 0.4126662222733526
875.5000000000001, 0.4124335366008164
876.0000000000001, 0.41211302820855555
876.5000000000001, 0.41211268018853153
877.0000000000001, 0.4127225633088689
877.5000000000001, 0.41355953631201625
878.0000000000001, 0.4142009575017218
878.5, 0.41463040549962704
879, 0.4149082220553304
879.5, 0.4150036651186202
880, 0.41485286355315487
880.5000000000001, 0.41435055238658614
881.0000000000001, 0.4134571280652617
881.5000000000001, 0.4125561970705376
882.0000000000001, 0.4120705543301475
882.5000000000001, 0.41179447399848035
883.0000000000001, 0.41134721714889233
883.5, 0.41076620181483325
884, 0.41025518161844954
884.5, 0.40995073522631187
885, 0.4099423277206947
885.5000000000001, 0.4101831102695488
886.0000000000001, 0.4105541006805229
886.5000000000001, 0.41091691476597825
887.0000000000001, 0.411127081513428
887.5000000000001, 0.4110928306224797
888.0000000000001, 0.41077464832440236
888.5, 0.41037845254521077
889, 0.41026136960982584
889.5, 0.410484000430845
890.0000000000001, 0.41087504378107953
890.5000000000001, 0.4112516449417065
891.0000000000001, 0.41143443271914515
891.5000000000001, 0.41141335813395097
892.0000000000001, 0.4113312733750023
892.5000000000001, 0.4111811566764354
893.0000000000001, 0.4108012935015508
893.5, 0.41023161633391403
894, 0.40974823743795596
894.5, 0.4095330198151653
895.0000000000001, 0.4096304694717192
895.5000000000001, 0.40998764709631197
896.0000000000001, 0.4104286834983345
896.5000000000001, 0.4108126597517785
897.0000000000001, 0.4110677238036473
897.5000000000001, 0.4112195953512505
898.0000000000001, 0.4114490666669447
898.5, 0.41182205714727704
899, 0.41215978797589137
899.5, 0.4123516960885787
900.0000000000001, 0.4124863174953599
900.5000000000001, 0.41257786678227193
901.0000000000001, 0.4124100863979834
901.5000000000001, 0.4118884093977295
902.0000000000001, 0.4113172251162749
902.5000000000001, 0.41093693044247337
903, 0.4106202145886647
903.5, 0.4102968330225574
904, 0.4102920156573687
904.5, 0.41086245385984876
905.0000000000001, 0.41173259308240584
905.5000000000001, 0.41255420976307455
906.0000000000001, 0.4131683142269993
906.5000000000001, 0.41349002307118077
907.0000000000001, 0.4135538236911984
907.5000000000001, 0.4134315331914995
908, 0.4132136999482059
908.5, 0.4129926905189292
909, 0.4128377753818453
909.5000000000001, 0.41279543258539353
910.0000000000001, 0.41281881746400595
910.5000000000001, 0.41283327129453595
911.0000000000001, 0.41282668182014426
911.5000000000001, 0.4128147744706119
912.0000000000001, 0.4128177189047534
912.5000000000001, 0.41286642996881295
913, 0.41307106473902344
913.5, 0.41353982374803067
914, 0.4139174372742527
914.5000000000001, 0.41364343162811457
915.0000000000001, 0.4129952727168096
915.5000000000001, 0.4127535882837887
916.0000000000001, 0.4130202389686496
916.5000000000001, 0.41341145089635534
917.0000000000001, 0.4137623451366039
917.5000000000001, 0.4140863323534696
918, 0.4142852433886375
918.5, 0.41416259925438714
919, 0.4136288609775596
919.5000000000001, 0.41270844537717266
920.0000000000001, 0.4115910442910786
920.5000000000001, 0.4106384013720008
921.0000000000001, 0.41018719705124873
921.5000000000001, 0.41052571775910607
922.0000000000001, 0.4116044973504813
922.5000000000001, 0.4129362338431295
923, 0.4140968717501625
923.5, 0.41480049692632615
924, 0.4149984369322879
924.5000000000001, 0.41500317196895586
925.0000000000001, 0.4150165350680455
925.5000000000001, 0.414987486476169
926.0000000000001, 0.41493270429308626
926.5000000000001, 0.4150519419213431
927.0000000000001, 0.4154173736618296
927.5, 0.41577719384640854
928, 0.4159637938215658
928.5, 0.4161165250243011
929, 0.41633037334893275
929.5000000000001, 0.41645803411102245
930.0000000000001, 0.4164204044384944
930.5000000000001, 0.4164649637641311
931.0000000000001, 0.41678524259589445
931.5000000000001, 0.41718817886407866
932.0000000000001, 0.4174509564831218
932.5, 0.41754368064157577
933, 0.417512988595778
933.5, 0.41753684703902905
934.0000000000001, 0.41778471510259263
934.5000000000001, 0.4182233903171475
935.0000000000001, 0.41875932418285444
935.5000000000001, 0.41929505277720525
936.0000000000001, 0.4197396908507969
936.5000000000001, 0.42004890851432175
937.0000000000001, 0.4202180724434923
937.5, 0.4203931738241877
938, 0.4207401055798816
938.5, 0.42111284896543066
939.0000000000001, 0.4212571772879755
939.5000000000001, 0.4212022992375326
940.0000000000001, 0.4211166394455086
940.5000000000001, 0.42113132823739696
941.0000000000001, 0.4213451469964302
941.5000000000001, 0.4217369181296806
942.0000000000001, 0.4222165738245365
942.5, 0.4227573844561745
943, 0.42336723684522437
943.5, 0.4239180656510657
944.0000000000001, 0.4241981722481588
944.5000000000001, 0.4243250316008724
945.0000000000001, 0.42467367326910965
945.5000000000001, 0.42525457944120704
946.0000000000001, 0.4257465402600116
946.5000000000001, 0.426077573421761
947.0000000000001, 0.4264345097569857
947.5, 0.42682412538374914
948, 0.4270432385072188
948.5, 0.4270377383096784
949.0000000000001, 0.42695337050990867
949.5000000000001, 0.4270333618424407
950.0000000000001, 0.4276304946418583
950.5000000000001, 0.4287415808453299
951.0000000000001, 0.42981795147580826
951.5000000000001, 0.4304615206323166
952, 0.43060103646339354
952.5, 0.4302906222768934
953, 0.42975826221923596
953.5000000000001, 0.42920099777841303
954.0000000000001, 0.42871418291440766
954.5000000000001, 0.4283395673743764
955.0000000000001, 0.4280255783334699
955.5000000000001, 0.4277690069226432
956.0000000000001, 0.4277211601218194
956.5000000000001, 0.42804818703959246
957, 0.4288904856778122
957.5, 0.4303124279091346
958, 0.43215389908202906
958.5000000000001, 0.434232028029202
959.0000000000001, 0.4364381735771026
959.5000000000001, 0.43853064716940726
960.0000000000001, 0.4396816410107851
960.5000000000001, 0.4392793943170291
961.0000000000001, 0.43829330551116485
961.5000000000001, 0.4379024584058637
962, 0.43818134298946276
962.5, 0.4388557881594404
963, 0.43959934333177797
963.5000000000001, 0.4401138080228645
964.0000000000001, 0.4403867955841513
964.5000000000001, 0.44052583410666646
965.0000000000001, 0.4407126843038941
965.5000000000001, 0.44110911516356377
966.0000000000001, 0.4414721296528461
966.5000000000001, 0.44143122705611937
967, 0.44118405050987386
967.5, 0.4411816749349652
968, 0.4414206570556318
968.5000000000001, 0.4416620356079288
969.0000000000001, 0.4420114251671987
969.5000000000001, 0.4427613670351891
970.0000000000001, 0.44372104184548433
970.5000000000001, 0.44438298705787593
971.0000000000001, 0.4446828749654568
971.5000000000001, 0.4449046611508616
972, 0.44525174852989613
972.5, 0.44584042490697384
973.0000000000001, 0.4465892932168334
973.5000000000001, 0.44723955372115065
974.0000000000001, 0.44774898649832906
974.5000000000001, 0.4483004212180435
975.0000000000001, 0.4487562510224765
975.5000000000001, 0.4486100902127349
976.0000000000001, 0.44795569799108037
976.5, 0.447670642743785
977, 0.4480576159213281
977.5, 0.44853790205155897
978.0000000000001, 0.44884472047460544
978.5000000000001, 0.44930143963651326
979.0000000000001, 0.45003504386674065
979.5000000000001, 0.45074557091495415
980.0000000000001, 0.4513550330409839
980.5000000000001, 0.4522901169979501
981.0000000000001, 0.4535726369766332
981.5, 0.4542434753247676
982, 0.4537882392677477
982.5, 0.4530401054205313
983.0000000000001, 0.4527257848755276
983.5000000000001, 0.45277999184341666
984.0000000000001, 0.45305331748147015
984.5000000000001, 0.4535269765053671
985.0000000000001, 0.45413597939750705
985.5000000000001, 0.45458594200248736
986.0000000000001, 0.45470438419470194
986.5, 0.4549372438006959
987, 0.4556592847463137
987.5, 0.45637288953138255
988.0000000000001, 0.4565328930172644
988.5000000000001, 0.4564021348930627
989.0000000000001, 0.4564156061372068
989.5000000000001, 0.45670205513267526
990.0000000000001, 0.4572479455013192
990.5000000000001, 0.4577852532273079
991.0000000000001, 0.45805349486618663
991.5, 0.45843092975704547
992, 0.45941879155000065
992.5000000000001, 0.4605576505822473
993.0000000000001, 0.461073333493323
993.5000000000001, 0.4611090786629479
994.0000000000001, 0.46120783980988767
994.5000000000001, 0.4614213845796029
995.0000000000001, 0.4615594564368686
995.5000000000001, 0.46172489547821716
996, 0.46217941527820505
996.5, 0.4629449344577291
997, 0.46387821227249215
997.5000000000001, 0.4647867418659066
998.0000000000001, 0.4654602150547773
998.5000000000001, 0.4659548021468283
999.0000000000001, 0.46653384954759747
999.5000000000001, 0.467264699100596
1000.0000000000001, 0.4680342323516895
1000.5000000000001, 0.468755253897464
1001, 0.4693749133663273
1001.5, 0.4699021108249939
1002, 0.47040399355647833
1002.5000000000001, 0.4706932408146749
1003.0000000000001, 0.4702860926378932
1003.5000000000001, 0.4692832454743372
1004.0000000000001, 0.4685778983252614
1004.5000000000001, 0.46856377201633537
1005.0000000000001, 0.46882023852519505
1005.5000000000001, 0.46902337223073953
1006, 0.46911338357004306
1006.5, 0.4691060494083905
1007, 0.46910895408990994
1007.5000000000001, 0.4691479688442961
1008.0000000000001, 0.4690673551813692
1008.5000000000001, 0.4688361829865101
1009.0000000000001, 0.46874748789584686
1009.5000000000001, 0.4690136913557619
1010.0000000000001, 0.4695416026606206
1010.5000000000001, 0.4702162259371039
1011, 0.47098950004513407
1011.5, 0.4718388161163992
1012.0000000000001, 0.47278464630149963
1012.5000000000001, 0.4737849510656037
1013.0000000000001, 0.47455579391321856
1013.5000000000001, 0.4748694183436635
1014.0000000000001, 0.4749107732743323
1014.5000000000001, 0.47491528436247066
1015.0000000000001, 0.4749118172399469
1015.5000000000001, 0.47488860213061024
1016, 0.47490416896850085
1016.5, 0.47502415582774415
1017.0000000000001, 0.4752392636252163
1017.5000000000001, 0.47549733871275524
1018.0000000000001, 0.4756389237176736
1018.5000000000001, 0.4755132605384924
1019.0000000000001, 0.47530012399871535
1019.5000000000001, 0.4752872809707043
1020.0000000000001, 0.4755383500946859
1020.5, 0.47600514154392193
1021, 0.4765688769559622
1021.5, 0.4770931290685415
1022.0000000000001, 0.4776204034364562
1022.5000000000001, 0.4782787178914155
1023.0000000000001, 0.47901506258997106
1023.5000000000001, 0.47967004181762907
1024, 0.4801864942458599
1024.5, 0.48058262553856457
1025, 0.48092484261218105
1025.5, 0.4813071875560223
1026, 0.48168226623643995
1026.5, 0.4818942971041459
1027, 0.4820302563764933
1027.5, 0.48239398707228864
1028, 0.4829744077093645
1028.5, 0.48343380286999715
1029, 0.48361757229762947
1029.5, 0.4835988791714092
1030, 0.4835488250626889
1030.5, 0.4837417355118221
1031, 0.484267414371921
1031.5, 0.48495033010656907
1032, 0.48556341005552084
1032.5, 0.485834216394168
1033, 0.4857733226258444
1033.5, 0.48587424184617656
1034, 0.48638912667086864
1034.5, 0.4870310648314644
1035, 0.4875793526983948
1035.5, 0.4880734226629915
1036, 0.48843925769605556
1036.5, 0.48826720971164206
1037, 0.48752850617083965
1037.5, 0.4872928547030788
1038, 0.4882512385308666
1038.5, 0.4895137291211451
1039, 0.4902241746027578
1039.5, 0.4905317359975411
1040, 0.4906785221224723
1040.5, 0.4905231902867364
1041, 0.4899697693584948
1041.5, 0.48944569461240905
1042, 0.4893959497915731
1042.5, 0.4897589640903406
1043, 0.4903239914791925
1043.5, 0.4908424342011066
1044, 0.4911392438224286
1044.5, 0.491519148846536
1045, 0.4923183597149732
1045.5, 0.49301505435084003
1046, 0.4929098619450867
1046.5, 0.49241334934502823
1047, 0.4923167161049886
1047.5, 0.49260967656061505
1048, 0.49293482224640206
1048.5, 0.49328839168667826
1049, 0.49382567003551703
1049.5, 0.49438483335000005
1050, 0.4946421013386576
1050.5, 0.4945827910990651
1051, 0.4944023409203522
1051.5, 0.49439004168507017
1052, 0.4948686484731353
1052.5, 0.4956619626522072
1053, 0.49622351505016105
1053.5, 0.49651972849298864
1054, 0.4969643168950326
1054.5, 0.49769589240300105
1055, 0.49857238394371206
1055.5, 0.4994746950074922
1056, 0.5003212832480003
1056.5, 0.5010506165526049
1057, 0.5016255463021159
1057.5, 0.5021237682920564
1058, 0.5027680506942448
1058.5, 0.5036484753584125
1059, 0.5046494705209247
1059.5, 0.5056046239707277
1060, 0.5062929060630594
1060.5, 0.5065681308044463
1061, 0.5064255931036236
1061.5, 0.50601385562473
1062, 0.5057512792700931
1062.5, 0.505879672991026
1063, 0.5061915253001832
1063.5, 0.5064493874040897
1064, 0.5064850810870338
1064.5, 0.5062722183894146
1065, 0.5061366127619609
1065.5, 0.5063577389918943
1066, 0.5069026927672038
1066.5, 0.5076945547089531
1067, 0.5087031501501396
1067.5, 0.5098505557790327
1068, 0.5108444222986652
1068.5, 0.5114133656102403
1069, 0.5115822622481623
1069.5, 0.5114659311924671
1070, 0.5112382416532611
1070.5, 0.5110544211096801
1071, 0.5108817583302636
1071.5, 0.510685733963169
1072, 0.5107815202321826
1072.5, 0.511530798402085
1073, 0.5127616143024238
1073.5, 0.514081925782665
1074, 0.515072298778999
1074.5, 0.5153745892644254
1075, 0.5152477560164583
1075.5, 0.5152046979756308
1076, 0.5152356813069668
1076.5, 0.5150630547577413
1077, 0.514659811564071
1077.5, 0.5141505264268085
1078, 0.5136090933932039
1078.5, 0.5130711960681442
1079, 0.5125392465249827
1079.5, 0.5120016378298304
1080, 0.5116204759093445
1080.5, 0.5116828077568464
1081, 0.5121003529896574
1081.5, 0.512451233811252
1082, 0.512606530203187
1082.5, 0.5127410630150774
1083, 0.5129264153945619
1083.5, 0.5131028272942869
1084, 0.5131500063668073
1084.5, 0.5128889428103227
1085, 0.5124433709136633
1085.5, 0.5123462474947555
1086, 0.5128379373611442
1086.5, 0.5136776536215811
1087, 0.5146070248540733
1087.5, 0.5154049056807474
1088, 0.5159671903489211
1088.5, 0.5163968746206359
1089, 0.5166937513370514
1089.5, 0.5166042035876713
1090, 0.5160642729496916
1090.5, 0.515506289635034
1091, 0.5153240316965036
1091.5, 0.5156442645611984
1092, 0.5163350862534167
1092.5, 0.5166574569593296
1093, 0.5160977650158131
1093.5, 0.5151721721044141
1094, 0.5144677563909021
1094.5, 0.5141222374018619
1095, 0.5141510501714561
1095.5, 0.5144740298463643
1096, 0.5149426488228547
1096.5, 0.5152117519386646
1097, 0.5149923840407281
1097.5, 0.5145318630137763
1098, 0.5141968877604033
1098.5, 0.5141127452454525
1099, 0.5142836744707167
1099.5, 0.5144751414275295
1100, 0.5144130147727899
1100.5, 0.514175883047349
1101, 0.5139467489493437
1101.5, 0.5135602287154393
1102, 0.5127498091628113
1102.5, 0.5118018989759681
1103, 0.5112315760557273
1103.5, 0.5109553908408666
1104, 0.5105843674484405
1104.5, 0.5101990991049945
1105, 0.5101516910142128
1105.5, 0.5103911823589261
1106, 0.5105985780367299
1106.5, 0.5107510839350504
1107, 0.5110471566636056
1107.5, 0.5114382930981731
1108, 0.5116610512552622
1108.5, 0.5115026463021976
1109, 0.5108151433065926
1109.5, 0.5097044569389781
1110, 0.5085367767505539
1110.5, 0.5075986566606107
1111, 0.5070650013128628
1111.5, 0.5069028732982537
1112, 0.5068249308771375
1112.5, 0.5066572226604291
1113, 0.5064098869182894
1113.5, 0.5061782870220777
1114, 0.5061663690492484
1114.5, 0.506385020065151
1115, 0.5064985107939857
1115.5, 0.5063328257428255
1116, 0.5060862597825037
1116.5, 0.5058287081305781
1117, 0.5052711263470255
1117.5, 0.5042586888452066
1118, 0.503058657969518
1118.5, 0.5019948692205403
1119, 0.5013807940242172
1119.5, 0.501335081778143
1120, 0.5014139151081076
1120.5, 0.501196594274068
1121, 0.500668700838389
1121.5, 0.499888745639651
1122, 0.4988806383860317
1122.5, 0.4977626774255097
1123, 0.49706934579945106
1123.5, 0.49719694166361306
1124, 0.49742971613992026
1124.5, 0.4969205075199087
1125, 0.49576716578786373
1125.5, 0.49437613825675764
1126, 0.49319898740965185
1126.5, 0.49260971410693566
1127, 0.49238073593008735
1127.5, 0.4920966944016478
1128, 0.49170636641775245
1128.5, 0.49129326167192433
1129, 0.4907300333944362
1129.5, 0.4898373529557001
1130, 0.48891235683000955
1130.5, 0.48844008096068436
1131, 0.48816078615226144
1131.5, 0.48743527375269513
1132, 0.48645337026555036
1132.5, 0.4858996422773636
1133, 0.485639326768581
1133.5, 0.48496125098590914
1134, 0.4836522071458482
1134.5, 0.48191203364961654
1135, 0.4799265903073455
1135.5, 0.4778643304403334
1136, 0.4760207435132886
1136.5, 0.47481324465468033
1137, 0.4745564211096648
1137.5, 0.4754323604706362
1138, 0.477128172761361
1138.5, 0.4787508637391509
1139, 0.4796250784491718
1139.5, 0.4794185290978177
1140, 0.47829912918916595
1140.5, 0.47712453075985506
1141, 0.4762847933007759
1141.5, 0.4753277420908735
1142, 0.47396132583643125
1142.5, 0.47231821051726475
1143, 0.4707072622870281
1143.5, 0.4696974345721885
1144, 0.4694933816048553
1144.5, 0.46943163731784177
1145, 0.4690577209648603
1145.5, 0.46871065628215824
1146, 0.468610220220834
1146.5, 0.4683272161865273
1147, 0.4674725629775791
1147.5, 0.4661116563173433
1148, 0.4645042755881218
1148.5, 0.46327820290741495
1149, 0.46285500282805203
1149.5, 0.4625765461957281
1150, 0.4617710779706736
1150.5, 0.46079868598335005
1151, 0.46019444870072745
1151.5, 0.4600212490044553
1152, 0.4601711727302047
1152.5, 0.46037392299020397
1153, 0.4603499309515998
1153.5, 0.4600869135227017
1154, 0.4596856224283892
1154.5, 0.4593411720504723
1155, 0.45922612293148246
1155.5, 0.45904707082745166
1156, 0.45835135062254295
1156.5, 0.4571529041864125
1157, 0.4557044304637651
1157.5, 0.454267342991614
1158, 0.45309162492884103
1158.5, 0.45225741406427966
1159, 0.45173319599504635
1159.5, 0.45141413746590286
1160, 0.45114708716468344
1160.5, 0.45079487287609277
1161, 0.4502411119842826
1161.5, 0.4495047147802792
1162, 0.44871708476885763
1162.5, 0.4479929193467188
1163, 0.44742113949470286
1163.5, 0.44692206296287984
1164, 0.4462468684499251
1164.5, 0.4452158573878511
1165, 0.443741453071854
1165.5, 0.4419290831105007
1166, 0.4401198204036847
1166.5, 0.4387164165752191
1167, 0.43818019152908927
1167.5, 0.4386347006024396
1168, 0.439681729850085
1168.5, 0.4407635011257959
1169, 0.4411318858790184
1169.5, 0.4404966662473695
1170, 0.4394524194504109
1170.5, 0.438422369425275
1171, 0.43727761638651164
1171.5, 0.4359741471347717
1172, 0.43481848488048946
1172.5, 0.43402663012503817
1173, 0.43345925053240464
1173.5, 0.433004763094776
1174, 0.4327888690994075
1174.5, 0.4328451717642121
1175, 0.43278248776621653
1175.5, 0.4322983507137508
1176, 0.43170269766251856
1176.5, 0.43131969779539037
1177, 0.43099173026697657
1177.5, 0.4305053530913059
1178, 0.42992984246196553
1178.5, 0.4293857927520427
1179, 0.4288587698204668
1179.5, 0.4283384341640717
1180, 0.4280709843704047
1180.5, 0.4283040908737916
1181, 0.4287379089482706
1181.5, 0.42892225917160753
1182, 0.4288379956602121
1182.5, 0.4286463063016368
1183, 0.42846802131818007
1183.5, 0.4283937320462574
1184, 0.4284182019652789
1184.5, 0.4284810799150819
1185, 0.4284762412215094
1185.5, 0.4282684889666506
1186, 0.4276930871605569
1186.5, 0.4266201799786482
1187, 0.4256449439304453
1187.5, 0.42580214234742686
1188, 0.4268815011438486
1188.5, 0.42772538857809217
1189, 0.4280101237533207
1189.5, 0.42814076643649246
1190, 0.42804148483531024
1190.5, 0.427174556089589
1191, 0.4256480153776254
1191.5, 0.42425828556333256
1192, 0.42324288204424376
1192.5, 0.4221532080319257
1193, 0.42086081876381676
1193.5, 0.4197002944083845
1194, 0.4189150582014807
1194.5, 0.4185718386189219
1195, 0.41858192794950777
1195.5, 0.4186335994932395
1196, 0.41850464547000943
1196.5, 0.4181635304386858
1197, 0.41755930196751234
1197.5, 0.4165672904275385
1198, 0.41525350280189877
1198.5, 0.41411137231405726
1199, 0.41354205070665206
1199.5, 0.413593912629762
1200, 0.414133227559045
1200.5, 0.41467930971752376
1201, 0.4148916465106204
1201.5, 0.4150140943475982
1202, 0.4152570609011583
1202.5, 0.41536349480166646
1203, 0.4150492660381526
1203.5, 0.41428769955083666
1204, 0.413142116183835
1204.5, 0.4118019028802129
1205, 0.41058352267613296
1205.5, 0.41024156024532565
1206, 0.41136428132289804
1206.5, 0.41301520208912224
1207, 0.4139468892699232
1207.5, 0.4139787505827073
1208, 0.41335537769928754
1208.5, 0.4125803247251485
1209.0000000000002, 0.4121819840300762
1209.5, 0.41210395690350343
1210, 0.41204392688730995
1210.5, 0.4118327254286984
1211, 0.4114043129285031
1211.5, 0.4110368866377412
1212.0000000000002, 0.41113220640936055
1212.5000000000002, 0.4113834237757421
1213.0000000000002, 0.4111288250069107
1213.5000000000002, 0.4106721148132537
1214, 0.41090372032545064
1214.5, 0.4117485140627185
1215, 0.41242052755483316
1215.5, 0.41240934692773135
1216, 0.4114673209584776
1216.5, 0.40977827820830237
1217.0000000000002, 0.40790946487101043
1217.5000000000002, 0.4064054908648528
1218.0000000000002, 0.4057527630981168
1218.5000000000002, 0.40583889001080387
1219, 0.4059075588429152
1219.5, 0.40568728233359375
1220, 0.40553203578850194
1220.5, 0.40556082595628207
1221, 0.4055285734666041
1221.5, 0.4053385311705615
1222.0000000000002, 0.40515198055003343
1222.5000000000002, 0.40510658736412664
1223.0000000000002, 0.40526517106136684
1223.5000000000002, 0.4055277904671015
1224, 0.40551319270699504
1224.5, 0.40511017884144995
1225, 0.40481065610793054
1225.5, 0.40486068571839084
1226, 0.4047948351888574
1226.5000000000002, 0.40436585912903156
1227.0000000000002, 0.40410947214091264
1227.5000000000002, 0.4044662205814811
1228, 0.4052810413513199
1228.5000000000002, 0.4062663826413866
1229.0000000000002, 0.4070414281044169
1229.5, 0.407343122127543
1230.0000000000002, 0.40737762396243604
1230.5, 0.4073893354608362
1231.0000000000002, 0.4073787061594406
1231.5, 0.4073245406496624
1232.0000000000002, 0.40736725178689925
1232.5, 0.4076435278299353
1233.0000000000002, 0.4080600120204927
1233.5, 0.4084677235665213
1234, 0.4087937133349724
1234.5000000000002, 0.40897840970860844
1235, 0.4088870507144373
1235.5000000000002, 0.4083888917545515
1236, 0.40757524504894305
1236.5000000000002, 0.40663156940375633
1237, 0.4057508284161109
1237.5000000000002, 0.4051198140052892
1238, 0.40484194618646474
1238.5, 0.4049632390029778
1239.0000000000002, 0.40538752918668164
1239.5, 0.40595346884873984
1240.0000000000002, 0.40668183614676046
1240.5, 0.4076875013918895
1241.0000000000002, 0.4087996145468309
1241.5, 0.4096528250621939
1242.0000000000002, 0.4099846500675759
1242.5, 0.40963741554350697
1243.0000000000002, 0.40884192127566155
1243.5, 0.4081381217537663
1244, 0.4076439699313401
1244.5000000000002, 0.4070879159028833
1245, 0.4066320575574701
1245.5000000000002, 0.406880953512041
1246, 0.40771978287246724
1246.5000000000002, 0.40820193024917883
1247, 0.4079967336647401
1247.5000000000002, 0.4076054333362902
1248, 0.4072790935406986
1248.5, 0.4068453306485933
1249.0000000000002, 0.4061771020921454
1249.5, 0.40526812280104574
1250.0000000000002, 0.40427928402373725
1250.5, 0.40363745897246783
1251.0000000000002, 0.4035601234051578
1251.5, 0.40381944033685
1252.0000000000002, 0.4041857135631325
1252.5, 0.4045294021264625
1253.0000000000002, 0.4047582005607403
1253.5000000000002, 0.4048371986484187
1254, 0.40473796132555373
1254.5000000000002, 0.4044277277823749
1255, 0.40391707469258487
1255.5000000000002, 0.40334387032851116
1256, 0.40281654019345514
1256.5000000000002, 0.40227462791970103
1257, 0.4016811086281389
1257.5000000000002, 0.40120634296759694
1258, 0.4010313915856174
1258.5, 0.40119153625544923
1259.0000000000002, 0.4016544440504133
1259.5, 0.4022484620139971
1260.0000000000002, 0.4027996192782578
1260.5, 0.40332165241787976
1261.0000000000002, 0.40386984073120613
1261.5, 0.40439858701161857
1262.0000000000002, 0.40483434026616794
1262.5, 0.4051522191027438
1263, 0.40533345120073583
1263.5000000000002, 0.40526563277677186
1264, 0.40481514696110765
1264.5000000000002, 0.4040084558044206
1265, 0.4029763071027552
1265.5000000000002, 0.4020933004142567
1266, 0.4018035688672358
1266.5000000000002, 0.40190878522904794
1267, 0.4018688841725655
1267.5000000000002, 0.40164268823624716
1268.0000000000002, 0.4014958129756496
1268.5, 0.4013474052861883
1269.0000000000002, 0.40088985676353417
1269.5, 0.4002885251155145
1270.0000000000002, 0.4000689578406822
1270.5, 0.40030192074341264
1271.0000000000002, 0.4006547698061441
1271.5, 0.4009985740669375
1272.0000000000002, 0.4014114612696612
1272.5, 0.40181102555376025
1273, 0.4019352591888783
1273.5000000000002, 0.40162163153568653
1274, 0.40084374648617316
1274.5000000000002, 0.3998545520303671
1275, 0.39925599855820426
1275.5000000000002, 0.3992539696345597
1276, 0.3994472581827879
1276.5000000000002, 0.3996028258001221
1277, 0.3998344670884034
1277.5000000000002, 0.4002819745265288
1278.0000000000002, 0.4010744563492781
1278.5, 0.40217320830634906
1279.0000000000002, 0.4032124297009583
1279.5, 0.40403744846402845
1280.0000000000002, 0.4050373756839971
1280.5, 0.4063066434087308
1281.0000000000002, 0.40705005172219333
1281.5, 0.40672569024896466
1282.0000000000002, 0.40583478242223103
1282.5, 0.40491165225463954
1283, 0.4040638079454044
1283.5000000000002, 0.4033614069254534
1284, 0.40301889612590314
1284.5000000000002, 0.40319647340856957
1285, 0.4037352878625382
1285.5000000000002, 0.40438476923237054
1286, 0.40482455899763237
1286.5000000000002, 0.404805815619649
1287, 0.4045046206884162
1287.5, 0.404173189663642
1288.0000000000002, 0.40380294828276186
1288.5, 0.4033463276595288
1289.0000000000002, 0.40303496904005476
1289.5, 0.4031506820837163
1290.0000000000002, 0.40362433011610743
1290.5, 0.404239588842795
1291.0000000000002, 0.4047545448243781
1291.5, 0.4049297595500392
1292.0000000000002, 0.40464433677859557
1292.5000000000002, 0.40385582276882515
1293, 0.4027008571332962
1293.5000000000002, 0.4014381284152928
1294, 0.4005695967080962
1294.5000000000002, 0.4006714050099933
1295, 0.40136186554191555
1295.5000000000002, 0.4016672424670935
1296, 0.40156378337634646
1296.5000000000002, 0.40173326339391124
1297, 0.40247940367395474
1297.5, 0.4037551461713049
1298.0000000000002, 0.4051076613762201
1298.5, 0.4057467345053569
1299.0000000000002, 0.4055148774429598
1299.5, 0.4049075027197586
1300.0000000000002, 0.40432794458799215
1300.5, 0.40403665921521326
1301.0000000000002, 0.4040560961773134
1301.5, 0.4041265524736861
1302.0000000000002, 0.40412009798801973
1302.5000000000002, 0.4041135779651208
1303, 0.4042300013013984
1303.5000000000002, 0.4046377194774584
1304, 0.40535130188423163
1304.5000000000002, 0.4061226231175932
1305, 0.406732107349872
1305.5000000000002, 0.4070602594104087
1306, 0.40716942933828126
1306.5000000000002, 0.40747156183432365
1307.0000000000002, 0.40817610271933613
1307.5, 0.4089342940248797
1308.0000000000002, 0.40941883865353
1308.5, 0.40955232942574527
1309.0000000000002, 0.40932033250416255
1309.5, 0.40877627215543577
1310.0000000000002, 0.40808715170408405
1310.5, 0.4077401612492765
1311.0000000000002, 0.4079966959785607
1311.5, 0.4081022384207451
1312, 0.40733391464840096
1312.5000000000002, 0.40597327727985877
1313, 0.4045308623555759
1313.5000000000002, 0.40343669181692565
1314, 0.4029614752573448
1314.5000000000002, 0.4026988461041443
1315, 0.40222778515629376
1315.5000000000002, 0.4022007582226814
1316, 0.4034396225567095
1316.5000000000002, 0.40552368049473364
1317.0000000000002, 0.40763687969318174
1317.5, 0.4095316151824451
1318.0000000000002, 0.41117405750912184
1318.5, 0.412299855938291
1319.0000000000002, 0.4125750746495246
1319.5, 0.41202421711400494
1320.0000000000002, 0.4108949214698576
1320.5, 0.40978406030518433
1321.0000000000002, 0.4094094581970382
1321.5, 0.40954426408491207
1322, 0.40939752471635693
1322.5000000000002, 0.4087885284570839
1323, 0.4079876996506724
1323.5000000000002, 0.4074173627399288
1324, 0.4075644640150796
1324.5000000000002, 0.40806355979054754
1325, 0.40785356628232594
1325.5000000000002, 0.4068449024242846
1326, 0.40588224430933595
1326.5000000000002, 0.40535368615032585
1327.0000000000002, 0.4051269167592233
1327.5, 0.40511207082145995
1328.0000000000002, 0.4052971701390664
1328.5, 0.4056480552784747
1329.0000000000002, 0.4060971930079118
1329.5, 0.4066149961284312
1330.0000000000002, 0.4072268903160239
1330.5, 0.4078355433695191
1331.0000000000002, 0.4081463135785177
1331.5000000000002, 0.4080213599355269
1332, 0.40762557340085004
1332.5000000000002, 0.4071898638544905
1333, 0.4070128255442673
1333.5000000000002, 0.4071949847460783
1334, 0.4073985403266469
1334.5000000000002, 0.4074700824822911
1335, 0.4078265048871905
1335.5000000000002, 0.40870323240781636
1336, 0.4096387724503803
1336.5, 0.4102434562925874
1337.0000000000002, 0.41067328450888263
1337.5, 0.4111460143813839
1338.0000000000002, 0.41175417459899577
1338.5, 0.4124110575152721
1339.0000000000002, 0.41246554388500367
1339.5, 0.4114664774636231
1340.0000000000002, 0.41031875740969403
1340.5, 0.4100044593238261
1341.0000000000002, 0.41025516133385365
1341.5000000000002, 0.41045352019097503
1342, 0.4100382296024814
1342.5000000000002, 0.40863989368475107
1343, 0.40689548600951053
1343.5000000000002, 0.4056941834629758
1344, 0.40521668620320384
1344.5000000000002, 0.40534093155031303
1345, 0.40580303235494597
1345.5000000000002, 0.406252310981847
1346.0000000000002, 0.4061387879464856
1346.5, 0.4049608402027156
1347.0000000000002, 0.40359246074351207
1347.5, 0.4035027542952294
1348.0000000000002, 0.40447578678830853
1348.5, 0.40531794924747455
1349.0000000000002, 0.40541088681930826
1349.5, 0.4045919072774331
1350.0000000000002, 0.40356067919735594
1350.5, 0.40358108253912506
1351.0000000000002, 0.40480485043344083
1351.5000000000002, 0.40647108485572914
1352, 0.4079508047500877
1352.5000000000002, 0.40877688329932793
1353, 0.40891086452016134
1353.5000000000002, 0.4087272224118492
1354, 0.4083931333887103
1354.5000000000002, 0.40783600840019985
1355, 0.4072204539178943
1355.5000000000002, 0.40700311357244234
1356.0000000000002, 0.4072327703751366
1356.5, 0.40739292546605754
1357.0000000000002, 0.40712322105409715
1357.5, 0.4063576361255842
1358.0000000000002, 0.405432055595656
1358.5, 0.40529332493907755
1359.0000000000002, 0.4063084097297307
1359.5, 0.40769667680773636
1360.0000000000002, 0.40884369858066827
1360.5, 0.40970921389719095
1361, 0.4103185661563682
1361.5000000000002, 0.41069061750087565
1362, 0.4107453670471397
1362.5000000000002, 0.41016108678670493
1363, 0.408877990254944
1363.5000000000002, 0.40765799062344743
1364, 0.40711990659879516
1364.5000000000002, 0.40701292544388934
1365, 0.4069994438320216
1365.5000000000002, 0.40701488568562494
1366.0000000000002, 0.4070414621409484
1366.5, 0.4070163481298301
1367.0000000000002, 0.40692391371599756
1367.5, 0.4069977962031516
1368.0000000000002, 0.40744809938775894
1368.5, 0.4080495127070105
1369.0000000000002, 0.4085007684595472
1369.5, 0.4087964142870826
1370.0000000000002, 0.40904574574950914
1370.5000000000002, 0.40945169901498923
1371, 0.41020423308826637
1371.5000000000002, 0.411166565538579
1372, 0.4120948141451555
1372.5000000000002, 0.4129680758010329
1373, 0.4138226036746192
1373.5000000000002, 0.414292728606765
1374, 0.4138654504851276
1374.5000000000002, 0.4126135153646484
1375, 0.41094747067744186
1375.5000000000002, 0.4093185128809572
1376.0000000000002, 0.4081807987395163
1376.5, 0.4077275999176846
1377.0000000000002, 0.407961030850135
1377.5, 0.40874192124062425
1378.0000000000002, 0.4098159445438896
1378.5, 0.41076352282447437
1379.0000000000002, 0.41105740559935766
1379.5, 0.410786689253144
1380.0000000000002, 0.4106004817034208
1380.5000000000002, 0.4106521892881885
1381, 0.4105726267332295
1381.5000000000002, 0.4103365800414769
1382, 0.4103281771381254
1382.5000000000002, 0.4105699545297252
1383, 0.41060774810127576
1383.5000000000002, 0.4102561001115992
1384, 0.40974491845032013
1384.5000000000002, 0.4093198598798844
1385.0000000000002, 0.40920110139269883
1385.5, 0.4094006200051966
1386.0000000000002, 0.40958233142438016
1386.5, 0.4095727302273444
1387.0000000000002, 0.4095668897747047
1387.5, 0.4097125823854325
1388.0000000000002, 0.40997399133099055
1388.5, 0.4102371482270508
1389.0000000000002, 0.41026072158556315
1389.5, 0.40999674335669334
1390.0000000000002, 0.4099413224290438
1390.5000000000002, 0.4104239757398893
