114.84144049275372, 30.235206616448338
117.69818835357549, 30.141863202554546
120.55493621439729, 30.071799309355768
123.41168407521906, 30.04829445754696
126.26843193604086, 29.97823056434818
129.12517979686265, 29.95472571253937
131.98192765768442, 29.931220860730562
134.83867551850622, 29.861156967531784
137.695423379328, 29.860931636417973
140.5521712401498, 29.88398582599916
143.40891910097156, 29.953599056970347
146.26566696179336, 30.046491808636517
149.12241482261516, 30.1859436016927
151.97916268343693, 30.37195443613885
154.83591054425872, 30.557965270585
157.6926584050805, 30.743976105031166
160.5494062659023, 30.953266460172316
163.40615412672406, 31.139277294618466
166.26290198754586, 31.34856764975963
169.11964984836766, 31.53457848420578
171.97639770918943, 31.697309797956947
174.83314557001123, 31.860041111708114
177.68989343083302, 31.929654342679285
180.5466412916548, 32.02254709434547
183.4033891524766, 32.13871936670664
186.26013701329836, 32.20833259767781
189.11688487412016, 32.277945828648996
191.97363273494193, 32.301000018230184
194.83038059576373, 32.37061324920137
197.68712845658553, 32.440226480172555
200.5438763174073, 32.46328066975373
203.4006241782291, 32.53289390072493
206.25737203905086, 32.5792276110011
209.11411989987266, 32.64884084197227
211.97086776069446, 32.71845407294347
214.82761562151623, 32.764787783219646
217.68436348233803, 32.83440101419083
220.5411113431598, 32.85745520377202
223.3978592039816, 32.927068434743205
226.25460706480337, 32.97340214501939
229.11135492562516, 33.01973585529558
231.96810278644696, 33.06606956557175
234.82485064726873, 33.065844234457956
237.68159850809053, 33.11217794473414
240.5383463689123, 33.111952613620346
243.3950942297341, 33.204845365286516
246.25184209055587, 33.25117907556269
249.10858995137767, 33.36735134792387
251.96533781219946, 33.36712601681006
254.82208567302123, 33.320341644306254
257.67883353384303, 33.29683679249747
260.5355813946648, 33.29661146138366
263.3923292554866, 33.34294517165985
266.2490771163084, 33.412558402631035
269.10582497713017, 33.412333071517224
271.96257283795194, 33.43538726109841
274.8193206987737, 33.4817209713746
277.67606855959554, 33.574613723040784
280.5328164204173, 33.69078599540195
283.3895642812391, 33.80695826776311
286.2463121420609, 33.78345341595433
289.10306000288267, 33.8297871262305
291.95980786370444, 33.94595939859167
294.8165557245262, 34.015572629562854
297.67330358534804, 34.06190633983904
300.5300514461698, 34.154799091505225
303.3867993069916, 34.17785328108641
306.24354716781335, 34.224186991362586
309.1002950286352, 34.29380022233377
311.95704288945694, 34.34013393260996
314.8137907502787, 34.40974716358113
317.6705386111005, 34.502639915247315
320.5272864719223, 34.5489736255235
323.3840343327441, 34.572027815104704
326.24078219356585, 34.61836152538088
329.0975300543877, 34.68797475635205
331.95427791520945, 34.78086750801823
334.8110257760312, 34.85048073898942
337.667773636853, 34.94337349065559
340.5245214976748, 34.989707200931775
343.3812693584966, 35.05932043190296
346.23801721931835, 35.12893366287415
349.0947650801402, 35.3149444973203
351.95151294096195, 35.36127820759647
354.8082608017837, 35.454170959262655
357.66500866260554, 35.50050466953884
360.5217565234273, 35.57011790051001
363.3785043842491, 35.686290172871196
366.23525224507085, 35.73262388314738
369.0920001058927, 35.77895759342357
371.94874796671445, 35.84857082439474
374.8054958275362, 35.87162501397593
377.66224368835805, 36.034356327727096
380.5189915491798, 36.173808120783264
383.3757394100016, 36.150303268974454
386.23248727082336, 36.33631410342062
389.0892351316452, 36.405927334391805
391.94598299246695, 36.54537912744797
394.8027308532887, 36.63827187911414
397.65947871411055, 36.73116463078031
400.5162265749323, 36.80077786175151
403.3729744357541, 36.89367061341768
406.22972229657586, 36.963283844388855
409.0864701573977, 37.12601515814002
411.94321801821945, 37.26546695119619
414.7999658790412, 37.404918744252356
417.65671373986305, 37.521091016613525
420.5134616006848, 37.613983768279695
423.3702094615066, 37.660317478555896
426.22695732232836, 37.89288735439204
429.0837051831502, 37.915941543973226
431.94045304397196, 38.12523189911438
434.7972009047937, 38.33452225425553
437.65394876561555, 38.42741500592171
440.5106966264373, 38.54358727828288
443.3674444872591, 38.706318592034044
446.22419234808086, 38.845770385090205
449.0809402089027, 38.96194265745138
451.93768806972446, 39.05483540911756
454.79443593054623, 39.240846243563716
457.65118379136806, 39.287179953839896
460.5079316521898, 39.49647030898105
463.3646795130116, 39.56608353995223
466.22142737383336, 39.7055353330084
469.0781752346552, 39.86826664675956
471.93492309547696, 39.821482274255764
474.79167095629873, 40.1238907121769
477.64841881712056, 40.19350394314808
480.5051666779423, 40.16999909133928
483.3619145387641, 40.262891843005455
486.2186623995859, 40.30922555328164
489.0754102604077, 40.44867734633781
491.93215812122946, 40.51829057730899
494.78890598205123, 40.355108601330215
497.64565384287306, 40.21520614604644
500.50240170369483, 40.30809889771262
503.3591495645166, 40.144916921733845
506.2158974253384, 39.93517590436508
509.0726452861602, 39.8185529697763
511.92939314698197, 39.655370993797526
514.7861410078037, 39.46890949712376
517.6428888686256, 39.14277087628002
520.4996367294474, 39.049427462386234
523.3563845902692, 38.95608404849245
526.2131324510909, 38.606665906953715
529.0698803119127, 38.559881534449914
531.9266281727345, 38.55965620333611
534.7833760335562, 38.46631278944233
537.6401238943781, 38.21001273068357
540.4968717551999, 37.93043315122982
543.3536196160217, 37.93020782011602
546.2103674768434, 37.813584885527234
549.0671153376652, 37.76680051302344
551.923863198487, 37.69673661982465
554.7806110593087, 37.67323176801585
557.6373589201306, 37.719565478292026
560.4941067809524, 37.76589918856822
563.3508546417742, 37.8122328988444
566.2076025025959, 37.74216900564562
569.0643503634177, 37.81178223661679
571.9210982242396, 37.788277384808
574.7778460850614, 37.625095408829225
577.6345939458831, 37.74126768119039
580.4913418067049, 37.601365225906605
583.5861519892619, 37.43040463210336
586.2048375283484, 37.531076001594016
589.0615853891702, 37.29805546353026
591.9183332499921, 37.274550611721466
594.7750811108139, 37.20448671852266
597.6318289716356, 37.0645842632389
600.4885768324574, 36.92468180795511
603.3453246932792, 36.9244564768413
606.2020725541009, 36.59831785599758
609.0588204149227, 36.64465156627375
611.9155682757446, 36.57458767307497
614.7723161365664, 36.434685217791184
617.6290639973881, 36.20166467972743
620.4858118582099, 36.154880307223635
623.3425597190317, 36.01497785193985
626.1993075798534, 35.828516355266075
629.0560554406752, 35.85157054484728
631.9128033014971, 35.82806569303847
634.7695511623189, 35.85111988261967
637.6262990231406, 35.6879379066409
640.4830468839624, 35.524755930662124
643.3397947447842, 35.43141251676833
646.1965426056059, 35.31478958217956
649.0532904664277, 35.31456425106575
651.9100383272496, 35.15138227508697
654.7667861880714, 35.17443646466816
657.6235340488931, 35.0345340093844
660.4802819097149, 35.080867719660574
663.3370297705367, 34.940965264376786
666.1937776313584, 34.87090137117801
669.0505254921803, 34.73099891589423
671.9072733530021, 34.567816939915446
674.7640212138239, 34.49775304671667
677.6207690746456, 34.35785059143288
680.4775169354674, 34.38090478101408
683.3342647962892, 34.26428184642529
686.191012657111, 34.07782034975152
689.0477605179328, 33.86807933238276
691.9045083787546, 33.65833831501401
694.7612562395764, 33.68139250459518
697.6180041003981, 33.75100573556638
700.4747519612199, 33.56454423889261
703.3314998220417, 33.517759866388815
706.1882476828634, 33.517534535275004
709.2830578654205, 33.168097616143456
711.9017434045071, 33.13297178157998
714.7584912653289, 33.40046093845861
717.6152391261506, 33.47007416942979
720.4719869869724, 33.423289796926
723.3287348477942, 33.376505424422206
726.185482708616, 33.37628009330841
729.0422305694378, 33.25965715871962
731.8989784302596, 33.42238847247077
734.7557262910814, 33.538560744831955
737.6124741519031, 33.328819727463184
740.4692220127249, 33.30531487565439
743.3259698735467, 33.39820762732056
746.1827177343685, 33.467820858291745
749.0394655951903, 33.39775696509295
751.8962134560121, 33.32769307189416
754.7529613168339, 33.30418822008535
757.6097091776556, 33.397080971751535
760.4664570384774, 33.5598122855027
763.3232048992992, 33.33843150778644
766.179952760121, 33.60592066466508
768.7986382992076, 33.4893165076691
771.8934484817646, 33.55891096104749
774.7501963425864, 33.51212658854368
777.6069442034081, 33.72141694368483
780.4636920642299, 33.83758921604601
783.5585022467868, 33.30191613135449
786.1771877858735, 33.511225264088466
789.0339356466953, 33.34804328810969
791.652621185782, 33.56511226107533
794.7474313683389, 33.60366735352703
797.6041792291606, 33.556882981023236
800.4609270899824, 33.53337812921443
803.3176749508042, 33.46331423601565
806.174422811626, 33.48636842559682
809.0311706724478, 33.1602298047531
811.8879185332696, 33.11344543224929
814.7446663940914, 32.90370441488052
817.6014142549132, 32.67068387681678
820.4581621157349, 32.507501900837994
823.3149099765567, 32.50727656972418
826.1716578373785, 32.250976510965444
829.0284056982003, 31.924837890121694
831.8851535590221, 31.854773996922916
834.7419014198439, 31.784710103724123
837.8367116024008, 31.23351733856927
840.4553971414874, 30.887997894739186
843.3121450023092, 31.481400341347765
846.168892863131, 31.551013572318936
849.0256407239528, 31.411111117035176
851.8823885847746, 31.480724348006348
854.9771987673315, 31.356322795593073
857.5958843064182, 31.50355320647374
860.4526321672399, 31.38693027188495
863.3093800280617, 31.31686637868617
866.1661278888835, 31.246802485487365
869.0228757497053, 31.188378352636065
871.641561288792, 31.649882292899164
873.307997540938, 31.15312107492288
876.1647454017598, 31.22273430589405
879.0214932625815, 31.33890657825522
882.1163034451384, 30.997229499355342
884.7349889842251, 31.338455916027613
887.591736845047, 31.431348667693783
890.4484847058687, 31.640639022834947
893.3052325666905, 31.803370336586113
896.1619804275123, 31.593629319217357
899.018728288334, 31.52356542601855
901.8754761491558, 31.802694343244696
904.7322240099776, 31.89558709491088
907.5889718707995, 32.08159792935703
910.4457197316212, 32.221049722413184
913.302467592443, 32.43034007755435
916.1592154532648, 32.6396304326955
919.0159633140865, 32.56956653949672
921.8727111749083, 32.75557737394287
924.7294590357301, 33.011426770474
927.586206896552, 33.22071712561517
930.4429547573737, 33.4765665221463
933.2997026181955, 33.66257735659245
936.1564504790173, 33.848588191038615
939.013198339839, 33.9182014220098
941.8699462006608, 34.127491777150965
944.7266940614826, 34.56957733924206
947.5834419223045, 34.3249170408308
950.2021274613911, 34.73210209947223
953.296937643948, 34.918094156325566
956.1536855047698, 35.19722307355171
958.7723710438564, 35.01078035447077
961.8671812264133, 35.592524263139026
964.9619914089702, 35.60003999466406
967.580676948057, 35.96454593203134
970.4374248088787, 36.127277245782494
973.2941726697005, 36.19689047675368
976.1509205305223, 36.266503707724866
979.007668391344, 36.42923502147602
981.8644162521658, 36.90623986460963
983.2927901825767, 36.0331451729904
984.9592264347227, 36.88659615532383
987.5779119738095, 36.9872675248145
990.4346598346312, 37.056880755785684
993.291407695453, 37.31273015231682
996.1481555562748, 37.568579548847964
999.0049034170966, 37.75459038329413
1001.8616512779183, 37.8474831349603
1004.7183991387401, 37.893816845236486
1007.575146999562, 37.893591514122676
1010.4318948603837, 38.126161389958824
1013.2886427212055, 38.38201078648997
1016.1453905820273, 38.49818305885114
1018.764076121114, 38.52901586625682
1021.8588863036708, 39.09136017434591
1024.7156341644927, 39.52180597608952
1027.3343197035792, 39.21120581330192
1030.4291298861363, 39.70759147942187
1033.285877746958, 40.07983847942799
1036.1426256077798, 40.4986445208241
1039.2374357903366, 40.560479133970794
1041.8561213294233, 40.54475289998648
1044.712869190245, 40.986838462077586
1047.5696170510669, 41.568601148338665
1050.1883025901536, 41.55287491435435
1053.2831127727104, 41.88242401549349
1055.9017983117972, 42.04905402695331
1058.996608494354, 42.3126444861233
1061.8533563551757, 42.545214361959445
1064.7101042159977, 42.766144477448094
1067.3287897550842, 42.65342024056796
1070.423599937641, 42.80061309626298
1073.2803477984628, 43.149580575574106
1075.8990333375496, 43.38216922900307
1077.5654695896956, 42.98628593403843
1080.4222174505173, 43.288694371959565
1083.278965311339, 43.451425685710724
1086.1357131721609, 43.45120035459692
1089.1352984260238, 43.53942593556841
1091.6111465720694, 43.64476447575375
1094.7059567546264, 43.310847237085525
1097.5627046154482, 43.12438574041176
1100.41945247627, 42.984483285127986
1103.0381380153565, 42.541965838402085
1104.7045742675025, 41.91328733648749
1106.3710105196485, 42.63482103488263
1108.9896960587353, 42.169024067461734
1111.846443919557, 41.67992880175303
1114.7031917803788, 41.3072311395193
1117.5599396412006, 40.98109251867555
1120.4166875020223, 40.526916534009345
1123.273435362844, 39.93306342517316
1126.1301832236659, 39.746601928499395
1128.9869310844877, 40.11884892850551
1128.7488687627526, 39.06352943459187
1131.8436789453094, 38.86152947986196
1134.7004268061314, 38.46555229693323
1137.5571746669532, 37.76694134496957
1140.413922527775, 37.5339208069058
1143.0326080668615, 37.4949150522265
1144.9371066407427, 36.827418571560756
1147.3177298580943, 36.60995526914597
1148.9841661102403, 35.78728076143973
1150.6506023623863, 36.470015258676554
1153.269287901473, 35.973178930328984
1155.8879734405596, 35.522901643371426
1157.7924720144406, 34.979562606412344
1160.4111575535273, 34.73880100570973
1163.5059677360844, 34.575600252138145
1165.8865909534359, 34.74612896130661
1167.5530272055819, 34.016572536380366
1170.4097750664037, 33.96978816387657
1173.2665229272254, 33.96956283276276
1176.3613331097822, 33.62788575386287
1178.980018648869, 34.2484664188751
1178.741956327134, 33.05346980079149
1181.8367665096907, 33.08426505301152
1184.6935143705125, 32.7348469114728
1187.5502622313343, 32.52510589410403
1190.407010092156, 32.43176248021024
1193.263757952978, 32.384978107706445
1196.1205058137998, 32.175237090337674
1199.2153159963566, 31.48436720101286
1201.595939213708, 31.235864537671404
1204.6907493962651, 31.38305739336643
1207.3094349353519, 31.25093355590714
1210.4042451179087, 30.9868548793239
1213.2609929787304, 30.98662954821009
1216.1177408395522, 31.032963258486276
1218.974488700374, 30.753383679032524
1221.8312365611957, 31.079071637648653
1224.6879844220175, 31.00900774444986
1227.5447322828393, 30.985502892641065
1230.401480143661, 30.8339606770098
1233.258228004483, 30.65913894068352
1236.1149758653048, 30.75203169234969
1238.9717237261266, 30.728526840540894
1242.0665339086834, 30.7205228916026
1244.4471571260349, 30.78241383752777
1247.541967308592, 30.751130367894476
1250.3987151694137, 30.448271267745724
1253.2554630302354, 30.773959226361868
1256.1122108910572, 30.622417010730587
1258.968958751879, 30.42431575370931
1261.8257066127007, 30.59868682780798
1264.4443921517875, 30.48596259092784
1266.3488907256685, 29.942623553968758
1268.9675762647553, 30.330409012031012
1271.824324125577, 30.30690416022223
1274.9191343081338, 30.004026282480666
1277.5378198472206, 30.07365829104465
1280.3945677080424, 30.376066728965796
1283.0132532471291, 30.3758601754448
1286.108063429686, 30.538572711603138
1288.9648112905077, 30.7944221081343
1291.8215591513297, 30.724358214935492
1294.6783070121514, 30.910369049381657
1297.5350548729732, 31.073100363132824
1299.2014911251192, 30.2038668140366
1300.391802733795, 31.305670238968958
1302.058238985941, 30.23468084384946
1304.6769245250275, 30.956139431873325
1307.5336723858493, 31.002473142149512
1310.6284825684063, 30.823752708114597
1313.247168107493, 30.629550148801982
1316.3419782900498, 30.900900448203643
1318.9606638291366, 31.490441752289186
1318.9606638291366, 30.163509072674458
1321.5793493682231, 30.760810216991686
1324.6741595507801, 31.024400676161676
1327.530907411602, 30.861218700182903
1330.6257175941587, 30.55834082244135
1333.2444031332454, 30.977165641430275
1336.45824447667, 30.988551904274743
1338.957898854889, 32.140691013952434
1338.957898854889, 30.74391977225271
1341.8146467157108, 30.976489648088858
1344.6713945765325, 30.88314623419508
1347.5281424373543, 30.836361861691273
1350.384890298176, 30.603341323627504
1353.241638158998, 30.509997909733727
1356.0983860198198, 30.661089463137387
1358.7170715589064, 30.928597397608854
1361.8118817414634, 30.95163280959723
1364.43056728055, 31.19198130325786
1367.525377463107, 31.183977354319566
1370.5249627169699, 30.722806246889164
1373.2388731847504, 31.905191833636806
1373.2388731847504, 30.53170011263208
1376.0956210455722, 31.416096567928108
1379.1904312281292, 31.26841549481985
1381.8091167672158, 31.20613021944554
1384.4278023063025, 31.562876316581153
1386.3323008801835, 30.67810430942879
1387.5226124888593, 31.8575061366778
1388.9509864192703, 31.182287370966023
1391.807734280092, 31.484695808887153
1394.4264198191788, 31.20513500702623
1396.0928560713248, 30.7394131499766
1398.9496039321466, 30.832305901642783
