100.55770118864478, 58.91670276825161
103.41444904946655, 58.84663887505282
106.27119691028835, 58.753295461159034
109.12794477111014, 58.65995204726525
111.98469263193192, 58.63644719545644
114.84144049275372, 58.612942343647646
117.69818835357549, 58.51959892975386
120.55493621439729, 58.44953503655507
123.41168407521906, 58.40275066405127
126.26843193604086, 58.33268677085248
129.12517979686265, 58.28590239834868
131.98192765768442, 58.23911802584489
134.83867551850622, 58.169054132646096
137.695423379328, 58.16882880153229
140.5521712401498, 58.16860347041849
143.40891910097156, 58.23821670138967
146.26566696179336, 58.35438897375084
149.12241482261516, 58.493840766807004
151.97916268343693, 58.67985160125316
154.83591054425872, 58.86586243569933
157.6926584050805, 59.07515279084047
160.5494062659023, 59.33100218737162
163.40615412672406, 59.54029254251277
166.26290198754586, 59.79614193904391
169.11964984836766, 59.98215277349007
171.97639770918943, 60.14488408724123
174.83314557001123, 60.3076154009924
177.68989343083302, 60.400508152658574
180.5466412916548, 60.493400904324744
183.4033891524766, 60.56301413529593
186.26013701329836, 60.65590688696211
189.11688487412016, 60.678961076543295
191.97363273494193, 60.771853828209466
194.83038059576373, 60.81818753848565
197.68712845658553, 60.86452124876184
200.5438763174073, 60.934134479733025
203.4006241782291, 60.980468190009205
206.25737203905086, 61.05008142098039
209.11411989987266, 61.09641513125658
211.97086776069446, 61.212587403617746
214.82761562151623, 61.235641593198935
217.68436348233803, 61.25869578278012
220.5411113431598, 61.32830901375131
223.3978592039816, 61.374642724027495
226.25460706480337, 61.467535475693666
229.11135492562516, 61.44403062388486
231.96810278644696, 61.42052577207607
234.82485064726873, 61.397020920267266
237.68159850809053, 61.443354630543446
240.5383463689123, 61.46640882012464
243.3950942297341, 61.53602205109583
246.25184209055587, 61.675473844151995
249.10858995137767, 61.814925637208155
251.96533781219946, 61.81470030609435
254.82208567302123, 61.74463641289556
257.67883353384303, 61.790970123171746
260.5355813946648, 61.790744792057936
263.3923292554866, 61.79051946094413
266.2490771163084, 61.81357365052533
269.10582497713017, 61.906466402191505
271.96257283795194, 61.882961550382696
274.8193206987737, 61.90601573996389
277.67606855959554, 61.95234945024008
280.5328164204173, 62.045242201906255
283.3895642812391, 62.13813495357243
286.2463121420609, 62.20774818454361
289.10306000288267, 62.2540818948198
291.95980786370444, 62.32369512579098
294.8165557245262, 62.32346979467717
297.67330358534804, 62.41636254634334
300.5300514461698, 62.50925529800952
303.3867993069916, 62.578868528980706
306.24354716781335, 62.62520223925689
309.1002950286352, 62.764654032313054
311.95704288945694, 62.71786965980926
314.8137907502787, 62.76420337008545
317.6705386111005, 62.857096121751624
320.5272864719223, 62.903429832027804
323.3840343327441, 62.926484021609
326.24078219356585, 62.99609725258018
329.0975300543877, 63.042430962856365
331.95427791520945, 63.22844179730252
334.8110257760312, 63.22821646618872
337.667773636853, 63.34438873854989
340.5245214976748, 63.460561010911064
343.3812693584966, 63.483615200492245
346.23801721931835, 63.50666939007344
349.0947650801402, 63.62284166243462
351.95151294096195, 63.62261633132081
354.8082608017837, 63.692229562291985
357.66500866260554, 63.83168135534815
360.5217565234273, 63.92457410701433
363.3785043842491, 64.0174668586805
366.23525224507085, 64.0172415275667
369.0920001058927, 64.06357523784288
371.94874796671445, 64.13318846881407
374.8054958275362, 64.22608122048024
377.66224368835805, 64.24913541006143
380.5189915491798, 64.31874864103261
383.3757394100016, 64.52803899617376
386.23248727082336, 64.8304474340949
389.0892351316452, 64.87678114437108
391.94598299246695, 64.85327629256228
394.8027308532887, 65.01600760631345
397.65947871411055, 65.10890035797962
400.5162265749323, 65.1785135889508
403.3729744357541, 65.29468586131198
406.22972229657586, 65.43413765436814
409.0864701573977, 65.6201484888143
411.94321801821945, 65.71304124048048
414.7999658790412, 65.73609543006167
417.65671373986305, 65.89882674381283
420.5134616006848, 66.10811709895398
423.3702094615066, 66.31740745409513
426.22695732232836, 66.29390260228634
429.0837051831502, 66.50319295742749
431.94045304397196, 66.59608570909367
434.7972009047937, 66.8519351056248
437.65394876561555, 66.96810737798597
440.5106966264373, 66.92132300548218
443.3674444872591, 67.15389288131834
446.22419234808086, 67.50286036062946
449.0809402089027, 67.57247359160064
451.93768806972446, 67.68864586396181
454.79443593054623, 67.94449526049296
457.65118379136806, 68.06066753285413
460.5079316521898, 68.1768398052153
463.3646795130116, 68.29301207757646
466.22142737383336, 68.38590482924265
469.0781752346552, 68.5253566222988
471.93492309547696, 68.64152889465998
474.79167095629873, 68.85081924980113
477.64841881712056, 69.0368300842473
480.5051666779423, 69.15300235660845
483.3619145387641, 69.24589510827464
486.2186623995859, 69.33878785994082
489.0754102604077, 69.47823965299699
491.93215812122946, 69.36161671840819
494.78890598205123, 69.25663354416692
497.64565384287306, 69.59396126313055
500.50240170369483, 69.38422024576178
503.3591495645166, 69.12792018700303
506.2158974253384, 69.05785629380424
509.0726452861602, 69.01107192130044
511.92939314698197, 68.73149234184669
514.7861410078037, 68.31223563822297
517.6428888686256, 68.1024946208542
520.4996367294474, 67.98587168626543
523.5944469120043, 67.26396243601394
526.451194772826, 66.99990253702353
529.0698803119127, 66.84449917886923
531.9266281727345, 66.68131720289045
534.7833760335562, 66.58797378899668
537.6401238943781, 66.33167373023792
540.4968717551999, 66.19177127495414
543.3536196160217, 66.07514834036536
546.2103674768434, 65.9352458850816
549.0671153376652, 65.8884615125778
551.923863198487, 65.841677140074
554.7806110593087, 65.7716132468752
557.8754212418658, 65.50753457029197
560.4941067809524, 65.91083970881758
563.3508546417742, 65.79421677422879
566.2076025025959, 65.84055048450497
569.0643503634177, 65.77048659130618
571.9210982242396, 65.86337934297237
574.7778460850614, 65.70019736699359
577.6345939458831, 65.6068539530998
580.72940412844, 65.1332595902616
583.1100273457915, 64.93131596831014
586.2048375283484, 64.93107185960352
589.0615853891702, 64.76788988362475
591.9183332499921, 64.488310304171
594.7750811108139, 64.37168736958222
597.6318289716356, 63.97571018665349
600.4885768324574, 63.812528210674714
603.3453246932792, 63.48638958983098
606.2020725541009, 63.230089531072224
609.0588204149227, 63.02034851370345
612.1536305974797, 62.678671434803576
615.0103784583015, 63.12851683712634
614.0581291713609, 62.41468664618442
617.3910016756529, 62.50754184266496
620.4858118582099, 62.27450252700839
623.3425597190317, 62.297556716589575
626.1993075798534, 62.36716994756076
629.0560554406752, 62.25054701297198
631.9128033014971, 62.017526474908216
634.7695511623189, 61.94746258170942
637.6262990231406, 62.0636348540706
640.4830468839624, 62.133248085041785
643.3397947447842, 62.109743233232976
646.1965426056059, 62.01639981933919
649.0532904664277, 61.9928949675304
651.9100383272496, 61.99266963641659
654.7667861880714, 62.062282867387765
657.6235340488931, 62.08533705696896
660.4802819097149, 62.08511172585516
663.3370297705367, 62.201283998216326
666.1937776313584, 62.224338187797514
669.0505254921803, 62.34051046015868
671.9072733530021, 62.2471670462649
674.7640212138239, 62.246941715151095
677.6207690746456, 62.08375973917232
680.4775169354674, 62.1766524908385
683.3342647962892, 62.222986201114686
686.191012657111, 62.339158473475855
689.0477605179328, 62.31565362166705
692.1425707004897, 61.803260057670535
694.7612562395764, 61.896171586929526
697.6180041003981, 62.26841858693565
700.4747519612199, 62.24491373512684
703.3314998220417, 62.26796792470804
706.1882476828634, 62.128065469424264
709.0449955436853, 62.15111965900545
711.9017434045071, 62.19745336928163
714.7584912653289, 62.05755091399786
717.6152391261506, 62.150443665664035
720.4719869869724, 62.12693881385524
723.3287348477942, 61.94047731718146
726.185482708616, 61.89369294467767
729.280292891173, 61.89344883597105
731.6609161085244, 61.893261060042875
734.7557262910814, 62.079253116896226
737.6124741519031, 61.93935066161244
740.7072843344602, 61.861508150589174
743.0879075518116, 61.75268261141768
746.1827177343685, 61.822277064796054
749.0394655951903, 61.72893365090226
751.8962134560121, 61.89166496465342
754.7529613168339, 61.93799867492961
757.6097091776556, 61.961052864510805
760.4664570384774, 61.890988971312005
763.3232048992992, 61.86748411950321
766.179952760121, 61.75086118491443
769.0367006209428, 61.843753936580605
771.8934484817646, 61.796969564076804
774.7501963425864, 61.796744232963
777.6069442034081, 61.84307794323919
780.4636920642299, 61.7730140500404
783.3204399250517, 61.60983207406162
786.1771877858735, 61.446650098082856
789.0339356466953, 61.516263329054034
791.8906835075171, 61.37636087377026
794.7474313683389, 61.21317889779148
797.6041792291606, 61.04999692181271
800.4609270899824, 61.00321254930892
803.3176749508042, 60.909869135415136
806.174422811626, 61.002761887081306
809.2692329941829, 61.00251777837469
811.8879185332696, 60.93247266276871
814.7446663940914, 60.51321595914499
817.6014142549132, 60.233636379691234
820.4581621157349, 60.14029296579745
823.3149099765567, 60.023670031208674
826.1716578373785, 59.90704709661989
829.0284056982003, 60.04649888967605
831.8851535590221, 60.02299403786726
834.7419014198439, 59.81325302049849
837.8367116024008, 59.805249071560205
840.4553971414874, 60.39479037564576
840.2173348197523, 59.26187247941547
843.5502073240443, 59.61856224377264
846.168892863131, 59.55627696839832
849.0256407239528, 59.74228780284448
851.8823885847746, 59.99813719937562
854.7391364455964, 59.858234744091845
857.5958843064182, 59.83472989228304
860.4526321672399, 60.09057928881419
863.0713177063267, 59.97397513181823
864.9758162802077, 59.67895098227241
867.5945018192945, 59.647705067824766
870.4512496801162, 59.99667254713589
873.307997540938, 60.136124340192055
876.1647454017598, 60.25229661255323
878.7834309408464, 60.26760973949557
881.8782411234033, 60.3216845124106
884.7349889842251, 60.484415826161765
887.591736845047, 60.41435193296298
890.4484847058687, 60.50724468462916
893.3052325666905, 60.64669647768532
896.1619804275123, 60.716309708656496
899.018728288334, 60.855761501712664
901.8754761491558, 60.99521329476884
904.7322240099776, 61.04154700504502
907.5889718707995, 61.39051448435614
910.4457197316212, 61.623084360192294
913.302467592443, 61.97205183950342
916.1592154532648, 62.344298839509534
919.0159633140865, 62.4721108722182
921.8727111749083, 62.57664338423188
924.9675213574652, 62.63847799737858
927.586206896552, 62.94866505312419
930.6810170791088, 63.445050719244136
933.0616402964604, 63.39830390192597
936.1564504790173, 63.71621324271763
939.013198339839, 63.92550359785877
942.108008522396, 64.22013341795542
944.7266940614826, 64.60015903578602
947.8215042440395, 64.60767476731107
950.4401897831262, 65.01873974606833
953.296937643948, 65.25130962190448
956.3917478265049, 65.46058119945282
958.7723710438564, 66.06566096159452
960.4388072960024, 65.69305718732488
963.2955551568242, 65.87906802177105
966.3903653393811, 65.67706806704112
968.7709885567327, 65.86311645667291
971.8657987392896, 66.48365956649951
974.7225466001114, 66.69294992164066
977.5792944609332, 66.73928363191685
980.1979800000199, 66.85547468187083
983.2927901825767, 67.13458482150415
986.3876003651336, 67.10330135187087
989.0062859042204, 66.84314015058911
991.8630337650421, 67.49474139893516
994.4817193041288, 67.6768910908583
997.5765294866857, 67.45937145566506
1000.1952150257724, 67.52124362399739
1003.2900252083292, 67.50547983482744
1006.1467730691511, 67.55181354510363
1009.0035209299729, 67.6679858174648
1011.8602687907946, 67.91219545364845
1014.4789543298813, 68.26506163066821
1016.1453905820273, 67.83037913454525
1018.764076121114, 68.03192842704756
1021.8588863036708, 67.94632607579263
1024.4775718427575, 68.12459584759992
1026.3820704166385, 67.65885521295749
1029.0007559557253, 67.5383711358457
1031.619441494812, 67.84467827147547
1034.7142516773688, 67.95695184612799
1037.5709995381906, 68.02656507709918
1040.6658097207476, 68.37163385870164
1043.284495259834, 68.08431321660905
1046.3793054423911, 67.98319118489079
1048.9979909814779, 68.18862039750891
1051.6166765205644, 68.04485679970213
1054.7114867031214, 68.33948661979878
1057.5682345639432, 68.2694227266
1060.424982424765, 68.26919739548617
1063.2817302855867, 68.31553110576237
1066.3765404681435, 68.726558529334
1066.1384781464085, 67.47724302962874
1067.5668520768195, 66.615788098357
1068.2810390420248, 69.50239233175797
1068.9952260072303, 68.38491900561975
1068.9952260072303, 67.40717913642995
1071.613911546317, 67.67080715078556
1074.7087217288738, 67.47656703628732
1077.5654695896956, 67.464701944826
1080.4222174505173, 67.15020308432977
1083.278965311339, 66.74258614105355
1086.1357131721609, 67.17303194279715
1086.1357131721609, 66.19529207360736
1088.9924610329826, 66.56753907361347
1088.9924610329826, 65.72947632859365
1091.8492088938044, 66.4741956597197
1093.2775828242154, 65.77569737331292
1094.7059567546264, 66.56708841138587
1096.3723930067722, 65.79097294506963
1098.753016224124, 65.83734421053146
1102.085888728416, 65.86812068515867
1104.7045742675025, 65.86791413163769
1104.7045742675025, 64.91345378314287
1107.5613221283243, 65.02962605550405
1110.418069989146, 64.73840671570281
1113.0367555282328, 64.71880056160265
1114.9412541021138, 63.9426663176936
1117.5599396412006, 64.14421561019591
1120.4166875020223, 64.00431315491213
1123.035373041109, 63.80235075536785
1125.8921209019309, 63.70900734147406
1128.9869310844877, 63.375090102805835
1131.8436789453094, 63.35158525099704
1134.4623644843962, 62.79267020079616
1136.1288007365422, 62.001035054016604
1137.5571746669532, 61.255977726219854
1139.223610919099, 62.357743595966575
1142.080358779921, 62.60583315226605
1141.6042341364507, 61.503973394555246
1144.4609819972725, 61.98485815780467
1147.5557921798293, 62.000133729561384
1150.412540040651, 62.20942408470253
1151.840913971062, 61.18501250856583
1153.269287901473, 61.76688786038382
1154.9357241536188, 60.88213463082428
1157.5544096927056, 61.300959449813206
1157.5544096927056, 60.34649910131839
1160.1730952317923, 60.66444599729568
1163.2679054143491, 60.88147741507568
1166.1246532751709, 60.83469304257188
1167.5530272055819, 59.90339954921517
1168.9814011359927, 60.834467711458075
1170.4097750664037, 60.205807987136296
1173.2665229272254, 60.27542121810748
1176.1232707880472, 60.06568020073872
1178.980018648869, 60.088734390319914
1182.074828831426, 59.76257699188335
1184.6935143705125, 60.20468133156727
1187.5502622313343, 60.60020785226839
1187.3121999095993, 59.4672899560381
1188.9786361617453, 58.85413113458684
1190.6450724138913, 59.51358611112865
1193.263757952978, 59.43578115529101
1196.1205058137998, 59.78474863460214
1198.7391913528863, 59.41982959019289
1201.8340015354433, 59.06263283082968
1204.9288117180001, 58.674396710539796
1207.785559578822, 58.87592722544929
1206.8333102918814, 57.82842390454576
1210.1661827961736, 58.70502296442448
1213.4990553004654, 58.968594646001655
1216.1177408395522, 59.3175809029056
1218.974488700374, 59.31735557179179
1221.8312365611957, 59.27057119928799
1224.6879844220175, 58.79311569392679
1227.5447322828393, 58.792890362812976
1230.401480143661, 59.1534976024716
1233.258228004483, 59.19983131274779
1236.1149758653048, 59.22288550232898
1238.9717237261266, 59.26921921260516
1241.8284715869484, 59.0478384348889
1244.6852194477701, 59.15237094690258
1247.541967308592, 59.152145615788776
1250.3987151694137, 59.361435970929925
1253.2554630302354, 59.24481303634114
1256.1122108910572, 58.9535936965399
1258.968958751879, 59.360759977588515
1261.5876442909657, 59.36831326429919
1263.4921428648468, 58.685297103170114
1266.1108284039335, 58.77820863242912
1268.9675762647553, 58.66158569784033
1271.824324125577, 58.68463988742152
1271.1101371603716, 24.231005591606888
1273.252698055988, 25.72072591775124
1274.6810719863988, 58.66113503561272
1276.1094459168098, 64.31794589893968
1275.3952589516043, 26.46550158165573
1277.5378198472206, 58.63763018380392
1278.9661937776316, 64.41083865060585
1280.6326300297776, 58.451149909537335
1281.8229416384534, 64.55029044366202
1283.2513155688641, 58.869974728526266
1284.6796894992751, 64.55006511254822
1286.108063429686, 63.08334264320661
1286.108063429686, 59.6612531010423
1286.3461257514211, 58.373100844993075
1285.3938764644806, 57.79894777822113
1287.536437360097, 64.6429578642144
1286.8222503948914, 15.569784571942705
1288.9648112905077, 63.1529558741778
1288.9648112905077, 59.04412047151112
1289.6789982557132, 64.64278886587904
1292.0596214730647, 59.24175228871196
1293.2499330817404, 24.625011127289824
1294.6783070121514, 60.591757935500695
1294.6783070121514, 59.5674590249209
1294.6783070121514, 58.21724682461117
1296.1066809425622, 16.59335115640262
1297.5350548729732, 59.89314698353704
1297.296992551238, 58.74470940684341
1298.2492418381785, 16.686300240847245
1298.2492418381785, 14.730820502467637
1300.1537404120597, 59.03935800453288
1303.2485505946167, 63.53594131007619
1303.2485505946167, 59.4736649487995
1306.3433607771735, 64.00516753538531
1305.8672361337035, 62.872268416747836
1306.3433607771735, 59.55101924240954
1309.2001086379953, 64.43949325724475
1308.7239839945253, 62.91239425483869
1308.9620463162603, 59.286978121011934
1311.818794177082, 64.897117277392
1311.818794177082, 63.87281836681221
1311.818794177082, 62.499326645807486
1311.818794177082, 59.53118775719558
1314.6755420379038, 64.99001002905817
1314.6755420379038, 63.96571111847838
1314.6755420379038, 62.405983231913694
1314.6755420379038, 59.10029129322436
1317.5322898987256, 65.01306421863936
1317.5322898987256, 63.96548578736458
1317.5322898987256, 62.40575790079989
1317.5322898987256, 59.51909733462047
1317.5322898987256, 25.950028492437212
1316.81810293352, 24.227400293786005
1320.3890377595474, 64.96627984613556
1320.3890377595474, 63.941980935555776
1320.3890377595474, 62.47537113177108
1320.1509754378123, 59.875843431756074
1323.2457856203691, 64.8263773908518
1323.2457856203691, 63.802078480272
1323.2457856203691, 62.591543404132246
1323.4838479421044, 59.487588533873385
1326.102533481191, 64.66319541487303
1326.102533481191, 63.03362896622335
1326.3405958029261, 60.26334722592609
1325.864471159456, 58.882133219875335
1327.530907411602, 58.40089168236238
1326.8167204463964, 25.064674379907515
1328.2450943768074, 64.59318785445268
1328.9592813420127, 63.242919321364504
1328.9592813420127, 60.17002258962512
1328.9592813420127, 59.145723679045325
1328.9592813420127, 15.124150044809156
1330.3876552724237, 58.517063954723554
1332.0540915245697, 59.347235416362
1331.1018422376292, 15.659410022458701
1334.6727770636564, 59.56430438932763
1333.958590098451, 16.124775105244794
1337.5295249244782, 59.70375618238379
1336.8153379592727, 25.319960448654157
1338.2437118896835, 24.225710310432476
1338.957898854889, 16.683089272475527
1340.3862727853, 60.07600318238992
1340.624335107035, 58.81889028726736
1343.4810829678568, 59.98264099090331
1343.0049583243865, 58.77214346994919
1346.0997685069435, 60.634261016842196
1345.8617061852085, 59.3927053573686
1348.9565163677653, 59.60973677514859
1351.813264228587, 59.70262952681477
1354.6700120894088, 59.655845154310974
1357.5267599502306, 59.84185598875714
1360.3835078110524, 60.330500592238224
1363.0021933501391, 59.96558154782898
1364.6686296022851, 59.445540809157706
1367.525377463107, 59.9109058919438
1370.3821253239287, 59.957239602219985
1373.2388731847504, 60.07341187458116
1376.0956210455722, 60.11974558485735
1378.952368906394, 59.86344552609859
1382.047179088951, 61.12805537515338
1381.8091167672158, 59.793381632899795
1381.8091167672158, 58.76908272232001
1384.6658646280375, 61.096809460705735
1384.4278023063025, 59.90181284262212
1387.2845501671243, 60.010225274751626
1390.3793603496813, 60.2117370120683
1392.9980458887678, 59.96321557113403
1396.0928560713248, 60.28112491192567
1398.9496039321466, 60.25762006011688
