202, 0.7790899865194357
202.5, 0.7789972590474822
203, 0.7789130904917505
203.5, 0.7788183596779724
204, 0.7788098386672674
204.5, 0.7788098330791546
205, 0.7786673463455157
205.5, 0.7784738107801124
206, 0.7783130981914066
206.5, 0.7781167457585867
207, 0.7780207960811303
207.5, 0.7779214906818811
208, 0.7777832117112146
208.5, 0.7775837575783466
209, 0.777428337286278
209.5, 0.7772273375268369
210, 0.7771249678173858
210.5, 0.7770237657024893
211, 0.7769948273438012
211.5, 0.7769945314586462
212, 0.7769497950247134
212.5, 0.7768483164916031
213, 0.7767723776976339
213.5, 0.776670750870184
214, 0.7766320388947502
214.5, 0.7766319958539822
215, 0.7765629216368114
215.5, 0.776359968533651
216, 0.7762072030095342
216.5, 0.7760046363946439
217, 0.7758506817876516
217.5, 0.7756489876301677
218, 0.7754942224934298
218.5, 0.7752941741672182
219, 0.7751795697943219
219.5, 0.775179068569223
220, 0.7751426427910482
220.5, 0.7749450855226382
221, 0.7747858904155475
221.5, 0.7745907032523253
222, 0.7744408925739392
222.5, 0.7743443985928157
223, 0.7742618540652342
223.5, 0.7741664825688834
224, 0.774082873141284
224.5, 0.773988890627135
225, 0.7739037698850051
225.5, 0.7738113118715446
226, 0.7737245262828688
226.5, 0.7736333920902937
227, 0.7735449350235226
227.5, 0.7733673844348293
228, 0.7731862200014447
228.5, 0.7730968551413409
229, 0.773005017984566
229.5, 0.7730008221659596
230, 0.7730007158405906
230.5, 0.772923081984684
231, 0.7728283343107194
231.5, 0.77274615602974
232, 0.7726496624051146
232.5, 0.7726380855325092
233, 0.7726377826845978
233.5, 0.772637709808003
234, 0.7726377083161313
234.5, 0.7726377078743776
235, 0.7726377078663429
235.5, 0.7726377092077785
236, 0.7726377092405162
236.5, 0.7726379562696911
237, 0.7726379953797464
237.5, 0.7726885101818446
238, 0.7727894883218198
238.5, 0.7728662335692442
239, 0.7729678598353021
239.5, 0.7730876409011976
240, 0.7732910328634593
240.5, 0.77348233694359
241, 0.7737869762256571
241.5, 0.7739816566593667
242, 0.7741847097520724
242.5, 0.7743371605367051
243, 0.7745403280511616
243.5, 0.7747232469725396
244, 0.7750267985780778
244.5, 0.7752841097633856
245, 0.7756866498399924
245.5, 0.7759974799829932
246, 0.7763978139323582
246.5, 0.7767313408008086
247, 0.7772273853754482
247.5, 0.7776068304780869
248, 0.7779999131133336
248.5, 0.7783076470328494
249, 0.7785998261181593
249.5, 0.7788557209711754
250, 0.7792408124423589
250.5, 0.7795799792161635
251, 0.7800544212400207
251.5, 0.7804749474645728
252, 0.7809416567959441
252.5, 0.7813668779999711
253, 0.781734260245165
253.5, 0.7820856381446312
254, 0.7825365170337024
254.5, 0.7829826467119514
255, 0.7834219042517726
255.5, 0.7838790528345904
256, 0.7842300817513745
256.5, 0.7845991182259797
257, 0.7849391137956985
257.5, 0.7853155492822977
258, 0.785801189419581
258.5, 0.7863740468380139
259, 0.786865508530547
259.5, 0.787446644106248
260, 0.7877952228242443
260.5, 0.788187457552977
261, 0.7885069204181053
261.5, 0.7889023488455288
262, 0.7892778175595331
262.5, 0.7897760209423195
263, 0.7901090670703793
263.5, 0.7905107885834489
264, 0.7907154151121061
264.5, 0.7909178377267573
265, 0.791170308963867
265.5, 0.7915753335539322
266, 0.7919262093840488
266.5, 0.7924338877067183
267, 0.7927317988295074
267.5, 0.7930374023541166
268, 0.7932658425899161
268.5, 0.7935705123074579
269, 0.7938020519427196
269.5, 0.7941065185120093
270, 0.7943353063178191
270.5, 0.7946393934941052
271, 0.7948698927616621
271.5, 0.795172538414419
272, 0.7953798407510853
272.5, 0.7955806977119178
273, 0.7957369590785964
273.5, 0.7959364414071234
274, 0.7960940895904286
274.5, 0.7962922261433442
275, 0.7964672785713742
275.5, 0.7967612921834868
276, 0.797003177128848
276.5, 0.7972935399353384
277, 0.7975292803143614
277.5, 0.7977204512798471
278, 0.7978873000642006
278.5, 0.7980755870236285
279, 0.7982401378836316
279.5, 0.7983327046752954
280, 0.7984194433894851
280.5, 0.7985109629842517
281, 0.7985994855412365
281.5, 0.7987778648293328
282, 0.7989582483181052
282.5, 0.7990474936908825
283, 0.7991389692386942
283.5, 0.7991423065368509
284, 0.7991426365470358
284.5, 0.7991433139681157
285, 0.7991429329428329
285.5, 0.7992919952689187
286, 0.7994835139391611
286.5, 0.7996458910599618
287, 0.7998406172481923
287.5, 0.799868363909317
288, 0.7998688766870444
288.5, 0.7999318205770594
289, 0.8000307487402176
289.5, 0.8001091640305283
290, 0.8002091357149036
290.5, 0.8002869210210442
291, 0.8003875276624033
291.5, 0.8004649618574475
292, 0.8005661287861027
292.5, 0.8006905298456755
293, 0.800893255293118
293.5, 0.8010457900343573
294, 0.8012490458687415
294.5, 0.8013613989805326
295, 0.8014634775614031
295.5, 0.8015764203984562
296, 0.801779356790668
296.5, 0.8018995815889022
297, 0.8020007743281488
297.5, 0.8020471657493259
298, 0.8020474553915888
298.5, 0.8020744694487321
299, 0.802175194069903
299.5, 0.8022525480697402
300, 0.8023527199516673
300.5, 0.8024310042000738
301, 0.8025304461005808
301.5, 0.8026095603243866
302, 0.8027081373134122
302.5, 0.8027882941862491
303, 0.8028861674236076
303.5, 0.8029790586705753
304, 0.8031717488452135
304.5, 0.8033272179778109
305, 0.8034218738252165
305.5, 0.8034995361630496
306, 0.803499316882715
306.5, 0.8034996914541859
307, 0.8035003698086122
307.5, 0.8035038323534891
308, 0.8036854787153995
308.5, 0.8038625296624384
309, 0.8040391281790824
309.5, 0.8042211810918123
310, 0.8043113268228086
310.5, 0.8044028971920074
311, 0.8045687043469387
311.5, 0.8047563603800671
312, 0.804846767725871
312.5, 0.8049423739185319
313, 0.8050250505817199
313.5, 0.8051214662592541
314, 0.805271318090196
314.5, 0.8054664603975499
315, 0.8055614859676317
315.5, 0.8056603769556805
316, 0.8058010470762291
316.5, 0.8059997888333711
317, 0.8062133021802298
317.5, 0.8065137371379716
318, 0.8066925810325031
318.5, 0.8068944455506195
319, 0.8070481331260229
319.5, 0.8072505020022128
320, 0.8073108495728442
320.5, 0.8073110298198524
321, 0.8072263544807803
321.5, 0.8070233522888957
322, 0.8069104637164876
322.5, 0.806808745496615
323, 0.8067314006424763
323.5, 0.8066298800215065
324, 0.8065539864464086
324.5, 0.806452961959325
325, 0.8064338943373592
325.5, 0.8065350604911171
326, 0.8066372411760699
326.5, 0.8068380696354672
327, 0.8069710296753064
327.5, 0.8070706676520332
328, 0.8071302225656988
328.5, 0.8071301858379464
329, 0.8071306313306493
329.5, 0.8071312217922104
330, 0.8071582812164037
330.5, 0.8073534180229003
331, 0.8075374886161886
331.5, 0.8079213023301485
332, 0.808244406856147
332.5, 0.8085274427002327
333, 0.8087699468692661
333.5, 0.8088626342148175
334, 0.8089493309243446
334.5, 0.8090412329373731
335, 0.8091298451587111
335.5, 0.8093098216911819
336, 0.809488653704135
336.5, 0.8096638246618029
337, 0.8098471638687282
337.5, 0.8099368839137041
338, 0.8100295738498356
338.5, 0.8100344197238944
339, 0.8100349479748697
339.5, 0.8099592408157003
340, 0.8098639319234023
340.5, 0.8097103824665353
341, 0.8095168109205153
341.5, 0.8092886346579937
342, 0.8089945499006247
342.5, 0.8088837007634788
343, 0.8087840410910738
343.5, 0.808824740950598
344, 0.808924018200528
344.5, 0.8090017332922643
345, 0.809102205714552
345.5, 0.8091792834431821
346, 0.8092802301559396
346.5, 0.8093085882967045
347, 0.8093087960403786
347.5, 0.8093089495249641
348, 0.8093089498901218
348.5, 0.8093087563069692
349, 0.8093086151024952
349.5, 0.809271163364585
350, 0.8091697592166608
350.5, 0.8090930964758372
351, 0.8089920199549966
351.5, 0.8089776683912658
352, 0.809079243760721
352.5, 0.8092106416901627
353, 0.809512952605782
353.5, 0.8097204339410276
354, 0.8099208349938279
354.5, 0.8100562599279595
355, 0.8101561292459127
355.5, 0.8102533609007114
356, 0.8104506956537185
356.5, 0.81059491117778
357, 0.8106926311122217
357.5, 0.8107737930195859
358, 0.8108701842967796
358.5, 0.8109426709483214
359, 0.8109425044865394
359.5, 0.8109428953354711
360, 0.8109435546225464
360.5, 0.8109527196419823
361, 0.8111380115050415
361.5, 0.8113084031538591
362, 0.8113986671186041
362.5, 0.8114874338382954
363, 0.8114868971115472
363.5, 0.8114874152767055
364, 0.8116595451236254
364.5, 0.8118425637757127
365, 0.8120952178142559
365.5, 0.8123757628509002
366, 0.8125496482645402
366.5, 0.8127401185478103
367, 0.8128315100936585
367.5, 0.8129281013632592
368, 0.8130095074105409
368.5, 0.8131069412834996
369, 0.8131865874042725
369.5, 0.8132851721562806
370, 0.8132400967525093
370.5, 0.8131413112936188
371, 0.813063388198849
371.5, 0.812963311026744
372, 0.8129401428103814
372.5, 0.8129399024355071
373, 0.8129400071890969
373.5, 0.8129400746422005
374, 0.8129873519879006
374.5, 0.8130887601858335
375, 0.8132084288170273
375.5, 0.8134116743886646
376, 0.8135635654627208
376.5, 0.8137667356628477
377, 0.8139208249407591
377.5, 0.8141237482281384
378, 0.8142433324938718
378.5, 0.8143451296431454
379, 0.8144515881880953
379.5, 0.8146538362199651
380, 0.8148076067193288
380.5, 0.8150084830834256
381, 0.8151177262313528
381.5, 0.8151177338887707
382, 0.8151183587064424
382.5, 0.8151186356636181
383, 0.8151357151146068
383.5, 0.8152344970294367
384, 0.8153285617379886
384.5, 0.8155234670994348
385, 0.8156859956845331
385.5, 0.8158787880326416
386, 0.8160527572419269
386.5, 0.8163377615862194
387, 0.8165896116790565
387.5, 0.8168694637259126
388, 0.8171190150862229
388.5, 0.8172100653848732
389, 0.8172967162957567
389.5, 0.8172963941761379
390, 0.8172967459727526
390.5, 0.817296746438257
391, 0.817296748229987
391.5, 0.8172967483135206
392, 0.8172967483042283
392.5, 0.8172967500243723
393, 0.8172967489221572
393.5, 0.8172970720447593
394, 0.8172969008894032
394.5, 0.8173701897497793
395, 0.8174662322746105
395.5, 0.8177523668522827
396, 0.8181428386656276
396.5, 0.818461610965391
397, 0.8188568993037836
397.5, 0.8191117847231284
398, 0.8194109789831282
398.5, 0.8196446042019532
399, 0.8199455645491701
399.5, 0.8200185058080959
400, 0.8200191563100281
400.5, 0.8199707013110693
401, 0.8198697589378972
401.5, 0.8198846278192602
402, 0.8199858514106868
402.5, 0.8200616636058542
403, 0.8201632794145698
403.5, 0.8202010123188893
404, 0.8202011102983268
404.5, 0.8202367416979044
405, 0.8203382705872508
405.5, 0.820414419638769
406, 0.8205155969347127
406.5, 0.8205643265657239
407, 0.820564610007422
407.5, 0.8205897459745443
408, 0.8206899316341012
408.5, 0.8207457678330708
409, 0.8207457606066941
409.5, 0.8207462151678074
410, 0.820746777125612
410.5, 0.8207784180503193
411, 0.8209743725939675
411.5, 0.8211221258380466
412, 0.8212189741996005
412.5, 0.8213011912275305
413, 0.8213972623749312
413.5, 0.821488103698539
414, 0.8216771100837105
414.5, 0.8218461126668705
415, 0.82203194524249
415.5, 0.822204498639333
416, 0.8223870803824748
416.5, 0.8225631386548312
417, 0.8227414179678879
417.5, 0.8229219198634669
418, 0.8230114848251268
418.5, 0.8231025717101663
419, 0.8231885045088685
419.5, 0.823281712039939
420, 0.8233657658696387
420.5, 0.8234606264550028
421, 0.8234697051496093
421.5, 0.823469564760419
422, 0.823682144580734
422.5, 0.823972772224442
423, 0.8242133794612029
423.5, 0.8245082229111753
424, 0.824620773092302
424.5, 0.8247204403353531
425, 0.8248586404101325
425.5, 0.8250582304108651
426, 0.8252688876642267
426.5, 0.8255703189634759
427, 0.8257498128750466
427.5, 0.8259520651293921
428, 0.8260102025631973
428.5, 0.826010702905997
429, 0.8260550445733872
429.5, 0.8261564229709915
430, 0.8261917098086151
430.5, 0.8261917203577791
431, 0.8261549179426485
431.5, 0.8260534390423161
432, 0.8260448060524387
432.5, 0.8261464872049065
433, 0.8262535434870572
433.5, 0.826456398579893
434, 0.82666420443862
434.5, 0.8270673142486588
435, 0.8273768210499788
435.5, 0.827777170288166
436, 0.828048759387408
436.5, 0.8282476989602329
437, 0.8284062644660337
437.5, 0.8286032477819624
438, 0.8287484629276832
438.5, 0.8288457093033113
439, 0.828915248057086
439.5, 0.8289154248400958
440, 0.8289249772444833
440.5, 0.8290203987891911
441, 0.8291038259884145
441.5, 0.8291976720106062
442, 0.8292829638594958
442.5, 0.8293756073064031
443, 0.8294644253894582
443.5, 0.8296459870182543
444, 0.829823139406113
444.5, 0.830000076226276
445, 0.830181826137351
445.5, 0.8301866846538689
446, 0.8301862355914618
446.5, 0.8302680906578819
447, 0.8303611089998831
447.5, 0.8305986821566496
448, 0.830883982313776
448.5, 0.8309845903143483
449, 0.831081683645443
449.5, 0.8311629617808328
450, 0.8312605697817773
450.5, 0.8313403391048413
451, 0.8314390024541578
451.5, 0.8314568280379702
452, 0.8314570761888038
452.5, 0.8315148803266061
453, 0.8316148172596328
453.5, 0.831693017826233
454, 0.831793924122856
454.5, 0.8320214384610707
455, 0.8324257227702283
455.5, 0.8327311904440712
456, 0.8331370865405413
456.5, 0.8333144962663988
457, 0.8334170025134696
457.5, 0.8335715809564851
458, 0.8338759810665478
458.5, 0.8341434203660151
459, 0.834549758365534
459.5, 0.8348869367581043
460, 0.8353941193280804
460.5, 0.8357775698407823
461, 0.8362827991050796
461.5, 0.8366431177959229
462, 0.837045504934733
462.5, 0.837356744989218
463, 0.837756025556519
463.5, 0.8380308843525168
464, 0.8382283332407972
464.5, 0.8383382343932073
465, 0.8382400409671628
465.5, 0.8381742725250901
466, 0.8381749928635659
466.5, 0.838196401411628
467, 0.8383884663781672
467.5, 0.8385454100882828
468, 0.838640271155393
468.5, 0.8387306975206673
469, 0.8389184637324604
469.5, 0.8390997877942602
470, 0.839558645643138
470.5, 0.8399947096732389
471, 0.8403538093734017
471.5, 0.8407123688054984
472, 0.840975787670546
472.5, 0.8412509389181019
473, 0.8415108869977779
473.5, 0.841788678538185
474, 0.8418830879629379
474.5, 0.8419782919924097
475, 0.8419868741543769
475.5, 0.8419867108815192
476, 0.8422022655801614
476.5, 0.8424919937254671
477, 0.8428008692167824
477.5, 0.8431928450584447
478, 0.8433202546042758
478.5, 0.8434199601751526
479, 0.8436190792855014
479.5, 0.8439178380692326
480, 0.8441508082272439
480.5, 0.844452046006535
481, 0.8445270050374494
481.5, 0.8445277499103826
482, 0.8445775699888083
482.5, 0.8446789916261722
483, 0.8448907456891038
483.5, 0.8452968461230926
484, 0.8456426731231009
484.5, 0.8461510506225296
485, 0.8464556914806717
485.5, 0.8467606487787284
486, 0.8469577419629343
486.5, 0.8471606564289467
487, 0.8473130242095581
487.5, 0.8475154736569288
488, 0.8476417156851771
488.5, 0.8477429128000592
489, 0.8478452089185047
489.5, 0.8480461592178781
490, 0.8482233114347987
490.5, 0.8485220654281008
491, 0.8487400351531225
491.5, 0.8489376721083999
492, 0.84909768067373
492.5, 0.849294035543016
493, 0.8494808732849891
493.5, 0.8498682456457869
494, 0.8501958507005999
494.5, 0.8505777089335201
495, 0.8509041497696026
495.5, 0.8511864615667656
496, 0.8514415814404975
496.5, 0.8517202484374219
497, 0.851984687771054
497.5, 0.8524403707105198
498, 0.8528813085265333
498.5, 0.8533255764752726
499, 0.8537781807344104
499.5, 0.8539595589930239
500, 0.8541419026535598
500.5, 0.8543950100161989
501, 0.8546752585320572
501.5, 0.8548494987671218
502, 0.8550396059762017
502.5, 0.8552050682528515
503, 0.8553974579834416
503.5, 0.8555600171046113
504, 0.855754842993034
504.5, 0.8558491331936602
505, 0.8559478132275781
505.5, 0.8560274674891202
506, 0.8561267185656526
506.5, 0.8562637205624655
507, 0.8564635389506434
507.5, 0.8566193727336806
508, 0.8568207613098093
508.5, 0.8570780008216159
509, 0.8574823960932376
509.5, 0.8579777327370771
510, 0.8587886671487697
510.5, 0.8593115224679767
511, 0.859921718998085
511.5, 0.8602591386927934
512, 0.8605646322749424
512.5, 0.8607207713185163
513, 0.8608226149065774
513.5, 0.8608334879157212
514, 0.8607324417126025
514.5, 0.860716012077987
515, 0.8608179366256115
515.5, 0.8610002095185916
516, 0.8615031492095058
516.5, 0.86184364799717
517, 0.8621434672989695
517.5, 0.8623386892632188
518, 0.8624379961795553
518.5, 0.8625177482154592
519, 0.8626162350212592
519.5, 0.8626964935336369
520, 0.8627942670555272
520.5, 0.8628870715768372
521, 0.8630798534492985
521.5, 0.8632447806425523
522, 0.8634354947930395
522.5, 0.8636160406370234
523, 0.8639915777845554
523.5, 0.8643406638898766
524, 0.8648931263226337
524.5, 0.865414232468899
525, 0.8658649548775085
525.5, 0.866311255012913
526, 0.8665754688767485
526.5, 0.8668497636247536
527, 0.8670269004817291
527.5, 0.8672109554506631
528, 0.867381369061286
528.5, 0.8675692009790991
529, 0.8678132365065386
529.5, 0.8680989771511901
530, 0.8684181471304243
530.5, 0.8688044781030303
531, 0.8691280053823921
531.5, 0.8695191929350792
532, 0.8697733904234678
532.5, 0.8700700383228834
533, 0.8701848668708386
533.5, 0.8702850189135181
534, 0.8703068069436608
534.5, 0.8703070926189671
535, 0.8704142972656023
535.5, 0.870615650190679
536, 0.8708682090856456
536.5, 0.8712728790336328
537, 0.8715330532785758
537.5, 0.8718380130399249
538, 0.8720676310029883
538.5, 0.8723731410957377
539, 0.8726781575327988
539.5, 0.8731857086548237
540, 0.8735709575142773
540.5, 0.8740783207966005
541, 0.8744278189742822
541.5, 0.874833735601154
542, 0.8751697341555942
542.5, 0.8756747710347408
543, 0.8760606506891607
543.5, 0.8765623888371885
544, 0.8768855075884776
544.5, 0.8770846288000784
545, 0.8772047391119905
545.5, 0.8772046557070104
546, 0.8772053820228545
546.5, 0.8772059746699791
547, 0.8772324991082154
547.5, 0.8774274322190703
548, 0.8776112800096456
548.5, 0.8779949442534059
549, 0.87832679678535
549.5, 0.8787054367601603
550, 0.8790543214456134
550.5, 0.8796132380412057
551, 0.8801324127740471
551.5, 0.8807708111124087
552, 0.8813825523777733
552.5, 0.8815596813720652
553, 0.8817414217072816
553.5, 0.8815705564420794
554, 0.8813874715428162
554.5, 0.8813834020915149
555, 0.8813812900717097
555.5, 0.8818560252026896
556, 0.8824211333784185
556.5, 0.883067210809189
557, 0.8838347893276355
557.5, 0.8840599096863985
558, 0.8842566593336617
558.5, 0.8840147931261279
559, 0.8836239721893595
559.5, 0.8832439927185448
560, 0.8827486983065981
560.5, 0.8825339867061592
561, 0.8823334369889276
561.5, 0.882176859056291
562, 0.8819757379356418
562.5, 0.8817179898725513
563, 0.88131437855569
563.5, 0.8811048322142581
564, 0.8809020210640779
564.5, 0.8809715343939374
565, 0.8812758537093217
565.5, 0.8815854534526267
566, 0.8820938487623446
566.5, 0.882436521960906
567, 0.8828427638466005
567.5, 0.8831511632783802
568, 0.8835561532166074
568.5, 0.8837385582954257
569, 0.8837375716670199
569.5, 0.8835754971777191
570, 0.8829712462242687
570.5, 0.8825560738742471
571, 0.8821560350813779
571.5, 0.8819262858475808
572, 0.8819263677878219
572.5, 0.8819250978966771
573, 0.8819245214793756
573.5, 0.8818944246331909
574, 0.881697914460913
574.5, 0.8815001978322266
575, 0.881017474601836
575.5, 0.880626049830245
576, 0.8803416833721096
576.5, 0.8801173419982813
577, 0.880211480136484
577.5, 0.8802865508288653
578, 0.8801929495456968
578.5, 0.8801027413358642
579, 0.8798299080914972
579.5, 0.879564726023148
580, 0.8792994163214259
580.5, 0.8790267096550848
581, 0.8785931591190579
581.5, 0.8781341622445158
582, 0.8777892379735781
582.5, 0.8774136969876143
583, 0.8772327303997977
583.5, 0.8770420452474436
584, 0.8768018864162285
584.5, 0.8765137279417715
585, 0.8759212873065622
585.5, 0.875142828375891
586, 0.8743058046225233
586.5, 0.8732225924923153
587, 0.8724763742368761
587.5, 0.8715810585364255
588, 0.8709924578599951
588.5, 0.8702909194381652
589, 0.8698561308976689
589.5, 0.8693519976640689
590, 0.8690669510814293
590.5, 0.868762812860481
591, 0.8684853841200647
591.5, 0.8680792380526021
592, 0.8676872743144666
592.5, 0.867077026950505
593, 0.8665426236121567
593.5, 0.8657302282426008
594, 0.8651509892044764
594.5, 0.8644413251860998
595, 0.8641040320650356
595.5, 0.8640025960627831
596, 0.8640113422041884
596.5, 0.864212038140734
597, 0.8642091724302027
597.5, 0.8638054054215202
598, 0.8633591798412853
598.5, 0.862359200627821
599, 0.8615761481561182
599.5, 0.8605843736325788
600, 0.8598245756946307
600.5, 0.8590389428162526
601, 0.8584372333139293
601.5, 0.8579520085117294
602, 0.8575768814562593
602.5, 0.8573857222396273
603, 0.857235998061084
603.5, 0.8572363790024111
604, 0.8572356964401048
604.5, 0.857235362330514
605, 0.8572318963479121
605.5, 0.8571394991226053
606, 0.8570511844263965
606.5, 0.8568710855052764
607, 0.8566923964148933
607.5, 0.8566042320959673
608, 0.8565124738415761
608.5, 0.8565087872020236
609, 0.8565093806914212
609.5, 0.8563488777176895
610, 0.8561614373520084
610.5, 0.8558426243948396
611, 0.8554609492160287
611.5, 0.855060789085801
612, 0.8545769811453965
612.5, 0.8541053394455301
613, 0.8535179105321477
613.5, 0.853104359179924
614, 0.8526095029274836
614.5, 0.8523373185754062
615, 0.852037573267419
615.5, 0.8520869112805977
616, 0.8522865500609818
616.5, 0.85270394770885
617, 0.853409323758229
617.5, 0.8538970238909854
618, 0.8545050035935944
618.5, 0.85478257817678
619, 0.8549862451362278
619.5, 0.8550141273611338
620, 0.8549125882413211
620.5, 0.8547612967857018
621, 0.8544569165542102
621.5, 0.8542261113835796
622, 0.8539220375445638
622.5, 0.8537560658643862
623, 0.8536549714443316
623.5, 0.853633801450075
624, 0.8537351016094495
624.5, 0.8538613127840481
625, 0.854162215609184
625.5, 0.8543737678515084
626, 0.8545721201292557
626.5, 0.8546557788332624
627, 0.8544574994275745
627.5, 0.8542836007854363
628, 0.8539896717998626
628.5, 0.8537475636707315
629, 0.8534566873293294
629.5, 0.8532008256879475
630, 0.8528187891945143
630.5, 0.8525007187154074
631, 0.8523135868342437
631.5, 0.8521580422142527
632, 0.8522515593238454
632.5, 0.8523369690984717
633, 0.852427761541551
633.5, 0.8525156537901686
634, 0.8525153122610817
634.5, 0.8525156586225547
635, 0.8525156580033969
635.5, 0.8525156647051064
636, 0.852513990759386
636.5, 0.8525151591871512
637, 0.8521222677431922
637.5, 0.8516504607121714
638, 0.8510146917476368
638.5, 0.8502461516788001
639, 0.8498773276354176
639.5, 0.8494865241805021
640, 0.8494312782931334
640.5, 0.8494300336874735
641, 0.8494912457860824
641.5, 0.8495903309840133
642, 0.8494326768626981
642.5, 0.8491337394322727
643, 0.848735379223537
643.5, 0.8481323087462247
644, 0.8475668726363472
644.5, 0.846758329539039
645, 0.8460975884076043
645.5, 0.8451847255605941
646, 0.8445853089851785
646.5, 0.8438734665983375
647, 0.843460621382534
647.5, 0.8430534932458158
648, 0.8428583920641609
648.5, 0.8427564535489627
649, 0.8427120451873593
649.5, 0.8427116755937817
650, 0.8426513438441313
650.5, 0.842448402344622
651, 0.8422140084776611
651.5, 0.8417091852751899
652, 0.841204277611323
652.5, 0.8402025436593616
653, 0.8394009974447817
653.5, 0.8383090151228334
654, 0.8375431899370378
654.5, 0.8370513987478096
655, 0.8366777610088179
655.5, 0.8363841258030308
656, 0.8360928903676955
656.5, 0.8354162945829621
657, 0.8348042560006307
657.5, 0.8337578869177854
658, 0.8328494934230951
658.5, 0.8320086111063412
659, 0.8312630366459238
659.5, 0.8309885281360206
660, 0.830726817370419
660.5, 0.8305458767862551
661, 0.8303680084487232
661.5, 0.8301031361275533
662, 0.8298302035353221
662.5, 0.8296523558585477
663, 0.8294690312062574
663.5, 0.8291364184201326
664, 0.8287618015581439
664.5, 0.8282729029321687
665, 0.8277019497835526
665.5, 0.8270631978144362
666, 0.826290891713449
666.5, 0.825781412949011
667, 0.8251943013084831
667.5, 0.8249089738248627
668, 0.8246121522340591
668.5, 0.8242522693901873
669, 0.8237551269985804
669.5, 0.823307556589457
670, 0.8227063185039251
670.5, 0.8223486329182716
671, 0.8219448871615651
671.5, 0.821685983308522
672, 0.8213818025238592
672.5, 0.8210595805884249
673, 0.8205520945791949
673.5, 0.8201706052136526
674, 0.819661901171082
674.5, 0.8192817750360616
675, 0.8187739135941727
675.5, 0.8183884822861272
676, 0.8178812558270047
676.5, 0.8175643969789081
677, 0.8172601459070564
677.5, 0.81705799653548
678, 0.8168558395197847
678.5, 0.816701197606707
679, 0.8165003722946452
679.5, 0.8163668014449185
680, 0.8162666574701117
680.5, 0.8161684735311042
681, 0.8159699610523324
681.5, 0.8157951597599872
682, 0.815501146040636
682.5, 0.8152865384633263
683, 0.8151893447195597
683.5, 0.8150963628004059
684, 0.8149040510660811
684.5, 0.8147303163661278
685, 0.8144460301998445
685.5, 0.8141875025223366
686, 0.8138147918982529
686.5, 0.8134709279622689
687, 0.8131055594423612
687.5, 0.812755994692438
688, 0.8125774605338035
688.5, 0.8123971471783556
689, 0.8123088245620503
689.5, 0.8122168741631991
690, 0.8122961619105779
690.5, 0.8123894142717604
691, 0.8123140916482681
691.5, 0.8122210605293456
692, 0.8118367861109252
692.5, 0.811358925283901
693, 0.8109508034768877
693.5, 0.8104654061664559
694, 0.8101972305683858
694.5, 0.8099023315318873
695, 0.8096634603843091
695.5, 0.8093663500991134
696, 0.8091303319541558
696.5, 0.8088308346767872
697.0000000000001, 0.8085970849885328
697.5, 0.808295606901759
698, 0.8080637027270405
698.5, 0.8077606534570063
699.0000000000001, 0.8075306170094112
699.5000000000001, 0.8072265802088515
700, 0.8070869267415036
700.5, 0.8069851323810208
701, 0.8069901230140498
701.5000000000001, 0.8070911439897392
702.0000000000001, 0.8070547576016918
702.5, 0.8068520884333504
703, 0.8066986140816701
703.5000000000001, 0.8064960871092344
704.0000000000001, 0.8064049113990908
704.5000000000001, 0.8064047539672254
705, 0.8064040267602229
705.5, 0.8064035553476933
706.0000000000001, 0.8063549004438169
706.5000000000001, 0.8061538244635584
707.0000000000001, 0.8059557964017591
707.5, 0.8055571035813841
708, 0.8052238422334843
708.5, 0.8047300129158614
709, 0.80433135196785
709.5, 0.8038442494979293
710.0000000000001, 0.8035134059604219
710.5000000000001, 0.8036117893830905
711.0000000000001, 0.803720799413655
711.5000000000001, 0.8041023489567457
712, 0.804421545559134
712.5, 0.8046085263791497
713, 0.8047702164283668
713.5, 0.8047690228782456
714, 0.8047653514706203
714.5000000000001, 0.8045830366883521
715.0000000000001, 0.8044067276872233
715.5000000000001, 0.8042294839152297
716.0000000000001, 0.8040480154353431
716.5000000000001, 0.8038725508371228
717, 0.8036893443103184
717.5, 0.803518978819173
718, 0.8033313389391336
718.5, 0.8033191707270009
719, 0.8033183379887152
719.5000000000001, 0.803391716417817
720.0000000000001, 0.8034878509870005
720.5000000000001, 0.8034992691697236
721.0000000000001, 0.803499571427192
721.5000000000001, 0.8034993576410736
722, 0.8034994241507695
722.5, 0.8034376628363065
723, 0.8033385478486172
723.5, 0.8033192671921281
724, 0.8033190256866759
724.5000000000001, 0.8034821055572443
725.0000000000001, 0.8037835189893453
725.5000000000001, 0.8040144334996377
726.0000000000001, 0.8043179783167141
726.5000000000001, 0.8045480290737036
727, 0.8048525817430426
727.5, 0.8050818007639704
728, 0.805386946399251
728.5, 0.8056150439594056
729, 0.805919797744207
729.5000000000001, 0.8061504932461075
730.0000000000001, 0.806454418855266
730.5000000000001, 0.8065510992095133
731.0000000000001, 0.806449187302119
731.5000000000001, 0.8062557361615257
732, 0.8057504965064309
732.5, 0.8053922663038856
733, 0.8049903081477195
733.5, 0.8047484888841618
734.0000000000001, 0.8046492196803339
734.5000000000001, 0.8046297829132635
735.0000000000001, 0.8048287292764434
735.5000000000001, 0.8050032054995786
736.0000000000001, 0.8052978770281494
736.5, 0.8055103329536253
737, 0.8056071826650608
737.5, 0.8056779679135494
738, 0.8056778220477093
738.5, 0.8056781807681228
739.0000000000001, 0.8056785023830296
739.5000000000001, 0.8056844648669519
740.0000000000001, 0.8057774816165425
740.5000000000001, 0.805855561187687
741.0000000000001, 0.8057617670075078
741.5, 0.8056698658584328
742, 0.8052187324576249
742.5, 0.8047729583907459
743, 0.8045962368964911
743.5, 0.804412840349257
744.0000000000001, 0.8046611978734738
744.5000000000001, 0.8049373169767363
745.0000000000001, 0.8055127734361591
745.5000000000001, 0.8061705944279457
746.0000000000001, 0.8067531758661362
746.5, 0.8074225925845033
747, 0.8077078064208877
747.5, 0.8079994949146388
748, 0.8081737232197889
748.5, 0.8083698626135057
749.0000000000001, 0.8084645430167444
749.5000000000001, 0.8085637684645727
750.0000000000001, 0.8085210887980393
750.5000000000001, 0.8084219948723338
751.0000000000001, 0.8082309477515679
751.5, 0.8079304056031114
752, 0.8077517902735186
752.5, 0.8075498407970428
753, 0.8074945064177229
753.5000000000001, 0.8074941621465379
754.0000000000001, 0.8075393920326124
754.5000000000001, 0.8076408102191088
755.0000000000001, 0.807716781771342
755.5000000000001, 0.8078184001873994
756.0000000000001, 0.8078562868035836
756.5, 0.8078564271618812
757, 0.8078567960168587
757.5, 0.8078569815193758
758, 0.807888312434216
758.5000000000001, 0.8079893906539464
759.0000000000001, 0.8080374513805691
759.5000000000001, 0.8080368174700225
760.0000000000001, 0.8079624053416737
760.5000000000001, 0.8076614083837352
761, 0.8074504526476807
761.5, 0.8072519974259555
762, 0.8071693330814504
762.5, 0.8073679998094608
763, 0.8075577352713451
763.5000000000001, 0.8079499537522994
764.0000000000001, 0.8082720585212594
764.5000000000001, 0.8086591631353196
765.0000000000001, 0.8089661689364602
765.5000000000001, 0.8091559871122185
766, 0.8092926503370074
766.5, 0.8091017950552464
767, 0.8089133777479732
767.5, 0.8083548359128091
768, 0.8078355709299212
768.5000000000001, 0.8071976097583817
769.0000000000001, 0.806582721497576
769.5000000000001, 0.806227113544966
770.0000000000001, 0.8058651279647814
770.5000000000001, 0.8059462917265935
771, 0.8060377000469591
771.5, 0.8062059091511545
772, 0.8063923205498084
772.5, 0.8064816475449998
773.0000000000001, 0.8065770734212484
773.5000000000001, 0.8065093991343848
774.0000000000001, 0.806414611103003
774.5000000000001, 0.8060502327558351
775.0000000000001, 0.8055653860911461
775.5000000000001, 0.8051643783988921
776, 0.804672852449666
776.5, 0.8044653583629482
777, 0.8042660643322237
777.5, 0.8042869340418272
778.0000000000001, 0.8043860811309912
778.5000000000001, 0.8046843108300183
779.0000000000001, 0.8051862290692186
779.5000000000001, 0.8055195996159897
780.0000000000001, 0.8059239853906095
780.5, 0.8060878452760019
781, 0.806189910369983
781.5, 0.8062666357530843
782, 0.8063682024341814
782.5, 0.8064043410186239
783.0000000000001, 0.8064047900493606
783.5000000000001, 0.8064786536048096
784.0000000000001, 0.8066815154819534
784.5000000000001, 0.8067670598431012
785.0000000000001, 0.8067664206772672
785.5, 0.8066760265269759
786, 0.8063729712895502
786.5, 0.8061964885908441
787, 0.8060958562991724
787.5, 0.8060413711568647
788.0000000000001, 0.8060411054294508
788.5000000000001, 0.8060202577778988
789.0000000000001, 0.805920762948562
789.5000000000001, 0.8058419531535854
790.0000000000001, 0.8057433453293995
790.5, 0.8056633761085972
791, 0.8055660711285079
791.5, 0.8054969550753047
792, 0.8054980293432618
792.5000000000001, 0.8055251166351521
793.0000000000001, 0.8058106205026269
793.5000000000001, 0.8060478113596384
794.0000000000001, 0.8061408382846151
794.5000000000001, 0.8062226344842172
795.0000000000001, 0.8062216815142842
795.5, 0.8062183651512521
796, 0.8060352232882569
796.5, 0.805859723438508
797, 0.805328385509796
797.5000000000001, 0.8047838021189866
798.0000000000001, 0.8043459251219335
798.5000000000001, 0.803885377447557
799.0000000000001, 0.8038658781780053
799.5000000000001, 0.8038633537247033
800.0000000000001, 0.8041709672081077
800.5, 0.8045509714590325
801, 0.8047327355762839
801.5, 0.8049269079160026
802, 0.8048130559269312
802.5000000000001, 0.8046187969590827
803.0000000000001, 0.8045904948911285
803.5000000000001, 0.8045897481214337
804.0000000000001, 0.8047730117396678
804.5000000000001, 0.8050707298577815
805, 0.8051316089839794
805.5, 0.8051323396989284
806, 0.8049708276315142
806.5, 0.8046690669400354
807, 0.8043387565450426
807.5000000000001, 0.8038331135325127
808.0000000000001, 0.8035434197625728
808.5000000000001, 0.8032385640539587
809.0000000000001, 0.8030951757662617
809.5000000000001, 0.8029934855407966
810, 0.8030335406424435
810.5, 0.8032359590012929
811, 0.8036417366636196
811.5, 0.8045549765728021
812.0000000000001, 0.8051110616881797
812.5000000000001, 0.8056172262641299
813.0000000000001, 0.805799337664992
813.5000000000001, 0.8055971584634637
814.0000000000001, 0.8053925559911593
814.5000000000001, 0.8049893481413098
815, 0.8045887501705887
815.5, 0.8037895535643648
816, 0.8031818339013608
816.5, 0.8024886340902735
817.0000000000001, 0.8019815944834322
817.5000000000001, 0.8015888621696518
818.0000000000001, 0.8012661614687787
818.5000000000001, 0.8008774137432595
819.0000000000001, 0.8005511028934692
819.5000000000001, 0.8001680545005646
820, 0.7998609582209237
820.5, 0.7997678436960914
821, 0.7996993813474949
821.5, 0.7998865277787575
822.0000000000001, 0.8000573673767682
822.5000000000001, 0.800239586112513
823.0000000000001, 0.8004120763135016
823.5000000000001, 0.8003201709594369
824.0000000000001, 0.8002326951574052
824.5000000000001, 0.799883693275888
825, 0.7995182025901185
825.5, 0.7992545718226107
826, 0.7989772289054724
826.5, 0.7987223309674274
827.0000000000001, 0.7984397669929693
827.5000000000001, 0.797963137372074
828.0000000000001, 0.7973897900791851
828.5000000000001, 0.7968283264518761
829.0000000000001, 0.7961494455952667
829.5, 0.7958560859176342
830, 0.7955606271127252
830.5, 0.7954492770012563
831, 0.7953496821926006
831.5000000000001, 0.7953317647830643
832.0000000000001, 0.7953314550736585
832.5000000000001, 0.7955557886410486
833.0000000000001, 0.7959566075508886
833.5000000000001, 0.7962649800935442
834.0000000000001, 0.7966688098625284
834.5, 0.7968783200106127
835, 0.7970812455382269
835.5, 0.7970993134959444
836, 0.7969980028243416
836.5000000000001, 0.7968397043790427
837.0000000000001, 0.796534873176709
837.5000000000001, 0.7963447350576148
838.0000000000001, 0.7961415135252984
838.5000000000001, 0.7959870895276033
839.0000000000001, 0.7957843454388077
839.5, 0.7956626975745352
840, 0.7955612938576382
840.5, 0.7954835862071248
841, 0.7953817493955934
841.5000000000001, 0.795206045166643
842.0000000000001, 0.794703152635977
842.5000000000001, 0.7942074226572435
843.0000000000001, 0.7932111520982802
843.5000000000001, 0.7924424738206842
844.0000000000001, 0.7915548943868431
844.5, 0.7909283684019118
845, 0.7906362547797832
845.5, 0.790429319548339
846, 0.7904300246347363
846.5000000000001, 0.7904390565282374
847.0000000000001, 0.7905360215884508
847.5000000000001, 0.7906478395623925
848.0000000000001, 0.7911196512891989
848.5000000000001, 0.7915476737214402
849.0000000000001, 0.7921015995361268
849.5, 0.7926068413310448
850, 0.7926033398624934
850.5, 0.792604908657634
851.0000000000001, 0.7921596420478663
851.5000000000001, 0.7917080938321013
852.0000000000001, 0.791097881787961
852.5000000000001, 0.7904564106228283
853.0000000000001, 0.7901046750414723
853.5000000000001, 0.7897285569670836
854, 0.7897811641613173
854.5, 0.7898750292514096
855, 0.7897325530452554
855.5, 0.7895423380018303
856.0000000000001, 0.7887485866474537
856.5000000000001, 0.7876801177873011
857.0000000000001, 0.7867340454692022
857.5000000000001, 0.7855527958056068
858.0000000000001, 0.7851014229639964
858.5000000000001, 0.7847018319531881
859, 0.7846798799685611
859.5, 0.7847786345692651
860, 0.7849106497067658
860.5, 0.7851117893303735
861.0000000000001, 0.7853161120989676
861.5000000000001, 0.7856191554504226
862.0000000000001, 0.7857071258647671
862.5000000000001, 0.7857075338455438
863.0000000000001, 0.7856219428295744
863.5000000000001, 0.7854195085722865
864, 0.7854669547216456
864.5, 0.7857713774962796
865, 0.7859625864900859
865.5, 0.7861659251720392
866.0000000000001, 0.7861530014022933
866.5000000000001, 0.7858483085508942
867.0000000000001, 0.7855591677760528
867.5000000000001, 0.7850529998838537
868.0000000000001, 0.7846154040928943
868.5000000000001, 0.7839110704798501
869, 0.7834145574161061
869.5, 0.7829148792016996
870, 0.7825824342274588
870.5000000000001, 0.7823830150384384
871.0000000000001, 0.7821723585954496
871.5000000000001, 0.7816795857628472
872.0000000000001, 0.7812653881048459
872.5000000000001, 0.7806815707772248
873.0000000000001, 0.7802282986660819
873.5000000000001, 0.7799411608622399
874, 0.7797278483070424
874.5, 0.7798271606103295
875, 0.7799780051815176
875.5000000000001, 0.7811038854178041
876.0000000000001, 0.7821344573886292
876.5000000000001, 0.7834191993476738
877.0000000000001, 0.7846243285468267
877.5000000000001, 0.7848900003632439
878.0000000000001, 0.7851628804038647
878.5, 0.7849867155043069
879, 0.7848060615611837
879.5, 0.7848004058492377
880, 0.7848008446347795
880.5000000000001, 0.7847194228019858
881.0000000000001, 0.7846263214503342
881.5000000000001, 0.7843137522863164
882.0000000000001, 0.7839327452370265
882.5000000000001, 0.7836779973047225
883.0000000000001, 0.7833870835327416
883.5, 0.7834190988746859
884, 0.7835155239786389
884.5, 0.7837244138800619
885, 0.7840201707345555
885.5000000000001, 0.7842564692161025
886.0000000000001, 0.7845553270810878
886.5000000000001, 0.7847316940710694
887.0000000000001, 0.7849325114498142
887.5000000000001, 0.7848748169631055
888.0000000000001, 0.7846739979082833
888.5, 0.7845208620034496
889, 0.7843183339950321
889.5, 0.7842105213587038
890.0000000000001, 0.7841085176417416
890.5000000000001, 0.7839474975179384
891.0000000000001, 0.7836424466674712
891.5000000000001, 0.7833761177037318
892.0000000000001, 0.7829697848989662
892.5000000000001, 0.7828396201344315
893.0000000000001, 0.7829418328112283
893.5, 0.7831131653554436
894, 0.7835180757677898
894.5, 0.783767857331564
895.0000000000001, 0.7839697519099033
895.5000000000001, 0.7840995972258858
896.0000000000001, 0.784199854671985
896.5000000000001, 0.7842561723471966
897.0000000000001, 0.7842564315871033
897.5000000000001, 0.7842758143095943
898.0000000000001, 0.784375440527506
898.5, 0.7844869238614155
899, 0.7847822063510596
899.5, 0.7850626525461073
900.0000000000001, 0.7856441153823917
900.5000000000001, 0.786102581077046
901.0000000000001, 0.7863869492817047
901.5000000000001, 0.7865754886796188
902.0000000000001, 0.7861022832254122
902.5000000000001, 0.7856924750912337
903, 0.7854160617566783
903.5, 0.785173865006436
904, 0.7854503341288995
904.5, 0.7857133253101137
905.0000000000001, 0.7861594275173862
905.5000000000001, 0.786610238206394
906.0000000000001, 0.7873997947888365
906.5000000000001, 0.7882196707289364
907.0000000000001, 0.7891571111303417
907.5000000000001, 0.7901827982110484
908, 0.7905558384476807
908.5, 0.7909385703755596
909, 0.7905192299460088
909.5000000000001, 0.7899478096925446
910.0000000000001, 0.7889623716866476
910.5000000000001, 0.7877013520439942
911.0000000000001, 0.7868596785900196
911.5000000000001, 0.7858759922855557
912.0000000000001, 0.7857774918287398
912.5000000000001, 0.7858732935435817
913, 0.786305906574284
913.5, 0.7870036338005011
914, 0.7873801597482183
914.5000000000001, 0.7877829396232678
915.0000000000001, 0.7878338767587503
915.5000000000001, 0.7877340121359245
916.0000000000001, 0.7877064025088891
916.5000000000001, 0.7877063846475255
917.0000000000001, 0.7877955943697372
917.5000000000001, 0.7879989308904094
918, 0.7882740704847894
918.5, 0.7887828951691445
919, 0.7892738522768961
919.5000000000001, 0.7900859171428645
920.0000000000001, 0.7904968552449081
920.5000000000001, 0.7906985984700535
921.0000000000001, 0.7907000776447579
921.5000000000001, 0.7903983952846846
922.0000000000001, 0.7903855701342885
922.5000000000001, 0.7908895469052997
923, 0.7912995435143804
923.5, 0.7919017294845949
924, 0.792433384235033
924.5000000000001, 0.793329953128143
925.0000000000001, 0.7940928371950001
925.5000000000001, 0.7952744616380291
926.0000000000001, 0.7960995675795483
926.5000000000001, 0.7963911523799763
927.0000000000001, 0.7966129764205794
927.5, 0.7967092619672416
928, 0.7967923502167685
928.5, 0.7968886086531795
929, 0.7969924970122887
929.5000000000001, 0.7973680582198689
930.0000000000001, 0.7976992074148457
930.5000000000001, 0.7978813911572289
931.0000000000001, 0.7980441404052026
931.5000000000001, 0.7976822802113124
932.0000000000001, 0.797327724655419
932.5, 0.7976838449880219
933, 0.7980451018404103
933.5, 0.798821945204268
934.0000000000001, 0.7996484838567359
934.5000000000001, 0.8003354040429451
935.0000000000001, 0.80108561844578
935.5000000000001, 0.8017558114380625
936.0000000000001, 0.8025173704247406
936.5000000000001, 0.8030298989788274
937.0000000000001, 0.8036092216408944
937.5, 0.8040270912503258
938, 0.8045152262659471
938.5, 0.8049157496619832
939.0000000000001, 0.8054085992768174
939.5000000000001, 0.8058039254093741
940.0000000000001, 0.8063011352752113
940.5000000000001, 0.8066350155795704
941.0000000000001, 0.8070359514673042
941.5000000000001, 0.8074010103137057
942.0000000000001, 0.8079046664357356
942.5, 0.8083901690950578
943, 0.8090982018177592
943.5, 0.8095872170674794
944.0000000000001, 0.8101963616468006
944.5000000000001, 0.8105261476166955
945.0000000000001, 0.8108319769415736
945.5000000000001, 0.8110997054646076
946.0000000000001, 0.811505838413149
946.5000000000001, 0.8118503823061789
947.0000000000001, 0.8123579151459527
947.5, 0.8127067464856171
948, 0.8131131134325155
948.5, 0.8134794398944839
949.0000000000001, 0.8140872967346657
949.5000000000001, 0.8147054121432579
950.0000000000001, 0.8159130148715414
950.5000000000001, 0.8168891157386837
951.0000000000001, 0.8182861798952515
951.5000000000001, 0.8191880987880031
952, 0.8195829141753262
952.5, 0.8198037743912321
953, 0.8196079057215737
953.5000000000001, 0.8195040825155304
954.0000000000001, 0.8196999597360842
954.5000000000001, 0.8198947710175312
955.0000000000001, 0.8203756366298208
955.5000000000001, 0.8207887166473002
956.0000000000001, 0.8212615887249515
956.5000000000001, 0.8216656073503726
957, 0.8218522177338695
957.5, 0.82203170432805
958, 0.8224002025013597
958.5000000000001, 0.8227530153120922
959.0000000000001, 0.8233830018725864
959.5000000000001, 0.8240087982118531
960.0000000000001, 0.8243609550397357
960.5000000000001, 0.8247279964965194
961.0000000000001, 0.8249083655584241
961.5000000000001, 0.8250926809694858
962, 0.8253432771957303
962.5, 0.825625017418569
963, 0.8261791331021543
963.5000000000001, 0.8268469793957081
964.0000000000001, 0.8276351576298688
964.5000000000001, 0.8286034256065375
965.0000000000001, 0.829206358688265
965.5000000000001, 0.829893206661232
966.0000000000001, 0.8303238014300034
966.5000000000001, 0.8308188816122182
967, 0.831334151955628
967.5, 0.8320317333153018
968, 0.832746901113523
968.5000000000001, 0.8337503092171418
969.0000000000001, 0.8345750672251461
969.5000000000001, 0.8356850801266652
970.0000000000001, 0.8362865993912888
970.5000000000001, 0.8368959015132753
971.0000000000001, 0.8374025370149202
971.5000000000001, 0.8381145518047768
972, 0.8389395052164238
972.5, 0.8403628906423989
973.0000000000001, 0.8413884712010458
973.5000000000001, 0.8427090241034355
974.0000000000001, 0.8435014210615039
974.5000000000001, 0.8442102681418666
975.0000000000001, 0.8445249451238308
975.5000000000001, 0.8445244649682847
976.0000000000001, 0.8443874760025869
976.5, 0.843884252170395
977, 0.843622659218938
977.5, 0.8436248221952468
978.0000000000001, 0.8438172227295443
978.5000000000001, 0.8447154128951668
979.0000000000001, 0.8454771899863892
979.5000000000001, 0.8466621253453975
980.0000000000001, 0.8475248840241565
980.5000000000001, 0.8481103748555432
981.0000000000001, 0.848533713083036
981.5, 0.8486299030522185
982, 0.8487134152075234
982.5, 0.84880868945448
983.0000000000001, 0.8488849274503009
983.5000000000001, 0.8488863777299017
984.0000000000001, 0.8489110003407498
984.5000000000001, 0.8493772000006689
985.0000000000001, 0.8498177992435464
985.5000000000001, 0.850636996256091
986.0000000000001, 0.8514287220884611
986.5, 0.8517832134987081
987, 0.8521462922510648
987.5, 0.8518085419169111
988.0000000000001, 0.8514416988594302
988.5000000000001, 0.851266250192278
989.0000000000001, 0.8510767001013788
989.5000000000001, 0.8516136472654237
990.0000000000001, 0.8522740345288418
990.5000000000001, 0.8530758511993055
991.0000000000001, 0.8540363793017918
991.5, 0.854850936509749
992, 0.8558241330075897
992.5000000000001, 0.8566268391942881
993.0000000000001, 0.8576105260245467
993.5000000000001, 0.8582773130914023
994.0000000000001, 0.8590720576752332
994.5000000000001, 0.8594056962648408
995.0000000000001, 0.8597070424738447
995.5000000000001, 0.8597761710484011
996, 0.8597769049991237
996.5, 0.859777534896487
997, 0.8597776048660807
997.5000000000001, 0.8598259269346241
998.0000000000001, 0.8599275884744126
998.5000000000001, 0.8601798301292137
999.0000000000001, 0.8606880967010708
999.5000000000001, 0.8612297933446476
1000.0000000000001, 0.8621453153788456
1000.5000000000001, 0.8628657167945545
1001, 0.863880871976486
1001.5, 0.8644495771887012
1002, 0.8648532432516521
1002.5000000000001, 0.8648891554534642
1003.0000000000001, 0.8643831387287637
1003.5000000000001, 0.8639209684040114
1004.0000000000001, 0.8631169032491616
1004.5000000000001, 0.8626617496322979
1005.0000000000001, 0.862564667023997
1005.5000000000001, 0.8627284541006596
1006, 0.8638232129563308
1006.5, 0.8647592144280863
1007, 0.8662349464909123
1007.5000000000001, 0.8673202681144371
1008.0000000000001, 0.8679995959524187
1008.5000000000001, 0.8684779005739147
1009.0000000000001, 0.8683794601294247
1009.5000000000001, 0.8682726012408986
1010.0000000000001, 0.867891092027632
1010.5000000000001, 0.8675437873634109
1011, 0.8669827220520756
1011.5, 0.8664862574591387
1012.0000000000001, 0.8663041436506024
1012.5000000000001, 0.8661332588280027
1013.0000000000001, 0.8662246133118621
1013.5000000000001, 0.8663125476655698
1014.0000000000001, 0.866400318539411
1014.5000000000001, 0.866491807147981
1015.0000000000001, 0.8669178106458135
1015.5000000000001, 0.867378518761223
1016, 0.8677223547990762
1016.5, 0.8680992140023464
1017.0000000000001, 0.8682038451033571
1017.5000000000001, 0.8683000070506561
1018.0000000000001, 0.8684548560329096
1018.5000000000001, 0.8686479182606954
1019.0000000000001, 0.8687407564318655
1019.5000000000001, 0.8688388846285928
1020.0000000000001, 0.8688539578204166
1020.5, 0.8688542458259296
1021, 0.8688540654572009
1021.5, 0.8688540871833702
1022.0000000000001, 0.8687968742265619
1022.5000000000001, 0.8686968559915904
1023.0000000000001, 0.8686209363431202
1023.5000000000001, 0.8685203694875232
1024, 0.8687420164229825
1024.5, 0.869247285245129
1025, 0.8697196868971807
1025.5, 0.8704295139512289
1026, 0.8706235790282313
1026.5, 0.8705225232549312
1027, 0.8702547529331619
1027.5, 0.8696458868179855
1028, 0.86932757378483
1028.5, 0.8691252193599069
1029, 0.8690686291574791
1029.5, 0.8691695740425042
1030, 0.8692168455998088
1030.5, 0.8692164536943043
1031, 0.8691665049588791
1031.5, 0.8689665183798045
1032, 0.8689007650611539
1032.5, 0.8691023653941075
1033, 0.8693923226438683
1033.5, 0.8702839742749636
1034, 0.8709810469942988
1034.5, 0.8717640630394299
1035, 0.8723155061495255
1035.5, 0.8724105450080368
1036, 0.8724523400887023
1036.5, 0.8721647000658064
1037, 0.8719325910833563
1037.5, 0.8718381090859378
1038, 0.8717475646972447
1038.5, 0.8715611823576733
1039, 0.8713893149361213
1039.5, 0.8712067283733745
1040, 0.8710317727558483
1040.5, 0.8709423887578859
1041, 0.8708523440207417
1041.5, 0.8707649043512309
1042, 0.8706730989954228
1042.5, 0.8705881263174202
1043, 0.8704942816862593
1043.5, 0.8708082303543379
1044, 0.8711831163037245
1044.5, 0.8721157876972491
1045, 0.8732640920042964
1045.5, 0.8740282123757939
1046, 0.874903782639346
1046.5, 0.8750215591090497
1047, 0.8750246899951565
1047.5, 0.8746446123499895
1048, 0.874051981405702
1048.5, 0.8735221740900077
1049, 0.8728234413935905
1049.5, 0.8725017842638556
1050, 0.8721993206216321
1050.5, 0.872070206676534
1051, 0.8719685419677475
1051.5, 0.8717461982707128
1052, 0.8713409845381047
1052.5, 0.8709462871457209
1053, 0.8703366972751513
1053.5, 0.8698805763675124
1054, 0.8692709531339747
1054.5, 0.8690754803912356
1055, 0.8691760767583336
1055.5, 0.8692510426465345
1056, 0.8693515394393144
1056.5, 0.869276068570037
1057, 0.8688732426186273
1057.5, 0.868812690297854
1058, 0.8693169868202242
1058.5, 0.8697491916055277
1059, 0.8704483326143588
1059.5, 0.8707636451490298
1060, 0.8703640537230513
1060.5, 0.8699795091533525
1061, 0.8691900272360187
1061.5, 0.8685824163937521
1062, 0.8679979099873034
1062.5, 0.8675850024100066
1063, 0.8675876613224599
1063.5, 0.8676427217417395
1064, 0.8682150656306701
1064.5, 0.8686937248984197
1065, 0.868972739698031
1065.5, 0.8691978477332285
1066, 0.868825496785469
1066.5, 0.8684766242209143
1067, 0.8679318747005277
1067.5, 0.8674010249867014
1068, 0.8670472757250646
1068.5, 0.8666836117113701
1069, 0.8665048402091753
1069.5, 0.8663211935996742
1070, 0.8663114941134209
1070.5, 0.8663121875989642
1071, 0.8658444349464129
1071.5, 0.865277098476092
1072, 0.8643426376001867
1072.5, 0.8631872417381486
1073, 0.8627723923399336
1073.5, 0.8623791811529042
1074, 0.8625844149164955
1074.5, 0.862976119417206
1075, 0.8632915837333124
1075.5, 0.8636891657209266
1076, 0.8638858308455324
1076.5, 0.8640865819704769
1077, 0.8641332810692213
1077.5, 0.8641337235275552
1078, 0.8640834451578734
1078.5, 0.8639824708716901
1079, 0.8639050644938373
1079.5, 0.8638031394552057
1080, 0.8635529131668097
1080.5, 0.863044383072671
1081, 0.8624676724740928
1081.5, 0.861452344763294
1082, 0.8609028978678602
1082.5, 0.8604985229568745
1083, 0.8604877753343427
1083.5, 0.860993535329787
1084, 0.86125695749697
1084.5, 0.8613570153559986
1085, 0.8612786693687208
1085.5, 0.8607756386332052
1086, 0.8603882214508741
1086.5, 0.8598875838744978
1087, 0.8594556052044179
1087.5, 0.8587604211294361
1088, 0.8581890379127912
1088.5, 0.8574023265364199
1089, 0.8567740951752311
1089.5, 0.8560931640224927
1090, 0.8555336442074829
1090.5, 0.8549558483613758
1091, 0.8544334737590087
1091.5, 0.8535781965622131
1092, 0.8528038456889115
1092.5, 0.8516824782211236
1093, 0.8506583029000354
1093.5, 0.849650053967241
1094, 0.8486940869006686
1094.5, 0.8481570209929417
1095, 0.8476175314524844
1095.5, 0.8476159447395017
1096, 0.8476141115719411
1096.5, 0.8478660556219937
1097, 0.8481434037934779
1097.5, 0.8483165750511704
1098, 0.848506148441155
1098.5, 0.8483673254883846
1099, 0.8481781250197284
1099.5, 0.8477263365245162
1100, 0.8471464862824467
1100.5, 0.8467996500894635
1101, 0.8464070098791374
1101.5, 0.8464101518119242
1102, 0.8465074427253558
1102.5, 0.8467665752991528
1103, 0.8471645399536922
1103.5, 0.8473616785206546
1104, 0.8475628095557637
1104.5, 0.8474008977100644
1105, 0.846998594663034
1105.5, 0.8466922225467275
1106, 0.846287035233345
1106.5, 0.8460706162417871
1107, 0.8458664490722845
1107.5, 0.845503400405756
1108, 0.8447912372698635
1108.5, 0.8440696489287409
1109, 0.8428515383184727
1109.5, 0.8420332869339894
1110, 0.8411212798225146
1110.5, 0.8406549634541342
1111, 0.8404518576389779
1111.5, 0.8403243219766223
1112, 0.8402228439759357
1112.5, 0.8400955620744185
1113, 0.8397943349756689
1113.5, 0.8395604109584318
1114, 0.8392601020031963
1114.5, 0.8389488684922879
1115, 0.8382550224831872
1115.5, 0.8376356788160408
1116, 0.8365578292638081
1116.5, 0.8356841010158889
1117, 0.8347171131564273
1117.5, 0.8339585759700843
1118, 0.8335797396154151
1118.5, 0.8333123403755851
1119, 0.8337870801938991
1119.5, 0.834227641165788
1120, 0.835060667371327
1120.5, 0.8358103065272952
1121, 0.8357131193328331
1121.5, 0.8356249733540876
1122, 0.8347317726299371
1122.5, 0.8338311939871267
1123, 0.8332105396251215
1123.5, 0.8325715902630174
1124, 0.8320532406846576
1124.5, 0.8314931258003221
1125, 0.8309877143088265
1125.5, 0.8304190122223626
1126, 0.8299961699744155
1126.5, 0.8295156637494964
1127, 0.8290375307373774
1127.5, 0.8284542406568628
1128, 0.8280380155004946
1128.5, 0.8275464165546323
1129, 0.8270229587855545
1129.5, 0.8263292372352941
1130, 0.8256027117978956
1130.5, 0.8246038154438345
1131, 0.8237741417121212
1131.5, 0.8226681387879914
1132, 0.82243797772032
1132.5, 0.8225370186433933
1133, 0.8230870028366055
1133.5, 0.8242003004681311
1134, 0.8246858333440629
1134.5, 0.8249913545018596
1135, 0.8248969842809121
1135.5, 0.8243884751996113
1136, 0.8237895591778236
1136.5, 0.8226736359026071
1137, 0.821893883104734
1137.5, 0.8209821681913236
1138, 0.8204452530534477
1138.5, 0.8200397759321021
1139, 0.8197036211285516
1139.5, 0.8191998118340393
1140, 0.8188116089609213
1140.5, 0.8183097067652122
1141, 0.8178366359388127
1141.5, 0.8169423406775287
1142, 0.8162845281315193
1142.5, 0.8156952366107456
1143, 0.8153157298558208
1143.5, 0.8154130975873408
1144, 0.8154568690037243
1144.5, 0.8152635737147954
1145, 0.8150995204153544
1145.5, 0.8149085273999637
1146, 0.814727671988454
1146.5, 0.8143505417679631
1147, 0.8139894080991597
1147.5, 0.8131582079533819
1148, 0.8123765654571329
1148.5, 0.811563223021624
1149, 0.8107620627099761
1149.5, 0.8103215383308006
1150, 0.8098651154326535
1150.5, 0.8096844292409291
1151, 0.8094998338352418
1151.5, 0.8096536416536191
1152, 0.8098398646345815
1152.5, 0.8100815743638248
1153, 0.8103684825713885
1153.5, 0.8100299746040301
1154, 0.8095503119891423
1154.5, 0.8088698884062174
1155, 0.8079918098620488
1155.5, 0.8074685832119571
1156, 0.8068756051719738
1156.5, 0.8065847813401023
1157, 0.8062854472580896
1157.5, 0.8059935259180909
1158, 0.8055928794858768
1158.5, 0.8053906687824893
1159, 0.8051886618636824
1159.5, 0.8051342459266022
1160, 0.805133809864564
1160.5, 0.8051326393889693
1161, 0.8051322177028193
1161.5, 0.8049605170530851
1162, 0.8045534653127466
1162.5, 0.8040171680103211
1163, 0.8030023408223834
1163.5, 0.802196688205769
1164, 0.8010806266808917
1164.5, 0.8003712145683602
1165, 0.7996612031143547
1165.5, 0.7991804476857634
1166, 0.7986750119660017
1166.5, 0.798289576138482
1167, 0.7977892496853549
1167.5, 0.7976239179752279
1168, 0.7981234929066897
1168.5, 0.7985124018780548
1169, 0.7990041268431949
1169.5, 0.7991721029642604
1170, 0.79828540044996
1170.5, 0.797484674597028
1171, 0.7960288120642506
1171.5, 0.794881313710617
1172, 0.7941172167752991
1172.5, 0.7935160355672635
1173, 0.7935182587238019
1173.5, 0.7935267521204757
1174, 0.7937135817427835
1174.5, 0.7938848626064704
1175, 0.7940673334542131
1175.5, 0.794241037785328
1176, 0.794241411908186
1176.5, 0.7942411068588839
1177, 0.7945017952009618
1177.5, 0.7947760970022125
1178, 0.7952844713199344
1178.5, 0.7958416121347537
1179, 0.7957909133209206
1179.5, 0.7957001777327416
1180, 0.7950891186183286
1180.5, 0.7943251079886839
1181, 0.7936720349247564
1181.5, 0.7928956249054856
1182, 0.7925222016392859
1182.5, 0.7921283443696814
1183, 0.79212911016124
1183.5, 0.7922265242431465
1184, 0.7925440147044933
1184.5, 0.7930419766527323
1185, 0.7934302257800365
1185.5, 0.7939324798408169
1186, 0.7941096959756511
1186.5, 0.7942114981189315
1187, 0.7941914325639836
1187.5, 0.7940902858787705
1188, 0.7939237752026395
1188.5, 0.793618857315572
1189, 0.7932667442194359
1189.5, 0.7926567646308228
1190, 0.7922384710370092
1190.5, 0.7917305037721863
1191, 0.7914485100353145
1191.5, 0.7912458634803424
1192, 0.7911241244386332
1192.5, 0.7910225237565298
1193, 0.7909178123861158
1193.5, 0.7907160948154381
1194, 0.7905616592439159
1194.5, 0.7903615196869845
1195, 0.7902476726413856
1195.5, 0.7902477036737342
1196, 0.7902468887045186
1196.5, 0.7902460324584595
1197, 0.7902002788178226
1197.5, 0.7899062497901224
1198, 0.7896517770589385
1198.5, 0.7892638641052682
1199, 0.7889064044886583
1199.5, 0.7882366680370453
1200, 0.7876320200541789
1200.5, 0.7866921807443634
1201, 0.7858663361404098
1201.5, 0.7854074729653792
1202, 0.784990666111029
1202.5, 0.78526787551343
1203, 0.7855306323561357
1203.5, 0.7863307294488081
1204, 0.7871448808120621
1204.5, 0.7881064662031867
1205, 0.7891138981804163
1205.5, 0.7899726680811973
1206, 0.7909088670455463
1206.5, 0.7915893468486713
1207, 0.7923521926015327
1207.5, 0.7920486082304818
1208, 0.7915731038896201
1208.5, 0.7903282425220824
1209.0000000000002, 0.7886753784135193
1209.5, 0.7875122913575915
1210, 0.7861327958336384
1210.5, 0.7853973765299991
1211, 0.7846009501856068
1211.5, 0.7842062972298037
1212.0000000000002, 0.7838049309705855
1212.5000000000002, 0.7834394469667622
1213.0000000000002, 0.7829362599732309
1213.5000000000002, 0.7826027390926042
1214, 0.7821981872635504
1214.5, 0.782126881268392
1215, 0.7822274873722385
1215.5, 0.7823459282656653
1216, 0.7825487942643291
1216.5, 0.7825819176283615
1217.0000000000002, 0.7824808668529987
1217.5000000000002, 0.7823310867003477
1218.0000000000002, 0.7820267216743441
1218.5000000000002, 0.7818639682385311
1219, 0.7817622712153203
1219.5, 0.7816849867106915
1220, 0.7815836024363404
1220.5, 0.781480060741284
1221, 0.7812784964664843
1221.5, 0.7811008364806116
1222.0000000000002, 0.7808019434095904
1222.5000000000002, 0.7806679198794598
1223.0000000000002, 0.7808691914850262
1223.5000000000002, 0.7811794094735415
1224, 0.782262735954004
1224.5, 0.7831424802869008
1225, 0.7842124255404789
1225.5, 0.7850507301603635
1226, 0.7856265337143225
1226.5000000000002, 0.7860979728238424
1227.0000000000002, 0.7863819335571118
1227.5000000000002, 0.7866290039507344
1228, 0.7868158050904136
1228.5000000000002, 0.7869873958637271
1229.0000000000002, 0.7871712890459727
1229.5, 0.7873459413869959
1230.0000000000002, 0.7875264218808264
1230.5, 0.7877047449557507
1231.0000000000002, 0.7878809566743487
1231.5, 0.788063367881892
1232.0000000000002, 0.7879831431915226
1232.5, 0.7878917222183471
1233.0000000000002, 0.787485096671871
1233.5, 0.787016076894859
1234, 0.7865218332430645
1234.5000000000002, 0.7859495642445808
1235, 0.7853121112087322
1235.5000000000002, 0.7845388856797102
1236, 0.7838938567975083
1236.5000000000002, 0.7831105437676957
1237, 0.7829257916318363
1237.5000000000002, 0.7828246248497864
1238, 0.783170708648556
1238.5, 0.7837665836045642
1239.0000000000002, 0.78440475926119
1239.5, 0.7853069718378948
1240.0000000000002, 0.7859498439742088
1240.5, 0.786757065375245
1241.0000000000002, 0.7872242240591502
1241.5, 0.7877312811988416
1242.0000000000002, 0.7880224019127609
1242.5, 0.7883271591512221
1243.0000000000002, 0.7883881345013771
1243.5, 0.788286916227944
1244, 0.7881733554735604
1244.5000000000002, 0.7879703754226556
1245, 0.7878157239535762
1245.5000000000002, 0.7876121666818819
1246, 0.7873650122732104
1246.5000000000002, 0.7868585511861057
1247, 0.7865042367251815
1247.5000000000002, 0.7861018230258754
1248, 0.7859682889821555
1248.5, 0.7862709895173193
1249.0000000000002, 0.7866338619333775
1249.5, 0.7875307331475495
1250.0000000000002, 0.788143209999591
1250.5, 0.7885383886436537
1251.0000000000002, 0.788826824884326
1251.5, 0.7890239260160354
1252.0000000000002, 0.7892372335409666
1252.5, 0.7898161410752627
1253.0000000000002, 0.7901923652494233
1253.5000000000002, 0.7897086189676985
1254, 0.7892198147424508
1254.5000000000002, 0.7878039379591114
1255, 0.7865737739374303
1255.5000000000002, 0.7858354470767251
1256, 0.785170805145331
1256.5000000000002, 0.7853573436909425
1257, 0.7855314919389375
1257.5000000000002, 0.7859783231905486
1258, 0.7864284194717633
1258.5, 0.7866085573392396
1259.0000000000002, 0.7867908987453933
1259.5, 0.7868806757086128
1260.0000000000002, 0.7869737299861006
1260.5, 0.7872157153892918
1261.0000000000002, 0.7874990468270338
1261.5, 0.7877468336245969
1262.0000000000002, 0.7880352470435219
1262.5, 0.7880672358201051
1263, 0.7880682710114154
1263.5000000000002, 0.7880003639374008
1264, 0.7879027373530154
1264.5000000000002, 0.7875700516711889
1265, 0.7870756091963602
1265.5000000000002, 0.7864482035712514
1266, 0.7855499341309793
1266.5000000000002, 0.7852391270893112
1267, 0.7850364630898431
1267.5000000000002, 0.7851901408940285
1268.0000000000002, 0.7855928835669861
1268.5, 0.7857536206365491
1269.0000000000002, 0.7858549402353247
1269.5, 0.7855771829736169
1270.0000000000002, 0.7848665451806782
1270.5, 0.7842134124647663
1271.0000000000002, 0.7831973100856726
1271.5, 0.7827325398609929
1272.0000000000002, 0.7825281789155253
1272.5, 0.7825758976827931
1273, 0.78298061473877
1273.5000000000002, 0.7831039124645603
1274, 0.782900994739631
1274.5000000000002, 0.7826407995519646
1275, 0.7820371020450954
1275.5000000000002, 0.7816678825649543
1276, 0.781467141503319
1276.5000000000002, 0.7812886453618669
1277, 0.7809893192321844
1277.5000000000002, 0.7807000299735619
1278.0000000000002, 0.7801100225301724
1278.5, 0.7797347634058005
1279.0000000000002, 0.7798354950866591
1279.5, 0.7800101635110241
1280.0000000000002, 0.7808799318904153
1280.5, 0.7816185721670259
1281.0000000000002, 0.7824755466464355
1281.5, 0.7832224809439903
1282.0000000000002, 0.7839730811824046
1282.5, 0.7846554838300154
1283, 0.7853936567350441
1283.5000000000002, 0.786087194045157
1284, 0.7867213484982535
1284.5000000000002, 0.7873428685010011
1285, 0.7879618537602494
1285.5000000000002, 0.7885982390494941
1286, 0.7889530117060913
1286.5000000000002, 0.7893215478570998
1287, 0.7891750661269924
1287.5, 0.7889897007882123
1288.0000000000002, 0.7887479343393683
1288.5, 0.7884610900558101
1289.0000000000002, 0.788875616794698
1289.5, 0.7894506114914095
1290.0000000000002, 0.7904192055582205
1290.5, 0.7916869345246008
1291.0000000000002, 0.7920045417687767
1291.5, 0.7922055011840908
1292.0000000000002, 0.7917507143117577
1292.5000000000002, 0.7909576255070093
1293, 0.7906809157625865
1293.5000000000002, 0.7904790923918839
1294, 0.7907536523635237
1294.5000000000002, 0.7913562412856884
1295, 0.7916148477834322
1295.5000000000002, 0.7918175901992001
1296, 0.7915999579229716
1296.5000000000002, 0.790992437772825
1297, 0.790622580064279
1297.5, 0.7902162239654801
1298.0000000000002, 0.7901849591291177
1298.5, 0.7904884941917558
1299.0000000000002, 0.7908633272117913
1299.5, 0.7915740011396238
1300.0000000000002, 0.7920751940155507
1300.5, 0.7926840258959023
1301.0000000000002, 0.7931445229280409
1301.5, 0.7937506335300972
1302.0000000000002, 0.7941621084111032
1302.5000000000002, 0.7945640569952088
1303, 0.7948306793032892
1303.5000000000002, 0.7950308450898703
1304, 0.7952075624996369
1304.5000000000002, 0.7955040356067064
1305, 0.7956757387959431
1305.5000000000002, 0.7955768817714202
1306, 0.7954840969562594
1306.5000000000002, 0.7952901362412856
1307.0000000000002, 0.7951490356316266
1307.5, 0.7951490129590477
1308.0000000000002, 0.7951399718538287
1308.5, 0.7950437414349345
1309.0000000000002, 0.794936838180807
1309.5, 0.7944688662388094
1310.0000000000002, 0.7940342288809429
1310.5, 0.7933935930839402
1311.0000000000002, 0.7927861355734198
1311.5, 0.792607512126543
1312, 0.7924271977319
1312.5000000000002, 0.7921645017914404
1313, 0.7918901411663261
1313.5000000000002, 0.7917152952312799
1314, 0.7915290539330783
1314.5000000000002, 0.7918384635456236
1315, 0.7922134511608984
1315.5000000000002, 0.7926976565835531
1316, 0.7932711941441072
1316.5000000000002, 0.7937622771333244
1317.0000000000002, 0.7943439019346624
1317.5, 0.794759516200781
1318.0000000000002, 0.7952500678291884
1318.5, 0.7954555785709353
1319.0000000000002, 0.7956545079001868
1319.5, 0.7955731007141391
1320.0000000000002, 0.7953746097550864
1320.5, 0.7954445683198468
1321.0000000000002, 0.7956444845261272
1321.5, 0.7959026953138214
1322, 0.7963058929926885
1322.5000000000002, 0.7964183310598946
1323, 0.7964192518447414
1323.5000000000002, 0.7964655795216645
1324, 0.7965673720723068
1324.5000000000002, 0.796767943368354
1325, 0.7971745095062537
1325.5000000000002, 0.7974780673026891
1326, 0.7978842534402731
1326.5000000000002, 0.7981931784466617
1327.0000000000002, 0.7985992550023124
1327.5, 0.7989342533237981
1328.0000000000002, 0.7994391388170832
1328.5, 0.7996011899292679
1329.0000000000002, 0.799298394536223
1329.5, 0.7990203426146739
1330.0000000000002, 0.7985213169440054
1330.5, 0.7983659614066692
1331.0000000000002, 0.7989620125173832
1331.5000000000002, 0.7992845211033974
1332, 0.7990838749598637
1332.5000000000002, 0.7987883893970753
1333, 0.7977129507196952
1333.5000000000002, 0.7969149191913452
1334, 0.7965314483090734
1334.5000000000002, 0.7962899549037358
1335, 0.7967701832676839
1335.5000000000002, 0.7972059741201214
1336, 0.797958734523862
1336.5, 0.7986178010790632
1337.0000000000002, 0.7989861387534515
1337.5, 0.7993239952480226
1338.0000000000002, 0.7993224573830189
1338.5, 0.7993236721280786
1339.0000000000002, 0.7992345117846765
1339.5, 0.7991443030665621
1340.0000000000002, 0.7990564131347788
1340.5, 0.7989649706289186
1341.0000000000002, 0.7988809539317832
1341.5000000000002, 0.7987863609399952
1342, 0.7990929642152205
1342.5000000000002, 0.7994708674766218
1343, 0.7998005840622116
1343.5000000000002, 0.8001857601975577
1344, 0.8003001928742478
1344.5000000000002, 0.8003986758736451
1345, 0.8003451082213381
1345.5000000000002, 0.8002476580499908
1346.0000000000002, 0.7998563680105055
1346.5, 0.7992620910090931
1347.0000000000002, 0.7987921979252794
1347.5, 0.7981919977752764
1348.0000000000002, 0.7977801780082894
1348.5, 0.7972766214867386
1349.0000000000002, 0.7968406514814556
1349.5, 0.7962342926399705
1350.0000000000002, 0.7959651714768512
1350.5, 0.7957621566233416
1351.0000000000002, 0.7959584942020289
1351.5000000000002, 0.7965675281407415
1352, 0.7971039896131012
1352.5000000000002, 0.7979178940140931
1353, 0.7985259914207355
1353.5000000000002, 0.7993380513587967
1354, 0.7998874639416048
1354.5000000000002, 0.8004939963329499
1355, 0.8006840163768494
1355.5000000000002, 0.8003806415819736
1356.0000000000002, 0.8000991066441928
1356.5, 0.7995967956183178
1357.0000000000002, 0.7993259000625824
1357.5, 0.7993266504013826
1358.0000000000002, 0.799386263569259
1358.5, 0.7996852836226426
1359.0000000000002, 0.7999734671538038
1359.5, 0.8005640234553608
1360.0000000000002, 0.8010150254269989
1360.5, 0.8014022991520086
1361, 0.8016357503901275
1361.5000000000002, 0.8012480534335767
1362, 0.8008850307224495
1362.5000000000002, 0.8001246410258107
1363, 0.7994668495975372
1363.5000000000002, 0.798906958050403
1364, 0.7984087174275546
1364.5000000000002, 0.798228765951108
1365, 0.7980668091917955
1365.5000000000002, 0.7987045510507337
1366.0000000000002, 0.7993222539011429
1366.5, 0.8005566742398138
1367.0000000000002, 0.8018306437197021
1367.5, 0.8023715445701148
1368.0000000000002, 0.8029257775090697
1368.5, 0.8026304665010912
1369.0000000000002, 0.8022574815025736
1369.5, 0.8020011035448159
1370.0000000000002, 0.8017140766127515
1370.5000000000002, 0.8016844413514171
1371, 0.8016838979254195
1371.5000000000002, 0.8014772721120863
1372, 0.801184954440468
1372.5000000000002, 0.8008818320373613
1373, 0.8004869206601027
1373.5000000000002, 0.8004165967538704
1374, 0.8004154007235199
1374.5000000000002, 0.8007584033655187
1375, 0.801358670697763
1375.5000000000002, 0.8019825988252179
1376.0000000000002, 0.802889580266882
1376.5, 0.803532068778228
1377.0000000000002, 0.8043425378383008
1377.5, 0.8049086417935262
1378.0000000000002, 0.8056195211234849
1378.5, 0.8059838374711347
1379.0000000000002, 0.8062889527631986
1379.5, 0.8062868918338063
1380.0000000000002, 0.8059831352126484
1380.5000000000002, 0.805682341993627
1381, 0.8051756546555177
1381.5000000000002, 0.8049544772081177
1382, 0.8049552848637345
1382.5000000000002, 0.8051255699866195
1383, 0.8057320343489882
1383.5000000000002, 0.8062694896800728
1384, 0.807172671701154
1384.5000000000002, 0.8077620611676205
1385.0000000000002, 0.808160073593383
1385.5, 0.808381370704496
1386.0000000000002, 0.8082835134608047
1386.5, 0.8082857031364596
1387.0000000000002, 0.8086785551365673
1387.5, 0.8089992786395367
1388.0000000000002, 0.8093865481459592
1388.5, 0.8096821826118484
1389.0000000000002, 0.8097772143752039
