100.55770118864478, 20.831406911239256
103.41444904946655, 20.80790205943046
106.27119691028835, 20.73783816623167
109.12794477111014, 20.66777427303286
111.98469263193192, 20.64426942122408
114.84144049275372, 20.597485048720273
117.69818835357549, 20.55070067621648
120.55493621439729, 20.480636783017687
123.41168407521906, 20.45713193120889
126.26843193604086, 20.410347558705098
129.12517979686265, 20.363563186201304
131.98192765768442, 20.363337855087494
134.83867551850622, 20.2932739618887
137.695423379328, 20.269769110079906
140.5521712401498, 20.362661861746076
143.40891910097156, 20.408995572022263
146.26566696179336, 20.525167844383432
149.12241482261516, 20.641340116744615
151.97916268343693, 20.850630471885765
154.83591054425872, 21.0599208270269
157.6926584050805, 21.24593166147308
160.5494062659023, 21.501781058004212
163.40615412672406, 21.711071413145362
166.26290198754586, 21.897082247591527
169.11964984836766, 22.106372602732677
171.97639770918943, 22.245824395788844
174.83314557001123, 22.40855570954001
177.68989343083302, 22.50144846120618
180.5466412916548, 22.594341212872365
183.4033891524766, 22.687233964538535
186.26013701329836, 22.756847195509707
189.11688487412016, 22.87301946787089
191.97363273494193, 22.87279413675708
194.83038059576373, 22.942407367728265
197.68712845658553, 23.035300119394435
200.5438763174073, 23.058354308975623
203.4006241782291, 23.12796753994681
206.25737203905086, 23.151021729527997
209.11411989987266, 23.22063496049917
211.97086776069446, 23.26696867077537
214.82761562151623, 23.35986142244154
217.68436348233803, 23.429474653412726
220.5411113431598, 23.475808363688913
223.3978592039816, 23.522142073965085
226.25460706480337, 23.59175530493627
229.11135492562516, 23.61480949451746
231.96810278644696, 23.61458416340365
234.82485064726873, 23.614358832289852
237.68159850809053, 23.614133501176042
240.5383463689123, 23.613908170062246
243.3950942297341, 23.706800921728416
246.25184209055587, 23.799693673394586
249.10858995137767, 23.89258642506077
251.96533781219946, 23.938920135336957
254.82208567302123, 23.89213576283315
257.67883353384303, 23.891910431719353
260.5355813946648, 23.93824414199554
263.3923292554866, 23.984577852271727
266.2490771163084, 23.984352521157916
269.10582497713017, 24.053965752129102
271.96257283795194, 24.123578983100288
274.8193206987737, 24.19319221407146
277.67606855959554, 24.262805445042645
280.5328164204173, 24.33241867601383
283.3895642812391, 24.355472865595004
286.2463121420609, 24.378527055176207
289.10306000288267, 24.424860765452394
291.95980786370444, 24.494473996423565
294.8165557245262, 24.56408722739475
297.67330358534804, 24.65697997906092
300.5300514461698, 24.703313689337122
303.3867993069916, 24.749647399613295
306.24354716781335, 24.842540151279465
309.1002950286352, 24.912153382250665
311.95704288945694, 25.005046133916835
314.8137907502787, 25.074659364888007
317.6705386111005, 25.120993075164208
320.5272864719223, 25.19060630613538
323.3840343327441, 25.21366049571658
326.24078219356585, 25.30655324738275
329.0975300543877, 25.376166478353923
331.95427791520945, 25.44577970932511
334.8110257760312, 25.53867246099128
337.667773636853, 25.608285691962465
340.5245214976748, 25.70117844362865
343.3812693584966, 25.79407119529482
346.23801721931835, 25.886963946961004
349.0947650801402, 25.933297657237176
351.95151294096195, 26.049469929598345
354.8082608017837, 26.188921722654527
357.66500866260554, 26.2585349536257
360.5217565234273, 26.32814818459687
363.3785043842491, 26.397761415568056
366.23525224507085, 26.420815605149244
369.0920001058927, 26.49042883612043
371.94874796671445, 26.536762546396616
374.8054958275362, 26.652934818757785
377.66224368835805, 26.76910709111897
380.5189915491798, 26.93183840487012
383.3757394100016, 26.978172115146293
386.23248727082336, 27.094344387507476
389.0892351316452, 27.303634742648626
391.94598299246695, 27.233570849449848
394.8027308532887, 27.51269976667598
397.65947871411055, 27.535753956257167
400.5162265749323, 27.558808145838356
403.3729744357541, 27.698259938894523
406.22972229657586, 27.814432211255692
409.0864701573977, 27.95388400431186
411.94321801821945, 28.07005627667303
414.7999658790412, 28.02327190416925
417.65671373986305, 28.2325622593104
420.5134616006848, 28.372014052366552
423.3702094615066, 28.558024886812717
426.22695732232836, 28.604358597088904
429.0837051831502, 28.767089910840056
431.94045304397196, 28.95310074528622
434.7972009047937, 29.06927301764739
437.65394876561555, 29.255283852093555
440.5106966264373, 29.441294686539706
443.3674444872591, 29.557466958900875
446.22419234808086, 29.74347779334704
449.0809402089027, 29.71997294153823
451.93768806972446, 29.882704255289397
454.79443593054623, 30.022156048345565
457.65118379136806, 30.184887362096717
460.5079316521898, 30.161382510287936
463.3646795130116, 30.30083430334409
466.22142737383336, 30.440286096400257
469.0781752346552, 30.509899327371443
471.93492309547696, 30.695910161817594
474.79167095629873, 30.76552339278878
477.64841881712056, 30.835136623759965
480.5051666779423, 30.951308896121134
483.3619145387641, 30.951083565007337
486.2186623995859, 30.97413775458851
489.0754102604077, 30.950632902779716
491.93215812122946, 30.95040757166592
494.78890598205123, 30.92690271985711
497.64565384287306, 30.973236430133284
500.50240170369483, 30.926452057629504
503.3591495645166, 30.809829123040714
506.2158974253384, 30.66992666775694
509.0726452861602, 30.530024212473165
511.92939314698197, 30.483239839969357
514.7861410078037, 30.3200578639906
517.6428888686256, 30.18015540870681
520.4996367294474, 30.11009151550803
523.3563845902692, 30.04002762230924
526.2131324510909, 29.853566125635467
529.0698803119127, 29.76022271174169
531.9266281727345, 29.55048169437292
534.7833760335562, 29.55025636325911
537.6401238943781, 29.433633428670333
540.4968717551999, 29.45668761825152
543.3536196160217, 29.200387559492782
546.2103674768434, 29.223441749073956
549.0671153376652, 29.223216417960145
551.923863198487, 29.22299108684635
554.7806110593087, 29.129647672952558
557.6373589201306, 29.129422341838747
560.4941067809524, 29.24559461419993
563.3508546417742, 29.24536928308612
566.2076025025959, 29.268423472667322
569.0643503634177, 29.338036703638494
571.9210982242396, 29.2912523311347
574.7778460850614, 29.31430652071589
577.6345939458831, 29.337360710297077
580.4913418067049, 29.290576337793283
583.3480896675267, 29.173953403204507
586.2048375283484, 29.1271690307007
589.0615853891702, 28.917428013331943
591.9183332499921, 28.917202682218132
594.7750811108139, 28.87041830971434
597.6318289716356, 28.730515854430564
600.4885768324574, 28.47421579567181
603.3453246932792, 28.28775429899804
606.2020725541009, 28.19441088510426
609.0588204149227, 27.60055777626806
611.6775059540093, 27.417994977302953
614.7723161365664, 27.51862879160798
617.6290639973881, 27.33216729493421
620.4858118582099, 27.215544360345433
623.3425597190317, 27.02908286367166
626.1993075798534, 26.91245992908287
629.0560554406752, 26.679439391019116
631.9128033014971, 26.56281645643034
634.7695511623189, 26.283236876976588
637.6262990231406, 26.096775380302816
640.4830468839624, 26.07327052849402
643.3397947447842, 25.910088552515248
646.1965426056059, 25.723627055841476
649.0532904664277, 25.630283641947685
651.9100383272496, 25.51366070735891
654.7667861880714, 25.373758252075135
657.6235340488931, 25.164017234706378
660.4802819097149, 24.861158134557627
663.3370297705367, 24.628137596493858
666.1937776313584, 24.67447130677006
669.0505254921803, 24.511289330791286
671.9072733530021, 24.3248278341175
674.7640212138239, 24.3711615443937
677.6207690746456, 24.27781813049991
680.4775169354674, 24.091356633826152
683.3342647962892, 23.92817465784738
686.191012657111, 23.741713161173593
689.0477605179328, 23.578531185194834
691.9045083787546, 23.648144416166005
694.7612562395764, 23.554801002272214
697.6180041003981, 23.484737109073436
700.4747519612199, 23.34483465378966
703.3314998220417, 23.344609322675865
706.1882476828634, 23.111588784612096
709.0449955436853, 23.018245370718304
711.9017434045071, 23.041299560299507
714.7584912653289, 23.06435374988068
717.6152391261506, 22.854612732511924
720.4719869869724, 22.877666922093113
723.3287348477942, 22.99383919445428
726.185482708616, 23.063452425425467
729.0422305694378, 22.876990928751695
731.8989784302596, 22.760367994162905
734.7557262910814, 22.853260745829104
737.6124741519031, 22.96943301819026
740.4692220127249, 22.852810083601497
743.3259698735467, 22.99226187665765
746.1827177343685, 22.99203654554384
749.0394655951903, 22.968531693735045
751.8962134560121, 23.154542528181196
754.7529613168339, 23.22415575915238
757.6097091776556, 23.317048510818566
760.4664570384774, 23.479779824569718
763.3232048992992, 23.456274972760923
766.179952760121, 23.47932916234211
769.0367006209428, 23.455824310533302
772.1315108034997, 23.540938444375
774.5121340208511, 23.835624597250103
776.1785702729973, 23.292304337883834
779.035318133819, 23.757669420669927
781.8920659946408, 23.757444089556117
784.7488138554626, 23.68738019635734
787.6055617162845, 23.617316303158546
790.4623095771062, 23.663650013434733
793.319057437928, 23.70998372371092
796.1758052987498, 23.57008126842713
799.2706154813067, 23.538797798793865
801.8893010203933, 23.52307156480954
804.7460488812151, 23.31333054744077
807.602796742037, 23.336384737021973
810.4595446028587, 23.138283480000695
813.3162924636805, 22.916902702284446
816.1730403245023, 22.683882164220677
819.029788185324, 22.427582105461923
821.8865360461458, 22.241120608788165
824.7432839069676, 22.077938632809378
827.8380940895245, 21.90697803900612
830.4567796286112, 21.70501563946185
833.313527489433, 21.471995101398093
836.1702753502548, 21.355372166809317
839.0270232110765, 21.21546971152553
841.8837710718983, 21.075567256241754
844.7405189327201, 20.865826238872998
847.597266793542, 21.075116594014148
850.4540146543637, 21.028332221510354
853.5488248369206, 20.772013385158786
855.9294480542721, 20.725266567840606
859.024258236829, 20.818140541913976
861.8810060976508, 20.678238086630202
864.7377539584726, 20.631453714126394
867.5945018192945, 20.747625986487577
870.6893120018512, 20.817220439865935
873.0699352192029, 20.972229468571072
876.1647454017598, 20.65383191036618
879.0214932625815, 20.700165620642366
881.8782411234033, 20.723219810223554
884.7349889842251, 20.839392082584723
887.591736845047, 20.815887230775914
890.4484847058687, 20.885500461747114
893.3052325666905, 21.00167273410827
896.1619804275123, 21.11784500646945
899.018728288334, 21.210737758135622
901.8754761491558, 21.14067386493683
904.7322240099776, 21.117169013128034
907.5889718707995, 21.326459368269184
910.4457197316212, 21.512470202715335
913.302467592443, 21.465685830211555
916.1592154532648, 21.721535226742688
919.0159633140865, 21.95410510257885
921.8727111749083, 22.023718333550022
924.7294590357301, 22.209729167996173
927.586206896552, 22.46557856452732
930.4429547573737, 22.605030357583487
933.5377649399306, 22.752223213278498
936.1564504790173, 23.0236110678658
939.013198339839, 23.139783340226955
942.108008522396, 23.387854118933618
944.7266940614826, 23.244090521126836
947.3453796005693, 23.651275579768267
950.4401897831262, 24.046783322876564
953.296937643948, 24.372471281492693
956.1536855047698, 24.558482115938844
959.0104333655916, 24.8026917521225
961.8671812264133, 24.883944743441177
964.7239290872351, 25.011756776149852
967.3426146263218, 25.015430142744677
970.4374248088787, 25.325579643304664
973.2941726697005, 25.465031436360846
976.1509205305223, 25.48808562594202
979.007668391344, 25.79049406386315
981.8644162521658, 26.139461543174292
984.7211641129876, 26.13923621206048
987.5779119738095, 26.16229040164167
990.4346598346312, 26.34830123608782
993.291407695453, 26.604150632618968
996.1481555562748, 26.697043384285152
999.0049034170966, 26.54550116865387
1001.6235889561833, 26.67333197895536
1004.9564614604752, 27.076580784702514
1007.575146999562, 27.068614390949847
1010.4318948603837, 27.52233971338846
1013.2886427212055, 27.48719510123216
1016.1453905820273, 28.103877068535724
1019.0021384428491, 28.336446944371886
1021.6208239819358, 28.828990245561613
1024.7156341644927, 29.465053035851525
1027.5723820253145, 29.79074099446767
1030.6671922078713, 30.100890495027656
1033.0478154252228, 30.44213568929274
1036.1426256077798, 31.14027720143598
1038.9993734686016, 31.349567556577128
1041.8561213294233, 31.977889284228212
1043.5225575815693, 31.10865573513199
1044.712869190245, 32.39669532562431
1046.141243120656, 31.651637997827564
1047.8076793728019, 32.64476610433097
1050.4263649118886, 32.57084106860917
1053.5211750944457, 33.15646489739326
1056.1398606335322, 33.420092911748895
1058.996608494354, 34.23465080495991
1061.8533563551757, 34.2577049945411
1064.7101042159977, 34.90930624288717
1067.8049143985545, 35.1418573411305
1070.423599937641, 35.58396168081444
1073.2803477984628, 36.07260628429553
1076.1370956592848, 36.305176160131666
1078.9938435201066, 36.58430507735781
1081.612529059193, 36.59961820430014
1084.70733924175, 36.68861225825768
1087.5640871025719, 36.93282189444133
1090.6588972851287, 37.21969187430632
1093.0395205024804, 37.00222857189152
1096.1343306850372, 37.18822062874486
1098.991078545859, 37.16471577693605
1101.8478264066807, 36.95497475956729
1104.7045742675025, 36.83835182497852
1107.5613221283243, 36.45401440239728
1110.418069989146, 35.81360225217111
1113.2748178499678, 35.801737160709806
1115.8935033890546, 35.20014298923478
1118.7502512498763, 34.48601235680778
1120.6547498237576, 33.880594597995355
1123.273435362844, 33.92694708586437
1126.1301832236659, 33.35637349772317
1128.9869310844877, 32.75088062853949
1131.6056166235744, 32.26568406053943
1133.5101151974554, 31.644746621263693
1135.8907384148072, 31.303125875142243
1137.7952369886882, 30.775306518646488
1140.1758602060397, 30.775118742718305
1143.0326080668615, 30.417940760947914
1144.9371066407427, 29.626286836575545
1147.5557921798293, 30.5262217499277
1147.3177298580943, 29.207067688137457
1148.7461037885053, 28.306813555707393
1150.412540040651, 29.31546134267414
1152.078976292797, 28.399668752187935
1154.4595995101488, 27.887331520969866
1156.3640980840298, 27.32847280354744
1159.2208459448516, 27.126491626410342
1161.601469162203, 26.89350864353223
1163.2679054143491, 26.381227745092602
1166.3627155969061, 25.85331450063275
1168.7433388142576, 25.66689055914462
1172.0762113185497, 25.263115980798588
1174.6948968576364, 24.925356377200174
1177.5516447184582, 24.96005032712887
1180.40839257928, 24.51751410281014
1183.2651404401017, 24.16809596127142
1185.8838259791883, 23.74109819500883
1188.9786361617453, 23.56237776097393
1191.597321700832, 23.290576799344663
1194.4540695616538, 23.228272746377527
1196.3585681355348, 22.560776265711795
1198.7391913528863, 22.451950726540318
1200.6436899267676, 22.048288813751185
1203.024313144119, 22.172258481529667
1204.9288117180001, 21.566840722717245
1207.3094349353519, 21.53561358586242
1208.9758711874977, 21.116450770202775
1212.0706813700547, 21.22484442473946
1214.6893669091414, 21.22075795110264
1217.5461147699632, 21.30201094242132
1220.64092495252, 21.239688111861398
1223.0215481698715, 21.518854584273157
1224.9260467437527, 20.944476186387405
1227.5447322828393, 21.04514755587806
1230.401480143661, 20.928524621289284
1233.496290326218, 20.99035923443597
1236.1149758653048, 21.40530413330906
1238.9717237261266, 21.137364314202827
1242.0665339086834, 20.787927395071264
1244.4471571260349, 20.694621536363115
1247.541967308592, 20.99701119669143
1250.3987151694137, 20.83382922071266
1253.2554630302354, 20.717206286123883
1256.1122108910572, 20.577303830840094
1258.968958751879, 20.64691706181128
1261.8257066127007, 20.739809813477464
1264.6824544735225, 20.693025440973656
1267.5392023343443, 20.692800109859846
1270.395950195166, 20.052387959633677
1272.062386447312, 24.5351162183169
1273.0146357342528, 20.087100687155186
1274.9191343081338, 25.46607171500291
1274.6810719863988, 24.137605844934654
1276.1094459168098, 20.459328909568498
1276.3475082385448, 6.072566342468548
1277.5378198472206, 25.650549358995534
1277.5378198472206, 23.951144348260883
1278.9661937776316, 20.52894214053967
1278.252006812426, 7.003596949525843
1278.252006812426, 5.141235293926215
1280.3945677080424, 26.3254301280366
1280.3945677080424, 25.347690258846796
1280.3945677080424, 23.834521413672107
1281.8229416384534, 20.37739992490839
1283.2513155688641, 25.780464012659905
1283.2513155688641, 23.764457520473314
1284.6796894992751, 20.831125247347003
1286.108063429686, 25.780238681546095
1286.108063429686, 23.764232189359504
1287.536437360097, 20.993856561098156
1288.9648112905077, 25.7567338297373
1288.9648112905077, 23.83384542033069
1290.3931852209187, 21.179867395544306
1291.8215591513297, 26.324528803581373
1291.8215591513297, 25.276950372306587
1291.8215591513297, 23.95001769269186
1293.2499330817404, 21.109803502345528
1294.6783070121514, 26.324303472467577
1294.6783070121514, 24.474874883920734
1296.3447432642972, 20.985401949932253
1296.1066809425622, 7.002188630064552
1296.1066809425622, 5.139826974464924
1296.8208679077677, 26.37069351552222
1297.296992551238, 24.492774624273622
1298.963428803384, 21.411986609152862
1298.2492418381785, 5.966080960801904
1302.058238985941, 21.341903938361256
1304.6769245250275, 21.07398289684781
1306.1052984554385, 23.809213912952856
1307.5336723858493, 20.968999722606526
1308.9620463162603, 23.808988581839046
1310.390420246671, 21.166650317400183
1313.247168107493, 21.108226184548897
1316.1039159683148, 21.166199655172576
1317.5322898987256, 24.273903002397546
1318.9606638291366, 25.9499158268803
1318.9606638291366, 21.4569683327462
1320.3890377595474, 24.15728006780877
1321.8174116899584, 26.066088099241483
1321.8174116899584, 21.34034539815744
1323.2457856203691, 23.924259529745
1324.6741595507801, 26.252098933687634
1324.9122218725151, 21.215943845744164
1326.102533481191, 23.830916115851224
1327.530907411602, 26.344991685353804
1327.292845089867, 21.169197028425998
1328.9592813420127, 25.15762346435214
1328.9592813420127, 23.76085222265243
1328.9592813420127, 20.897471177168
1330.3876552724237, 26.368045874935007
1331.8160292028347, 25.18067765393333
1331.8160292028347, 23.76062689153862
1331.8160292028347, 21.33955673925911
1333.2444031332454, 26.3212615024312
1334.9108393853915, 25.47530747402999
1334.6727770636564, 23.830240122509807
1334.6727770636564, 21.432449490925293
1336.1011509940672, 20.36147887339861
1337.291462602743, 25.649161829012016
1337.5295249244782, 23.82225495116434
1337.5295249244782, 22.503082111781268
1337.5295249244782, 21.478783201201466
1339.1959611766242, 25.116464858656357
1338.957898854889, 20.570769228539746
1340.624335107035, 24.132404451724312
1340.3862727853, 22.363179656497493
1340.3862727853, 21.38543978730769
1341.8146467157108, 25.614440048008277
1343.2430206461217, 24.45811118793327
1343.2430206461217, 21.68784822522882
1345.8617061852085, 21.46260630498955
1348.9565163677653, 21.43132283535627
1351.813264228587, 21.454377024937443
1354.6700120894088, 21.570549297298612
1357.5267599502306, 21.453926362709836
1360.3835078110524, 21.546819114376007
1363.2402556718741, 21.732829948822186
1366.097003532696, 21.918840783268337
1368.7156890717827, 21.616000460712414
1370.6201876456637, 21.103700784679972
1373.2388731847504, 21.708761769228857
1376.3336833673072, 21.739557021448903
1378.952368906394, 21.53371470178878
1382.047179088951, 21.863263802927918
1384.4278023063025, 21.645800500513133
1387.5226124888593, 21.893871279219795
1390.3793603496813, 22.126441155055943
1393.236108210503, 22.26589294811211
1396.0928560713248, 22.2656676169983
1398.9496039321466, 22.242162765189505
