106.27499303432606, 11.529268729150601
106.27499303432606, 11.342856120042015
109.13347016140742, 11.529381569713024
109.13347016140742, 11.342968960604438
111.99194728848877, 11.436288105721147
111.99194728848877, 11.273177072751139
114.85042441557015, 11.43640094628357
114.85042441557015, 11.249988337174983
117.7089015426515, 11.389910634568835
117.7089015426515, 11.226799601598827
120.56737866973288, 11.343420322854087
120.56737866973288, 11.180309289884093
123.42585579681423, 11.34353316341651
123.42585579681423, 11.157120554307937
126.28433292389559, 11.297042851701775
126.28433292389559, 11.133931818731782
129.14281005097695, 11.250552539987055
129.14281005097695, 11.110743083155626
132.0012871780583, 11.250665380549464
132.0012871780583, 11.064252771440891
134.8597643051397, 11.250778221111872
134.8597643051397, 11.0643656120033
137.71824143222105, 11.250891061674295
137.71824143222105, 11.064478452565723
140.5767185593024, 11.251003902236704
140.5767185593024, 11.064591293128132
143.4351956863838, 11.344323047353413
143.4351956863838, 11.15791043824484
146.53187924072193, 11.344445291296026
145.5790535316948, 11.15799506866665
149.1521499405465, 11.530961337586817
149.1521499405465, 11.34454872847823
148.43753065877615, 11.204711061506202
152.24883349488465, 11.62428988608373
152.01062706762787, 11.414566297456375
151.2960077858575, 11.298030206622911
155.107310621966, 11.810815335754711
154.86910419470922, 11.601091747127356
154.15448491293887, 11.437952504016764
157.96578774904737, 11.997340785425692
157.72758132179058, 11.787617196798351
157.01296204002026, 11.671081105964888
160.58605844887194, 12.183856831716483
160.58605844887194, 11.99744422260791
160.58605844887194, 11.857634765776481
162.25350343966943, 12.37033526448647
163.44453557595332, 12.114064943863184
165.1119805667508, 12.463654409603166
164.873774139494, 12.253930820975825
167.97045769383215, 12.65017985927416
167.73225126657536, 12.44045627064682
167.017631984805, 12.323920179813342
170.8289348209135, 12.836705308945156
170.59072839365672, 12.6269817203178
169.8761091118864, 12.510445629484352
173.68741194799486, 13.023230758616137
173.44920552073808, 12.813507169988782
172.73458623896775, 12.696971079155333
176.54588907507622, 13.116549903732846
175.59306336604914, 12.930099681103457
179.40436620215763, 13.20986904884954
179.1661597749008, 13.000145460222186
182.262843329239, 13.303188193966236
181.31001762021185, 13.11673797133686
185.12132045632035, 13.396507339082945
184.1684947472932, 13.21005711645357
187.74159115614492, 13.489817080819435
187.74159115614492, 13.303404471710863
190.60006828322628, 13.583136225936144
190.60006828322628, 13.396723616827572
193.45854541030764, 13.583249066498553
193.45854541030764, 13.39683645738998
196.317022537389, 13.676568211615276
196.317022537389, 13.49015560250669
199.17549966447035, 13.76988735673197
199.17549966447035, 13.583474747623384
202.0339767915517, 13.77000019729438
202.0339767915517, 13.583587588185793
204.89245391863307, 13.863319342411089
204.89245391863307, 13.676906733302516
207.75093104571442, 13.863432182973497
207.75093104571442, 13.677019573864925
210.60940817279584, 13.956751328090206
210.60940817279584, 13.770338718981634
213.70609172713398, 13.95687357203282
212.75326601810684, 13.770423349403444
216.32636242695855, 14.05018331376931
216.32636242695855, 13.863770704660737
219.4230459812967, 14.050305557711937
218.47022027226956, 13.91045848735969
222.28152310837805, 14.143624702828632
222.04331668112127, 13.933901114201277
224.90179380820263, 14.236934444565136
224.90179380820263, 14.050521835456564
227.76027093528398, 14.330253589681831
227.76027093528398, 14.143840980573259
230.61874806236534, 14.33036643024424
230.61874806236534, 14.167255397274232
233.4772251894467, 14.423685575360949
233.4772251894467, 14.237272966252377
236.3357023165281, 14.423798415923358
236.3357023165281, 14.237385806814785
239.19417944360947, 14.42391125648578
239.19417944360947, 14.260800223515787
242.05265657069083, 14.42402409704819
242.05265657069083, 14.237611487939617
245.1493401250289, 14.517352645545088
244.9111336977722, 14.307629056917747
244.19651441600183, 14.191092966084284
248.00781725211033, 14.610671790661797
247.76961082485354, 14.400948202034456
250.6280879519349, 14.703981532398288
250.6280879519349, 14.517568923289716
253.48656507901626, 14.70409437296071
253.48656507901626, 14.540983339990717
256.3450422060976, 14.70420721352312
256.3450422060976, 14.517794604414547
259.203519333179, 14.704320054085528
259.203519333179, 14.517907444976956
262.3002028875171, 14.704442298028155
262.06199646026033, 14.494718709400814
264.92047358734175, 14.79775203976466
264.92047358734175, 14.611339430656074
267.7789507144231, 14.797864880327083
267.7789507144231, 14.611452271218496
270.63742784150446, 14.891184025443778
270.63742784150446, 14.704771416335191
273.4959049685858, 14.891296866006186
273.4959049685858, 14.7048842568976
276.59258852292396, 14.891419109948814
275.6397628138968, 14.704968887319424
279.21285922274853, 14.984728851685304
279.21285922274853, 14.798316242576732
282.3095427770867, 14.984851095627917
281.35671706805954, 14.845004025275685
285.16801990416803, 15.078170240744626
284.2151941951409, 14.891720018115251
288.0264970312494, 15.171489385861321
287.0736713222223, 14.985039163231946
290.64676773107396, 15.264799127597826
290.64676773107396, 15.078386518489253
293.5052448581554, 15.264911968160234
293.5052448581554, 15.078499359051662
296.60192841249346, 15.358240516657133
296.36372198523674, 15.125215351891228
295.6491027034664, 14.985377684919186
299.2221991123181, 15.451550258393638
299.2221991123181, 15.265137649285066
302.08067623939945, 15.544869403510333
302.08067623939945, 15.35845679440176
301.3660569576291, 15.218619127429733
304.9391533664808, 15.544982244072756
304.9391533664808, 15.358569634964184
307.79763049356217, 15.63830138918945
307.79763049356217, 15.451888780080878
307.0830112117918, 15.31205111310885
310.8943140479003, 15.73162993768635
310.6561076206435, 15.521906349059023
313.75279117498167, 15.824949082803059
313.5145847477249, 15.615225494175718
312.79996546595453, 15.498689403342254
316.37306187480624, 15.871655672262435
316.37306187480624, 15.685243063153848
316.37306187480624, 15.545433606322419
319.2315390018876, 15.918371665101986
319.2315390018876, 15.7319590559934
318.51691972011724, 15.592121389021372
322.09001612896895, 15.918484505664395
322.09001612896895, 15.732071896555809
322.09001612896895, 15.59226243972438
325.1866996833071, 16.011813054161294
324.9484932560503, 15.802089465533953
324.23387397428, 15.685553374700476
327.8069703831317, 16.1051227958978
327.8069703831317, 15.918710186789227
327.8069703831317, 15.778900729957783
330.6654475102131, 16.198441941014508
330.6654475102131, 16.012029331905936
330.6654475102131, 15.848918298935928
329.95082822844273, 15.685779055825307
333.76213106455117, 16.19856418495712
333.52392463729444, 15.988840596329766
336.3824017643758, 16.385080231247898
336.3824017643758, 16.198667622139325
335.66778248260545, 16.058829955167297
339.24087889145716, 16.38519307181032
339.24087889145716, 16.198780462701748
342.3375624457953, 16.385315315752933
342.0993560185385, 16.17559172712558
344.9578331456199, 16.571831362043724
344.9578331456199, 16.385418752935152
344.9578331456199, 16.222307719965144
347.81631027270123, 16.66515050716042
347.81631027270123, 16.478737898051847
347.81631027270123, 16.338928441220418
350.6747873997826, 16.805072804554257
350.6747873997826, 16.618660195445685
350.6747873997826, 16.432247586337112
349.9601681180123, 16.339013071642228
353.53326452686395, 16.851788797393823
353.53326452686395, 16.66537618828525
353.53326452686395, 16.47896357917668
353.53326452686395, 16.31585254620667
356.6299480812021, 16.851911041336436
356.39174165394536, 16.642187452709095
359.48842520828345, 16.94523018645313
359.2502187810267, 16.712205021687225
362.3469023353648, 17.038549331569854
362.1086959081081, 16.8288257429425
361.3940766263377, 16.712289652109035
365.2053794624462, 17.13186847668655
364.2525537534191, 16.94541825405716
367.8256501622708, 17.271781370700197
367.8256501622708, 17.085368761591624
367.8256501622708, 16.922257728621616
370.92233371660893, 17.225300462365666
370.68412728935215, 17.01557687373831
369.9695080075818, 16.899040782904848
373.5426044164335, 17.31861020410217
373.5426044164335, 17.1321975949936
376.40108154351486, 17.505135653773152
376.40108154351486, 17.31872304466458
376.40108154351486, 17.155612011694572
379.497765097853, 17.505257897715765
379.2595586705962, 17.29553430908841
382.1180357976776, 17.784980248560842
382.1180357976776, 17.59856763945227
382.1180357976776, 17.412155030343698
381.4034165159073, 17.272317363371656
384.976512924759, 17.78509308912325
384.976512924759, 17.59868048001468
384.26189364298864, 17.45884281304265
388.0731964790971, 17.87842163762015
387.83499005184035, 17.668698048992823
387.12037077007, 17.552161958159346
390.6934671789217, 18.06493768391094
390.6934671789217, 17.87852507480237
389.97884789715135, 17.73868740783034
393.55194430600307, 18.06505052447335
393.55194430600307, 17.878637915364777
393.55194430600307, 17.738828458533348
394.9811828695437, 18.204916401586004
396.4104214330844, 17.971957060481486
395.69580215131407, 17.832119393509444
397.8396599966251, 18.15842608987127
399.2688985601658, 17.972069901043895
400.9363435509632, 18.158548333813897
403.55661425078785, 18.345064380104674
403.55661425078785, 18.1586517709961
402.8419949690175, 18.01881410402406
406.4150913778692, 18.438383525221383
406.4150913778692, 18.25197091611281
409.27356850495056, 18.531702670338078
409.27356850495056, 18.345290061229505
412.3702520592887, 18.625031218834977
412.1320456320319, 18.41530763020762
414.9905227591133, 18.811547265125768
414.9905227591133, 18.625134656017195
414.9905227591133, 18.485325199185766
416.419761322654, 18.95141314223841
417.84899988619463, 18.71845380113389
417.84899988619463, 18.57864434430246
419.5164448769921, 18.904932233903878
419.9928577315057, 18.625332127001414
422.3749220040735, 18.998251379020573
422.1367155768167, 18.788527790393232
424.99519270389806, 19.184767425311364
424.99519270389806, 18.99835481620279
424.99519270389806, 18.835243783232798
428.0918762582362, 19.184889669253977
427.8536698309794, 18.975166080626636
430.9503533853176, 19.278208814370686
430.71214695806077, 19.068485225743345
433.80883051239897, 19.371527959487395
432.8560048033718, 19.185077736858005
436.6673076394803, 19.651259713712662
436.4291012122235, 19.418234548946742
435.7144819304532, 19.278396881974714
439.28757833930484, 19.837775760003453
439.28757833930484, 19.65136315089488
439.28757833930484, 19.488252117924873
442.38426189364304, 19.837898003946066
442.14605546638626, 19.62817441531871
445.0045325934676, 20.024414050236857
445.0045325934676, 19.838001441128284
445.0045325934676, 19.674890408158277
447.863009720549, 20.11773319535355
447.863009720549, 19.93132058624498
447.863009720549, 19.79151112941355
449.2922482840896, 20.304202224743335
450.9596932748871, 20.117855439296164
450.00686756586, 19.93140521666679
453.5799639747117, 20.304371485586955
453.5799639747117, 20.117958876478383
453.5799639747117, 19.93154626736981
455.0092025382524, 20.44423736269961
456.43844110179305, 20.211278021595078
455.7238218200227, 20.024837202345907
457.86767966533375, 20.397747050984876
459.2969182288744, 20.58421608037466
459.2969182288744, 20.23469243829608
460.7261567924151, 20.397859891547284
462.15539535595576, 20.584328920937068
461.44077607418546, 20.258078644856454
463.82284034675325, 20.413516519582274
465.0138724830371, 20.677648066053763
466.6813174738346, 20.506835664698983
467.8723496101185, 20.770967211170472
469.3015881736592, 20.58461102234311
469.3015881736592, 20.39819841323454
470.9690331644567, 20.771089455113085
470.01620745542954, 20.258417166543694
472.16006530074054, 20.538120710628377
473.58930386428125, 20.957605501403876
473.58930386428125, 20.771192892295304
475.0185424278219, 20.58483670346793
474.30392314605155, 20.4449990364959
476.6859874186194, 20.95772774534649
476.4477809913626, 20.748004156719134
479.30625811844396, 21.05103748708298
479.30625811844396, 20.864624877974407
482.1647352455253, 21.097753479922545
482.1647352455253, 20.911340870813973
481.45011596375497, 20.818106356119074
485.0232123726067, 21.05126316820781
485.0232123726067, 20.86485055909924
486.4524509361474, 20.748399098687585
488.1198959269449, 21.14459171670471
487.88168949968804, 20.911566551938805
488.5963087814584, 20.72518215297083
490.7401666267694, 21.14469515388693
490.7401666267694, 20.958282544778356
493.59864375385075, 21.144807994449337
493.59864375385075, 20.958395385340765
496.69532730818895, 21.144930238391964
496.4571208809321, 20.911905073626045
499.3155980080135, 21.33144628468274
499.3155980080135, 21.14503367557417
499.3155980080135, 20.958621066465597
502.1740751350949, 21.238352820690878
502.1740751350949, 21.051940211582306
502.1740751350949, 20.912130754750876
505.270758689433, 21.145268760079205
505.03255226217624, 20.935545171451864
508.1292358165144, 21.331794209750186
507.8910293892576, 21.098769044984266
507.8910293892576, 20.935658012014272
510.98771294359574, 21.425113354866895
510.74950651633895, 21.192088190100975
510.74950651633895, 21.005675580992403
510.0348872345686, 20.86583791402036
513.6079836434203, 21.238804182940527
513.6079836434203, 21.052391573831954
512.89336436165, 20.912553906859927
516.4664607705017, 21.23891702350295
516.4664607705017, 21.052504414394377
519.5631443248399, 21.33224557199985
519.324937897583, 21.122521983372508
518.6103186158127, 21.005985892539044
522.1834150246644, 21.378952161459196
522.1834150246644, 21.192539552350624
521.4687957428941, 21.09930503765574
525.0418921517459, 21.332461849744476
525.0418921517459, 21.192652392913047
528.138575706084, 21.33258409368709
527.9003692788272, 21.122860505059748
530.9970528331653, 21.519109543358084
530.7588464059086, 21.286084378592165
530.7588464059086, 21.146274921760735
533.6173235329899, 21.472609828263145
533.6173235329899, 21.286197219154573
532.9027042512196, 21.19296270445969
536.4758006600713, 21.51932582110271
536.4758006600713, 21.332913211994125
535.7611813783009, 21.193075545022097
539.3342777871526, 21.519438661665134
539.3342777871526, 21.333026052556548
540.048897068923, 21.193244805865717
542.192754914234, 21.519551502227543
542.192754914234, 21.333138893118957
545.0512320413153, 21.612870647344252
545.0512320413153, 21.426458038235666
544.336612759545, 21.286620371263623
548.1479155956536, 21.612992891286865
547.9097091683967, 21.40326930265951
550.768186295478, 21.7529057853005
550.768186295478, 21.566493176191926
550.0535670137077, 21.473258661497027
553.6266634225594, 21.70641547358578
553.6266634225594, 21.520002864477206
553.6266634225594, 21.380193407645763
556.4851405496408, 21.75313146642533
556.4851405496408, 21.566718857316758
556.4851405496408, 21.426909400485314
559.3436176767221, 21.613434850156324
559.3436176767221, 21.427022241047737
559.3436176767221, 21.240609631939165
561.0110626675197, 21.06979723058437
562.2020948038036, 21.520341386164446
562.2020948038036, 21.33392877705586
563.6313333673443, 21.170874164367078
565.2987783581417, 21.52046363010706
565.0605719308849, 21.287438465341125
566.4898104944256, 21.05447912423662
565.7751912126553, 20.914641457264594
567.204429776196, 21.800157770811538
567.9190490579663, 21.613773371843564
567.9190490579663, 21.427360762734978
567.9190490579663, 21.240948153626405
569.348287621507, 21.054591964799044
569.348287621507, 20.891480931829037
570.7775261850477, 21.56728306012883
570.7775261850477, 21.380870451020243
570.7775261850477, 21.19445784191167
572.2067647485883, 21.03140322922289
573.8742097393858, 21.42759584724
573.636003312129, 21.194570682474094
575.0652418756697, 21.00821449364672
575.77986115744, 21.52087737883592
576.4944804392104, 21.33449297986793
576.4944804392104, 21.14808037075936
577.923719002751, 20.961724181932
579.3529575662917, 21.148193211321768
581.0204025570893, 20.96184642587461
583.6406732569138, 21.008553015333973
583.6406732569138, 20.8221404062254
583.6406732569138, 20.68233094939397
586.4991503839951, 20.915459551342096
586.4991503839951, 20.729046942233524
586.4991503839951, 20.565935909263516
589.3576275110765, 20.82236608735022
589.3576275110765, 20.635953478241646
589.3576275110765, 20.496144021410217
592.2161046381578, 20.682669471081212
592.2161046381578, 20.49625686197264
592.2161046381578, 20.356447405141196
595.0745817652393, 20.636179159366478
595.0745817652393, 20.449766550257905
595.0745817652393, 20.309957093426462
597.9330588923206, 20.543085695374614
597.9330588923206, 20.356673086266028
597.9330588923206, 20.170260477157456
600.791536019402, 20.310182774551294
600.791536019402, 20.12377016544272
600.791536019402, 19.960659132472728
603.6500131464833, 20.170486158282273
603.6500131464833, 19.9840735491737
603.6500131464833, 19.79766094006513
603.6500131464833, 19.6578514832337
605.7938709917944, 19.937555027318368
606.5084902735647, 19.75117062835041
606.5084902735647, 19.564758019241836
608.1759352643621, 19.378411233794665
609.3669674006461, 19.611474012081388
611.0344123914435, 19.378524074357088
610.7962059641867, 19.192102061868297
613.6546830912681, 19.378627511539293
613.6546830912681, 19.192214902430706
613.6546830912681, 19.029103869460712
615.0839216548088, 18.84274768063335
615.7985409365791, 19.378712141961103
616.5131602183494, 19.19232774299313
616.5131602183494, 19.005915133884557
617.9423987818901, 18.81955894505718
617.9423987818901, 18.63314633594861
618.6570180636605, 19.005999764306367
619.3716373454308, 18.470091723259813
620.8008759089715, 18.77306863334246
620.8008759089715, 18.58665602423389
622.2301144725121, 18.353696683129385
623.6593530360528, 18.540165712519155
625.0885915995935, 18.353809523691794
626.5178301631342, 18.540278553081578
626.5178301631342, 18.167453334864433
628.1852751539317, 18.353931767634407
628.1852751539317, 17.981106549417248
627.2324494449045, 17.794656326787873
630.8055458537563, 18.307432052539482
630.8055458537563, 18.12101944343091
630.8055458537563, 17.934606834322324
633.6640229808377, 18.214338588547605
633.6640229808377, 18.02792597943902
633.6640229808377, 17.841513370330446
632.9494036990673, 17.74827885563556
636.522500107919, 17.934832515447155
636.522500107919, 17.748419906338583
636.522500107919, 17.56200729723001
637.9517386714597, 17.352349532264057
639.6191836622571, 17.888351607112625
639.3809772350004, 17.655326442346706
639.3809772350004, 17.468913833238133
638.66635795323, 17.189266709434676
642.2394543620817, 17.841851892017687
642.2394543620817, 17.655439282909114
642.2394543620817, 17.469026673800542
642.2394543620817, 17.28261406469197
644.3833122073928, 17.702127065608067
645.0979314891631, 17.515742666640108
645.0979314891631, 17.329330057531536
645.0979314891631, 17.142917448422963
646.5271700527038, 16.979862835734153
647.9564086162444, 17.469252354925374
647.9564086162444, 17.2828397458168
647.9564086162444, 17.09642713670823
649.3856471797851, 16.933372524019433
650.8148857433258, 17.329555738656367
650.8148857433258, 17.143143129547795
652.4823307341233, 16.95679634410061
652.2441243068665, 16.770374331611833
652.9587435886368, 17.23643406452389
655.1026014339478, 17.003502933559986
655.1026014339478, 16.8170903244514
654.3879821521775, 16.7238558097565
657.9610785610292, 16.957012621845237
657.9610785610292, 16.770600012736665
657.2464592792588, 16.630762345764637
660.8195556881105, 16.957125462407646
660.8195556881105, 16.770712853299074
660.8195556881105, 16.60760182032908
663.678032815192, 16.864031998415783
663.678032815192, 16.67761938930721
663.678032815192, 16.491206780198638
666.5365099422734, 16.81754168670105
666.5365099422734, 16.631129077592476
666.5365099422734, 16.444716468483904
666.5365099422734, 16.304907011652475
669.6331934966115, 16.864267082920804
669.3949870693547, 16.6312419181549
669.3949870693547, 16.444829309046327
669.3949870693547, 16.258416699937754
668.6803677875844, 16.165182185242855
670.109606351125, 17.143904803344086
671.5388449146657, 16.864342309962424
671.5388449146657, 16.677929700853852
672.2534641964361, 16.49154530188588
672.2534641964361, 16.305132692777306
672.2534641964361, 16.1420216598073
675.3501477507742, 16.398461241274205
675.1119413235174, 16.165436076508286
675.1119413235174, 16.025626619676856
677.9704184505988, 16.258755221624995
677.9704184505988, 16.072342612516422
677.9704184505988, 15.88593000340785
680.8288955776801, 16.165661757633117
680.8288955776801, 15.979249148524545
680.1142762959098, 15.839411481552503
683.6873727047615, 16.119171445918397
683.6873727047615, 15.932758836809825
685.354817695559, 15.74641205136264
686.5458498318428, 15.979474829649376
688.2132948226404, 15.746524891925063
687.9750883953835, 15.560102879436286
690.8335655224649, 15.700025176830124
690.8335655224649, 15.513612567721552
690.1189462406945, 15.420378053026667
693.6920426495462, 15.653534865115404
693.6920426495462, 15.467122256006832
696.7887262038845, 15.653657109058017
696.5505197766277, 15.420631944292097
695.8359004948572, 15.327397429597212
698.6943776219387, 15.746938640653909
699.408996903709, 15.560554241685935
699.408996903709, 15.374141632577363
699.408996903709, 15.211030599607355
702.2674740307904, 15.467460777694072
702.2674740307904, 15.2810481685855
702.2674740307904, 15.117937135615492
705.3641575851285, 15.467583021636685
705.1259511578717, 15.234557856870765
704.4113318761014, 15.094720189898737
704.4113318761014, 14.954910733067308
707.2698090031828, 15.560864553232577
707.9844282849531, 15.374480154264617
707.9844282849531, 15.188067545156045
707.9844282849531, 15.024956512186037
711.0811118392912, 15.37460239820723
710.8429054120345, 15.14157723344131
710.8429054120345, 14.955164624332738
710.1282861302641, 14.861930109637854
712.2721439755751, 14.768808435505377
713.7013825391158, 15.328102683112292
713.7013825391158, 15.14169007400372
713.7013825391158, 14.955277464895147
715.1306211026565, 14.79222285220635
715.8452403844268, 15.374790465811245
716.5598596661972, 15.188406066843285
716.5598596661972, 15.001993457734713
717.9890982297378, 14.815637268907352
719.6565432205354, 15.188528310785898
719.4183367932785, 14.955503146019979
720.8475753568192, 14.72254380491546
720.8475753568192, 14.559432771945467
722.2768139203599, 15.23523490024526
722.2768139203599, 15.048822291136688
722.2768139203599, 14.862409682028115
722.9914332021302, 14.629422130782984
725.1352910474412, 15.142141436253382
725.1352910474412, 14.95572882714481
725.1352910474412, 14.769316218036238
728.2319746017795, 15.002454223364566
727.9937681745226, 14.792730634737211
731.0904517288608, 15.188979673035561
730.852245301604, 14.955954508269642
730.1376260198336, 14.862719993574743
733.7107224286854, 15.282289414772052
733.7107224286854, 15.09587680566348
732.9961031469151, 14.956039138691452
736.8074059830235, 15.282411658714665
736.5691995557668, 15.04938649394876
738.2366445465642, 14.847505324409198
739.4276766828481, 15.282515095896883
739.4276766828481, 15.096102486788311
740.8569152463888, 14.90974629796095
742.2861538099295, 15.282627936459292
742.2861538099295, 15.09621532735072
743.7153923734701, 14.979763866939066
745.1446309370108, 15.189534472467429
746.8120759278083, 15.018722071112634
748.2413144913489, 15.282863020964328
749.4323466276328, 15.04989427647962
751.0997916184303, 15.376182166081023
750.8615851911735, 15.166458577453682
753.9582687455118, 15.469501311197732
753.7200623182549, 15.236476146431812
753.7200623182549, 15.05006353732324
755.8639201635659, 15.749195451902196
756.5785394453362, 15.562811052934222
756.5785394453362, 15.37639844382565
756.5785394453362, 15.189985834717078
756.5785394453362, 15.003573225608505
759.4370165724176, 15.562923893496645
759.4370165724176, 15.376511284388073
759.4370165724176, 15.213400251418065
761.1044615632151, 15.749402326266619
762.2954936994989, 15.51643358178191
763.9629386902965, 15.935927775937628
763.7247322630396, 15.702902611171695
766.583209390121, 15.88942806084269
766.583209390121, 15.703015451734103
766.583209390121, 15.516602842625531
769.6798929444592, 15.93615345706246
769.4416865172024, 15.703128292296526
769.4416865172024, 15.540017259326532
768.7270672354321, 15.376878016215912
772.5383700715406, 16.029472602179155
772.3001636442838, 15.8197490135518
771.5855443625135, 15.703212922718336
775.1586407713651, 16.12278234391566
775.1586407713651, 15.936369734807087
775.1586407713651, 15.7499571256985
778.2553243257032, 15.9364919787497
778.0171178984465, 15.726768390122345
780.8755950255279, 16.123008025040477
780.8755950255279, 15.936595415931905
780.8755950255279, 15.796785959100461
783.9722785798659, 16.123130268983104
783.7340721526092, 15.890105104217184
783.7340721526092, 15.750295647385741
786.5925492796906, 16.216440010719595
786.5925492796906, 16.030027401611022
786.5925492796906, 15.866916368641014
789.6892328340286, 16.216562254662207
789.4510264067719, 15.983537089896302
788.7364071250016, 15.843699422924246
788.7364071250016, 15.703889966092817
792.3095035338533, 16.309871996398712
792.3095035338533, 16.12345938729014
792.3095035338533, 15.960348354320132
795.1679806609346, 16.30998483696112
795.1679806609346, 16.12357222785255
795.1679806609346, 15.937159618743976
795.1679806609346, 15.774048585773969
798.026457788016, 16.2634945252464
798.026457788016, 16.07708191613783
798.026457788016, 15.9372724593064
800.8849349150973, 16.12379790897738
800.8849349150973, 15.937385299868808
802.314173478638, 15.820933839457155
803.7434120421788, 16.030704444985517
805.1726506057195, 15.844348256158128
806.6018891692602, 16.030817285547926
808.0311277328008, 15.84446109672055
808.0311277328008, 15.681350063750557
809.6985727235982, 16.03093952949054
809.6985727235982, 15.471701702164808
810.8896048598822, 16.310605460054404
810.8896048598822, 15.751367632728673
810.1749855781118, 15.192101595262358
812.3188434234229, 16.124249271227043
812.3188434234229, 15.937836662118471
812.3188434234229, 15.588313020039891
811.6042241416525, 15.378570624652127
813.7480819869635, 15.751480473291082
815.1773205505042, 15.891346350403737
815.4155269777609, 15.565133687843925
818.0357976775856, 15.611840277303287
818.0357976775856, 15.425427668194715
818.0357976775856, 15.239015059086142
817.3211783958152, 15.145780544391243
819.7032426683829, 15.006065121361829
818.7504169593559, 14.866218051009596
820.8942748046669, 15.425540508757123
820.8942748046669, 15.239127899648551
822.5617197954643, 15.006177961924237
821.6088940864373, 14.866330891572005
823.7527519317483, 14.726606065162372
823.7527519317483, 14.5401934560538
825.181990495289, 15.099487703660742
825.181990495289, 14.91307509455217
825.181990495289, 14.377138843365017
826.8494354860863, 14.726728309104999
826.6112290588296, 14.49370314433908
828.278674049627, 14.291821974799532
828.7550869041407, 14.726803536146605
829.469706185911, 14.540419137178631
831.1371511767085, 14.354072351731475
830.8989447494517, 14.167650339242698
833.757421876533, 14.354175788913679
833.757421876533, 14.167763179805107
833.757421876533, 13.981350570696534
836.6158990036145, 14.307685477198959
836.6158990036145, 14.121272868090387
836.6158990036145, 13.958161835120379
839.4743761306958, 14.121385708652795
839.4743761306958, 13.934973099544223
839.4743761306958, 13.795163642712794
842.3328532577772, 13.981689092383775
842.3328532577772, 13.795276483275202
845.1913303848585, 13.981801932946198
845.1913303848585, 13.795389323837625
845.1913303848585, 13.632278290867617
846.6205689483992, 13.4925252543174
848.0498075119399, 13.842105316677177
848.0498075119399, 13.655692707568605
849.4790460754806, 13.422733366464087
850.9082846390213, 13.749011852685314
850.9082846390213, 13.562599243576727
851.146491066278, 13.251920965109292
850.1936653572509, 13.096539510664684
854.0049681933593, 13.79573724890507
853.7667617661026, 13.562712084139136
853.0521424843323, 13.422874417167108
856.625238893184, 13.795840686087288
856.625238893184, 13.609428076978702
856.625238893184, 13.446317044008708
859.721922447522, 13.795962930029901
859.4837160202653, 13.562937765263968
859.4837160202653, 13.376525156155395
859.4837160202653, 13.190112547046823
860.912954583806, 12.980454782080884
862.3421931473467, 13.656256910380677
862.3421931473467, 13.46984430127209
862.3421931473467, 13.283431692163518
861.6275738655763, 13.14359402519149
865.200670274428, 13.6563697509431
865.200670274428, 13.469957141834513
865.200670274428, 13.28354453272594
864.4860509926577, 13.190310018031042
866.6299088379687, 13.073886767759987
868.0591474015094, 13.60987943922835
868.0591474015094, 13.423466830119779
868.0591474015094, 13.260355797149785
870.9176245285907, 13.609992279790774
870.9176245285907, 13.423579670682201
872.3468630921315, 13.237223481854826
873.7761016556722, 13.610105120353182
873.7761016556722, 13.42369251124461
875.4435466464696, 13.268414493982206
876.6345787827536, 13.703424265469891
876.6345787827536, 13.517011656361305
878.3020237735509, 13.330664870914148
877.3491980645239, 13.190817800561916
879.4930559098349, 13.610330801478014
881.1605009006323, 13.423984016030843
880.9222944733756, 13.214260427403502
882.3515330369163, 13.703649946594723
883.7807716004569, 13.517293757767348
883.7807716004569, 13.330881148658776
883.7807716004569, 13.167770115688782
885.2100101639976, 13.657159634880003
886.877455154795, 13.424209697155675
886.6392487275383, 13.214486108528334
889.4977258546196, 13.51751943889218
889.4977258546196, 13.331106829783607
892.356202981701, 13.517632279454588
892.356202981701, 13.331219670346016
892.356202981701, 13.191410213514587
895.2146801087824, 13.610951424571283
895.2146801087824, 13.42453881546271
895.2146801087824, 13.238126206354139
895.2146801087824, 13.07501517338413
898.0731572358637, 13.704270569688006
898.0731572358637, 13.51785796057942
898.0731572358637, 13.354746927609426
899.7406022266612, 13.89074900245798
900.9316343629451, 13.611177105696115
900.9316343629451, 13.424764496587542
900.9316343629451, 13.23835188747897
902.3608729264857, 13.797646135085913
903.7901114900264, 13.611289946258537
903.7901114900264, 13.424877337149965
905.4575564808239, 13.797768379028525
906.6485886171079, 13.51819648226666
906.6485886171079, 13.355085449296666
908.0778271806486, 13.89107812076503
908.0778271806486, 13.704665511656458
909.5070657441892, 14.030943997877657
909.5070657441892, 13.611515627383355
910.9363043077299, 13.797984656773153
912.3655428712706, 13.984453686162936
914.032987862068, 13.813641284808142
915.2240199983519, 14.077772831279631
916.6532585618926, 13.89141664245227
916.6532585618926, 13.705004033343698
915.9386392801223, 13.565166366371656
918.0824971254333, 14.077885671842054
919.7499421162307, 13.90707327048726
921.1791806797714, 14.171214220338953
921.655593534285, 13.89161411343649
923.799451379596, 14.35773026662973
923.799451379596, 14.171317657521158
923.0848320978257, 14.03147999054913
926.8961349339341, 14.451058815126643
926.6579285066774, 14.241335226499302
929.5164056337587, 14.917193775080293
929.5164056337587, 14.730781165971706
929.5164056337587, 14.544368556863134
929.5164056337587, 14.357955947754562
929.5164056337587, 14.218146490923132
931.1838506245562, 15.476497426067425
930.9456441972994, 15.243472261301505
930.9456441972994, 15.057059652192933
932.3748827608401, 14.82410031108843
932.3748827608401, 14.637687701979843
932.3748827608401, 14.45127509287127
932.3748827608401, 14.264862483762698
932.3748827608401, 14.125053026931269
933.8041213243808, 15.150378797309628
933.8041213243808, 14.963966188201056
935.2333598879214, 14.731006847096538
934.5187406061511, 14.544566027847367
934.5187406061511, 14.404756571015938
936.6625984514621, 15.29030109470348
936.6625984514621, 15.103888485594908
936.6625984514621, 14.917475876486336
938.0918370150029, 14.801024416074668
939.5210755785436, 15.383620239820175
939.5210755785436, 15.197207630711603
939.5210755785436, 15.01079502160303
941.1885205693409, 15.570098672590163
940.2356948603139, 14.871013774912214
942.6177591328816, 15.290536179208502
942.3795527056249, 15.08081259058116
943.8087912691656, 15.75661471888094
943.8087912691656, 15.570202109772367
945.2380298327063, 15.383845920945006
945.2380298327063, 15.220734887974999
944.5234105509359, 15.057595644864406
946.9054748235036, 15.756736962823553
946.6672683962469, 15.523711798057647
948.3347133870443, 15.30629624442571
947.3818876780173, 15.104311637703958
949.5257455233283, 15.943253009114358
949.5257455233283, 15.756840400005771
949.5257455233283, 15.570427790897199
952.3842226504097, 15.943365849676766
952.3842226504097, 15.75695324056818
952.3842226504097, 15.593842207598186
953.09884193218, 15.430759384768791
955.4809062047477, 15.943488093619393
955.242699777491, 15.71046292885346
954.5280804957207, 15.570625261881432
958.3393833318291, 16.130013543290374
958.1011769045724, 15.896988378524455
957.386557622802, 15.803753863829556
960.9596540316537, 16.40973589413545
960.9596540316537, 16.22332328502688
960.9596540316537, 16.036910675918307
960.2450347498834, 15.897073008946265
964.0563375859919, 16.409858138078064
963.8181311587351, 16.20013454945071
963.1035118769647, 16.08359845861726
966.6766082858164, 16.59637418436884
966.6766082858164, 16.40996157526027
966.6766082858164, 16.223548966151697
966.6766082858164, 16.06043793318169
967.3912275675868, 15.897355110352308
969.7732918401546, 16.596496428311468
969.5350854128978, 16.36347126354555
969.5350854128978, 16.20036023057554
968.8204661311275, 16.03722098746495
972.3935625399791, 16.736409322325102
972.3935625399791, 16.54999671321653
972.3935625399791, 16.38688568024652
975.4902460943173, 16.783134718544858
975.2520396670606, 16.550109553778952
974.5374203852903, 16.456875039084053
977.3958975123716, 16.96962255469505
978.110516794142, 16.783238155727076
978.110516794142, 16.596825546618504
978.110516794142, 16.410412937509932
979.5397553576826, 16.270659900959714
980.9689939212233, 16.7833509962895
980.9689939212233, 16.596938387180927
980.9689939212233, 16.410525778072355
982.6364389120207, 16.969829429059473
983.8274710483047, 16.690257532297622
983.8274710483047, 16.50384492318905
985.2567096118453, 17.063139170795992
985.2567096118453, 16.876726561687406
984.542090330075, 16.36406367649822
986.685948175386, 16.736973525137174
985.9713288936157, 16.550532705888003
988.3533931661834, 17.15646771929289
988.1151867389267, 16.923442554526957
989.5444253024674, 16.690483213422453
991.2118702932648, 17.063374255301014
990.9736638660081, 16.83034909053508
991.6882831477784, 16.64396469156712
994.0703474203461, 17.343106009526295
993.8321409930894, 17.110080844760375
993.8321409930894, 16.946969811790368
993.1175217113191, 16.783830568679747
996.6906181201708, 17.52962205581707
996.6906181201708, 17.3432094467085
995.9759988384004, 17.15676862745933
999.5490952472521, 17.716147505488067
999.5490952472521, 17.529734896379495
999.5490952472521, 17.343322287270922
1000.9783338107928, 17.856013382600693
1002.4075723743335, 17.62305404149619
1002.4075723743335, 17.436641432387617
1001.6929530925631, 17.29680376541559
1004.0750173651309, 17.809532474266177
1005.5042559286716, 18.089207808210233
1005.5042559286716, 17.529969980884516
1005.2660495014148, 17.296944816118597
1006.9334944922123, 17.809645314828586
1008.1245266284963, 18.04270809311531
1007.4099073467258, 17.530045207926122
1009.7919716192937, 17.82529253948337
1008.8391459102666, 17.669911085038763
1011.2212101828343, 18.27584609844365
1010.9830037555776, 18.042820933677717
1012.4122423191183, 18.555512029007517
1011.697623037348, 17.856436534709758
1013.841480882659, 18.7419810583973
1013.841480882659, 18.369155840180156
1013.841480882659, 18.182743231071584
1013.1268616008887, 17.996302411822384
1015.5089258734564, 18.55563427295013
1016.938164436997, 18.8353096068942
1016.6999580097403, 18.345967104603986
1018.129196573281, 19.114975537458065
1018.129196573281, 18.555737710132348
1019.5584351368217, 19.48785717595642
1019.5584351368217, 19.30144456684785
1019.5584351368217, 18.92861934863069
1019.5584351368217, 18.742206739522118
1018.8438158550514, 18.415956463441518
1020.9876737003624, 19.115088378020474
1022.6551186911598, 19.487979419899048
1022.4169122639031, 19.278255831271693
1021.7022929821327, 18.975307131329643
1023.8461508274437, 19.767645350462914
1025.2753893909844, 19.954114379852683
1025.2753893909844, 19.58128916163554
1025.2753893909844, 19.41817812866553
1024.560770109214, 19.255038885554924
1026.704627954525, 20.140583409242467
1026.704627954525, 19.767758191025322
1028.1338665180658, 20.32705243863225
1028.1338665180658, 19.954227220415106
1027.4192472362954, 19.627976944334492
1029.5631050816064, 20.699934077130607
1029.5631050816064, 20.513521468022034
1029.5631050816064, 20.140696249804876
1031.2305500724037, 20.327174682574864
1032.4215822086878, 20.979665831355888
1032.4215822086878, 20.793253222247316
1032.4215822086878, 20.606840613138743
1034.0890271994851, 21.352556873234434
1033.8508207722284, 21.119531708468514
1033.136201490458, 20.467059366447913
1035.2800593357692, 21.818635412906886
1035.2800593357692, 21.632222803798314
1035.2800593357692, 20.88657236736401
1035.2800593357692, 20.723461334394003
1035.9946786175394, 22.19148884126463
1036.7092978993098, 22.00510444229667
1036.7092978993098, 21.44586661497094
1036.7092978993098, 21.259454005862366
1036.7092978993098, 21.073041396753794
1038.3767428901072, 21.8187576568495
1038.1385364628504, 21.585732492083594
1038.3767428901072, 20.886694611306623
1038.1385364628504, 20.676971022679282
1037.4239171810802, 20.513831779568676
1037.4239171810802, 20.374022322737233
1039.5677750263912, 22.098423587413365
1039.5677750263912, 21.35277315097906
1039.5677750263912, 21.16636054187049
1040.9970135899318, 22.28489261680315
1040.9970135899318, 21.912067398586004
1040.9970135899318, 21.72565478947743
1040.9970135899318, 21.562543756507424
1042.6644585807292, 22.471371049573122
1042.6644585807292, 22.098545831355977
1043.8554907170133, 22.937449589245574
1043.8554907170133, 22.751036980137002
1045.2847292805538, 23.31033122774393
1045.2847292805538, 23.123918618635358
1045.2847292805538, 22.564680791309627
1045.2847292805538, 22.378268182201055
1044.5701099987837, 22.238430515229027
1046.7139678440947, 23.496800257133714
1046.7139678440947, 22.937562429807997
1046.7139678440947, 22.751149820699425
1048.1432064076353, 23.683269286523483
1048.1432064076353, 23.31044406830634
1048.1432064076353, 23.14733303533633
1049.5724449711759, 23.86973831591328
1049.5724449711759, 23.496913097696122
1051.2398899619734, 23.68339153046611
1051.2398899619734, 23.310566312248966
1052.4309220982573, 24.149470070138563
1052.4309220982573, 23.96305746102999
1054.0983670890548, 24.335948502908536
1054.0983670890548, 23.792245059675196
1053.1455413800277, 23.59026045295343
1053.1455413800277, 23.450450996122
1055.5276056525954, 24.80203644596118
1055.2893992253387, 24.56901128119526
1055.5276056525954, 24.071920393619266
1056.956844216136, 24.336061343470945
1058.3860827796768, 24.988561895632174
1058.14787635242, 24.75553673086624
1058.14787635242, 24.569124121757667
1059.5771149159607, 25.45464043530461
1059.5771149159607, 25.26822782619604
1061.0063534795015, 25.827522073802967
1061.0063534795015, 25.641109464694395
1061.0063534795015, 25.08187163736868
1061.0063534795015, 24.895459028260106
1061.0063534795015, 24.755649571428663
1062.6737984702988, 26.200413115681528
1062.435592043042, 25.967387950915594
1062.6737984702988, 25.454762679247224
1062.435592043042, 25.24503909061987
1063.1502113248125, 26.480050836104795
1063.8648306065827, 25.73442860981109
1065.2940691701235, 26.293722857418032
1065.2940691701235, 26.10731024830946
1065.2940691701235, 25.920897639200874
1065.2940691701235, 25.594675573260872
1066.9615141609208, 26.480201290188006
1066.9615141609208, 25.734550853753703
1068.3907527244614, 26.759876624132076
1068.3907527244614, 26.20063879680636
1068.1525462972047, 25.990915208179004
1069.8199912880023, 26.48031413075043
1071.2492298515429, 26.946402073803057
1071.0110234242861, 26.71337690903715
1072.4402619878267, 27.226068004366937
1073.8695005513675, 27.785362251973865
1073.8695005513675, 27.598949642865293
1073.8695005513675, 27.41253703375672
1073.8695005513675, 27.03971181553956
1073.8695005513675, 26.876600782569568
1075.2987391149081, 27.925228129086506
1075.5369455421649, 27.226190248309564
1076.9661841057057, 27.692278191362192
1076.727977678449, 27.459253026596272
1076.0133583966785, 26.99319329368423
1078.3954226692463, 28.158366134414834
1078.1572162419895, 27.925340969648914
1078.3954226692463, 27.25737185705674
1079.5864548055301, 28.438032064978714
1079.5864548055301, 27.69238162854441
1079.5864548055301, 27.529270595574403
1081.015693369071, 28.81091370347707
1081.015693369071, 28.624501094368497
1081.015693369071, 28.251675876151353
1081.015693369071, 28.065263267042766
1081.015693369071, 27.902152234072773
1082.6831383598683, 28.438154308921327
1083.8741704961521, 28.904232848593765
1083.8741704961521, 28.717820239485192
1083.159551214382, 28.158554202018863
1085.5416154869497, 29.09071128136374
1085.5416154869497, 28.547007838130398
1086.7326476232336, 29.743202430144763
1086.7326476232336, 29.55678982103619
1086.7326476232336, 29.370377211927618
1086.7326476232336, 28.811139384601887
1088.1618861867744, 29.883068307257403
1088.400092614031, 29.184030426480447
1088.1618861867744, 28.951005261714528
1089.591124750315, 29.6501089661529
1089.591124750315, 29.463696357044327
1091.0203633138556, 29.83657799554267
1091.0203633138556, 29.300641744355516
1092.4496018773964, 29.650221806715308
1092.4496018773964, 29.4871107737453
1093.878840440937, 29.83669083610509
1095.3080790044778, 29.65033464727773
1095.3080790044778, 29.5105251904463
1096.7373175680184, 30.023216285776073
1096.7373175680184, 29.8368036766675
1098.166556131559, 29.65044748784014
1099.5957946950998, 30.023329126338496
1099.5957946950998, 29.836916517229923
1099.5957946950998, 29.46409129901278
1101.0250332586404, 30.209798155728265
1101.0250332586404, 29.65056032840255
1100.31041397687, 29.27770690004479
1102.4542718221812, 30.023441966900904
1102.4542718221812, 29.837029357792332
1102.4542718221812, 29.464204139575187
1104.1217168129785, 29.650682572345175
1104.1217168129785, 29.308926122312783
1105.3127489492624, 29.883745350631884
1106.7419875128032, 29.65078600952738
1106.7419875128032, 29.464373400418808
1106.7419875128032, 29.3012623674488
1109.6004646398844, 29.60429569781266
1109.6004646398844, 29.417883088704087
1109.6004646398844, 29.2314704795955
1109.6004646398844, 29.04505787048693
1111.0297032034252, 28.81209852938241
1111.0297032034252, 28.648987496412403
1111.7443224851957, 29.371364566848754
1112.4589417669658, 29.184980167880767
1112.4589417669658, 28.998567558772194
1112.4589417669658, 28.439329731446477
1113.8881803305067, 28.812211369944833
1113.8881803305067, 28.62579876083626
1115.3174188940473, 28.95207724705746
1115.3174188940473, 28.509347300424594
1116.9848638848446, 28.71912730933316
1116.9848638848446, 28.346302091116016
1116.7466574575878, 28.113276926350082
1116.0320381758177, 28.020042411655197
1118.1758960211287, 28.998793239897026
1118.1758960211287, 27.880317585245578
1118.8905153028988, 28.812408840929052
1118.8905153028988, 28.62599623182048
1119.6051345846693, 28.393008680575377
1119.6051345846693, 28.20659607146679
1119.6051345846693, 28.02018346235822
1119.6051345846693, 27.76386612483394
1121.2725795754668, 27.600820915525333
1122.4636117117507, 27.833883693812055
1122.7018181390074, 27.321258422143686
1123.8928502752913, 27.60092435270755
1123.8928502752913, 27.04168652538182
1123.8928502752913, 26.878575492411827
1124.6074695570617, 27.787365171956722
1125.322088838832, 27.414568163880176
1125.322088838832, 27.228155554771604
1126.0367081206023, 27.60100898312936
1126.9895338296294, 27.041808769324433
1126.7513274023727, 26.808783604558514
1126.7513274023727, 26.62237099544994
1126.0367081206023, 26.529136480755056
1128.41877239317, 26.389421057725627
1128.1805659659133, 26.156395892959722
1128.1805659659133, 25.969983283851136
1128.1805659659133, 25.830173827019706
1128.8951852476837, 27.228296605474625
1129.609804529454, 26.995309054229494
1129.609804529454, 26.808896445120922
1129.609804529454, 26.62248383601235
1130.3244238112245, 26.389496284767247
1131.0390430929947, 26.203111885799274
1131.0390430929947, 26.0166992766907
1131.0390430929947, 25.830286667582115
1131.0390430929947, 25.643874058473543
1131.0390430929947, 25.48076302550355
1132.4682816565355, 25.294406836676174
1133.1829009383057, 25.830371298003925
1133.897520220076, 25.643986899035966
1133.897520220076, 25.457574289927393
1133.897520220076, 25.08474907171025
1135.3267587836167, 25.27121810110002
1135.3267587836167, 24.898392882882874
1135.3267587836167, 24.735281849912866
1136.041378065387, 25.457658920349203
1136.9942037744142, 25.08487131565286
1136.9942037744142, 24.52563348832713
1138.4234423379548, 24.805308822271186
1138.4234423379548, 24.24607099494547
1139.8526809014957, 24.52574632888954
1139.614474474239, 24.036403826599326
1141.0437130377795, 24.246174432127688
1141.0437130377795, 23.873349213910544
1141.0437130377795, 23.686936604801957
1142.4729516013201, 24.059818243300327
1142.4729516013201, 23.500580415974596
1143.902190164861, 23.873462054472952
1143.902190164861, 23.687049445364366
1143.902190164861, 23.31422422714722
1143.902190164861, 23.12781161803865
1145.3314287284015, 23.500693256537005
1145.3314287284015, 22.941455429211288
1145.3314287284015, 22.755042820102716
1145.3314287284015, 22.56863021099413
1146.7606672919424, 23.314337067709644
1146.7606672919424, 23.127924458601072
1146.7606672919424, 22.38227402216677
1148.189905855483, 22.894965117496568
1148.189905855483, 22.708552508387996
1148.189905855483, 22.52213989927941
1148.189905855483, 22.26582256175513
1149.6191444190235, 22.10276794906632
1149.6191444190235, 21.93965691609631
1151.0483829825644, 22.429046435287532
1151.0483829825644, 22.24263382617896
1151.286589409821, 21.73000855451059
1151.0483829825644, 21.496983389744656
1152.477621546105, 22.009674485074456
1152.477621546105, 21.28732562477873
1153.1922408278754, 22.196115304323627
1153.9068601096455, 21.776715143969938
1153.9068601096455, 21.590302534861365
1153.9068601096455, 21.40388992575278
1154.1450665369023, 21.07767726319298
1155.3360986731864, 20.868010094846838
1156.0507179549568, 21.450577708451732
1156.765337236727, 21.21759015720663
1156.765337236727, 21.031177548098057
1157.0035436639837, 20.70496488553826
1156.0507179549568, 20.565117815186014
1158.4327822275245, 20.4254023921566
1158.909195082038, 20.891452721688438
1159.6238143638084, 20.705068322720464
1159.6238143638084, 20.169132071533312
1161.053052927349, 20.518712133893104
1161.053052927349, 20.332299524784517
1161.053052927349, 19.959474306567373
1161.053052927349, 19.796363273597365
1162.4822914908898, 20.145943335957156
1163.19691077266, 20.332384155206327
1164.1497364816871, 19.959596550509985
1163.9115300544304, 19.726571385744066
1163.9115300544304, 19.540158776635494
1163.19691077266, 19.44692426194061
1165.3407686179712, 19.30719943553099
1165.3407686179712, 19.144088402560982
1166.0553878997414, 20.052878082105877
1166.0553878997414, 19.866465472997305
1166.7700071815118, 19.633477921752203
1166.7700071815118, 19.44706531264363
1167.0082136087685, 18.96550880916
1168.4374521723091, 19.214115374919302
1169.6284843085932, 18.93454347815745
1169.6284843085932, 18.74813086904888
1169.6284843085932, 18.561718259940307
1171.0577228721338, 19.30742511665582
1171.0577228721338, 19.121012507547235
1171.0577228721338, 18.375362071112946
1171.0577228721338, 18.188949462004373
1171.0577228721338, 18.002536852895787
1171.0577228721338, 17.816124243787215
1171.0577228721338, 17.629711634678642
1171.7723421539042, 19.493865935904992
1172.4869614356746, 18.93465631871986
1172.4869614356746, 18.748243709611287
1172.4869614356746, 18.561831100502715
1173.2015807174448, 19.121097137969045
1174.154406426472, 18.37548431505556
1173.9161999992152, 18.14245915028964
1173.2015807174448, 18.002621483317597
1173.2015807174448, 17.862812026486168
1174.6308192809856, 18.841534644587384
1174.6308192809856, 18.65512203547881
1176.0600578445262, 18.46876584665145
1176.7746771262966, 18.235778295406348
1176.7746771262966, 18.04936568629776
1176.7746771262966, 17.86295307718919
1176.0600578445262, 17.76971856249429
1178.2039156898372, 17.62999373608467
1178.2039156898372, 17.4435811269761
1179.6331542533778, 18.375700592800186
1179.6331542533778, 18.189287983691614
1179.6331542533778, 18.002875374583027
1179.6331542533778, 17.816462765474455
1179.6331542533778, 17.280526514287303
1180.3477735351482, 18.74855402115793
1181.0623928169186, 18.515566469912827
1181.3005992441754, 17.630115980027284
1181.0623928169186, 17.39709081526138
1181.777012098689, 18.28257891866771
1181.777012098689, 18.096166309559123
1182.4916313804592, 17.863178758314007
1182.729837807716, 17.164140877537065
1181.777012098689, 17.024293807184833
1183.2062506622296, 17.630191207068904
1183.920869944, 17.397203655823787
1184.1590763712568, 16.884578384155404
1185.3501085075407, 17.164244314719284
1185.3501085075407, 16.62830806353213
1187.017553498338, 16.9778975292721
1186.7793470710812, 16.74487236450618
1188.4467920618788, 16.51192242678188
1188.9232049163923, 17.164385365422305
1189.6378241981627, 16.978000966454317
1189.6378241981627, 16.791588357345745
1189.6378241981627, 16.232350530020028
1189.6378241981627, 16.06923949705002
1191.0670627617035, 16.605232168518384
1191.0670627617035, 16.418819559409812
1191.0670627617035, 15.88288330822266
1192.7345077525008, 16.23247277396264
1192.496301325244, 15.999447609196721
1194.1637463160414, 15.782032055564784
1194.640159170555, 16.232548001004247
1195.3547784523255, 15.999560449759144
1196.784017015866, 15.766601108654612
1196.784017015866, 15.603490075684618
1198.2132555794067, 15.95307013804441
1198.2132555794067, 15.393832310718679
1198.2132555794067, 15.25402285388725
1199.6424941429475, 15.766713949217035
1199.6424941429475, 15.580301340108463
1200.357113424718, 15.95315476846622
1201.3099391337448, 15.393954554661292
1201.071732706488, 15.160929389895372
1201.071732706488, 14.9745167807868
1201.071732706488, 14.788104171678228
1200.357113424718, 14.694869656983329
1202.500971270029, 14.55514483057371
1203.215590551799, 15.487236086257198
1203.215590551799, 15.300823477148626
1203.215590551799, 15.114410868040054
1203.9302098335695, 14.92802646907208
1203.9302098335695, 14.741613859963493
1203.9302098335695, 14.368788641746349
1205.5976548243668, 14.555267074516323
1205.35944839711, 14.25233718133471
1208.2179255241915, 14.648576816252827
1208.2179255241915, 14.462164207144255
1208.2179255241915, 14.275751598035683
1208.2179255241915, 14.08933898892711
1209.885370514989, 13.934060971664707
1210.3617833695025, 14.555455142120351
1210.3617833695025, 14.369042533011779
1211.076402651273, 14.182658134043805
1212.5056412148135, 13.996301945216445
1212.5056412148135, 13.809889336107872
1214.173086205611, 14.182780377986433
1215.364118341895, 13.903208481224567
1215.364118341895, 13.74009744825456
1216.0787376236653, 14.089649300473752
1216.7933569054358, 13.553741259427198
1218.460801896233, 13.903330725167194
1218.2225954689764, 13.670305560401275
1218.460801896233, 13.37516166602623
1220.3664533142874, 14.183024865871658
1221.0810725960578, 13.996640466903685
1221.0810725960578, 13.810227857795113
1221.0810725960578, 13.623815248686526
1221.0810725960578, 13.437402639577954
1221.0810725960578, 13.27429160660796
1223.2249304413688, 13.810312488216923
1223.939549723139, 13.623928089248949
1223.939549723139, 13.437515480140377
1223.939549723139, 13.274404447170383
1226.7980268502204, 13.437628320702785
1226.7980268502204, 13.251215711594213
1226.7980268502204, 13.088104678624205
1228.9418846955314, 13.437712951124595
1229.6565039773018, 13.251328552156622
1229.6565039773018, 13.06491594304805
1229.6565039773018, 12.878503333939477
1231.0857425408424, 12.762051873527824
1232.5149811043832, 13.298044544996188
1232.5149811043832, 13.111631935887615
1232.5149811043832, 12.925219326779043
1233.9442196679238, 12.69225998567454
1235.3734582314646, 13.018538471895738
1235.3734582314646, 12.832125862787166
1236.8026967950052, 12.645769673959805
1238.2319353585458, 12.972048160181018
1238.2319353585458, 12.785635551072446
1239.6611739220866, 12.645882514522214
1241.0904124856272, 13.158573609851999
1241.0904124856272, 12.972161000743426
1241.0904124856272, 12.785748391634854
1241.8050317673976, 13.34501442910117
1242.519651049168, 12.599392202807493
1243.2342703309382, 13.158658240273809
1243.9488896127086, 12.925670689028692
1243.9488896127086, 12.73925807992012
1244.1870960399654, 12.444114185545075
1247.0455731670468, 12.78598347613989
1246.80736673979, 12.55295831137397
1246.80736673979, 12.366545702265384
1248.2366053033306, 12.203491089576602
1249.6658438668712, 12.925896370153524
1249.6658438668712, 12.739483761044951
1249.6658438668712, 12.55307115193638
1249.6658438668712, 12.366658542827793
1248.951224585101, 12.040408266747193
1252.7625274212094, 12.786209157264707
1252.5243209939526, 12.553183992498802
1251.8097017121825, 12.413346325526746
1255.6210045482908, 12.972734606935703
1255.382798121034, 12.739709442169783
1255.382798121034, 12.55329683306121
1255.382798121034, 12.366884223952624
1255.382798121034, 12.180471614844052
1254.6681788392636, 12.087237100149167
1258.2412752481155, 12.739822282732206
1258.2412752481155, 12.553409673623634
1258.2412752481155, 12.390298640653626
1257.526655966345, 12.227159397543005
1261.3379588024536, 12.786547678951962
1261.0997523751969, 12.553522514186042
1260.3851330934265, 12.460287999491143
1263.243610220508, 12.97303551510214
1263.958229502278, 12.786651116134166
1263.958229502278, 12.600238507025594
1263.958229502278, 12.413825897917008
1263.958229502278, 12.250714864947014
1265.387468065819, 12.041057099981074
1265.387468065819, 11.877946067011067
1266.102087347589, 12.600323137447404
1266.8167066293595, 12.41393873847943
1266.8167066293595, 12.227526129370858
1266.8167066293595, 11.714891454322284
1268.4841516201568, 12.041179343923687
1268.2459451929, 11.831455755296332
1271.1044223199815, 12.181092237937335
1271.1044223199815, 11.994679628828763
1270.3898030382113, 11.901445114133864
1273.962899447063, 12.1346019262226
1273.962899447063, 11.948189317114029
1273.962899447063, 11.78507828414402
1274.6775187288333, 11.62199546131464
1276.8213765741443, 12.321127375893596
1276.8213765741443, 12.134714766785024
1276.8213765741443, 11.948302157676451
1276.8213765741443, 11.785191124706444
1278.4888215649416, 12.694018417772156
1278.250615137685, 12.460993253006222
1278.9652344194553, 12.973656138195423
1279.6798537012257, 12.228033911901719
1279.6798537012257, 12.041621302793146
1279.6798537012257, 11.878510269823138
1280.394472982996, 12.600887340259476
1281.1090922647663, 12.414502941291502
1281.1090922647663, 11.692154080995778
1282.538330828307, 12.228146752464127
1282.538330828307, 12.041734143355555
1282.538330828307, 11.855321534246983
1281.8237115465367, 11.529071258166383
1284.2057758191045, 12.414625185234115
1283.2529501100773, 11.668937135279023
1285.3968079553883, 12.158354864610843
1284.682188673618, 11.995215621500222
1287.064252946186, 12.694356939459396
1286.8260465189292, 12.461331774693477
1286.8260465189292, 12.274919165584905
1288.4934915097265, 12.04196922786059
1289.6845236460103, 12.880872985750187
1289.6845236460103, 12.694460376641615
1289.6845236460103, 12.508047767533029
1289.6845236460103, 12.321635158424456
1290.3991429277808, 13.067313804999358
1291.1137622095512, 12.135278969597096
1291.1137622095512, 11.972167936627102
1291.8283814913214, 12.694545007063425
1292.5430007730918, 12.461557455818294
1292.5430007730918, 12.275144846709722
1293.9722393366324, 12.065487081743797
1295.4014779001732, 12.415067144103574
1295.4014779001732, 12.228654534995002
1295.4014779001732, 11.855829316777857
1296.8307164637138, 12.741345630324787
1296.8307164637138, 12.554933021216215
1297.0689228909705, 12.042307749547831
1297.0689228909705, 11.669482531330686
1296.1160971819436, 11.529635460978454
1298.4981614545113, 12.3219830834919
1299.927400018052, 12.601658417435985
1298.9745743090248, 12.042382976589437
1301.1184321543358, 12.345388096812698
1300.4038128725656, 12.182248853702077
1302.5476707178766, 12.648365006895332
1302.5476707178766, 12.461952397786746
1305.406147844958, 12.55527154290347
1305.406147844958, 12.368858933794883
1305.406147844958, 12.18244632468631
1304.6915285631876, 12.089211809991411
1306.8353864084986, 11.949486983581792
1306.8353864084986, 11.809677526750363
1308.502831399296, 12.508790634568925
1308.2646249720392, 12.275765469803005
1308.2646249720392, 12.089352860694433
1309.69386353558, 11.879695095728493
1311.1231020991206, 12.555497224028286
1311.1231020991206, 12.3690846149197
1311.1231020991206, 12.182672005811128
1311.1231020991206, 11.996259396702555
1313.981579226202, 12.415800607759266
1313.981579226202, 12.229387998650694
1313.981579226202, 12.089578541819265
1317.0782627805402, 12.509129156256165
1316.8400563532834, 12.276103991490245
1316.8400563532834, 12.089691382381673
1316.8400563532834, 11.903278773273101
1318.5075013440808, 11.670328835548801
1318.269294916824, 11.437303670782882
1317.5546756350536, 11.344069156087983
1318.9839141985944, 12.695616992406357
1319.6985334803646, 12.509232593438384
1319.6985334803646, 12.322819984329811
1319.6985334803646, 12.13640737522124
1319.6985334803646, 11.949994766112667
1318.9839141985944, 11.20431611953775
1318.9839141985944, 11.064506662706322
1320.413152762135, 11.763610367144693
1320.413152762135, 11.577197758036121
1322.557010607446, 12.742361195386522
1322.557010607446, 12.55594858627795
1322.557010607446, 12.369535977169363
1321.8423913256759, 12.229698310197335
1321.8423913256759, 12.043285701088763
1325.4154877345275, 12.695870883671788
1325.4154877345275, 12.509458274563201
1325.4154877345275, 12.323045665454629
1325.4154877345275, 12.136633056346056
1326.844726298068, 11.950276867518696
1326.844726298068, 11.787165834548688
1328.5121712888656, 12.882405736722987
1328.2739648616089, 12.649380571957067
1328.2739648616089, 12.46296796284848
1328.2739648616089, 12.276555353739909
1328.2739648616089, 12.090142744631336
1329.7032034251495, 11.903786555803975
1331.370648415947, 12.78931227273111
1331.1324419886903, 12.55628710796519
1331.1324419886903, 12.369874498856603
1331.1324419886903, 12.183461889748031
1331.1324419886903, 11.997049280639459
1331.8470612704605, 13.068949993154376
1332.5616805522309, 11.810693091812098
1333.2762998340013, 12.882593804327001
1333.9909191157715, 12.696209405359042
1333.9909191157715, 12.509796796250455
1333.9909191157715, 12.323384187141883
1333.9909191157715, 12.136971578033311
1333.2762998340013, 11.950530758784126
1336.849396242853, 12.370100179981435
1336.849396242853, 12.183687570872863
1336.849396242853, 11.99727496176429
1339.7078733699343, 12.3236098682667
1339.7078733699343, 12.137197259158128
1339.7078733699343, 11.974086226188135
1342.8045569242724, 12.323732112209328
1342.5663504970157, 12.090706947443408
1341.8517312152453, 11.997472432748523
1345.424827624097, 12.696660767608691
1345.424827624097, 12.510248158500104
1345.424827624097, 12.323835549391532
1345.424827624097, 12.13742294028296
1348.2833047511783, 12.463757846785384
1348.2833047511783, 12.277345237676812
1348.2833047511783, 12.137535780845383
1351.1417818782597, 12.41726753507065
1351.1417818782597, 12.230854925962078
1351.1417818782597, 12.044442316853505
1354.2384654325979, 12.697008692676135
1354.0002590053411, 12.463983527910202
1354.0002590053411, 12.27757091880163
1354.0002590053411, 12.091158309693057
1354.0002590053411, 11.904745700584485
1354.7148782871113, 11.718361301616525
1356.1441168506522, 12.697083919717755
1356.8587361324226, 12.510699520749768
1356.8587361324226, 12.324286911641195
1356.8587361324226, 12.161175878671202
1359.7172132595038, 12.41760605675789
1359.7172132595038, 12.231193447649318
1361.1464518230446, 12.068138834960536
1362.813896813842, 12.60414090980909
1362.5756903865852, 12.37111574504317
1362.5756903865852, 12.184703135934598
1364.0049289501258, 11.975045370968658
1365.4341675136666, 12.511038042437008
1365.4341675136666, 12.324625433328436
1365.4341675136666, 12.138212824219863
1365.4341675136666, 11.788689182141283
1367.101612504464, 11.951866038772707
1366.148786795437, 11.579003207034745
1368.292644640748, 12.557754035276574
1368.292644640748, 12.371341426167987
1368.292644640748, 12.184928817059415
1371.1511217678292, 12.464660571284696
1371.1511217678292, 12.278247962176124
1371.1511217678292, 12.138438505344695
1374.0095988949106, 12.371567107292819
1374.0095988949106, 12.185154498184247
1373.2949796131402, 12.091919983489362
1377.1062824492487, 12.325086198958289
1376.868076021992, 12.092061034192383
1376.1534567402216, 11.998826519497484
1378.2973145855326, 11.859101693087865
1378.2973145855326, 11.695990660117857
1379.7265531490734, 12.37179278841765
1379.7265531490734, 12.185380179309078
1379.7265531490734, 11.998967570200506
1379.011933867303, 11.486304685011334
1380.4411724308436, 11.76598001895539
1380.4411724308436, 11.62617056212396
1382.8232367034113, 12.232105575528834
1382.5850302761546, 12.022381986901507
1381.8704109943844, 11.90584589606803
1385.443507403236, 12.418621621819625
1385.443507403236, 12.232209012711053
1385.443507403236, 12.04579640360248
1388.3019845303174, 12.418734462382034
1388.3019845303174, 12.232321853273461
1388.3019845303174, 12.04590924416489
1388.3019845303174, 11.859496635056317
1388.3019845303174, 11.696385602086309
1390.4458423756284, 12.698438006466716
1391.1604616573989, 12.4654504552216
1391.1604616573989, 12.279037846113027
1391.1604616573989, 12.092625237004455
1391.1604616573989, 11.906212627895883
1391.1604616573989, 11.71980001878731
1390.4458423756284, 11.579962351815269
1394.257145211737, 12.232556937778497
1394.0189387844803, 12.022833349151156
1393.3043195027099, 11.85969410604055
1396.8774159115615, 12.325866679515002
1396.8774159115615, 12.13945407040643
1396.8774159115615, 11.976343037436436
1398.544860902359, 12.512345112284976
1398.544860902359, 11.782229059943063
1397.5920351933319, 11.626847605498455
1399.7358930386429, 12.232773215523125
1399.7358930386429, 12.046360606414552
1400.4505123204133, 12.419214034772295
1400.4505123204133, 11.859976207446579
1400.4505123204133, 11.72016675061515
