212.5, 0.019274148499668353
213, 0.019282894757001956
213.5, 0.01916209756324283
214, 0.018960254680812638
214.5, 0.018846759424363757
215, 0.01885889111764183
215.5, 0.018888998798205936
216, 0.018886720933187218
216.5, 0.01887748544182377
217, 0.018877040531569134
217.5, 0.01888271368545047
218, 0.018886286479028458
218.5, 0.018873773654728865
219, 0.018859226254486883
219.5, 0.018900879617466115
220, 0.018958533063112126
220.5, 0.018813185428739554
221, 0.01842101489711445
221.5, 0.01811463723639306
222, 0.018091576931020148
222.5, 0.018162970587800475
223, 0.018170763031288284
223.5, 0.018152451781473622
224, 0.01815201095328467
224.5, 0.018153615537346734
225, 0.018145260458232726
225.5, 0.01815593935865767
226, 0.018190999512647354
226.5, 0.018151435365215907
227, 0.01797174517972433
227.5, 0.01779266359084164
228, 0.017753840648375152
228.5, 0.017789354146975578
229, 0.017801125346390667
229.5, 0.017791779206186353
230, 0.017788252810883698
230.5, 0.01779069752994089
231, 0.017791730853153886
231.5, 0.017791100841511476
232, 0.017790848778904134
232.5, 0.01779099382881011
233, 0.017790874658189404
233.5, 0.01779088269832607
234, 0.017791626202829702
234.5, 0.01779153271246381
235, 0.017788721836050292
235.5, 0.017788809387044413
236, 0.0177990901450773
236.5, 0.01779981788525531
237, 0.017762437327397018
237.5, 0.01775594586257967
238, 0.01790106982706874
238.5, 0.01810796764408662
239, 0.018146930130410688
239.5, 0.018104073219253114
240, 0.018310705683205142
240.5, 0.018721204034187755
241, 0.018951772878812778
241.5, 0.01892184090617266
242, 0.018864067272563623
242.5, 0.018873117951584972
243, 0.01887667117822156
243.5, 0.018863882680057453
244, 0.018909557228501073
244.5, 0.01906844926761342
245, 0.019359830118608534
245.5, 0.019735764849965864
246, 0.020052572569757232
246.5, 0.02024035623601783
247, 0.02036445342488069
247.5, 0.020509641506504583
248, 0.020772406884243533
248.5, 0.02115527409189699
249, 0.021467924262818516
249.5, 0.021625044200686894
250, 0.021830492867375373
250.5, 0.022202065808447635
251, 0.022542603443334808
251.5, 0.02271634856714877
252, 0.022894708888553716
252.5, 0.02322559459389395
253, 0.02361775321085513
253.5, 0.0239728343662291
254, 0.0243297024249014
254.5, 0.024721885457958614
255, 0.025045631619632025
255.5, 0.02521861711064899
256, 0.025398072995069798
256.5, 0.02574415205551084
257, 0.026111907041662774
257.5, 0.02631753630901079
258, 0.026474293075387068
258.5, 0.026762973128861667
259, 0.0271572833730519
259.5, 0.027557163763751058
260, 0.027896636291330656
260.5, 0.02813259369533405
261, 0.02828749805886077
261.5, 0.028417488265062407
262, 0.02860439814370408
262.5, 0.02892727283148422
263, 0.029303660249241137
263.5, 0.02957154618758695
264, 0.02972573583403404
264.5, 0.029859737161681332
265, 0.03003956295568211
265.5, 0.03030837615837223
266, 0.03067413066594804
266.5, 0.031111797104401595
267, 0.03149116267682528
267.5, 0.03160666506712073
268, 0.03155456339784635
268.5, 0.03170667063655286
269, 0.03210378006841863
269.5, 0.03243557849344447
270, 0.032598432929693555
270.5, 0.03274406619176973
271, 0.03293264575717447
271.5, 0.033091465183457625
272, 0.03323727329521631
272.5, 0.0335220550066907
273, 0.033928716262643155
273.5, 0.03416393016408403
274, 0.034138840659555525
274.5, 0.03415601535338708
275, 0.034357698755140165
275.5, 0.03450767690354961
276, 0.03448670569083734
276.5, 0.034512234317377266
277, 0.03470649647238633
277.5, 0.034867764069179685
278, 0.03486334739279506
278.5, 0.03486239858352069
279, 0.03500936485285444
279.5, 0.03523478399563251
280, 0.03544379620928584
280.5, 0.03558499056310105
281, 0.03562741893709731
281.5, 0.035582493487150924
282, 0.03550315545041671
282.5, 0.03557226024345739
283, 0.03592035069758248
283.5, 0.03628863304347074
284, 0.036385299804274296
284.5, 0.036316420495276946
285, 0.03628290489757291
285.5, 0.036303155655509456
286, 0.03633068255038652
286.5, 0.03631892974721296
287, 0.036245730099576656
287.5, 0.036265647912790966
288, 0.03656555676198692
288.5, 0.036959692537313016
289, 0.0371178517060895
289.5, 0.037061713424944465
290, 0.03699389919550067
290.5, 0.03700671298576963
291, 0.037121416435512034
291.5, 0.03731425392042631
292, 0.03753164350315541
292.5, 0.037711984187352
293, 0.037792490116966504
293.5, 0.03777999295898904
294, 0.03773781624076411
294.5, 0.03773091142025897
295, 0.037821387129548856
295.5, 0.038007555223456335
296, 0.03822507109470885
296.5, 0.038413231531052916
297, 0.038519215840683185
297.5, 0.03852411030482916
298, 0.03845120524050627
298.5, 0.03840502619010355
299, 0.03859010730289436
299.5, 0.03899134087138678
300, 0.03926522485494155
300.5, 0.03926487648556787
301, 0.03920258993715042
301.5, 0.039208386760695935
302, 0.039206950068474855
302.5, 0.03917600908794616
303, 0.03924034444008051
303.5, 0.03943963173084819
304, 0.039588308910559755
304.5, 0.039581310053687924
305, 0.039583945009576404
305.5, 0.03973067869364977
306, 0.03996125790255811
306.5, 0.0401830073632371
307, 0.04030459609175818
307.5, 0.04029180099106677
308, 0.04030357018000752
308.5, 0.04047084652046817
309, 0.04066231809488763
309.5, 0.040724001815051425
310, 0.04067053860760561
310.5, 0.040582815905105374
311, 0.04064370818942331
311.5, 0.04099118736040275
312, 0.04136154268350267
312.5, 0.0414382023111356
313, 0.04138765689595314
313.5, 0.04150235698098037
314, 0.041716864733378545
314.5, 0.041835053932581134
315, 0.04179086601862936
315.5, 0.04159550503604681
316, 0.04140957417311175
316.5, 0.04144464893767674
317, 0.04166950450256568
317.5, 0.04192068702109675
318, 0.04209033714415811
318.5, 0.04211818111175358
319, 0.04209639813334298
319.5, 0.04220703985112051
320, 0.04241309972764351
320.5, 0.0425191034188126
321, 0.04249931435462673
321.5, 0.042470485330563745
322, 0.04247507686746077
322.5, 0.04248318503562021
323, 0.04248217940079424
323.5, 0.042479790072722845
324, 0.042479905070922586
324.5, 0.04248102326926395
325, 0.042481411015707904
325.5, 0.04247949603462042
326, 0.04247774727941611
326.5, 0.042483920986801094
327, 0.04249098913658944
327.5, 0.04246954078656495
328, 0.04244139899028787
328.5, 0.04251680313635309
329, 0.04271395112769305
329.5, 0.04286437977283408
330, 0.04287322717664699
330.5, 0.042839522926463425
331, 0.04283954693509473
331.5, 0.04284249542748764
332, 0.042829393982142694
332.5, 0.04284957714420423
333, 0.04296380471110717
333.5, 0.043234776580276635
334, 0.04364735214871318
334.5, 0.04393827260044536
335, 0.04393130684086255
335.5, 0.04393323133205196
336, 0.04423586738362195
336.5, 0.04464651641458217
337, 0.04490887576849201
337.5, 0.04501836379354929
338, 0.045038485915392834
338.5, 0.04502367180895106
339, 0.04501780077176565
339.5, 0.045021603344330585
340, 0.045022871232705985
340.5, 0.04502206884338922
341, 0.04502342562954886
341.5, 0.04502314193082402
342, 0.04501638158745991
342.5, 0.04501757885984914
343, 0.0450428863348864
343.5, 0.04504090807037597
344, 0.044933436691389605
344.5, 0.04473446465061626
345, 0.04451230222626046
345.5, 0.04433600413421834
346, 0.04426822174315326
346.5, 0.0442847767166501
347, 0.04430303144451686
347.5, 0.044298928830798556
348, 0.04429489094606176
348.5, 0.044296366624040795
349, 0.04429352386463048
349.5, 0.04429091446378497
350, 0.04430591752462587
350.5, 0.044316309039697965
351, 0.044261570730569244
351.5, 0.04421803581394501
352, 0.04441790545153501
352.5, 0.044828036593299814
353, 0.045065972962810785
353.5, 0.045031522090138165
354, 0.04505800892082257
354.5, 0.045267772558801544
355, 0.04539902044519517
355.5, 0.04536215869431981
356, 0.04542644540389529
356.5, 0.045668831860566805
357, 0.04572493667421795
357.5, 0.045471955745338466
358, 0.045414212177532276
358.5, 0.04580868334587951
359, 0.046127554264378645
359.5, 0.04599258468543499
360, 0.04572838263029655
360.5, 0.04565810810297599
361, 0.04575793190467636
361.5, 0.04593980385673768
362, 0.046115026928202685
362.5, 0.046244105515280576
363, 0.04647036193893306
363.5, 0.046885936259789984
364, 0.0471950903978382
364.5, 0.04711107271409454
365, 0.04685573969000423
365.5, 0.046745158315584456
366, 0.04681808916597319
366.5, 0.047010716730251034
367, 0.04718519097014329
367.5, 0.04721209920090064
368, 0.047192885031939524
368.5, 0.04729694358658576
369, 0.047508478822274824
369.5, 0.047731853453504725
370, 0.04789831027116398
370.5, 0.047960102284615225
371, 0.047940079578795314
371.5, 0.04790007471395019
372, 0.04790346088311459
372.5, 0.04800858930597862
373, 0.048203143537554394
373.5, 0.04842645430793613
374, 0.048607667903160734
374.5, 0.04867511114792511
375, 0.04865817388033
375.5, 0.048663343283719795
376, 0.048678928085865936
376.5, 0.048588953005835434
377, 0.048394784737517904
377.5, 0.04821927527297387
378, 0.04819033260753258
378.5, 0.048429122424813564
379, 0.048837698819256925
379.5, 0.04905830143310319
380, 0.0490206058705045
380.5, 0.04905791201336129
381, 0.049272988379590155
381.5, 0.049386751963544584
382, 0.04933339197345976
382.5, 0.04944624239204842
383, 0.04983772772901185
383.5, 0.05015189493198935
384, 0.05017658632504629
384.5, 0.05008965911897001
385, 0.05005865157560807
385.5, 0.05012295174295445
386, 0.050284478858333315
386.5, 0.05049518613649817
387, 0.05069912051405845
387.5, 0.05083961163958395
388, 0.0508773797020724
388.5, 0.05082735757229717
389, 0.05075092542253745
389.5, 0.050833967853328055
390, 0.05119037721784636
390.5, 0.051551262101291795
391, 0.051641913766374614
391.5, 0.05156361504284723
392, 0.05150047936738411
392.5, 0.05154457211021912
393, 0.05172789467779759
393.5, 0.05190740918194092
394, 0.05192679506434894
394.5, 0.051910046408851884
395, 0.05204673595591669
395.5, 0.05225067053730559
396, 0.05234136357655039
396.5, 0.052305244484893154
397, 0.05221626179403782
397.5, 0.052231439109308275
398, 0.05251768482088559
398.5, 0.05291459038053614
399, 0.05310030682235245
399.5, 0.05305247522719969
400, 0.05294043789444436
400.5, 0.05293920266223384
401, 0.05320634441020955
401.5, 0.053608483590698364
402, 0.05380488082707269
402.5, 0.053766768312392244
403, 0.05372808815283314
403.5, 0.053744770347081916
404, 0.05370391522091977
404.5, 0.05366592876974141
405, 0.053869074243754644
405.5, 0.054274843058599975
406, 0.05452439945484411
406.5, 0.05450785985445805
407, 0.05445036318660468
407.5, 0.05446001064521799
408, 0.054452485403148954
408.5, 0.0544224945328694
409, 0.054507384587434426
409.5, 0.05471859094898057
410, 0.0548329465665488
410.5, 0.05478837367098921
411, 0.05487030943669979
411.5, 0.055223099893402794
412, 0.05561380731714194
412.5, 0.055845433769361574
413, 0.055915865113875585
413.5, 0.055888896550269185
414, 0.05592735440427776
414.5, 0.056118319801594096
415, 0.05628386193198365
415.5, 0.05628734044155448
416, 0.05627944022626663
416.5, 0.05641305904240168
417, 0.05663986861885939
417.5, 0.05686655150060149
418, 0.05700155245915606
418.5, 0.05699663196599669
419, 0.056997587160216856
419.5, 0.05715332183841293
420, 0.057350307524134836
420.5, 0.057422748646697164
421, 0.05737937270499782
421.5, 0.05730081492682182
422, 0.05733357132045391
422.5, 0.05761323110374306
423, 0.0580109269261222
423.5, 0.05830347003796332
424, 0.058441158433580886
424.5, 0.0584633106252086
425, 0.05845099995058256
425.5, 0.058505374681683375
426, 0.05870557288954237
426.5, 0.05909693786132475
427, 0.05947847656301142
427.5, 0.05951609137632752
428, 0.059277466281671964
428.5, 0.05911038641272237
429, 0.05913101395871445
429.5, 0.059264696093009994
430, 0.05944957824758845
430.5, 0.05964107158383403
431, 0.05981888557939996
431.5, 0.05998641964339757
432, 0.06015975960385844
432.5, 0.06036560851001738
433, 0.06056553018981592
433.5, 0.060645992267045035
434, 0.06062062894402287
434.5, 0.06067366926075424
435, 0.06086301334049349
435.5, 0.061047712921337594
436, 0.06119271906761814
436.5, 0.061456629115545836
437, 0.061856165509104666
437.5, 0.06212585117622005
438, 0.06213601356981213
438.5, 0.062081385614791706
439, 0.06209260707525621
439.5, 0.06207753912903713
440, 0.06201374879729582
440.5, 0.06211956374672101
441, 0.062496499287443164
441.5, 0.06283293157342484
442, 0.06288321297100141
442.5, 0.06280976116047166
443, 0.06279274275158331
443.5, 0.06281350533287111
444, 0.06282273727926124
444.5, 0.06281344259196464
445, 0.06279580049707367
445.5, 0.06281038376951698
446, 0.06290741044760284
446.5, 0.06314477216404235
447, 0.06353921582729916
447.5, 0.06387746255241644
448, 0.06393746017740154
448.5, 0.06389623641188868
449, 0.06402415688527896
449.5, 0.06423358713845628
450, 0.06431801856691588
450.5, 0.06428138985767917
451, 0.06422301943477127
451.5, 0.06423639921941471
452, 0.06439360002984007
452.5, 0.06459040620819367
453, 0.06464567717396952
453.5, 0.06461856555105516
454, 0.06470301729128936
454.5, 0.06490594364318447
455, 0.06511032782898196
455.5, 0.06528254472835793
456, 0.06545283418626802
456.5, 0.06563224807474133
457, 0.0658144792169012
457.5, 0.06599333000019547
458, 0.06616389338193707
458.5, 0.066337806122862
459, 0.06654129670007447
459.5, 0.06673800512194605
460, 0.0668237737439965
460.5, 0.06680559804872
461, 0.06683126068820633
461.5, 0.06699131128784297
462, 0.06728513348907827
462.5, 0.06765782325972136
463, 0.06798306845567115
463.5, 0.06818361487060576
464, 0.06827418784015238
464.5, 0.06828347934422618
465, 0.06824993282763825
465.5, 0.06822423527185761
466, 0.06827983254616654
466.5, 0.06844733280818105
467, 0.06865347465448957
467.5, 0.06883722447715834
468, 0.06900496445834425
468.5, 0.06917434191453287
469, 0.06936512270217454
469.5, 0.06957278261450983
470, 0.0697151002052615
470.5, 0.06973419084092147
471, 0.06971164276607456
471.5, 0.06972482648379552
472, 0.06971352930338359
472.5, 0.06963769477497384
473, 0.06969571844338507
473.5, 0.07005641643641969
474, 0.07041763309146298
474.5, 0.07044360294308694
475, 0.07041667678031072
475.5, 0.07072806668973164
476, 0.07112248733652549
476.5, 0.0711868377003495
477, 0.07114040598039173
477.5, 0.07140030081942195
478, 0.0718115556747887
478.5, 0.0719895502292085
479, 0.07192678766556049
479.5, 0.07181373317344752
480, 0.07182794744942855
480.5, 0.07211258553837208
481, 0.07251037926474735
481.5, 0.07269409523435177
482, 0.07265056229436073
482.5, 0.07258517409711818
483, 0.07259072970620528
483.5, 0.0726690168579317
484, 0.07284511654055004
484.5, 0.07316102151127168
485, 0.07354251776561227
485.5, 0.07381049864370148
486, 0.07396327866876551
486.5, 0.07418352322586963
487, 0.07441993152401838
487.5, 0.07434630760829153
488, 0.07394643896328346
488.5, 0.07361924255197783
489, 0.07358911274929647
489.5, 0.07379326622907334
490, 0.07414422276754085
490.5, 0.07455019859018175
491, 0.07492965155429676
491.5, 0.07521988339278618
492, 0.07540477241788912
492.5, 0.07555412725303634
493, 0.0757241526907857
493.5, 0.07592107356807432
494, 0.07612342241926084
494.5, 0.07625932891781395
495, 0.07628369674570878
495.5, 0.07624145526137482
496, 0.07620085728040571
496.5, 0.07625557668958471
497, 0.07644475864666156
497.5, 0.07661289447071395
498, 0.07663040281679889
498.5, 0.07661005548722066
499, 0.07669897944774162
499.5, 0.07695638005126493
500, 0.07736817948252706
500.5, 0.07768680234963177
501, 0.07769518083472571
501.5, 0.07768091398728516
502, 0.07799198202721846
502.5, 0.07838545517751538
503, 0.07848490915757189
503.5, 0.07842634830046369
504, 0.07850955255723635
504.5, 0.07873137384570505
505, 0.07896068083687946
505.5, 0.07912436300253334
506, 0.07918475983446993
506.5, 0.07916523786504515
507, 0.07912337379400858
507.5, 0.07912664395630775
508, 0.0792406328235804
508.5, 0.07943677255941095
509, 0.07962848522140686
509.5, 0.07980113943811307
510, 0.07999070014389542
510.5, 0.0801760281828997
511, 0.0802963794190783
511.5, 0.08044595233424867
512, 0.08084699715272492
512.5, 0.08143085734947919
513, 0.08184454143701114
513.5, 0.08200034258732802
514, 0.08211209587593726
514.5, 0.08229078842269799
515, 0.08250370959867337
515.5, 0.08269822612700817
516, 0.0828074996007454
516.5, 0.08281245295539452
517, 0.08276624624538442
517.5, 0.08273941583189692
518, 0.08282049184754703
518.5, 0.08301423047200229
519, 0.08317139398599904
519.5, 0.0831953638988171
520, 0.083127586882771
520.5, 0.08306421956502141
521, 0.08318612752241528
521.5, 0.08355417181562463
522, 0.08390443633795208
522.5, 0.08406616077399232
523, 0.08426087621424538
523.5, 0.08464528567226126
524, 0.0849711983935556
524.5, 0.08502265866782766
525, 0.08496057587024741
525.5, 0.08496286375860462
526, 0.08496220663639498
526.5, 0.08489269287037648
527, 0.08494770151912023
527.5, 0.08529749789536267
528, 0.08566543544188965
528.5, 0.08573330748032237
529, 0.08568374433987647
529.5, 0.08580637299928795
530, 0.08602006961663189
530.5, 0.08612686298008088
531, 0.08607896777467472
531.5, 0.08590311889713609
532, 0.08571677791777699
532.5, 0.08565835247048081
533, 0.0856838393854964
533.5, 0.08567198290229616
534, 0.08566549849431293
534.5, 0.08578598707231777
535, 0.08598715868574391
535.5, 0.08612135286289035
536, 0.08610622848180494
536.5, 0.08591794355101079
537, 0.08571032905487352
537.5, 0.08575366160730091
538, 0.08598070934759694
538.5, 0.08605303687980514
539, 0.0860010921733857
539.5, 0.08619312261708667
540, 0.08660897443286597
540.5, 0.08682579153373726
541, 0.08677979477633024
541.5, 0.08682991992769451
542, 0.08705122241161933
542.5, 0.08713664359945161
543, 0.08696043543689902
543.5, 0.08668249388728155
544, 0.08646312428021463
544.5, 0.08642956327962137
545, 0.08660352398506732
545.5, 0.0868327996460212
546, 0.08701539305510864
546.5, 0.08717548679948517
547, 0.087344927931845
547.5, 0.08754235952303824
548, 0.08775082054621908
548.5, 0.08787482930482671
549, 0.087872734107735
549.5, 0.08787010934714956
550, 0.08792859420937604
550.5, 0.08784986986424514
551, 0.08750397861013393
551.5, 0.08712898602046037
552, 0.08693617661745179
552.5, 0.08677675334240664
553, 0.08651727778303919
553.5, 0.0864097723622993
554, 0.0866931590397263
554.5, 0.08711311539252997
555, 0.08735372982784007
555.5, 0.0874859099109071
556, 0.08766584563908209
556.5, 0.08784591756900717
557, 0.08792191831131868
557.5, 0.08788365086514405
558, 0.08775641685906799
558.5, 0.08755669428431967
559, 0.08731003967635165
559.5, 0.08714630432058179
560, 0.08721911060954601
560.5, 0.08743986500259004
561, 0.0876130068424319
561.5, 0.0877790376567501
562, 0.08809805419806971
562.5, 0.0884820040135389
563, 0.0886918009000931
563.5, 0.08866102700769785
564, 0.0884568946388391
564.5, 0.08825268647945628
565, 0.08828827512505255
565.5, 0.08851006428875519
566, 0.08861650646360908
566.5, 0.08858209054467336
567, 0.08865023871201394
567.5, 0.0888549793430814
568, 0.0889973022412045
568.5, 0.08899582258419048
569, 0.08892300187564084
569.5, 0.08888877984589127
570, 0.08903804160319873
570.5, 0.0893959684475768
571, 0.08981221586456622
571.5, 0.09018081202921946
572, 0.09048825394260895
572.5, 0.09070640601783297
573, 0.09076758710236354
573.5, 0.09071551727665916
574, 0.09081894290852632
574.5, 0.0911895245818205
575, 0.09154159396553996
575.5, 0.0917025361264272
576, 0.09189814626995196
576.5, 0.09227496834328486
577, 0.0926084040080023
577.5, 0.09275084931625854
578, 0.09297034719423791
578.5, 0.09347995047166335
579, 0.09404896902653892
579.5, 0.09439691685037865
580, 0.09440425293573396
580.5, 0.09410559762229953
581, 0.09402392083204525
581.5, 0.09461635191950446
582, 0.09543039787813767
582.5, 0.09589000611306708
583, 0.09617163599073753
583.5, 0.09662941594145724
584, 0.09721130639477338
584.5, 0.09774801020434198
585, 0.09827731608050427
585.5, 0.09890845258464587
586, 0.09965404191706717
586.5, 0.10046663727205574
587, 0.10116144413481154
587.5, 0.10151791619846906
588, 0.10163286261247917
588.5, 0.10177507587416168
589, 0.10216030466447201
589.5, 0.10294040802097215
590, 0.1038904788305165
590.5, 0.10455570411526505
591, 0.10485922575122841
591.5, 0.10500952838792421
592, 0.10517493902305441
592.5, 0.10548241766853139
593, 0.10601504254471739
593.5, 0.10680984869693266
594, 0.10774016299478406
594.5, 0.10852198557136694
595, 0.10905292348824647
595.5, 0.10944067523894196
596, 0.1097865153863612
596.5, 0.110170250193386
597, 0.11067178824032942
597.5, 0.11137138487595022
598, 0.11226205681098689
598.5, 0.11320645079203251
599, 0.11410847800823276
599.5, 0.11495806271667397
600, 0.11572020622568768
600.5, 0.11629973624125456
601, 0.11667251813886093
601.5, 0.11697213985478605
602, 0.11731011565671978
602.5, 0.11770451610773103
603, 0.11811456219835748
603.5, 0.1183838211723992
604, 0.11841994710689563
604.5, 0.11836034292727227
605, 0.1183407049344325
605.5, 0.11836646371804083
606, 0.118402911854524
606.5, 0.11836380785724965
607, 0.11819423964386999
607.5, 0.11800590280377998
608, 0.11792848429940928
608.5, 0.11799205172808969
609, 0.1181769335091023
609.5, 0.11835322643934532
610, 0.11839314235255127
610.5, 0.11836599507606949
611, 0.11838092348743823
611.5, 0.11837704496716539
612, 0.11825019839331186
612.5, 0.11804574176443583
613, 0.11785961056689942
613.5, 0.117686822096575
614, 0.11748541149812752
614.5, 0.11730802324853606
615, 0.11724497471348172
615.5, 0.11726656405079006
616, 0.11726751918070433
616.5, 0.1170749084600875
617, 0.11650102523289119
617.5, 0.1157285624122083
618, 0.11517675857221776
618.5, 0.11486828738496624
619, 0.11452674392135531
619.5, 0.11414189722689594
620, 0.11392610702738637
620.5, 0.11379782125467841
621, 0.11340014557889622
621.5, 0.11266209167755625
622, 0.11182297044369816
622.5, 0.11108054828416014
623, 0.11056304035066722
623.5, 0.11023368588998772
624, 0.10985270561429739
624.5, 0.10931676657605105
625, 0.10873342395853736
625.5, 0.10818676566234631
626, 0.10769957965388133
626.5, 0.10730550595062527
627, 0.10706516491447282
627.5, 0.10693383823541036
628, 0.10666113783529485
628.5, 0.10613124135605734
629, 0.10556268627695709
629.5, 0.10514632849488392
630, 0.10490716614757045
630.5, 0.10478017789755012
631, 0.10452695937309142
631.5, 0.10400651624340684
632, 0.10344469918512034
632.5, 0.10304812385135143
633, 0.10274289287318739
633.5, 0.1024171324380152
634, 0.10202899962970813
634.5, 0.1015951020615804
635, 0.10130561404706262
635.5, 0.10130327358150604
636, 0.10131096995652566
636.5, 0.1009912942836867
637, 0.1003128042578858
637.5, 0.09937850022632344
638, 0.09850229203183514
638.5, 0.09800104031945
639, 0.09772508001320879
639.5, 0.09738418632235257
640, 0.09701395667429613
640.5, 0.09677091887969136
641, 0.09662089250269701
641.5, 0.09644911499072817
642, 0.09626433459925854
642.5, 0.09614293169053434
643, 0.09616275622029058
643.5, 0.09638021956495868
644, 0.0965855415886897
644.5, 0.09641455685070566
645, 0.09582089232927204
645.5, 0.0950004426755775
646, 0.09425272479794089
646.5, 0.09393534828249561
647, 0.09399649199853977
647.5, 0.0940259952477358
648, 0.09384180516588014
648.5, 0.09350202132823704
649, 0.09312127804024206
649.5, 0.09285964273775116
650, 0.09271038939620135
650.5, 0.0924673488066391
651, 0.09208820637597837
651.5, 0.09176208348613768
652, 0.09157907206917282
652.5, 0.09146032769640688
653, 0.09131226731997666
653.5, 0.09104037746402993
654, 0.09065487173772202
654.5, 0.09035312621068392
655, 0.09020369760645275
655.5, 0.08998071434955524
656, 0.08958725861368122
656.5, 0.08928757745624871
657, 0.08918802159795569
657.5, 0.08888902110181685
658, 0.08816190638078991
658.5, 0.0874536754381775
659, 0.08715595300601553
659.5, 0.08714236448267598
660, 0.087197346535137
660.5, 0.08713680911882138
661, 0.08684262935360587
661.5, 0.08642271940209012
662, 0.08602068618728664
662.5, 0.08570251276463137
663, 0.08549534611812826
663.5, 0.08533968916963486
664, 0.08516541221919638
664.5, 0.08498394602987913
665, 0.08479442351214417
665.5, 0.084358557012288
666, 0.08345193414091756
666.5, 0.08254082987587841
667, 0.08226407967510152
667.5, 0.0823959411012839
668, 0.08237148113296222
668.5, 0.08213441539538391
669, 0.0818645402498398
669.5, 0.08150046265935462
670, 0.08087104420410696
670.5, 0.08011600587899415
671, 0.0795505964851525
671.5, 0.07923448838908387
672, 0.0790490028385139
672.5, 0.07888202485740958
673, 0.07863306696920247
673.5, 0.0782685805204002
674, 0.07781088688062776
674.5, 0.07727487377233522
675, 0.07667084066720486
675.5, 0.07610473488868807
676, 0.07577279532555636
676.5, 0.0756352256747268
677, 0.07538753868639236
677.5, 0.07498769092447699
678, 0.0747352570890456
678.5, 0.07473939671083274
679, 0.0748176054537032
679.5, 0.07483501392687719
680, 0.07476223651784586
680.5, 0.07459671376065236
681, 0.07436578599508126
681.5, 0.07405668771761265
682, 0.07357725676742233
682.5, 0.07297014697010973
683, 0.07257450870931081
683.5, 0.0725588542723744
684, 0.07261473108174676
684.5, 0.0724856192592056
685, 0.07221886414905743
685.5, 0.07188658154753291
686, 0.07149490552305304
686.5, 0.07107774648605181
687, 0.07079465843439936
687.5, 0.07075504189453596
688, 0.07080093975808177
688.5, 0.07073669025760099
689, 0.0704533264109024
689.5, 0.06992267178391975
690, 0.06938057613548276
690.5, 0.0690795651218119
691, 0.06898798326906852
691.5, 0.06898962865296965
692, 0.06899067762974398
692.5, 0.06890872751423072
693, 0.06868418431006063
693.5, 0.06829677199545925
694, 0.0679419712594862
694.5, 0.06785998291638817
695, 0.06790479359195178
695.5, 0.0677853868838384
696, 0.06757445022180308
696.5, 0.06751027442852486
697.0000000000001, 0.0675407806081939
697.5, 0.06745879253434739
698, 0.06725409753396161
698.5, 0.06704109736996455
699.0000000000001, 0.06686747838826235
699.5000000000001, 0.06672771190334859
700, 0.06655843214088675
700.5, 0.06625936283946243
701, 0.06587888799838526
701.5000000000001, 0.065590132666973
702.0000000000001, 0.06542623965285665
702.5, 0.06528282427181575
703, 0.06510514257297562
703.5000000000001, 0.06489855642802556
704.0000000000001, 0.06470486700908185
704.5000000000001, 0.06460358059080151
705, 0.06460702154052211
705.5, 0.06463795854514265
706.0000000000001, 0.06464366348870632
706.5000000000001, 0.06461434927725196
707.0000000000001, 0.06449042670348337
707.5, 0.06413001251915496
708, 0.0635552922289756
708.5, 0.06308776490927503
709, 0.06289481928627871
709.5, 0.0627857256502582
710.0000000000001, 0.06261383308940549
710.5000000000001, 0.06241632440319089
711.0000000000001, 0.06223472863891932
711.5000000000001, 0.06206367933468526
712, 0.06189094578914889
712.5, 0.06170434574345318
713, 0.061507869501966295
713.5, 0.061353597236961877
714, 0.061244116141421445
714.5000000000001, 0.06098790471669191
715.0000000000001, 0.060457601903276204
715.5000000000001, 0.059914148833993486
716.0000000000001, 0.05962960198560352
716.5000000000001, 0.05954681195977363
717, 0.05953799968910056
717.5, 0.05954523504168696
718, 0.05954016542403595
718.5, 0.05954273233000251
719, 0.05957292508670231
719.5000000000001, 0.059559046610042965
720.0000000000001, 0.05941874896108135
720.5000000000001, 0.05921856434448847
721.0000000000001, 0.0590621137409455
721.5000000000001, 0.05888174764458998
722, 0.058557830553989554
722.5, 0.0581805930320628
723, 0.057924993242372436
723.5, 0.05777479385594897
724, 0.057616420167936
724.5000000000001, 0.057431056582688544
725.0000000000001, 0.05725494712754864
725.5000000000001, 0.057079917355444154
726.0000000000001, 0.056873093806643404
726.5000000000001, 0.05668614243793524
727, 0.05662534182417278
727.5, 0.05664809220579137
728, 0.05659331114700794
728.5, 0.05640666267924388
729, 0.05613275952548935
729.5000000000001, 0.05578205186453289
730.0000000000001, 0.05533275708034857
730.5000000000001, 0.05492209624278788
731.0000000000001, 0.05485492315325413
731.5000000000001, 0.05509258661573979
732, 0.05517356719439226
732.5, 0.054961864712749886
733, 0.05479193492288059
733.5, 0.054806636869699
734.0000000000001, 0.05481430739417659
734.5000000000001, 0.05467163579057066
735.0000000000001, 0.05436094015063597
735.5000000000001, 0.05396023647058146
736.0000000000001, 0.05369987925321407
736.5, 0.05368636174199537
737, 0.05374307611575424
737.5, 0.05374167149269138
738, 0.05373880054173419
738.5, 0.05376512212329043
739.0000000000001, 0.05372344298239229
739.5000000000001, 0.053554393444827486
740.0000000000001, 0.05335845448628107
740.5000000000001, 0.053207166869104205
741.0000000000001, 0.0529965672333077
741.5, 0.05264693905617168
742, 0.05228060175601368
742.5, 0.05203318843064597
743, 0.05192192874977719
743.5, 0.05191868132318245
744.0000000000001, 0.05192300299528463
744.5000000000001, 0.051827996047067226
745.0000000000001, 0.051590956820740774
745.5000000000001, 0.05121709350337089
746.0000000000001, 0.05086661939923798
746.5, 0.050723929380698474
747, 0.05079935513097611
747.5, 0.05101956760661208
748, 0.0511886859935613
748.5, 0.051101184101446706
749.0000000000001, 0.050877282834450366
749.5000000000001, 0.05076562021842712
750.0000000000001, 0.05080306341374863
750.5000000000001, 0.05090660224202437
751.0000000000001, 0.050898011621200445
751.5, 0.05058144129616993
752, 0.05017844031064489
752.5, 0.05013678070000238
753, 0.05038521500021165
753.5000000000001, 0.05050046055484292
754.0000000000001, 0.05029620975772231
754.5000000000001, 0.049787952290088255
755.0000000000001, 0.04920392167977994
755.5000000000001, 0.048932001975701245
756.0000000000001, 0.04898092723779268
756.5, 0.049003045347806196
757, 0.04882671614489609
757.5, 0.04848160917324751
758, 0.048090653865555666
758.5000000000001, 0.0478689805085859
759.0000000000001, 0.04787394457158545
759.5000000000001, 0.04795641502061698
760.0000000000001, 0.04798387570460494
760.5000000000001, 0.047867973204734904
761, 0.047650295471585835
761.5, 0.04756597936215523
762, 0.0476348106548895
762.5, 0.04748159237338545
763, 0.04703160098054893
763.5000000000001, 0.04685248036323719
764.0000000000001, 0.04721472775012936
764.5000000000001, 0.04761241875488098
765.0000000000001, 0.047669356662881524
765.5000000000001, 0.0475426775353901
766, 0.04738996842608989
766.5, 0.047171735340733045
767, 0.04684448360858906
767.5, 0.04644501975051374
768, 0.046039393674402795
768.5000000000001, 0.0457414882732744
769.0000000000001, 0.045646574782571836
769.5000000000001, 0.04574739995462784
770.0000000000001, 0.04597590476029112
770.5000000000001, 0.04611156442480924
771, 0.04597628524811548
771.5, 0.04576021393492269
772, 0.04570065800640566
772.5, 0.04574335753608649
773.0000000000001, 0.04576239441196972
773.5000000000001, 0.04575062315308953
774.0000000000001, 0.04574014280177119
774.5000000000001, 0.04574500631530942
775.0000000000001, 0.045766033531018824
775.5000000000001, 0.04576005467165334
776, 0.045668275675451175
776.5, 0.045461787478426996
777, 0.045135030567651335
777.5, 0.044763297625493914
778.0000000000001, 0.044461750518175025
778.5000000000001, 0.044306262094017224
779.0000000000001, 0.044343226489201415
779.5000000000001, 0.04454996714856374
780.0000000000001, 0.044859722027510984
780.5, 0.045224488630005166
781, 0.04560986011375889
781.5, 0.04597028807337533
782, 0.046252344308316484
782.5, 0.04642825821113228
783.0000000000001, 0.046494959712966355
783.5000000000001, 0.04648618351977629
784.0000000000001, 0.046469450128524215
784.5000000000001, 0.04647169152114328
785.0000000000001, 0.0464747054001875
785.5, 0.046472865060339985
786, 0.046477844061413864
786.5, 0.04648390017200643
787, 0.046462036683405095
787.5, 0.046437782204589606
788.0000000000001, 0.046517029968894286
788.5000000000001, 0.046711087476621116
789.0000000000001, 0.04686923601023252
789.5000000000001, 0.04689389630474727
790.0000000000001, 0.046808474295545244
790.5, 0.046644681855179004
791, 0.046426098014712425
791.5, 0.04620667468347717
792, 0.04610895776499013
792.5000000000001, 0.046220882904094096
793.0000000000001, 0.046523724001670486
793.5000000000001, 0.04693095082137522
794.0000000000001, 0.04721529105351818
794.5000000000001, 0.047238203869466644
795.0000000000001, 0.04720153094792434
795.5, 0.04731117206769653
796, 0.04756953271707365
796.5, 0.04792491717889413
797, 0.0482836122271556
797.5000000000001, 0.048589346632418096
798.0000000000001, 0.048986638220983814
798.5000000000001, 0.04958545410042914
799.0000000000001, 0.05007953189675629
799.5000000000001, 0.050121327438991004
800.0000000000001, 0.049799450512063026
800.5, 0.0493509033473849
801, 0.04903664348464942
801.5, 0.049073753306248524
802, 0.049325894573567064
802.5000000000001, 0.0495419760177106
803.0000000000001, 0.04970187410267479
803.5000000000001, 0.049880568867941566
804.0000000000001, 0.05006209162972153
804.5000000000001, 0.05019807221770112
805, 0.05037591481786341
805.5, 0.05073315287242597
806, 0.05111562938727987
806.5, 0.051220642285526474
807, 0.05116818176886895
807.5000000000001, 0.05134419570461468
808.0000000000001, 0.05174894148613807
808.5000000000001, 0.05209539611305414
809.0000000000001, 0.05226165611956546
809.5000000000001, 0.05227466473407394
810, 0.05224959951435226
810.5, 0.05237449245844661
811, 0.052729991269193865
811.5, 0.05328000072080119
812.0000000000001, 0.05386252147410375
812.5000000000001, 0.054186011235257237
813.0000000000001, 0.05417874289834901
813.5000000000001, 0.05405040208931444
814.0000000000001, 0.05400364444460071
814.5000000000001, 0.05420373655375621
815, 0.05460847400208957
815.5, 0.054868391948521666
816, 0.05485271096459976
816.5, 0.054838913941987144
817.0000000000001, 0.05500051236595416
817.5000000000001, 0.05524578150770176
818.0000000000001, 0.05546247115761449
818.5000000000001, 0.05555573896374488
819.0000000000001, 0.05552401449772748
819.5000000000001, 0.05557361104503655
820, 0.05579517835128456
820.5, 0.055912164941376186
821, 0.0557436197181842
821.5, 0.055541977258946384
822.0000000000001, 0.05552370805555429
822.5000000000001, 0.0555508249774711
823.0000000000001, 0.055500742896998134
823.5000000000001, 0.055552188387817725
824.0000000000001, 0.05586555661227255
824.5000000000001, 0.05626568303310586
825, 0.05653546539728438
825.5, 0.056639285232836234
826, 0.05661644298848756
826.5, 0.056628785780651114
827.0000000000001, 0.0568172970031926
827.5000000000001, 0.05699631951189421
828.0000000000001, 0.056921317740007416
828.5000000000001, 0.05668439945825743
829.0000000000001, 0.056480493777640195
829.5, 0.05631615647560173
830, 0.05612896031811365
830.5, 0.05595019634470366
831, 0.05585256554921869
831.5000000000001, 0.0558789162424862
832.0000000000001, 0.056043999046898496
832.5000000000001, 0.05623799047208389
833.0000000000001, 0.05629676160325159
833.5000000000001, 0.05627076926858954
834.0000000000001, 0.056339048157453386
834.5, 0.056537524953359064
835, 0.05679477786031639
835.5, 0.05698475070692177
836, 0.05695125021512526
836.5000000000001, 0.056740464906931964
837.0000000000001, 0.056571140997166314
837.5000000000001, 0.05656741114555641
838.0000000000001, 0.05675049407467647
838.5000000000001, 0.056976056560171684
839.0000000000001, 0.05694016122663903
839.5, 0.05669366867537562
840, 0.056699437924985996
840.5, 0.05696854193782008
841, 0.05690762803107874
841.5000000000001, 0.0563418894587443
842.0000000000001, 0.05574647387121778
842.5000000000001, 0.05538425805619729
843.0000000000001, 0.055105682182536975
843.5000000000001, 0.0547745085988216
844.0000000000001, 0.054341981466211386
844.5, 0.053892165325511665
845, 0.05374758999552598
845.5, 0.054058383342312055
846, 0.0545473046289755
846.5000000000001, 0.054957644753892976
847.0000000000001, 0.05521286663249014
847.5000000000001, 0.05527964006497743
848.0000000000001, 0.05516963587732038
848.5000000000001, 0.05489191420255324
849.0000000000001, 0.05442607477210881
849.5, 0.05382013122255436
850, 0.053365712629523276
850.5, 0.05328677405658366
851.0000000000001, 0.05337232152310223
851.5000000000001, 0.0533823949638812
852.0000000000001, 0.05337177427598916
852.5000000000001, 0.053422048003792244
853.0000000000001, 0.053386881304027245
853.5000000000001, 0.0531069313360808
854, 0.05269658433657787
854.5, 0.05232641289120743
855, 0.05197990692678611
855.5, 0.05159451802619652
856.0000000000001, 0.05124731153335138
856.5000000000001, 0.05104356113943065
857.0000000000001, 0.050883604597976584
857.5000000000001, 0.05059923533199162
858.0000000000001, 0.05021317348866172
858.5000000000001, 0.049833915118749794
859, 0.049485119203780514
859.5, 0.04914350259480926
860, 0.0487857774307906
860.5, 0.04839533221769976
861.0000000000001, 0.0480341266863501
861.5000000000001, 0.04780547248566891
862.0000000000001, 0.04765070002826821
862.5000000000001, 0.04739906503181601
863.0000000000001, 0.04702508774972236
863.5000000000001, 0.04662325717603255
864, 0.04626260677302885
864.5, 0.045984825633046955
865, 0.04580613757654217
865.5, 0.04571411096663569
866.0000000000001, 0.04558000370239135
866.5000000000001, 0.04515524693467199
867.0000000000001, 0.04442094160710497
867.5000000000001, 0.04364371870817718
868.0000000000001, 0.04305303074619826
868.5000000000001, 0.04280154192689378
869, 0.04283565430768477
869.5, 0.042807479946924465
870, 0.042593411151735205
870.5000000000001, 0.04247392485236534
871.0000000000001, 0.04253075445969412
871.5000000000001, 0.04241922366915374
872.0000000000001, 0.042015369167618055
872.5000000000001, 0.041728054430967276
873.0000000000001, 0.04176187911698481
873.5000000000001, 0.04172406082655822
874, 0.041365601643877814
874.5, 0.04099434418856751
875, 0.04083355790922305
875.5000000000001, 0.04063851915254646
876.0000000000001, 0.04023766531130313
876.5000000000001, 0.039932005802147064
877.0000000000001, 0.03994723373357756
877.5000000000001, 0.03993680258706256
878.0000000000001, 0.039591222949056704
878.5, 0.0392185855573437
879, 0.03915466414135005
879.5, 0.039212629249218756
880, 0.039120877604301496
880.5000000000001, 0.038879139236487226
881.0000000000001, 0.038559257903723276
881.5000000000001, 0.03818040012725232
882.0000000000001, 0.037762012592682304
882.5000000000001, 0.03743316253397466
883.0000000000001, 0.03733254420688126
883.5, 0.037383058738758135
884, 0.037429733253028785
884.5, 0.03741320656747571
885, 0.03731750810803802
885.5000000000001, 0.03711637695203607
886.0000000000001, 0.03678852403047572
886.5000000000001, 0.036415778665815135
887.0000000000001, 0.036130732307616764
887.5000000000001, 0.035973852374902915
888.0000000000001, 0.035924944170690254
888.5, 0.03593735714291846
889, 0.0359496745978406
889.5, 0.03594635620704445
890.0000000000001, 0.035946359230309644
890.5000000000001, 0.03594863707250329
891.0000000000001, 0.035936140531670935
891.5000000000001, 0.035928856800510056
892.0000000000001, 0.035977052410994914
892.5000000000001, 0.03600812583242874
893.0000000000001, 0.035827702243532045
893.5, 0.03544304892674577
894, 0.035095236654629325
894.5, 0.03490825722356472
895.0000000000001, 0.03484196480030377
895.5000000000001, 0.034843878583926235
896.0000000000001, 0.03485938718383208
896.5000000000001, 0.03485946623938496
897.0000000000001, 0.03485470134445168
897.5000000000001, 0.03485387944781804
898.0000000000001, 0.034856941491368865
898.5, 0.034859881462107944
899, 0.03485296976571828
899.5, 0.03484168283701816
900.0000000000001, 0.03486442722923355
900.5000000000001, 0.034908121850893536
901.0000000000001, 0.03483068927054711
901.5000000000001, 0.03459751361900598
902.0000000000001, 0.03449892433358137
902.5000000000001, 0.034700101677823336
903, 0.034856281459304195
903.5, 0.03469755295946275
904, 0.03448866527000005
904.5, 0.03448116363614495
905.0000000000001, 0.03449291519192832
905.5000000000001, 0.03432889277021234
906.0000000000001, 0.03413476640247759
906.5000000000001, 0.03408847995655384
907.0000000000001, 0.03412694466629729
907.5000000000001, 0.034140908776287615
908, 0.034130798721049516
908.5, 0.034126505591367984
909, 0.03412920828704513
909.5000000000001, 0.03413096891851608
910.0000000000001, 0.03413008078626878
910.5000000000001, 0.03412774396924234
911.0000000000001, 0.03412846492757304
911.5000000000001, 0.03413584706363715
912.0000000000001, 0.0341345668868307
912.5000000000001, 0.034107856118975044
913, 0.03410962347713142
913.5, 0.03422163447783044
914, 0.034420516566330495
914.5000000000001, 0.03462423757133115
915.0000000000001, 0.03479832828064944
915.5000000000001, 0.034933712116767435
916.0000000000001, 0.03493367477873022
916.5000000000001, 0.03465592703662579
917.0000000000001, 0.0342511654833173
917.5000000000001, 0.03408506957634283
918, 0.03413640455129785
918.5, 0.03405202225344095
919, 0.033826316968875614
919.5000000000001, 0.03379333266638995
920.0000000000001, 0.03400387605830879
920.5000000000001, 0.03419214373484758
921.0000000000001, 0.03420584787173431
921.5000000000001, 0.034048798486722265
922.0000000000001, 0.0338302994738231
922.5000000000001, 0.03378267400204327
923, 0.03396859560244059
923.5, 0.034194490950361645
924, 0.034361897556446364
924.5000000000001, 0.03455572647671168
925.0000000000001, 0.03477705564247824
925.5000000000001, 0.03485006094821219
926.0000000000001, 0.03469231548679086
926.5000000000001, 0.034440242701066714
927.0000000000001, 0.03422683502862611
927.5, 0.034121959271652624
928, 0.0341308004414399
928.5, 0.03412209825515622
929, 0.0339880178096007
929.5000000000001, 0.03373848252334022
930.0000000000001, 0.033460271115776874
930.5000000000001, 0.03341218461788076
931.0000000000001, 0.03374461279036001
931.5000000000001, 0.03413557729972927
932.0000000000001, 0.03425738860617056
932.5, 0.0341332448400723
933, 0.03389260411476447
933.5, 0.03376524270397285
934.0000000000001, 0.03395709460331431
934.5000000000001, 0.03443760744919133
935.0000000000001, 0.03507290096918947
935.5000000000001, 0.035550857180317474
936.0000000000001, 0.03557402139797894
936.5000000000001, 0.03527856022018183
937.0000000000001, 0.03495230782324332
937.5, 0.034834422324082626
938, 0.035092221181771355
938.5, 0.035503903344927146
939.0000000000001, 0.03572522279753465
939.5000000000001, 0.03587084065080748
940.0000000000001, 0.03623569079334188
940.5000000000001, 0.03662118282179316
941.0000000000001, 0.03660579155016408
941.5000000000001, 0.03635446379193752
942.0000000000001, 0.03635593333395615
942.5, 0.036593166777103336
943, 0.03672067241293886
943.5, 0.03668924430067322
944.0000000000001, 0.03666930862458573
944.5000000000001, 0.03668300500740784
945.0000000000001, 0.03663342340228981
945.5000000000001, 0.03660182116381472
946.0000000000001, 0.03682370253586764
946.5000000000001, 0.037231901747897145
947.0000000000001, 0.03745704212976397
947.5, 0.037426033846117424
948, 0.037409091717137355
948.5, 0.03756909955131582
949.0000000000001, 0.03791130296513123
949.5000000000001, 0.038317118444038734
950.0000000000001, 0.03851681124511641
950.5000000000001, 0.038477288095821516
951.0000000000001, 0.03853448904781864
951.5000000000001, 0.038774753419297814
952, 0.03882104388257557
952.5, 0.03857299470305242
953, 0.038519001559846444
953.5000000000001, 0.038889996817835115
954.0000000000001, 0.039262244910016175
954.5000000000001, 0.03939425460210089
955.0000000000001, 0.03963884903488557
955.5000000000001, 0.04020121030505763
956.0000000000001, 0.04070737505075539
956.5000000000001, 0.04089219982755077
957, 0.04104927417377968
957.5, 0.04141838290984656
958, 0.04176461273188381
958.5000000000001, 0.041801440421619374
959.0000000000001, 0.04138706973680972
959.5000000000001, 0.04051682441550419
960.0000000000001, 0.039599776054303426
960.5000000000001, 0.03908853307618432
961.0000000000001, 0.03918097981799096
961.5000000000001, 0.0399195891851285
962, 0.040926253518983935
962.5, 0.04176575650837555
963, 0.04240026068428604
963.5000000000001, 0.04290280926008294
964.0000000000001, 0.043189169575609476
964.5000000000001, 0.043171941580236295
965.0000000000001, 0.04316096850200335
965.5000000000001, 0.04355858086404507
966.0000000000001, 0.04416521267709261
966.5000000000001, 0.04454180754964687
967, 0.044651903101951884
967.5, 0.04467776311616212
968, 0.04487102761793227
968.5000000000001, 0.04547973180852749
969.0000000000001, 0.046257150142366976
969.5000000000001, 0.04668066282690586
970.0000000000001, 0.046786032424820934
970.5000000000001, 0.04697874952812686
971.0000000000001, 0.04720220349796489
971.5000000000001, 0.047058135403619916
972, 0.04663117577605436
972.5, 0.046417480190978466
973.0000000000001, 0.0466110633856095
973.5000000000001, 0.04710068968930958
974.0000000000001, 0.04767760138014032
974.5000000000001, 0.04805179205780363
975.0000000000001, 0.04819674196147816
975.5000000000001, 0.04839215529070806
976.0000000000001, 0.04875366901095579
976.5, 0.049165077947926794
977, 0.049535015297955676
977.5, 0.04982900061654061
978.0000000000001, 0.050026593944765385
978.5000000000001, 0.05012279913036721
979.0000000000001, 0.05013100490402933
979.5000000000001, 0.050094207286998205
980.0000000000001, 0.05006857923357366
980.5000000000001, 0.050129618723754765
981.0000000000001, 0.05030263282303038
981.5, 0.050501636717819265
982, 0.05067128963721912
982.5, 0.05086225936857636
983.0000000000001, 0.051083855329585814
983.5000000000001, 0.05119639884139704
984.0000000000001, 0.05114706540499181
984.5000000000001, 0.05120875120791479
985.0000000000001, 0.05156713695092974
985.5000000000001, 0.05192760051212841
986.0000000000001, 0.052006672266096676
986.5, 0.051921478708497615
987, 0.05185869542740995
987.5, 0.051914114588433646
988.0000000000001, 0.0521148010482102
988.5000000000001, 0.052279247700954046
989.0000000000001, 0.0522455896539018
989.5000000000001, 0.0522605427079853
990.0000000000001, 0.052602764246250766
990.5000000000001, 0.05297977256818465
991.0000000000001, 0.0529761601942319
991.5, 0.05270403292583126
992, 0.0524559691967581
992.5000000000001, 0.05230673526023377
993.0000000000001, 0.052237800480959384
993.5000000000001, 0.052259201053115656
994.0000000000001, 0.05238882799165012
994.5000000000001, 0.05258461736663078
995.0000000000001, 0.05276272756468248
995.5000000000001, 0.05274311526758879
996, 0.052322892547374544
996.5, 0.05172620769536451
997, 0.05143219244433972
997.5000000000001, 0.051491477830672205
998.0000000000001, 0.05164601687094217
998.5000000000001, 0.05181690850596887
999.0000000000001, 0.05207437337753751
999.5000000000001, 0.05243713800211036
1000.0000000000001, 0.05287008211137412
1000.5000000000001, 0.0532552442196883
1001, 0.053403169222656866
1001.5, 0.05336209308178941
1002, 0.05343544244870235
1002.5000000000001, 0.05365744360925073
1003.0000000000001, 0.05372666495684708
1003.5000000000001, 0.05354090200054107
1004.0000000000001, 0.05328883552500008
1004.5000000000001, 0.05309875947163256
1005.0000000000001, 0.05298053758754584
1005.5000000000001, 0.05295116572329095
1006, 0.05305385536965912
1006.5, 0.053256693364219454
1007, 0.053388923494189666
1007.5000000000001, 0.05337925648604436
1008.0000000000001, 0.05338334192900318
1008.5000000000001, 0.053449380402535884
1009.0000000000001, 0.05332835657406343
1009.5000000000001, 0.05292655228158305
1010.0000000000001, 0.052630779929714544
1010.5000000000001, 0.052729150812195646
1011, 0.05303974690660329
1011.5, 0.05337277099137361
1012.0000000000001, 0.05375876322417783
1012.5000000000001, 0.05420067795234673
1013.0000000000001, 0.054463446484205424
1013.5000000000001, 0.054407794866435544
1014.0000000000001, 0.05445557771921272
1014.5000000000001, 0.05497516934335245
1015.0000000000001, 0.05553106969630062
1015.5000000000001, 0.055631909965812465
1016, 0.05555041737641864
1016.5, 0.05571844474121146
1017.0000000000001, 0.056193386639483034
1017.5000000000001, 0.056889946386985524
1018.0000000000001, 0.05761771676580296
1018.5000000000001, 0.058164649328640294
1019.0000000000001, 0.058437663068714896
1019.5000000000001, 0.058408660796607115
1020.0000000000001, 0.05816849348178743
1020.5, 0.057850723871055276
1021, 0.05748413754710291
1021.5, 0.057058187227822965
1022.0000000000001, 0.05670448007130224
1022.5000000000001, 0.05662167347042413
1023.0000000000001, 0.05685336457036749
1023.5000000000001, 0.057336825260779545
1024, 0.05790064496837044
1024.5, 0.05831785248003041
1025, 0.05864049946736061
1025.5, 0.059117807691779434
1026, 0.05969322936420629
1026.5, 0.06005501254259782
1027, 0.06005089263816743
1027.5, 0.059690649220846326
1028, 0.05912048220628352
1028.5, 0.058618516815653
1029, 0.058399067719960396
1029.5, 0.058591966188687006
1030, 0.05914301563187718
1030.5, 0.05977545948776042
1031, 0.06032114863672666
1031.5, 0.060781745227329376
1032, 0.06115807408981311
1032.5, 0.06143218584332644
1033, 0.0617062654724857
1033.5, 0.06228600327690803
1034, 0.06322269852119489
1034.5, 0.06405532634179967
1035, 0.06448215354857456
1035.5, 0.06464955034962361
1036, 0.06476606913617
1036.5, 0.06505484993954502
1037, 0.06566589923826949
1037.5, 0.06655609118891581
1038, 0.06756651807177372
1038.5, 0.06829447131797184
1039, 0.06850432203565104
1039.5, 0.06863257351205387
1040, 0.0690892951016504
1040.5, 0.06971181843689345
1041, 0.07027086034490237
1041.5, 0.07078176888312315
1042, 0.07130735286527468
1042.5, 0.07184932995663473
1043, 0.07239238448238783
1043.5, 0.07292143386197891
1044, 0.07343200256641191
1044.5, 0.07397880899517961
1045, 0.07462654171846028
1045.5, 0.07537243817600037
1046, 0.07617072629758725
1046.5, 0.07685651771473978
1047, 0.07725967736856343
1047.5, 0.07758111767295284
1048, 0.07815645515952663
1048.5, 0.07892439419177366
1049, 0.07963889437379179
1049.5, 0.08033636773650676
1050, 0.08119702440280385
1050.5, 0.08211753112559694
1051, 0.08282769282898594
1051.5, 0.08332282116600365
1052, 0.08378678179785148
1052.5, 0.08432301891907068
1053, 0.08496453959918726
1053.5, 0.08568829736007899
1054, 0.08642517445970155
1054.5, 0.08713844354632727
1055, 0.08782585967488066
1055.5, 0.08852552172672878
1056, 0.08931516177196319
1056.5, 0.0902090537169733
1057, 0.0911441573182552
1057.5, 0.0920521454102019
1058, 0.09286483997169737
1058.5, 0.09357523419937863
1059, 0.0942637678401963
1059.5, 0.09497674473792306
1060, 0.09569548350108792
1060.5, 0.0964074314089729
1061, 0.09712093988610426
1061.5, 0.09783764223986469
1062, 0.09854204719678028
1062.5, 0.09923912350486563
1063, 0.09998236918573866
1063.5, 0.10082519606845508
1064, 0.10180547631787107
1064.5, 0.10290097077302218
1065, 0.10393471968874379
1065.5, 0.10480601308959103
1066, 0.10571821277006588
1066.5, 0.10681551625953256
1067, 0.10785642285864327
1067.5, 0.10862208894218184
1068, 0.10927775270919193
1068.5, 0.11000843261281312
1069, 0.11070786815816036
1069.5, 0.11125047467385585
1070, 0.11177565727327954
1070.5, 0.11248394859276178
1071, 0.11349082639740526
1071.5, 0.1148113510929234
1072, 0.11603359270966807
1072.5, 0.11670727576283624
1073, 0.11715540638048638
1073.5, 0.11792367860085451
1074, 0.11888135917741072
1074.5, 0.11964926257905595
1075, 0.12032607945973117
1075.5, 0.12120331038807552
1076, 0.1221242481262057
1076.5, 0.12273248078611276
1077, 0.1232124967633621
1077.5, 0.12404099584160466
1078, 0.12518089299573798
1078.5, 0.1262591133708364
1079, 0.12712786648265306
1079.5, 0.12781290741273132
1080, 0.12833709684365224
1080.5, 0.12872762355461442
1081, 0.12921206512202643
1081.5, 0.13018442770521887
1082, 0.13165563452534124
1082.5, 0.13324866000341817
1083, 0.13470072127054344
1083.5, 0.13589733221468558
1084, 0.13680523443893922
1084.5, 0.13748434824821487
1085, 0.13812613632009263
1085.5, 0.13908631614105182
1086, 0.14039011093970521
1086.5, 0.14155544279115206
1087, 0.14240649705132824
1087.5, 0.1433397494426092
1088, 0.14448709198882925
1088.5, 0.1453998569521595
1089, 0.14589700294465857
1089.5, 0.14646597245830573
1090, 0.14752661987263638
1090.5, 0.14916339410003754
1091, 0.15115212536892675
1091.5, 0.15261073394419322
1092, 0.15297450030465454
1092.5, 0.1528475993732602
1093, 0.15288165496046546
1093.5, 0.15324567932623612
1094, 0.15403491682771742
1094.5, 0.1554140623165603
1095, 0.15735218336740187
1095.5, 0.15899721869887518
1096, 0.15960094483048126
1096.5, 0.15974023282605998
1097, 0.1602089660419158
1097.5, 0.16109687922925864
1098, 0.16227237528497407
1098.5, 0.16356727544115546
1099, 0.1648279058289187
1099.5, 0.16606618838243736
1100, 0.16733904096938013
1100.5, 0.16857985413844134
1101, 0.16969081187124901
1101.5, 0.1707381212676975
1102, 0.1718414504060659
1102.5, 0.17291205009335897
1103, 0.17377210505555774
1103.5, 0.17444105076609662
1104, 0.1750545892374039
1104.5, 0.17577144061820815
1105, 0.17674368282823305
1105.5, 0.17785421431419635
1106, 0.17881731899642517
1106.5, 0.17967062712093795
1107, 0.18068740418600981
1107.5, 0.1818025897508615
1108, 0.1826668073010287
1108.5, 0.18318045883620238
1109, 0.18349201068440835
1109.5, 0.18380902937222288
1110, 0.18438058408846403
1110.5, 0.18515079926707667
1111, 0.18571875307190644
1111.5, 0.18602464860505896
1112, 0.18646242752045428
1112.5, 0.18718450993734936
1113, 0.18796230624168442
1113.5, 0.18857064719242767
1114, 0.18883565194757057
1114.5, 0.1887050704713853
1115, 0.18832861786853572
1115.5, 0.1879069061483959
1116, 0.1876987461505345
1116.5, 0.18783060456961043
1117, 0.18813543654039078
1117.5, 0.18840422198167373
1118, 0.1884171636584181
1118.5, 0.18808671730964088
1119, 0.18767485215445923
1119.5, 0.18748132400118156
1120, 0.18775178377694712
1120.5, 0.1885219987738168
1121, 0.18917704084439269
1121.5, 0.18923330203104805
1122, 0.18916494005215612
1122.5, 0.1894304613594343
1123, 0.18953876276466797
1123.5, 0.1889277216934182
1124, 0.18781232192578556
1124.5, 0.18660795922655948
1125, 0.18562385918056057
1125.5, 0.18504604983745832
1126, 0.18454874508385433
1126.5, 0.18372211838769337
1127, 0.18278486733512178
1127.5, 0.1821344006378326
1128, 0.18166056454235047
1128.5, 0.1810427826423886
1129, 0.1800686082607924
1129.5, 0.1786189120701568
1130, 0.1769455683017861
1130.5, 0.1754696778837883
1131, 0.17427959134585402
1131.5, 0.17326847161346715
1132, 0.17239595326075774
1132.5, 0.17166073739664034
1133, 0.17096674197551343
1133.5, 0.17015815164145276
1134, 0.16924515559578257
1134.5, 0.1683649784196417
1135, 0.16749513275818984
1135.5, 0.1664769524458347
1136, 0.1653693970986565
1136.5, 0.1644424716602455
1137, 0.16374952458619996
1137.5, 0.16310130125114974
1138, 0.1623917837423018
1138.5, 0.1616282286953451
1139, 0.16077148865657054
1139.5, 0.15971429708002727
1140, 0.15845962791078527
1140.5, 0.15717844138881165
1141, 0.1560422395855191
1141.5, 0.15519938582440518
1142, 0.15457129630815125
1142.5, 0.15367914388465742
1143, 0.1522877613716449
1143.5, 0.15072690040307313
1144, 0.14926938876985263
1144.5, 0.14791666037350937
1145, 0.14671075518086318
1145.5, 0.14588113546537707
1146, 0.14550869239436293
1146.5, 0.14519307537107962
1147, 0.14452803314586427
1147.5, 0.14333601181583377
1148, 0.1416074574172077
1148.5, 0.13975629546535406
1149, 0.13822938342348512
1149.5, 0.1372576037619031
1150, 0.13692196837200288
1150.5, 0.13688427757583144
1151, 0.13669607889195623
1151.5, 0.1359143443151083
1152, 0.13426651406896162
1152.5, 0.13238084716460385
1153, 0.13103665718535518
1153.5, 0.1301266297606095
1154, 0.12926070106910426
1154.5, 0.12835667871200018
1155, 0.12745561097243052
1155.5, 0.12656859495802764
1156, 0.1256905938499543
1156.5, 0.12479749121980999
1157, 0.12386606133601707
1157.5, 0.12297595178669385
1158, 0.12224397472092685
1158.5, 0.12155527155697832
1159, 0.12066755727745027
1159.5, 0.1195604635494617
1160, 0.11836211205582714
1160.5, 0.11711336179592635
1161, 0.11579438130952324
1161.5, 0.11452315508318278
1162, 0.11352533915672613
1162.5, 0.11283512419173136
1163, 0.11231105813662634
1163.5, 0.11193359525531488
1164, 0.11180413352227858
1164.5, 0.11171763611480201
1165, 0.11112798943195268
1165.5, 0.10987921069694118
1166, 0.10832416090645813
1166.5, 0.10682255846105926
1167, 0.10569495670564644
1167.5, 0.10499231763416073
1168, 0.10436262139034347
1168.5, 0.10362688077720184
1169, 0.10295271384062599
1169.5, 0.10242256225182533
1170, 0.10189865999013004
1170.5, 0.10124712274830072
1171, 0.10039190663359954
1171.5, 0.09933339770896588
1172, 0.09823075827905214
1172.5, 0.09724886035116997
1173, 0.0965105526767861
1173.5, 0.09601562709576394
1174, 0.09543306832329046
1174.5, 0.09454035717516296
1175, 0.09364407712069689
1175.5, 0.09303602939864974
1176, 0.09258460466737917
1176.5, 0.09209812853013288
1177, 0.09151875369025186
1177.5, 0.09083548178748757
1178, 0.090097995184511
1178.5, 0.08936610887764729
1179, 0.08866626908242359
1179.5, 0.08802755554238839
1180, 0.08755148862754103
1180.5, 0.08729766683457796
1181, 0.08690592429375954
1181.5, 0.08596204647381611
1182, 0.08481360778055291
1182.5, 0.0840531000833481
1183, 0.08361616358969737
1183.5, 0.08317212767597315
1184, 0.08282076986829534
1184.5, 0.0828322708515612
1185, 0.08287808910670058
1185.5, 0.08234051231696704
1186, 0.08133868530287036
1186.5, 0.08043947201046253
1187, 0.07976904292072429
1187.5, 0.07913679243099248
1188, 0.07842362986968798
1188.5, 0.07757882686861473
1189, 0.07666636675879868
1189.5, 0.07584306122484918
1190, 0.07514224226341137
1190.5, 0.07447588192476517
1191, 0.07377213285487483
1191.5, 0.0729863506239411
1192, 0.07222257690544964
1192.5, 0.07175128667023012
1193, 0.07159762985614027
1193.5, 0.07145911438486563
1194, 0.07113551600280132
1194.5, 0.07060475020469847
1195, 0.06990043951605995
1195.5, 0.069122627509973
1196, 0.06837535390653571
1196.5, 0.0677584722834551
1197, 0.067260737993457
1197.5, 0.06665709230803452
1198, 0.06580810528608572
1198.5, 0.0648110798186784
1199, 0.06382768875573619
1199.5, 0.06309984049365192
1200, 0.06272860789174661
1200.5, 0.062409663758539624
1201, 0.06189868644736085
1201.5, 0.06132657554002319
1202, 0.06081895132912629
1202.5, 0.06025490777935727
1203, 0.05953483164568274
1203.5, 0.05882661251330379
1204, 0.05828573466303899
1204.5, 0.05775970014199194
1205, 0.05707586592725733
1205.5, 0.05633829236246202
1206, 0.05570916477177157
1206.5, 0.055235926960018666
1207, 0.05490251345734787
1207.5, 0.054539245795388935
1208, 0.05395460258920248
1208.5, 0.053177734971967094
1209.0000000000002, 0.05233940863729336
1209.5, 0.05166452395470755
1210, 0.05136963660595628
1210.5, 0.05125101170223745
1211, 0.05092869649478704
1211.5, 0.05033207983412813
1212.0000000000002, 0.04957050044018452
1212.5000000000002, 0.048848201607715525
1213.0000000000002, 0.04839697561585643
1213.5000000000002, 0.04808788569857525
1214, 0.047570911683235684
1214.5, 0.04681598856234692
1215, 0.04602866087009849
1215.5, 0.04531797162044149
1216, 0.04470698944518425
1216.5, 0.04418006238335759
1217.0000000000002, 0.04368801952522383
1217.5000000000002, 0.04316545369640745
1218.0000000000002, 0.042539388773979336
1218.5000000000002, 0.04194342822652786
1219, 0.04173026359791776
1219.5, 0.04193710767413206
1220, 0.042205109759815174
1220.5, 0.042259275118688655
1221, 0.041973121804019686
1221.5, 0.04140891192167595
1222.0000000000002, 0.04089104010358058
1222.5000000000002, 0.0405536297454685
1223.0000000000002, 0.04018431840567571
1223.5000000000002, 0.039659507985865594
1224, 0.039075467370677575
1224.5, 0.03852252340092677
1225, 0.03803210255758949
1225.5, 0.037633095167325714
1226, 0.03736438809034626
1226.5000000000002, 0.03720774224818579
1227.0000000000002, 0.036999500853690415
1227.5000000000002, 0.03664193645515068
1228, 0.03628164254057442
1228.5000000000002, 0.036000655183913155
1229.0000000000002, 0.03555150847446786
1229.5, 0.03473733537524437
1230.0000000000002, 0.03375570576874454
1230.5, 0.03283246476233925
1231.0000000000002, 0.031973404382997006
1231.5, 0.03120331475449356
1232.0000000000002, 0.030859544448646026
1232.5, 0.03125813044214032
1233.0000000000002, 0.032201793503140896
1233.5, 0.03331327807609663
1234, 0.03408144861851303
1234.5000000000002, 0.03406419552222517
1235, 0.0335164085455566
1235.5000000000002, 0.03291025328595121
1236, 0.032406155994409325
1236.5000000000002, 0.03202155460474554
1237, 0.03168096053371405
1237.5000000000002, 0.03128724109476033
1238, 0.030931193816629343
1238.5, 0.03078238999411398
1239.0000000000002, 0.030826131768195708
1239.5, 0.03094993485681763
1240.0000000000002, 0.03113461044160659
1240.5, 0.031406225495429596
1241.0000000000002, 0.03159976609756865
1241.5, 0.031440449700109174
1242.0000000000002, 0.031025746993361802
1242.5, 0.03072456266946222
1243.0000000000002, 0.03058102858918954
1243.5, 0.030363313969069328
1244, 0.02999528383783223
1244.5000000000002, 0.029557665760421292
1245, 0.02917489860875655
1245.5000000000002, 0.02900462928232994
1246, 0.029029243720418818
1246.5000000000002, 0.029030607817115528
1247, 0.02887261194167179
1247.5000000000002, 0.028539512536924883
1248, 0.028136095493477953
1248.5, 0.027921274061705414
1249.0000000000002, 0.027947151520598235
1249.5, 0.02793073689541503
1250.0000000000002, 0.027741607770104038
1250.5, 0.027558518115285535
1251.0000000000002, 0.02752003042051432
1251.5, 0.02763110004672431
1252.0000000000002, 0.027833811311728907
1252.5, 0.027969839630404225
1253.0000000000002, 0.027964054424837403
1253.5000000000002, 0.02796452118083559
1254, 0.028033498567525017
1254.5000000000002, 0.027928522524702237
1255, 0.027531070755444254
1255.5000000000002, 0.027221897230810033
1256, 0.02731291496151622
1256.5000000000002, 0.027604208019918586
1257, 0.027842908089155793
1257.5000000000002, 0.027957147381181824
1258, 0.02794900047588411
1258.5, 0.02795432364786865
1259.0000000000002, 0.02806046877825108
1259.5, 0.027982618359222333
1260.0000000000002, 0.027428634370960436
1260.5, 0.02660208903161887
1261.0000000000002, 0.025819292322608933
1261.5, 0.02514736138212892
1262.0000000000002, 0.024591701188253268
1262.5, 0.024324805884008205
1263, 0.02452705034327385
1263.5000000000002, 0.024963391838479176
1264, 0.025260005019345666
1264.5000000000002, 0.025390706425552856
1265, 0.025478560677844042
1265.5000000000002, 0.025464295811144955
1266, 0.025211963461666764
1266.5000000000002, 0.024816121982436767
1267, 0.024485640521651586
1267.5000000000002, 0.02414740764052903
1268.0000000000002, 0.023563837189284675
1268.5, 0.022806765120193417
1269.0000000000002, 0.022168230293287183
1269.5, 0.021823465376978324
1270.0000000000002, 0.021838254835274018
1270.5, 0.022063036767868693
1271.0000000000002, 0.022167526146593564
1271.5, 0.021990074490890632
1272.0000000000002, 0.021549501283333217
1272.5, 0.021110031678839736
1273, 0.021174159127664516
1273.5000000000002, 0.02164603312880886
1274, 0.02171975499731371
1274.5000000000002, 0.021262083945414956
1275, 0.021069115741923272
1275.5000000000002, 0.02144852198377445
1276, 0.021909365885264043
1276.5000000000002, 0.02212498205128477
1277, 0.02213428077031876
1277.5000000000002, 0.022077148498358512
1278.0000000000002, 0.02221277158625823
1278.5, 0.02260541920449788
1279.0000000000002, 0.02291222356266054
1279.5, 0.022930746364167587
1280.0000000000002, 0.02286904263686451
1280.5, 0.022882199410159343
1281.0000000000002, 0.022865042051495754
1281.5, 0.022721708372053895
1282.0000000000002, 0.022486319566217938
1282.5, 0.022241418752483866
1283, 0.022149987399764925
1283.5000000000002, 0.022305207622360546
1284, 0.02251408093218288
1284.5000000000002, 0.02262463213067356
1285, 0.022866664348945798
1285.5000000000002, 0.0234288084648272
1286, 0.023946245407189592
1286.5000000000002, 0.024041129851403498
1287, 0.02396386941432882
1287.5, 0.02407089910698068
1288.0000000000002, 0.02429845814359055
1288.5, 0.024479128356680646
1289.0000000000002, 0.02465278979838703
1289.5, 0.024899252649588588
1290.0000000000002, 0.025055575557997423
1290.5, 0.024894793690158457
1291.0000000000002, 0.024456751415553812
1291.5, 0.023900585069567715
1292.0000000000002, 0.0233658687686924
1292.5000000000002, 0.022979742699243633
1293, 0.022847692773160122
1293.5000000000002, 0.023045280165701065
1294, 0.02345136454126473
1294.5000000000002, 0.023827418163388292
1295, 0.023989800903429503
1295.5000000000002, 0.02381045658799741
1296, 0.023406011081911204
1296.5000000000002, 0.023066847074617036
1297, 0.022902958604500534
1297.5, 0.022868318617009442
1298.0000000000002, 0.022882545423300704
1298.5, 0.022844686079895093
1299.0000000000002, 0.022812067322881213
1299.5, 0.022995930997213754
1300.0000000000002, 0.02338508703449793
1300.5, 0.023715799704205898
1301.0000000000002, 0.023886988722610525
1301.5, 0.024012324883143088
1302.0000000000002, 0.024069987990307018
1302.5000000000002, 0.02384005871927264
1303, 0.02339417048644632
1303.5000000000002, 0.02326095541730444
1304, 0.023628890782817047
1304.5000000000002, 0.024056909758379375
1305, 0.024258546866969266
1305.5000000000002, 0.024343270148152407
1306, 0.024384425594043857
1306.5000000000002, 0.024294034397396413
1307.0000000000002, 0.02407238006556145
1307.5, 0.023965323445629627
1308.0000000000002, 0.0241202980841283
1308.5, 0.0243495648199632
1309.0000000000002, 0.02444728283683195
1309.5, 0.02430388951166529
1310.0000000000002, 0.02392028917206679
1310.5, 0.023592124318063457
1311.0000000000002, 0.02355110444356434
1311.5, 0.023600294312151937
1312, 0.023504339803627206
1312.5000000000002, 0.02324778784021886
1313, 0.022884081755479735
1313.5000000000002, 0.022531765883767707
1314, 0.022299697796050122
1314.5000000000002, 0.022160354085284606
1315, 0.022069222999697047
1315.5000000000002, 0.022120324744872466
1316, 0.022415616546441308
1316.5000000000002, 0.022810163990872323
1317.0000000000002, 0.023090236317737323
1317.5, 0.023223242576467462
1318.0000000000002, 0.023255135819931216
1318.5, 0.02324106250393443
1319.0000000000002, 0.023234631159274155
1319.5, 0.02323799540719773
1320.0000000000002, 0.023230098707319513
1320.5, 0.023229010711489972
1321.0000000000002, 0.02326677545352185
1321.5, 0.02327160994787769
1322, 0.023121293385722108
1322.5000000000002, 0.02291508695664113
1323, 0.022897216605798465
1323.5000000000002, 0.02310512556399036
1324, 0.02340769102181217
1324.5000000000002, 0.0236106148538463
1325, 0.02348230682944974
1325.5000000000002, 0.02308051115500509
1326, 0.022737877335258116
1326.5000000000002, 0.02270352671296172
1327.0000000000002, 0.02311491635072027
1327.5, 0.023746092231913152
1328.0000000000002, 0.023965759963545663
1328.5, 0.023591408103418754
1329.0000000000002, 0.023044742046861688
1329.5, 0.02264283252222188
1330.0000000000002, 0.022494949522851138
1330.5, 0.022536548873733575
1331.0000000000002, 0.022457151276827347
1331.5000000000002, 0.02211144288175726
1332, 0.021677892101997887
1332.5000000000002, 0.02130142818108338
1333, 0.021000689031226427
1333.5000000000002, 0.02086336245557141
1334, 0.02115423706028352
1334.5000000000002, 0.02191041126300386
1335, 0.02257560073511533
1335.5000000000002, 0.022783377040665687
1336, 0.02289516373580658
1336.5, 0.02317105810171316
1337.0000000000002, 0.023223869382080653
1337.5, 0.022753176752085102
1338.0000000000002, 0.022133056351638092
1338.5, 0.02178330982725285
1339.0000000000002, 0.021783240872158216
1339.5, 0.02209175383426709
1340.0000000000002, 0.022494205523044042
1340.5, 0.022806739862715197
1341.0000000000002, 0.023192830408402032
1341.5000000000002, 0.023813545529521418
1342, 0.024301915432365484
1342.5000000000002, 0.024219913110180902
1343, 0.023701039216122988
1343.5000000000002, 0.0230713304173622
1344, 0.022574950647024083
1344.5000000000002, 0.022391748338870365
1345, 0.02247095555743228
1345.5000000000002, 0.022662451271792894
1346.0000000000002, 0.022841943884064353
1346.5, 0.022910632662964114
1347.0000000000002, 0.02288718482829355
1347.5, 0.022837729512313887
1348.0000000000002, 0.02264950156866552
1348.5, 0.022136771941019595
1349.0000000000002, 0.02155126322623846
1349.5, 0.021400560433825544
1350.0000000000002, 0.02165720134636362
1350.5, 0.021913005291309684
1351.0000000000002, 0.02206756585453351
1351.5000000000002, 0.022269300495850297
1352, 0.02247538401435556
1352.5000000000002, 0.022473465262841885
1353, 0.02226633325476679
1353.5000000000002, 0.022070088607150873
1354, 0.02191875265462495
1354.5000000000002, 0.021641989751148283
1355, 0.021250729044487215
1355.5000000000002, 0.020985027141625867
1356.0000000000002, 0.020965727492112674
1356.5, 0.021134619948144362
1357.0000000000002, 0.02135688346021103
1357.5, 0.021405441806581438
1358.0000000000002, 0.021218269537384815
1358.5, 0.021014224177296037
1359.0000000000002, 0.020965544049088236
1359.5, 0.02111316666413121
1360.0000000000002, 0.021445657183639
1360.5, 0.02187422885904511
1361, 0.022285880979241668
1361.5000000000002, 0.022534519435922884
1362, 0.02255715127782487
1362.5000000000002, 0.022507062515705556
1363, 0.02250757182653862
1363.5000000000002, 0.022509213216579838
1364, 0.022422516294163142
1364.5000000000002, 0.02212565259890309
1365, 0.021629771520620622
1365.5000000000002, 0.02142358781032594
1366.0000000000002, 0.021875595801746917
1366.5, 0.02249973779740133
1367.0000000000002, 0.02272956582487473
1367.5, 0.02253439212051811
1368.0000000000002, 0.02204465492398333
1368.5, 0.0214737185301187
1369.0000000000002, 0.021057787100636105
1369.5, 0.02102189041728375
1370.0000000000002, 0.021498323756199755
1370.5000000000002, 0.022080734834404758
1371, 0.02223249007497663
1371.5000000000002, 0.021902364927492757
1372, 0.02127128814091117
1372.5000000000002, 0.02074885358376266
1373, 0.02078484019550153
1373.5000000000002, 0.02126134977778671
1374, 0.02178402481804176
1374.5000000000002, 0.022110203845765453
1375, 0.022106001851049273
1375.5000000000002, 0.021875286587304754
1376.0000000000002, 0.021655938378989048
1376.5, 0.02149219259435886
1377.0000000000002, 0.02129971887130122
1377.5, 0.02110983690859114
1378.0000000000002, 0.021036893769544984
1378.5, 0.021057314453215792
1379.0000000000002, 0.021036912536103403
1379.5, 0.021010774951952138
1380.0000000000002, 0.021169166687402874
1380.5000000000002, 0.021541057543119524
1381, 0.02198301176603279
1381.5000000000002, 0.022362315544963485
1382, 0.02256975199757727
1382.5000000000002, 0.02257688867398233
1383, 0.02245520136643475
1383.5000000000002, 0.022273612732140458
1384, 0.022088035569374997
1384.5000000000002, 0.021916663051393503
1385.0000000000002, 0.021721954978463076
1385.5, 0.021517117269407526
1386.0000000000002, 0.021409481416627907
1386.5, 0.021507561843322476
1387.0000000000002, 0.021902878021735073
1387.5, 0.02235955343209961
1388.0000000000002, 0.021965893395833214
1388.5, 0.020435218709750402
1389.0000000000002, 0.0191220358979709
1389.5, 0.018970066442515754
1390.0000000000002, 0.01926896629366559
1390.5000000000002, 0.019323763722783105
1391, 0.019237463384042863
1391.5000000000002, 0.019203092274613476
