100.55770118864478, 68.39146769111471
103.41444904946655, 68.34468331861092
106.27119691028835, 68.25133990471713
109.12794477111014, 68.20455553221333
111.98469263193192, 68.13449163901453
114.84144049275372, 68.08770726651073
117.69818835357549, 67.99436385261696
120.55493621439729, 67.94757948011316
123.41168407521906, 67.92407462830437
126.26843193604086, 67.83073121441058
129.12517979686265, 67.76066732121178
131.98192765768442, 67.73716246940299
134.83867551850622, 67.66709857620418
137.695423379328, 67.66687324509039
140.5521712401498, 67.66664791397659
143.40891910097156, 67.73626114494776
146.26566696179336, 67.85243341730893
149.12241482261516, 68.0151647310601
151.97916268343693, 68.17789604481126
154.83591054425872, 68.43374544134241
157.6926584050805, 68.64303579648356
160.5494062659023, 68.85232615162471
163.40615412672406, 69.08489602746086
166.26290198754586, 69.317465903297
169.11964984836766, 69.52675625843816
171.97639770918943, 69.68948757218931
174.83314557001123, 69.80565984455049
177.68989343083302, 69.94511163760666
180.5466412916548, 70.06128390996783
183.4033891524766, 70.154176661634
186.26013701329836, 70.24706941330018
189.11688487412016, 70.33996216496635
191.97363273494193, 70.36301635454754
194.83038059576373, 70.38607054412873
197.68712845658553, 70.45568377509991
200.5438763174073, 70.4787379646811
203.4006241782291, 70.54835119565229
206.25737203905086, 70.64124394731846
209.11411989987266, 70.66429813689965
211.97086776069446, 70.73391136787083
214.82761562151623, 70.75696555745202
217.68436348233803, 70.8265787884232
220.5411113431598, 70.91947154008938
223.3978592039816, 70.91924620897558
226.25460706480337, 71.01213896064175
229.11135492562516, 71.03519315022294
231.96810278644696, 71.01168829841414
234.82485064726873, 71.01146296730033
237.68159850809053, 71.08107619827152
240.5383463689123, 71.1274099085477
243.3950942297341, 71.1504640981289
246.25184209055587, 71.26663637049006
249.10858995137767, 71.35952912215625
251.96533781219946, 71.42914235312742
254.82208567302123, 71.38235798062362
257.67883353384303, 71.31229408742483
260.5355813946648, 71.35862779770102
263.3923292554866, 71.31184342519722
266.2490771163084, 71.38145665616841
269.10582497713017, 71.47434940783458
271.96257283795194, 71.45084455602579
274.8193206987737, 71.47389874560697
277.67606855959554, 71.56679149727314
280.5328164204173, 71.61312520754933
283.3895642812391, 71.65945891782552
286.2463121420609, 71.79891071088169
289.10306000288267, 71.84524442115787
291.95980786370444, 71.89157813143406
294.8165557245262, 71.93791184171025
297.67330358534804, 72.00752507268143
300.5300514461698, 72.0771383036526
303.3867993069916, 72.07691297253879
306.24354716781335, 72.14652620350998
309.1002950286352, 72.19285991378617
311.95704288945694, 72.28575266545234
314.8137907502787, 72.37864541711852
317.6705386111005, 72.37842008600471
320.5272864719223, 72.4247537962809
323.3840343327441, 72.51764654794707
326.24078219356585, 72.58725977891825
329.0975300543877, 72.65687300988944
331.95427791520945, 72.65664767877563
334.8110257760312, 72.72626090974681
337.667773636853, 72.79587414071798
340.5245214976748, 72.86548737168917
343.3812693584966, 73.00493916474534
346.23801721931835, 73.07455239571652
349.0947650801402, 73.09760658529771
351.95151294096195, 73.1439402955739
354.8082608017837, 73.21355352654507
357.66500866260554, 73.25988723682126
360.5217565234273, 73.35277998848744
363.3785043842491, 73.46895226084861
366.23525224507085, 73.5152859711248
369.0920001058927, 73.51506064001099
371.94874796671445, 73.60795339167717
374.8054958275362, 73.74740518473334
377.66224368835805, 73.84029793639951
380.5189915491798, 74.16598589501564
383.6138017317367, 74.02606466213905
386.23248727082336, 74.18881475348303
389.0892351316452, 74.3049870258442
391.94598299246695, 74.49099786029035
394.8027308532887, 74.58389061195653
397.65947871411055, 74.6535038429277
400.5162265749323, 74.79295563598387
403.3729744357541, 74.90912790834504
406.22972229657586, 75.00202066001123
409.0864701573977, 75.1414724530674
411.94321801821945, 75.28092424612356
414.7999658790412, 75.46693508056971
417.65671373986305, 75.44343022876092
420.5134616006848, 75.53632298042709
423.3702094615066, 75.76889285626324
426.22695732232836, 75.9083446493194
429.0837051831502, 76.04779644237557
431.94045304397196, 76.00101206987178
434.7972009047937, 76.25686146640292
437.65394876561555, 76.44287230084907
440.5106966264373, 76.65216265599022
443.3674444872591, 76.81489396974139
446.22419234808086, 76.86122768001758
449.0809402089027, 76.93084091098876
451.93768806972446, 77.07029270404493
454.79443593054623, 77.25630353849108
457.65118379136806, 77.44231437293723
460.5079316521898, 77.53520712460342
463.3646795130116, 77.6280998762696
466.22142737383336, 77.81411071071575
469.0781752346552, 78.0234010658569
471.93492309547696, 78.11629381752307
474.79167095629873, 78.27902513127424
477.64841881712056, 78.53487452780539
480.5051666779423, 78.58120823808157
483.3619145387641, 78.8370576346127
486.2186623995859, 78.97650942766887
489.0754102604077, 79.20907930350504
491.93215812122946, 79.3252515758662
494.78890598205123, 79.3017467240574
497.64565384287306, 79.18512378946862
500.50240170369483, 79.11505989626983
503.3591495645166, 78.99843696168105
506.2158974253384, 78.92837306848226
509.0726452861602, 78.83502965458847
511.92939314698197, 78.55545007513471
514.7861410078037, 78.36898857846094
517.6428888686256, 77.99629091622722
520.4996367294474, 77.71671133677347
523.3563845902692, 77.46041127801472
526.2131324510909, 77.22739073995096
529.0698803119127, 77.06420876397219
531.9266281727345, 76.76134966382344
534.7833760335562, 76.50504960506468
537.6401238943781, 76.31858810839091
540.4968717551999, 76.06228804963217
543.3536196160217, 75.94566511504338
546.2103674768434, 75.92216026323459
549.0671153376652, 75.8753758907308
551.923863198487, 75.828591518227
554.7806110593087, 75.7585276250282
557.6373589201306, 75.7583022939144
560.4941067809524, 75.73479744210559
563.3508546417742, 75.80441067307677
566.2076025025959, 75.82746486265796
569.0643503634177, 75.87379857293415
571.9210982242396, 75.73389611765037
574.7778460850614, 75.73367078653658
577.6345939458831, 75.50065024847281
580.4913418067049, 75.29090923110405
583.3480896675267, 75.0346091723453
586.2048375283484, 74.73175007219655
589.0615853891702, 74.49872953413279
592.1563955717272, 74.14929261500124
594.5370187890786, 73.69903410563649
597.6318289716356, 73.63671127507655
600.4885768324574, 73.4036907370128
603.3453246932792, 73.333626843814
606.2020725541009, 73.00748822297027
609.0588204149227, 72.72790864351651
611.9155682757446, 72.68112427101272
614.7723161365664, 72.49466277433895
617.6290639973881, 72.37803983975016
620.4858118582099, 72.21485786377139
623.3425597190317, 71.72576259806269
626.1993075798534, 71.79537582903387
629.0560554406752, 71.5623552909701
631.9128033014971, 71.53885043916131
634.7695511623189, 71.5619046287425
637.6262990231406, 71.30560456998374
640.4830468839624, 71.4916154044299
643.3397947447842, 71.42155151123112
646.1965426056059, 71.4446057008123
649.291352788163, 70.9477318172791
651.9100383272496, 71.09496222815976
654.7667861880714, 71.46720922816588
657.6235340488931, 71.49026341774707
660.4802819097149, 71.49003808663326
663.3370297705367, 71.37341515204449
666.1937776313584, 71.44302838301567
669.0505254921803, 71.30312592773188
671.9072733530021, 71.46585724148305
674.7640212138239, 71.39579334828426
677.6207690746456, 71.30244993439047
680.4775169354674, 71.27894508258167
683.3342647962892, 71.48823543772282
686.191012657111, 71.557848668694
689.0477605179328, 71.53434381688521
691.9045083787546, 71.72035465133136
694.7612562395764, 71.58045219604759
697.6180041003981, 71.5103883028488
700.7128142829552, 71.53342371483717
703.0934375003065, 71.533235938909
706.1882476828634, 71.62610991298236
709.0449955436853, 71.69572314395353
711.9017434045071, 71.69549781283973
714.7584912653289, 71.7651110438109
717.6152391261506, 71.69504715061211
720.4719869869724, 71.55514469532834
723.3287348477942, 71.62475792629952
726.185482708616, 71.43829642962575
729.0422305694378, 71.32167349503698
731.8989784302596, 71.53096385017813
734.7557262910814, 71.46089995697933
737.6124741519031, 71.48395414656054
740.4692220127249, 71.53028785683671
743.3259698735467, 71.69301917058787
746.1827177343685, 71.59967575669408
749.0394655951903, 71.48305282210531
751.6581511342769, 71.2655707420977
754.7529613168339, 70.9820924649353
757.6097091776556, 71.07498521660148
760.4664570384774, 71.4588719769551
763.3232048992992, 71.45864664584128
766.179952760121, 71.36530323194751
769.0367006209428, 71.13228269388374
771.8934484817646, 71.10877784207494
774.7501963425864, 71.2947886765211
777.8450065251433, 70.81343447345124
780.4636920642299, 70.87530664178357
783.3204399250517, 70.7121246658048
786.1771877858735, 70.75845837608098
789.0339356466953, 70.68839448288219
791.8906835075171, 70.78128723454837
794.7474313683389, 70.75778238273958
797.6041792291606, 70.61787992745579
800.4609270899824, 70.47797747217201
803.3176749508042, 70.24495693410826
806.174422811626, 70.17489304090947
809.0311706724478, 70.40746291674562
811.8879185332696, 70.31411950285182
814.7446663940914, 70.10437848548307
817.6014142549132, 69.63856274046935
820.4581621157349, 69.3706229213631
823.3149099765567, 69.24236022642683
826.1716578373785, 68.96278064697307
829.0284056982003, 69.43978549010666
831.647091237287, 69.61417534179816
833.5515898111681, 69.27259215086235
836.1702753502548, 69.80005473309458
836.1702753502548, 68.98527150876976
839.0270232110765, 69.35751850877587
841.8837710718983, 69.31073413627207
844.9785812544552, 69.11649402177383
847.597266793542, 69.28700395334945
850.4540146543637, 69.1238219773707
853.3107625151855, 69.21671472903688
855.9294480542721, 68.91387440648094
859.024258236829, 69.33266167028424
861.6429437759158, 69.33245511676324
864.7377539584726, 69.47188813222661
867.5945018192945, 69.54150136319778
870.4512496801162, 69.75079171833893
873.307997540938, 69.72728686653014
876.1647454017598, 69.8434591388913
879.0214932625815, 69.79667476638751
882.1163034451384, 69.40843864609764
884.7349889842251, 69.81950362485489
887.591736845047, 70.23830966625101
890.4484847058687, 70.12168673166222
893.3052325666905, 70.26113852471839
896.1619804275123, 70.6566650454195
899.018728288334, 71.00563252473063
901.8754761491558, 71.02868671431182
904.7322240099776, 70.91206377972304
907.5889718707995, 71.23775173833917
910.4457197316212, 71.42376257278532
913.5405299141781, 71.43903814454202
916.1592154532648, 71.84234328306763
919.0159633140865, 72.26114932446373
922.1107734966434, 72.43162170085375
924.7294590357301, 72.842686679611
927.824269218287, 72.78812368928274
930.4429547573737, 73.3078264312833
933.0616402964604, 73.28434035706732
936.1564504790173, 73.86608426573558
939.013198339839, 74.07537462087674
942.108008522396, 74.1216895535601
944.7266940614826, 74.56379389324402
947.5834419223045, 74.86620233116517
950.4401897831262, 75.00565412422134
953.296937643948, 75.09854687588751
956.1536855047698, 74.91208537921374
958.7723710438564, 75.36194955912933
962.1052435481485, 75.92039516950977
964.7239290872351, 76.58753487591198
964.7239290872351, 75.67963356880716
967.3426146263218, 75.9665411038578
970.6754871306138, 76.41634895099493
973.0561103479654, 76.46272021645674
975.9128582087872, 76.40041616348962
979.007668391344, 76.93560103076788
981.8644162521658, 76.66766121166164
984.7211641129876, 76.8536720461078
987.5779119738095, 77.74970826175131
987.3398496520743, 76.6012706850577
990.4346598346312, 77.10929611152514
993.5294700171881, 77.26812872756764
996.1481555562748, 77.20196353207751
998.7668410953614, 77.57810922979228
1002.0997135996535, 77.28297241468957
1004.7183991387401, 76.95685257143865
1007.575146999562, 77.44549717491974
1010.6699571821188, 77.49957194783477
1013.5267050429406, 77.76318118459758
1013.0505803994704, 76.56820334410679
1016.1453905820273, 77.27022477636585
1018.764076121114, 77.2506186222657
1021.8588863036708, 77.60732716421568
1024.7156341644927, 77.67694039518686
1027.5723820253145, 77.60687650198807
1030.4291298861363, 78.02568254338418
1030.4291298861363, 77.21089931905934
1033.523940068693, 77.49776929892433
1035.9045632860445, 77.52862088392283
1038.9993734686016, 77.55941613614286
1041.8561213294233, 77.39623416016408
1044.712869190245, 77.46584739113527
1047.3315547293319, 77.26388499159098
1050.4263649118886, 77.51195577029765
1053.2831127727104, 76.95302194250395
1055.9017983117972, 77.20113027639624
1057.5682345639432, 76.6733296974933
1059.2346708160892, 77.37158387519344
1061.8533563551757, 77.44121588375744
1064.4720418942625, 76.84350163239824
1066.3765404681435, 76.31568227590247
1068.9952260072303, 76.69570789373307
1071.851973868052, 76.64892352122928
1074.9467840506088, 75.98909299283113
1077.5654695896956, 75.70565227085436
1080.6602797722526, 75.74032744319022
1083.278965311339, 76.01947513800918
1086.1357131721609, 75.80973412064043
1088.9924610329826, 75.3904774170167
1091.8492088938044, 75.09925807721545
1094.7059567546264, 74.97099538227917
1097.5627046154482, 74.99404957186036
1100.1813901545347, 74.79208717231609
1103.5142626588267, 74.23311578933675
1106.1329481979135, 74.2484289162791
1108.9896960587353, 73.94556981613036
1112.084506241292, 73.3943770509755
1114.7031917803788, 73.60756610382532
1117.5599396412006, 73.29306724332906
1120.1786251802873, 73.19198276679643
1123.035373041109, 72.88136382641602
1124.9398716149901, 72.5242609550169
1127.796619475812, 72.50851594343976
1130.4153050148986, 72.4889097893396
1133.2720528757204, 72.05801332536839
1136.1288007365422, 72.4768193667645
1136.1288007365422, 71.70859518382966
1138.985548597364, 72.01100362175079
1141.6042341364507, 71.3900098496966
1143.5087327103317, 70.90874953459083
1146.1274182494185, 71.19565706964144
1148.9841661102403, 71.03247509366267
1151.840913971062, 70.98569072115887
1154.6976618318838, 70.51987497614516
1157.7924720144406, 70.44203246512188
1160.1730952317923, 70.61256117429035
1163.2679054143491, 70.47263994141375
1165.8865909534359, 70.23963818094282
1168.9814011359927, 69.98331934459124
1171.8381489968144, 69.82013736861246
1174.6948968576364, 69.93630964097363
1177.5516447184582, 70.1223204754198
1180.40839257928, 70.052256582221
1183.5032027618367, 69.98993375166106
1183.2651404401017, 68.91133473705244
1186.1218883009235, 69.70261310956846
1188.7405738400103, 69.67912703535248
1190.6450724138913, 69.01163055468675
1193.0256956312428, 69.27527734663519
1196.1205058137998, 69.60870636789016
1198.9772536746216, 68.945014696969
1201.595939213708, 68.93316838310051
1204.6907493962651, 69.02604235717386
1207.547497257087, 68.63006517424515
1210.4042451179087, 68.60656032243634
1213.4990553004654, 68.57527685280306
1216.1177408395522, 68.41987349464877
1218.736426378639, 68.79213927224771
1221.8312365611957, 68.93157228771105
1224.8308218150587, 68.98720653970955
1227.5447322828393, 69.86230245328326
1227.3066699611043, 68.7449042375163
1230.401480143661, 68.75629988915718
1233.258228004483, 69.44282041854574
1233.0201656827478, 68.29438284185211
1236.1149758653048, 69.27963844256696
1238.9717237261266, 69.30269263214814
1241.590409265213, 69.11624991306721
1244.9232817695051, 69.31774287279106
1247.541967308592, 69.55809136645169
1248.9703412390027, 68.83631355934992
1250.3987151694137, 69.76738172159284
1251.8270890998244, 69.09216295588107
1254.6838369606464, 69.30145331102221
1257.5405848214682, 69.21974965747593
1260.39733268229, 68.99836887975968
1263.2540805431117, 68.76534834169591
1266.1108284039335, 69.62646527629694
1265.8727660821985, 68.58666546284663
1268.9675762647553, 68.64850007599333
1271.824324125577, 68.67155426557451
1274.6810719863988, 68.55493133098574
1277.7758821689556, 68.47708881996246
1280.3945677080424, 68.57776018945312
1283.2513155688641, 68.85688910667926
1286.108063429686, 69.22913610668539
1288.9648112905077, 69.14743245313909
1292.0596214730647, 69.57785947728988
1294.6783070121514, 69.56601316342139
1297.7731171947082, 69.51533009320895
1300.62986505553, 70.38420686804164
1300.391802733795, 69.11161184764137
1303.2485505946167, 69.9960083029374
1303.0104882728815, 68.9096494480971
1306.1052984554385, 69.19263950784625
1308.9620463162603, 69.70456363202234
1311.580731855347, 69.84015428255549
1313.485230429228, 69.23473652374308
1315.8658536465796, 69.3276668305949
1319.1987261508716, 69.43604170753876
1321.8174116899584, 69.8432267661802
1324.436097229045, 69.59082540513009
1326.3405958029261, 69.047486368171
1328.7212190202777, 69.45081028428942
1331.8160292028347, 69.92391642971435
1334.6727770636564, 70.24960438833048
1337.291462602743, 71.28921642585263
1337.5295249244782, 69.92346576748675
1339.6720858200945, 71.99517411100598
1340.3862727853, 70.1094766019329
1343.4810829678568, 69.71348064141137
1346.0997685069435, 69.6085162447629
1348.9565163677653, 70.12044036893899
1351.813264228587, 69.9456186326127
1354.81284948245, 70.38070907193963
1357.2886976284956, 71.28763910805598
1357.7648222719658, 69.88307047093897
1360.3835078110524, 69.85182455649132
1363.2402556718741, 70.32882939962491
1365.858941210961, 70.48769957085307
1368.9537513935177, 70.31673897704981
1370.6201876456637, 69.26126926239364
1372.0485615760747, 70.47169167297649
1373.4769355064855, 69.21448488988983
1374.6672471151614, 70.45596543899217
1377.5239949759832, 70.50229914926835
1380.1426805150697, 70.44001387389405
1383.2374906976268, 70.38545088356577
1386.3323008801835, 70.26880917138418
1389.1890487410053, 70.40826096444033
1388.7129240975353, 69.27536184580286
1391.569671958357, 70.19079766202555
1394.6644821409138, 70.582425485018
1397.5212300017356, 70.84991464189665
1398.9496039321466, 69.98845971062492
1399.6637908973519, 70.87302516425629
