100.55770118864478, 49.5117764074735
103.41444904946655, 49.488271555664696
106.27119691028835, 49.41820766246591
109.12794477111014, 49.34814376926712
111.98469263193192, 49.324638917458316
114.84144049275372, 49.277854544954515
117.69818835357549, 49.23107017245072
120.55493621439729, 49.18428579994693
123.41168407521906, 49.13750142744313
126.26843193604086, 49.11399657563433
129.12517979686265, 49.06721220313054
131.98192765768442, 49.043707351321736
134.83867551850622, 49.02020249951293
137.695423379328, 48.99669764770413
140.5521712401498, 49.01975183728533
143.40891910097156, 49.066085547561514
146.26566696179336, 49.158978299227684
149.12241482261516, 49.29843009228385
151.97916268343693, 49.46116140603502
154.83591054425872, 49.62389271978618
157.6926584050805, 49.83318307492733
160.5494062659023, 50.065752950763475
163.40615412672406, 50.25176378520963
166.26290198754586, 50.4377746196558
169.11964984836766, 50.62378545410195
171.97639770918943, 50.73995772646312
174.83314557001123, 50.879409519519285
177.68989343083302, 50.99558179188046
180.5466412916548, 51.06519502285164
183.4033891524766, 51.15808777451782
186.26013701329836, 51.204421484794004
189.11688487412016, 51.32059375715517
191.97363273494193, 51.34364794673636
194.83038059576373, 51.36670213631755
197.68712845658553, 51.459594887983734
200.5438763174073, 51.45936955686993
203.4006241782291, 51.57554182923109
206.25737203905086, 51.62187553950728
209.11411989987266, 51.621650208393476
211.97086776069446, 51.71454296005965
214.82761562151623, 51.78415619103083
217.68436348233803, 51.83048990130702
220.5411113431598, 51.806985049498216
223.3978592039816, 51.89987780116439
226.25460706480337, 51.92293199074558
229.11135492562516, 51.99254522171677
231.96810278644696, 52.015599411297956
234.82485064726873, 51.96881503879416
237.68159850809053, 52.01514874907034
240.5383463689123, 52.06148245934653
243.3950942297341, 52.154375211012706
246.25184209055587, 52.22398844198389
249.10858995137767, 52.29360167295506
251.96533781219946, 52.36321490392625
254.82208567302123, 52.316430531422455
257.67883353384303, 52.29292567961365
260.5355813946648, 52.33925938988983
263.3923292554866, 52.38559310016602
266.2490771163084, 52.385367769052216
269.10582497713017, 52.4549810000234
271.96257283795194, 52.52459423099458
274.8193206987737, 52.57092794127077
277.67606855959554, 52.640541172241946
280.5328164204173, 52.71015440321313
283.3895642812391, 52.77976763418431
286.2463121420609, 52.73298326168051
289.10306000288267, 52.802596492651695
291.95980786370444, 52.89548924431787
294.8165557245262, 52.94182295459406
297.67330358534804, 53.01143618556524
300.5300514461698, 53.12760845792641
303.3867993069916, 53.220501209592584
306.24354716781335, 53.22027587847878
309.1002950286352, 53.17349150597498
311.95704288945694, 53.26638425764116
314.8137907502787, 53.405836050697324
317.6705386111005, 53.40561071958352
320.5272864719223, 53.52178299194469
323.3840343327441, 53.52155766083089
326.24078219356585, 53.614450412497064
329.0975300543877, 53.75390220555323
331.95427791520945, 53.80023591582941
334.8110257760312, 53.8698491468006
337.667773636853, 53.916182857076784
340.5245214976748, 54.03235512943795
343.3812693584966, 54.05540931901914
346.23801721931835, 54.078463508600336
349.0947650801402, 54.17135626026651
351.95151294096195, 54.24096949123769
354.8082608017837, 54.31058272220887
357.66500866260554, 54.38019595318005
360.5217565234273, 54.496368225541225
363.3785043842491, 54.6125404979024
366.23525224507085, 54.5424766047036
369.0920001058927, 54.65864887706478
371.94874796671445, 54.86793923220593
374.8054958275362, 54.867713901092124
377.66224368835805, 54.9373271320633
380.5189915491798, 55.12333796650946
383.3757394100016, 55.239510238870636
386.23248727082336, 55.33240299053681
389.0892351316452, 55.495134304287966
391.94598299246695, 55.56474753525915
394.8027308532887, 55.65764028692533
397.65947871411055, 55.773812559286505
400.5162265749323, 55.843425790257676
403.3729744357541, 55.91303902122886
406.22972229657586, 56.02921129359003
409.0864701573977, 56.215222128036196
411.94321801821945, 56.261555838312375
414.7999658790412, 56.331169069283554
417.65671373986305, 56.47062086233972
420.5134616006848, 56.63335217609089
423.3702094615066, 56.72624492775706
426.22695732232836, 56.865696720813226
429.0837051831502, 57.07498707595438
431.94045304397196, 57.12132078623057
434.7972009047937, 57.23749305859174
437.65394876561555, 57.4002243723429
440.5106966264373, 57.586235206789055
443.3674444872591, 57.72568699984522
446.22419234808086, 57.7953002308164
449.0809402089027, 57.98131106526256
451.93768806972446, 58.12076285831873
454.79443593054623, 58.283494172069894
457.65118379136806, 58.422945965126054
460.5079316521898, 58.58567727887722
463.3646795130116, 58.6785700305434
466.22142737383336, 58.841301344294564
469.0781752346552, 59.05059169943571
471.93492309547696, 59.0503663683219
474.79167095629873, 59.35277480624304
477.64841881712056, 59.49222659929921
480.5051666779423, 59.44544222679541
483.3619145387641, 59.608173540546574
486.2186623995859, 59.72434581290774
489.0754102604077, 59.72412048179394
491.93215812122946, 59.67733610929014
494.78890598205123, 59.70039029887133
497.64565384287306, 59.70016496775753
500.50240170369483, 59.69993963664373
503.3591495645166, 59.583316702054944
506.2158974253384, 59.30373712260119
509.0726452861602, 59.024157543147446
511.92939314698197, 58.86097556716867
514.7861410078037, 58.55811646701993
517.6428888686256, 58.231977846176186
520.4996367294474, 57.97567778741743
523.3563845902692, 57.74265724935368
526.2131324510909, 57.43979814920493
529.0698803119127, 57.25333665253116
531.9266281727345, 56.99703659377241
534.7833760335562, 56.74073653501366
537.6401238943781, 56.5309955176449
540.4968717551999, 56.437652103751105
543.3536196160217, 56.36758821055231
546.2103674768434, 56.36736287943851
549.0671153376652, 56.436976110409695
551.923863198487, 56.227235093040925
554.7806110593087, 56.13389167914714
557.6373589201306, 56.15694586872833
560.4941067809524, 56.2963976617845
563.5889169635094, 56.39703147608952
566.2076025025959, 56.55202172720183
566.2076025025959, 55.737238502877
569.0643503634177, 56.43539879261306
571.9210982242396, 56.38861442010926
574.7778460850614, 56.318550526910464
577.6345939458831, 56.24848663371168
580.4913418067049, 56.1085841784279
583.3480896675267, 55.87556364036414
586.2048375283484, 55.5494250195204
589.0615853891702, 55.386243043541626
591.9183332499921, 55.15322250547787
594.7750811108139, 55.013320050194096
597.6318289716356, 54.826858553520324
600.4885768324574, 54.54727897406657
603.3453246932792, 54.36081747739281
606.2020725541009, 54.17435598071904
609.0588204149227, 53.91805592196028
611.9155682757446, 53.73159442528652
614.7723161365664, 53.61497149069774
617.6290639973881, 53.54490759749895
620.4858118582099, 53.45156418360516
623.5806220407669, 53.27284374957024
626.1993075798534, 53.26487735581759
629.0560554406752, 53.311211066093776
631.9128033014971, 53.357544776369956
634.7695511623189, 53.334039924561154
637.6262990231406, 53.28725555205736
640.4830468839624, 53.310309741638555
643.3397947447842, 53.263525369134754
646.1965426056059, 53.33313860010593
649.0532904664277, 53.37947231038212
651.9100383272496, 53.309408417183334
654.7667861880714, 53.402301168849505
657.6235340488931, 53.30895775495572
660.4802819097149, 53.26217338245193
663.3370297705367, 53.424904696203086
666.1937776313584, 53.424679365089276
669.0505254921803, 53.42445403397547
671.9072733530021, 53.35439014077669
674.7640212138239, 53.493841933832854
677.6207690746456, 53.330659957854074
680.4775169354674, 53.33043462674027
683.3342647962892, 53.28365025423648
686.191012657111, 53.21358636103769
689.0477605179328, 53.19008150922888
691.9045083787546, 53.21313569881008
694.7612562395764, 53.119792284916294
697.6180041003981, 53.0730079124125
700.4747519612199, 52.97966449851871
703.3314998220417, 52.95615964670991
706.1882476828634, 52.79297767073113
709.0449955436853, 52.86259090170232
711.9017434045071, 52.95548365336849
714.7584912653289, 52.745742635999726
717.8533014478858, 52.56702220196482
720.4719869869724, 52.73365221342463
723.3287348477942, 52.69850760126832
726.185482708616, 52.768120832239504
729.0422305694378, 52.72133645973571
731.8989784302596, 52.60471352514693
734.7557262910814, 52.51137011125314
737.6124741519031, 52.51114478013933
740.4692220127249, 52.51091944902553
743.3259698735467, 52.557253159301716
746.1827177343685, 52.58030734888291
749.0394655951903, 52.5800820177691
752.1342757777472, 52.548798548135814
754.991023638569, 52.73480938258197
757.6097091776556, 52.41644937956272
760.4664570384774, 52.43950356914391
763.3232048992992, 52.50911680011509
766.179952760121, 52.508891469001284
769.0367006209428, 52.71818182414244
771.8934484817646, 52.55499984816366
774.9882586643215, 52.17452356810545
777.6069442034081, 52.27519493759611
780.4636920642299, 52.27496960648231
783.3204399250517, 52.41442139953847
786.1771877858735, 52.367637027034675
789.0339356466953, 52.15789600966591
791.8906835075171, 52.041273075077136
794.7474313683389, 52.041047743963325
797.6041792291606, 52.04082241284952
800.4609270899824, 51.94747899895574
803.3176749508042, 51.923974147146936
806.174422811626, 51.784071691863154
809.0311706724478, 51.78384636074935
811.8879185332696, 51.78362102963555
814.7446663940914, 51.55060049157179
817.6014142549132, 51.27102091211803
820.4581621157349, 51.10783893613927
823.3149099765567, 50.991216001550484
826.1716578373785, 50.82803402557171
829.0284056982003, 50.64157252889794
831.8851535590221, 50.687906239174126
834.7419014198439, 50.64112186667033
837.5986492806657, 50.54777845277655
840.4553971414874, 50.64067120444272
843.3121450023092, 50.547327790548934
846.168892863131, 50.59366150082512
849.0256407239528, 50.383920483456365
851.8823885847746, 50.383695152342554
854.7391364455964, 50.38346982122875
857.5958843064182, 50.45308305219993
860.4526321672399, 50.499416762476116
863.3093800280617, 50.545750472752296
866.1661278888835, 50.38256849677353
869.0228757497053, 50.5220202898297
871.8796236105271, 50.870987769140825
874.7363714713489, 50.684526272467046
877.5931193321707, 50.66102142065825
880.4498671929924, 50.73063465162943
883.3066150538142, 50.800247882600615
886.163362914636, 50.893140634266786
889.0201107754579, 50.98603338593296
892.1149209580146, 50.98578927722634
894.7336064971014, 51.33477553413029
897.5903543579232, 51.42766828579646
900.4471022187449, 51.49728151676764
903.3038500795667, 51.70657187190879
906.1605979403886, 51.72962606148999
909.0173458012104, 51.93891641663114
911.8740936620321, 52.078368209687305
914.7308415228539, 52.357497126913444
917.5875893836757, 52.5667874820546
920.4443372444974, 52.75279831650075
923.3010851053192, 52.88061034920942
925.919770644406, 52.96964195835258
929.0145808269629, 53.357389861229215
931.8713286877846, 53.49684165428538
934.7280765486064, 53.82252961290151
937.5848244094282, 54.03181996804267
940.6796345919851, 53.93069793632439
943.2983201310717, 54.14776690929003
946.1550679918936, 54.86920671972108
949.0118158527154, 54.962099471387255
951.8685637135371, 55.10155126444343
954.7253115743589, 55.45051874375454
957.5820594351807, 55.70636814028569
960.4388072960024, 55.729422329866885
963.2955551568242, 55.845594602228054
966.1523030176461, 56.12472351945419
969.2471132002029, 56.41159349931918
971.8657987392896, 56.42690662626152
974.7225466001114, 56.5197993779277
977.5792944609332, 56.65925117098387
980.4360423217549, 56.79870296404003
983.2927901825767, 56.86831619501121
986.1495380433986, 57.17072463293235
989.0062859042204, 57.217058343208535
991.8630337650421, 57.333230615569704
994.7197816258639, 57.35628480515089
997.5765294866857, 57.42589803612208
1000.6713396692426, 57.79036641830371
1003.2900252083292, 58.00743539126935
1006.1467730691511, 57.91409197737556
1009.0035209299729, 58.00698472904174
1011.8602687907946, 58.05331843931793
1014.7170166516164, 58.1462111909841
1017.5737645124382, 58.285662984040265
1020.43051237326, 57.97116412354402
1023.5253225558168, 58.44039034885314
1026.1440080949035, 58.68073884251377
1029.0007559557253, 58.424438783755015
1032.0955661382823, 58.62595052107169
1031.1433168513415, 57.819002247349786
1034.7142516773688, 58.77318093195234
1037.5709995381906, 59.05230984917847
1040.4277473990123, 59.09864355945466
1043.284495259834, 59.16825679042584
1046.141243120656, 59.42410618695699
1048.9979909814779, 59.3307627730632
1051.8547388422996, 59.377096483339386
1054.9495490248564, 59.446690936717744
1057.330172242208, 59.539621243569556
1059.2346708160892, 59.011801887073794
1061.8533563551757, 59.32974878305108
1064.7101042159977, 59.35280297263226
1067.5668520768195, 59.30601860012847
1070.423599937641, 59.142836624149695
1073.518410120198, 58.88651778779813
1076.1370956592848, 59.00270883775212
1079.2319058418416, 58.684311279547224
1081.612529059193, 58.48236765759576
1084.70733924175, 58.373485785645826
1087.5640871025719, 58.07062668549708
1090.4208349633936, 57.97728327160329
1093.2775828242154, 57.860660337014515
1096.1343306850372, 57.60436027825576
1098.991078545859, 57.30150117810702
1101.8478264066807, 57.103399921085746
1104.7045742675025, 56.96349746580197
1107.3232598065892, 57.08356843587179
1109.2277583804703, 56.33847355288941
1111.846443919557, 56.46242444307506
1114.7031917803788, 56.15956534292632
1117.5599396412006, 55.75194839965009
1120.1786251802873, 55.918578411109905
1123.273435362844, 55.50706277012503
1126.1301832236659, 55.180924149281296
1128.9869310844877, 54.761667445657565
1131.8436789453094, 54.36569026272884
1134.7004268061314, 54.086110683275095
1137.5571746669532, 53.96948774868631
1140.413922527775, 53.80630577270754
1143.2706703885967, 53.4801671518638
1146.1274182494185, 52.92123332407011
1149.2222284319753, 52.88994985443682
1151.840913971062, 52.757826016977525
1154.6976618318838, 52.26873075126882
1157.5544096927056, 52.268505420155016
1160.4111575535273, 52.05876440278626
1163.029843092614, 51.86456184347364
1166.1246532751709, 51.755679971523705
1168.9814011359927, 51.47610039206996
1171.8381489968144, 51.45259554026116
1174.6948968576364, 51.359252126367366
1177.5516447184582, 51.12623158830361
1180.40839257928, 50.96304961232484
1183.2651404401017, 51.079221884686014
1186.1218883009235, 50.86948086731725
1189.2166984834803, 50.46572506656404
1191.597321700832, 50.41897824924587
1194.6921318833888, 50.33337589799094
1197.5488797442106, 49.797721590892245
1200.4056276050324, 50.12340954950837
1203.024313144119, 49.81280938672077
1206.119123326676, 49.610809431990866
1208.9758711874977, 49.51746601809708
1211.8326190483194, 49.24952619899082
1214.6893669091414, 49.61013343864945
1217.5461147699632, 49.63318762823064
1220.402862630785, 49.65624181781183
1223.2596104916067, 49.60945744530803
1226.1163583524285, 49.7489092383642
1228.9731062132503, 49.841801990030376
1231.829854074072, 49.91141522100156
1234.6866019348938, 49.67839468293779
1237.5433497957156, 49.56177174834902
1240.4000976565374, 49.445148813760234
1243.2568455173591, 49.77083677237637
1246.113593378181, 49.74733192056756
1248.9703412390027, 49.770386110148756
1251.5890267780894, 49.622742592226125
1254.6838369606464, 49.86305353070113
1257.5405848214682, 49.4437968270774
1260.1592703605547, 49.43583043332475
1263.4921428648468, 49.40452818609865
1265.8727660821985, 49.28018296646384
1268.9675762647553, 49.326497899147206
1271.824324125577, 49.093477361083444
1274.6810719863988, 49.04669298857965
1277.5378198472206, 49.232703823025815
1280.6326300297776, 49.06174322922255
1283.0132532471291, 49.27883097978101
1286.108063429686, 49.7092580039318
1288.7267489687727, 49.54221488543001
1291.8215591513297, 49.67388806066169
1294.9163693338865, 50.08491548423332
1297.296992551238, 49.836412820891866
1300.391802733795, 49.766330150100266
1303.4866129163518, 49.57209003560201
1306.3433607771735, 49.85121895282815
1305.391111490233, 49.23050684466621
1308.9620463162603, 49.92861080162381
1311.580731855347, 49.64904999976288
1314.6755420379038, 49.904880618701206
1317.5322898987256, 50.090891453147364
1320.3890377595474, 50.04410708064357
1323.0077232986341, 49.71022739716098
1326.102533481191, 49.741022649381016
1328.9592813420127, 49.8106358803522
1331.8160292028347, 49.75221174750091
1334.6727770636564, 50.13609850785453
1336.1011509940672, 49.22808453519281
1337.5295249244782, 50.11259365604572
1340.3862727853, 49.99597072145694
1343.2430206461217, 49.99574539034314
1346.0997685069435, 50.32143334895927
1348.9565163677653, 50.1116923315905
1352.051326550322, 49.506180684814005
1354.6700120894088, 49.78532837963296
1357.5267599502306, 49.64542592434918
1360.3835078110524, 49.924554841575315
1363.2402556718741, 49.69153430351156
1366.097003532696, 49.92410417934771
1368.9537513935177, 50.179953575878855
1371.8104992543397, 50.016771599900075
1374.6672471151614, 50.03982578948127
1377.7620572977182, 49.954223438226336
1380.380742836805, 49.8531389616937
1383.4755530193618, 50.0468908587787
1385.8561762367135, 50.29501797026382
1387.7606748105945, 49.472324684964775
1390.141298027946, 49.767010837839884
1393.236108210503, 50.28279610453899
1394.9025444626488, 49.42520231579027
1396.0928560713248, 50.66668286489261
1397.5212300017356, 49.53751344562843
1399.6637908973519, 50.15425174571045
