  124.500  .28688E+01
  125.200  .28918E+01
  125.900  .28633E+01
  126.600  .28163E+01
  127.300  .28122E+01
  128.000  .28470E+01
  128.600  .28115E+01
  129.300  .28544E+01
  130.000  .29036E+01
  130.700  .29529E+01
  131.400  .29470E+01
  132.100  .30236E+01
  132.800  .30375E+01
  133.500  .30349E+01
  134.200  .29863E+01
  134.900  .30127E+01
  135.600  .30040E+01
  136.300  .30149E+01
  136.900  .30367E+01
  137.600  .30483E+01
  138.300  .31124E+01
  139.000  .31890E+01
  139.700  .32109E+01
  140.400  .33301E+01
  141.100  .33570E+01
  141.800  .33106E+01
  142.500  .33791E+01
  143.200  .32903E+01
  143.900  .32898E+01
  144.500  .32685E+01
  145.200  .32886E+01
  145.900  .32778E+01
  146.600  .32803E+01
  147.300  .33437E+01
  148.000  .33919E+01
  148.700  .34621E+01
  149.400  .34549E+01
  150.100  .34462E+01
  150.800  .34144E+01
  151.500  .34795E+01
  152.100  .34795E+01
  152.800  .35224E+01
  153.500  .35423E+01
  154.200  .35730E+01
  154.900  .35997E+01
  155.600  .36859E+01
  156.300  .37420E+01
  157.000  .37133E+01
  157.700  .37210E+01
  158.400  .36979E+01
  159.000  .36949E+01
  159.700  .36874E+01
  160.400  .36954E+01
  161.100  .37269E+01
  161.800  .37839E+01
  162.500  .37576E+01
  163.200  .38018E+01
  163.900  .39000E+01
  164.600  .39500E+01
  165.200  .39060E+01
  165.900  .38922E+01
  166.600  .39385E+01
  167.300  .39096E+01
  168.000  .38942E+01
  168.700  .39599E+01
  169.400  .39925E+01
  170.100  .39828E+01
  170.800  .40613E+01
  171.400  .40846E+01
  172.100  .41244E+01
  172.800  .41560E+01
  173.500  .41459E+01
  174.200  .42141E+01
  174.900  .42477E+01
  175.600  .42082E+01
  176.300  .42467E+01
  177.000  .42730E+01
  177.600  .41611E+01
  178.300  .42533E+01
  179.000  .43295E+01
  179.700  .43398E+01
  180.400  .43874E+01
  181.100  .43820E+01
  181.800  .44149E+01
  182.500  .44100E+01
  183.100  .44159E+01
  183.800  .44474E+01
  184.500  .44564E+01
  185.200  .44906E+01
  185.900  .45471E+01
  186.600  .45955E+01
  187.300  .45884E+01
  188.000  .46705E+01
  188.600  .46745E+01
  189.300  .47353E+01
  190.000  .46750E+01
  190.700  .47008E+01
  191.400  .46615E+01
  192.100  .48188E+01
  192.800  .47937E+01
  193.500  .48112E+01
  194.100  .48208E+01
  194.800  .48804E+01
  195.500  .48717E+01
  196.200  .49055E+01
  196.900  .49393E+01
  197.600  .50080E+01
  198.300  .50260E+01
  199.000  .50589E+01
  199.600  .51253E+01
  200.300  .50327E+01
  201.000  .51141E+01
  201.700  .51470E+01
  202.400  .52086E+01
  203.100  .52450E+01
  203.800  .52235E+01
  204.400  .52927E+01
  205.100  .54024E+01
  205.800  .53708E+01
  206.500  .54053E+01
  207.200  .54505E+01
  207.900  .53800E+01
  208.600  .55234E+01
  209.200  .54930E+01
  209.900  .55002E+01
  210.600  .56251E+01
  211.300  .56301E+01
  212.000  .56661E+01
  212.700  .56724E+01
  213.400  .57170E+01
  214.000  .57704E+01
  214.700  .58060E+01
  215.400  .57901E+01
  216.100  .58264E+01
  216.800  .59265E+01
  217.500  .59527E+01
  218.200  .59987E+01
  218.800  .59367E+01
  219.500  .60586E+01
  220.200  .61287E+01
  220.900  .61350E+01
  221.600  .61383E+01
  222.300  .62101E+01
  222.900  .62414E+01
  223.600  .62773E+01
  224.300  .62603E+01
  225.000  .63550E+01
  225.700  .64027E+01
  226.400  .63407E+01
  227.100  .64124E+01
  227.700  .65015E+01
  228.400  .65626E+01
  229.100  .65904E+01
  229.800  .66530E+01
  230.500  .66221E+01
  231.200  .67432E+01
  231.800  .67748E+01
  232.500  .68040E+01
  233.200  .69415E+01
  233.900  .68953E+01
  234.600  .70208E+01
  235.300  .70392E+01
  235.900  .70978E+01
  236.600  .70352E+01
  237.300  .72434E+01
  238.000  .73089E+01
  238.700  .72219E+01
  239.400  .73659E+01
  240.000  .74003E+01
  240.700  .74026E+01
  241.400  .74833E+01
  242.100  .74206E+01
  242.800  .74607E+01
  243.500  .76098E+01
  244.100  .76447E+01
  244.800  .75374E+01
  245.500  .77742E+01
  246.200  .77714E+01
  246.900  .78298E+01
  247.600  .79413E+01
  248.200  .79379E+01
  248.900  .80644E+01
  249.600  .80087E+01
  250.300  .81809E+01
  251.000  .81505E+01
  251.700  .81526E+01
  252.300  .82781E+01
  253.000  .82802E+01
  253.700  .82928E+01
  254.400  .84081E+01
  255.100  .85597E+01
  255.700  .85237E+01
  256.400  .86139E+01
  257.100  .86875E+01
  257.800  .88559E+01
  258.500  .88708E+01
  259.200  .89018E+01
  259.800  .89703E+01
  260.500  .89722E+01
  261.200  .90516E+01
  261.900  .90955E+01
  262.600  .91795E+01
  263.200  .92274E+01
  263.900  .92588E+01
  264.600  .94066E+01
  265.300  .93727E+01
  266.000  .93857E+01
  266.700  .96018E+01
  267.300  .96258E+01
  268.000  .96888E+01
  268.700  .98559E+01
  269.400  .98197E+01
  270.100  .98727E+01
  270.700  .97765E+01
  271.400  .10100E+02
  272.100  .99742E+01
  272.800  .10166E+02
  273.500  .10216E+02
  274.100  .10280E+02
  274.800  .10307E+02
  275.500  .10430E+02
  276.200  .10532E+02
  276.900  .10533E+02
  277.500  .10504E+02
  278.200  .10588E+02
  278.900  .10749E+02
  279.600  .10822E+02
  280.300  .10915E+02
  280.900  .10938E+02
  281.600  .11009E+02
  282.300  .11045E+02
  283.000  .11169E+02
  283.700  .11163E+02
  284.300  .11324E+02
  285.000  .11245E+02
  285.700  .11550E+02
  286.400  .11507E+02
  287.100  .11656E+02
  287.700  .11629E+02
  288.400  .11598E+02
  289.100  .11673E+02
  289.800  .11705E+02
  290.500  .11926E+02
  291.100  .11907E+02
  291.800  .12047E+02
  292.500  .12180E+02
  293.200  .11991E+02
  293.900  .12044E+02
  294.500  .12299E+02
  295.200  .12402E+02
  295.900  .12411E+02
  296.600  .12408E+02
  297.300  .12523E+02
  297.900  .12593E+02
  298.600  .12759E+02
  299.300  .12686E+02
  300.000  .12873E+02
  300.600  .12882E+02
  301.300  .12848E+02
  302.000  .12949E+02
  302.700  .13006E+02
  303.400  .13063E+02
  304.000  .13114E+02
  304.700  .13237E+02
  305.400  .13368E+02
  306.100  .13421E+02
  306.800  .13593E+02
  307.400  .13717E+02
  308.100  .13562E+02
  308.800  .13784E+02
  309.500  .13680E+02
  310.100  .13941E+02
  310.800  .13861E+02
  311.500  .14064E+02
  312.200  .14121E+02
  312.900  .14183E+02
  313.500  .14231E+02
  314.200  .14416E+02
  314.900  .14428E+02
  315.600  .14337E+02
  316.200  .14519E+02
  316.900  .14528E+02
  317.600  .14714E+02
  318.300  .14707E+02
  318.900  .14707E+02
  319.600  .14844E+02
  320.300  .15156E+02
  321.000  .15091E+02
  321.700  .14903E+02
  322.300  .15077E+02
  323.000  .15271E+02
  323.700  .15304E+02
  324.400  .15523E+02
  325.000  .15449E+02
  325.700  .15455E+02
  326.400  .15731E+02
  327.100  .15770E+02
  327.700  .15773E+02
  328.400  .15919E+02
  329.100  .16039E+02
  329.800  .16106E+02
  330.500  .16246E+02
  331.100  .16192E+02
  331.800  .16231E+02
  332.500  .16431E+02
  333.200  .16476E+02
  333.800  .16473E+02
  334.500  .16483E+02
  335.200  .16380E+02
  335.900  .16591E+02
  336.500  .16726E+02
  337.200  .16851E+02
  337.900  .16865E+02
  338.600  .16923E+02
  339.200  .16980E+02
  339.900  .17102E+02
  340.600  .17117E+02
  341.300  .17263E+02
  341.900  .17293E+02
  342.600  .17393E+02
  343.300  .17753E+02
  344.000  .17613E+02
  344.600  .17695E+02
  345.300  .17710E+02
  346.000  .17871E+02
  346.700  .17940E+02
  347.300  .17996E+02
  348.000  .18333E+02
  348.700  .18284E+02
  349.400  .18376E+02
  350.000  .18479E+02
  350.700  .18515E+02
  351.400  .18556E+02
  352.100  .18931E+02
  352.700  .18926E+02
  353.400  .19089E+02
  354.100  .18854E+02
  354.800  .19149E+02
  355.400  .19143E+02
  356.100  .19275E+02
  356.800  .19603E+02
  357.500  .19513E+02
  358.100  .19736E+02
  358.800  .19721E+02
  359.500  .19884E+02
  360.200  .19795E+02
  360.800  .20085E+02
  361.500  .20128E+02
  362.200  .20165E+02
  362.800  .20362E+02
  363.500  .20635E+02
  364.200  .20676E+02
  364.900  .20619E+02
  365.500  .20549E+02
  366.200  .20966E+02
  366.900  .20938E+02
  367.600  .21078E+02
  368.200  .21048E+02
  368.900  .21289E+02
  369.600  .21571E+02
  370.300  .21409E+02
  370.900  .21475E+02
  371.600  .21787E+02
  372.300  .21872E+02
  372.900  .21801E+02
  373.600  .21950E+02
  374.300  .22100E+02
  375.000  .22176E+02
  375.600  .22564E+02
  376.300  .22360E+02
  377.000  .22540E+02
  377.700  .22729E+02
  378.300  .22942E+02
  379.000  .23133E+02
  379.700  .22952E+02
  380.300  .23318E+02
  381.000  .23439E+02
  381.700  .23261E+02
  382.400  .23639E+02
  383.000  .23784E+02
  383.700  .24287E+02
  384.400  .24063E+02
  385.000  .24131E+02
  385.700  .24260E+02
  386.400  .24685E+02
  387.100  .24506E+02
  387.700  .24765E+02
  388.400  .24852E+02
  389.100  .25042E+02
  389.800  .25052E+02
  390.400  .25407E+02
  391.100  .25294E+02
  391.800  .25585E+02
  392.400  .25450E+02
  393.100  .25782E+02
  393.800  .25945E+02
  394.500  .26246E+02
  395.100  .25987E+02
  395.800  .26111E+02
  396.500  .26161E+02
  397.100  .26397E+02
  397.800  .26650E+02
  398.500  .26739E+02
  399.100  .27062E+02
  399.800  .27114E+02
  400.500  .27115E+02
  401.200  .27714E+02
  401.800  .27712E+02
  402.500  .27712E+02
  403.200  .27806E+02
  403.800  .28092E+02
  404.500  .28318E+02
  405.200  .28324E+02
  405.900  .28371E+02
  406.500  .28803E+02
  407.200  .28679E+02
  407.900  .29118E+02
  408.500  .29068E+02
  409.200  .29156E+02
  409.900  .29661E+02
  410.500  .29159E+02
  411.200  .29789E+02
  411.900  .29931E+02
  412.600  .30387E+02
  413.200  .30302E+02
  413.900  .30390E+02
  414.600  .30346E+02
  415.200  .30755E+02
  415.900  .31036E+02
  416.600  .31043E+02
  417.200  .30893E+02
  417.900  .31223E+02
  418.600  .31701E+02
  419.200  .31412E+02
  419.900  .31746E+02
  420.600  .32077E+02
  421.300  .31936E+02
  421.900  .32556E+02
  422.600  .32895E+02
  423.300  .32659E+02
  423.900  .32848E+02
  424.600  .32891E+02
  425.300  .33342E+02
  425.900  .33533E+02
  426.600  .33584E+02
  427.300  .33987E+02
  427.900  .33980E+02
  428.600  .34232E+02
  429.300  .34290E+02
  430.000  .34792E+02
  430.600  .34631E+02
  431.300  .34839E+02
  432.000  .34989E+02
  432.600  .35343E+02
  433.300  .35703E+02
  434.000  .35507E+02
  434.600  .36066E+02
  435.300  .36493E+02
  436.000  .36279E+02
  436.600  .36224E+02
  437.300  .36851E+02
  438.000  .37025E+02
  438.600  .36956E+02
  439.300  .37239E+02
  440.000  .37720E+02
  440.600  .37595E+02
  441.300  .37771E+02
  442.000  .38366E+02
  442.600  .37870E+02
  443.300  .38315E+02
  444.000  .38858E+02
  444.600  .39011E+02
  445.300  .38903E+02
  446.000  .39080E+02
  446.600  .39121E+02
  447.300  .39679E+02
  448.000  .39512E+02
  448.600  .40057E+02
  449.300  .39900E+02
  450.000  .40293E+02
  450.600  .40235E+02
  451.300  .40350E+02
  452.000  .40934E+02
  452.600  .40450E+02
  453.300  .40750E+02
  454.000  .41320E+02
  454.600  .41082E+02
  455.300  .41952E+02
  456.000  .42025E+02
  456.600  .42238E+02
  457.300  .42016E+02
  458.000  .42125E+02
  458.600  .42229E+02
  459.300  .43137E+02
  460.000  .43065E+02
  460.600  .43363E+02
  461.300  .43302E+02
  462.000  .43306E+02
  462.600  .43710E+02
  463.300  .43656E+02
  464.000  .44375E+02
  464.600  .44124E+02
  465.300  .44555E+02
  466.000  .44630E+02
  466.600  .44431E+02
  467.300  .44604E+02
  468.000  .44983E+02
  468.600  .45032E+02
  469.300  .45460E+02
  470.000  .46095E+02
  470.600  .45765E+02
  471.300  .46327E+02
  472.000  .46400E+02
  472.600  .46700E+02
  473.300  .46960E+02
  474.000  .46831E+02
  474.600  .47186E+02
  475.300  .47725E+02
  475.900  .47646E+02
  476.600  .47757E+02
  477.300  .47959E+02
  477.900  .48282E+02
  478.600  .48345E+02
  479.300  .48988E+02
  479.900  .48912E+02
  480.600  .49113E+02
  481.300  .49381E+02
  481.900  .49429E+02
  482.600  .49430E+02
  483.300  .50112E+02
  483.900  .50212E+02
  484.600  .50340E+02
  485.200  .50271E+02
  485.900  .51156E+02
  486.600  .50949E+02
  487.200  .51413E+02
  487.900  .51063E+02
  488.600  .51678E+02
  489.200  .51870E+02
  489.900  .52148E+02
  490.600  .51829E+02
  491.200  .52551E+02
  491.900  .52344E+02
  492.500  .52813E+02
  493.200  .52674E+02
  493.900  .52735E+02
  494.500  .52860E+02
  495.200  .53009E+02
  495.900  .52787E+02
  496.500  .53261E+02
  497.200  .53393E+02
  497.900  .53624E+02
  498.500  .53316E+02
  499.200  .53295E+02
  499.800  .53352E+02
  500.500  .53564E+02
  501.200  .53420E+02
  501.800  .52907E+02
  502.500  .53462E+02
  503.200  .52879E+02
  503.800  .53362E+02
  504.500  .52933E+02
  505.100  .52689E+02
  505.800  .52826E+02
  506.500  .52958E+02
  507.100  .52642E+02
  507.800  .52129E+02
  508.500  .52185E+02
  509.100  .52309E+02
  509.800  .51436E+02
  510.400  .50899E+02
  511.100  .51611E+02
  511.800  .50874E+02
  512.400  .51188E+02
  513.100  .50369E+02
  513.800  .49867E+02
  514.400  .49625E+02
  515.100  .49527E+02
  515.700  .49139E+02
  516.400  .48550E+02
  517.100  .48596E+02
  517.700  .48274E+02
  518.400  .47962E+02
  519.000  .47423E+02
  519.700  .47547E+02
  520.400  .46860E+02
  521.000  .46401E+02
  521.700  .46517E+02
  522.400  .45689E+02
  523.000  .45238E+02
  523.700  .45424E+02
  524.300  .44334E+02
  525.000  .44375E+02
  525.700  .44341E+02
  526.300  .43874E+02
  527.000  .43779E+02
  527.600  .43368E+02
  528.300  .42850E+02
  529.000  .42604E+02
  529.600  .42899E+02
  530.300  .42586E+02
  530.900  .42554E+02
  531.600  .42072E+02
  532.300  .41703E+02
  532.900  .41515E+02
  533.600  .41259E+02
  534.200  .40584E+02
  534.900  .40693E+02
  535.600  .40791E+02
  536.200  .40865E+02
  536.900  .39530E+02
  537.500  .40144E+02
  538.200  .40095E+02
  538.900  .39656E+02
  539.500  .39545E+02
  540.200  .39718E+02
  540.800  .39715E+02
  541.500  .39516E+02
  542.200  .39547E+02
  542.800  .39227E+02
  543.500  .39320E+02
  544.100  .39194E+02
  544.800  .39562E+02
  545.500  .39597E+02
  546.100  .39448E+02
  546.800  .39412E+02
  547.400  .39845E+02
  548.100  .39804E+02
  548.800  .39881E+02
  549.400  .39406E+02
  550.100  .39849E+02
  550.700  .40070E+02
  551.400  .39821E+02
  552.100  .39914E+02
  552.700  .40347E+02
  553.400  .40649E+02
  554.000  .40018E+02
  554.700  .40736E+02
  555.300  .40965E+02
  556.000  .40850E+02
  556.700  .41441E+02
  557.300  .41169E+02
  558.000  .41425E+02
  558.600  .41706E+02
  559.300  .41869E+02
  560.000  .42116E+02
  560.600  .42562E+02
  561.300  .42519E+02
  561.900  .42811E+02
  562.600  .42638E+02
  563.200  .43150E+02
  563.900  .43249E+02
  564.600  .44113E+02
  565.200  .43807E+02
  565.900  .43986E+02
  566.500  .44602E+02
  567.200  .44325E+02
  567.800  .44343E+02
  568.500  .44443E+02
  569.200  .44387E+02
  569.800  .44542E+02
  570.500  .45337E+02
  571.100  .44177E+02
  571.800  .45137E+02
  572.400  .44682E+02
  573.100  .44642E+02
  573.800  .45058E+02
  574.400  .44745E+02
  575.100  .44210E+02
  575.700  .44224E+02
  576.400  .44404E+02
  577.000  .44246E+02
  577.700  .44350E+02
  578.400  .43819E+02
  579.000  .43372E+02
  579.700  .43390E+02
  580.300  .43023E+02
  581.000  .42944E+02
  581.600  .43247E+02
  582.300  .42511E+02
  583.000  .42604E+02
  583.600  .41832E+02
  584.300  .41505E+02
  584.900  .41697E+02
  585.600  .40979E+02
  586.200  .40580E+02
  586.900  .40893E+02
  587.600  .39769E+02
  588.200  .39628E+02
  588.900  .39271E+02
  589.500  .39201E+02
  590.200  .38662E+02
  590.800  .38386E+02
  591.500  .37668E+02
  592.100  .37501E+02
  592.800  .37668E+02
  593.500  .36936E+02
  594.100  .36441E+02
  594.800  .36079E+02
  595.400  .35573E+02
  596.100  .35151E+02
  596.700  .34804E+02
  597.400  .34871E+02
  598.000  .34148E+02
  598.700  .33871E+02
  599.400  .33948E+02
  600.000  .33122E+02
  600.700  .32374E+02
  601.300  .32610E+02
  602.000  .32158E+02
  602.600  .32061E+02
  603.300  .31051E+02
  603.900  .30783E+02
  604.600  .30646E+02
  605.200  .30369E+02
  605.900  .29847E+02
  606.600  .29771E+02
  607.200  .29308E+02
  607.900  .28923E+02
  608.500  .29483E+02
  609.200  .28592E+02
  609.800  .28135E+02
  610.500  .27869E+02
  611.100  .27798E+02
  611.800  .27668E+02
  612.400  .27417E+02
  613.100  .26980E+02
  613.800  .26655E+02
  614.400  .26940E+02
  615.100  .26773E+02
  615.700  .26242E+02
  616.400  .25878E+02
  617.000  .26103E+02
  617.700  .25622E+02
  618.300  .25543E+02
  619.000  .25133E+02
  619.600  .24864E+02
  620.300  .25238E+02
  620.900  .24552E+02
  621.600  .24708E+02
  622.200  .24223E+02
  622.900  .24065E+02
  623.600  .23754E+02
  624.200  .23786E+02
  624.900  .23832E+02
  625.500  .23595E+02
  626.200  .23508E+02
  626.800  .23186E+02
  627.500  .23203E+02
  628.100  .23129E+02
  628.800  .23228E+02
  629.400  .22344E+02
  630.100  .22701E+02
  630.700  .22429E+02
  631.400  .22443E+02
  632.000  .22212E+02
  632.700  .22218E+02
  633.300  .21850E+02
  634.000  .22110E+02
  634.700  .21527E+02
  635.300  .21852E+02
  636.000  .21871E+02
  636.600  .21492E+02
  637.300  .21117E+02
  637.900  .21193E+02
  638.600  .21268E+02
  639.200  .21337E+02
  639.900  .21750E+02
  640.500  .20875E+02
  641.200  .20913E+02
  641.800  .20684E+02
  642.500  .20591E+02
  643.100  .20128E+02
  643.800  .19858E+02
  644.400  .20297E+02
  645.100  .20077E+02
  645.700  .20269E+02
  646.400  .19931E+02
  647.000  .20542E+02
  647.700  .19959E+02
  648.300  .20004E+02
  649.000  .19766E+02
  649.600  .19655E+02
  650.300  .19726E+02
  650.900  .19548E+02
  651.600  .19470E+02
  652.200  .19522E+02
  652.900  .19398E+02
  653.500  .19322E+02
  654.200  .19461E+02
  654.800  .19648E+02
  655.500  .19365E+02
  656.200  .19784E+02
  656.800  .19329E+02
  657.500  .19082E+02
  658.100  .19497E+02
  658.800  .19378E+02
  659.400  .19102E+02
  660.100  .19555E+02
  660.700  .19070E+02
  661.400  .19556E+02
  662.000  .19284E+02
  662.700  .19225E+02
  663.300  .19260E+02
  664.000  .19370E+02
  664.600  .19189E+02
  665.300  .18795E+02
  665.900  .19242E+02
  666.600  .19290E+02
  667.200  .19372E+02
  667.900  .19475E+02
  668.500  .19323E+02
  669.200  .19669E+02
  669.800  .19391E+02
  670.500  .19833E+02
  671.100  .19554E+02
  671.800  .19910E+02
  672.400  .20034E+02
  673.000  .19793E+02
  673.700  .19834E+02
  674.300  .19464E+02
  675.000  .19791E+02
  675.600  .19772E+02
  676.300  .20261E+02
  676.900  .19896E+02
  677.600  .20347E+02
  678.200  .19901E+02
  678.900  .20079E+02
  679.500  .19889E+02
  680.200  .20294E+02
  680.800  .20525E+02
  681.500  .20405E+02
  682.100  .20710E+02
  682.800  .20312E+02
  683.400  .20185E+02
  684.100  .20226E+02
  684.700  .20402E+02
  685.400  .21429E+02
  686.000  .20719E+02
  686.700  .21016E+02
  687.300  .20971E+02
  688.000  .21055E+02
  688.600  .21416E+02
  689.300  .20687E+02
  689.900  .20874E+02
  690.600  .20974E+02
  691.200  .21787E+02
  691.900  .21346E+02
  692.500  .20949E+02
  693.200  .21419E+02
  693.800  .21583E+02
  694.400  .21427E+02
  695.100  .21715E+02
  695.700  .21905E+02
  696.400  .21983E+02
  697.000  .22030E+02
  697.700  .21989E+02
  698.300  .21832E+02
  699.000  .21679E+02
  699.600  .21735E+02
  700.300  .22026E+02
  700.900  .22339E+02
  701.600  .22297E+02
  702.200  .22328E+02
  702.900  .22501E+02
  703.500  .22385E+02
  704.200  .22844E+02
  704.800  .22408E+02
  705.500  .22443E+02
  706.100  .22500E+02
  706.700  .22600E+02
  707.400  .23010E+02
  708.000  .22561E+02
  708.700  .22570E+02
  709.300  .22627E+02
  710.000  .22785E+02
  710.600  .22543E+02
  711.300  .22975E+02
  711.900  .22927E+02
  712.600  .22202E+02
  713.200  .22533E+02
  713.900  .22887E+02
  714.500  .22927E+02
  715.100  .22681E+02
  715.800  .23082E+02
  716.400  .22693E+02
  717.100  .22907E+02
  717.700  .22704E+02
  718.400  .22632E+02
  719.000  .22931E+02
  719.700  .22723E+02
  720.300  .22816E+02
  721.000  .23222E+02
  721.600  .22727E+02
  722.200  .23283E+02
  722.900  .23382E+02
  723.500  .22922E+02
  724.200  .22975E+02
  724.800  .22923E+02
  725.500  .23342E+02
  726.100  .23226E+02
  726.800  .23059E+02
  727.400  .23190E+02
  728.100  .22801E+02
  728.700  .23172E+02
  729.300  .22657E+02
  730.000  .22895E+02
  730.600  .22850E+02
  731.300  .23005E+02
  731.900  .22383E+02
  732.600  .22994E+02
  733.200  .23024E+02
  733.900  .22703E+02
  734.500  .22723E+02
  735.100  .22939E+02
  735.800  .22475E+02
  736.400  .23002E+02
  737.100  .22848E+02
  737.700  .23339E+02
  738.400  .22665E+02
  739.000  .22134E+02
  739.700  .22394E+02
  740.300  .22897E+02
  740.900  .22460E+02
  741.600  .22741E+02
  742.200  .22416E+02
  742.900  .22515E+02
  743.500  .22160E+02
  744.200  .23238E+02
  744.800  .22181E+02
  745.500  .22656E+02
  746.100  .22501E+02
  746.700  .22017E+02
  747.400  .22135E+02
  748.000  .22094E+02
  748.700  .21767E+02
  749.300  .21832E+02
  750.000  .22155E+02
  750.600  .21646E+02
  751.200  .22395E+02
  751.900  .22026E+02
  752.500  .22523E+02
  753.200  .21406E+02
  753.800  .21727E+02
  754.500  .21452E+02
  755.100  .21428E+02
  755.700  .21454E+02
  756.400  .21028E+02
  757.000  .21579E+02
  757.700  .21062E+02
  758.300  .22032E+02
  759.000  .21625E+02
  759.600  .20972E+02
  760.200  .21866E+02
  760.900  .21025E+02
  761.500  .21341E+02
  762.200  .21048E+02
  762.800  .20952E+02
  763.500  .20527E+02
  764.100  .20834E+02
  764.700  .20110E+02
  765.400  .20147E+02
  766.000  .20515E+02
  766.700  .20776E+02
  767.300  .20495E+02
  767.900  .20396E+02
  768.600  .19750E+02
  769.200  .19558E+02
  769.900  .19286E+02
  770.500  .19985E+02
  771.200  .20257E+02
  771.800  .19920E+02
  772.400  .19974E+02
  773.100  .19340E+02
  773.700  .19392E+02
  774.400  .19562E+02
  775.000  .18993E+02
  775.600  .18682E+02
  776.300  .19080E+02
  776.900  .18892E+02
  777.600  .18353E+02
  778.200  .18310E+02
  778.900  .18668E+02
  779.500  .18259E+02
  780.100  .18803E+02
  780.800  .18332E+02
  781.400  .18331E+02
  782.100  .17531E+02
  782.700  .17898E+02
  783.300  .17557E+02
  784.000  .17155E+02
  784.600  .17809E+02
  785.300  .17151E+02
  785.900  .16807E+02
  786.500  .16930E+02
  787.200  .16972E+02
  787.800  .16840E+02
  788.500  .16249E+02
  789.100  .16308E+02
  789.700  .15712E+02
  790.400  .16203E+02
  791.000  .15778E+02
  791.700  .15871E+02
  792.300  .15746E+02
  792.900  .15221E+02
  793.600  .15823E+02
  794.200  .15241E+02
  794.900  .15345E+02
  795.500  .14576E+02
  796.100  .14415E+02
  796.800  .14026E+02
  797.400  .13951E+02
  798.100  .13363E+02
  798.700  .14406E+02
  799.300  .13639E+02
  800.000  .13873E+02
  800.600  .13433E+02
  801.300  .12950E+02
  801.900  .12828E+02
  801.100  .15392E+02
  801.700  .14798E+02
  802.400  .14692E+02
  803.000  .15027E+02
  803.600  .14297E+02
  804.300  .14078E+02
  804.900  .13801E+02
  805.600  .13670E+02
  806.200  .13436E+02
  806.900  .13383E+02
  807.500  .13360E+02
  808.100  .12811E+02
  808.800  .12722E+02
  809.400  .12766E+02
  810.100  .12575E+02
  810.700  .12145E+02
  811.400  .12133E+02
  812.000  .11860E+02
  812.600  .11812E+02
  813.300  .11868E+02
  813.900  .12183E+02
  814.600  .11853E+02
  815.200  .11588E+02
  815.900  .10970E+02
  816.500  .10966E+02
  817.100  .10985E+02
  817.800  .10993E+02
  818.400  .11058E+02
  819.100  .10434E+02
  819.700  .10833E+02
  820.300  .10679E+02
  821.000  .10144E+02
  821.600  .10740E+02
  822.300  .10203E+02
  822.900  .10453E+02
  823.600  .10287E+02
  824.200  .10514E+02
  824.800  .10474E+02
  825.500  .10202E+02
  826.100  .10196E+02
  826.800  .94069E+01
  827.400  .97755E+01
  828.000  .96048E+01
  828.700  .96580E+01
  829.300  .97928E+01
  830.000  .97166E+01
  830.600  .96865E+01
  831.200  .97036E+01
  831.900  .10077E+02
  832.500  .99760E+01
  833.200  .98281E+01
  833.800  .10060E+02
  834.400  .95052E+01
  835.100  .97496E+01
  835.700  .10018E+02
  836.400  .10072E+02
  837.000  .93825E+01
  837.600  .10191E+02
  838.300  .10030E+02
  838.900  .95897E+01
  839.600  .97762E+01
  840.200  .10445E+02
  840.900  .10089E+02
  841.500  .97922E+01
  842.100  .10088E+02
  842.800  .10179E+02
  843.400  .97351E+01
  844.100  .98870E+01
  844.700  .98555E+01
  845.300  .10459E+02
  846.000  .10221E+02
  846.600  .10067E+02
  847.200  .98395E+01
  847.900  .10079E+02
  848.500  .10194E+02
  849.200  .96464E+01
  849.800  .10021E+02
  850.400  .10038E+02
  851.100  .10106E+02
  851.700  .99874E+01
  852.400  .10204E+02
  853.000  .10296E+02
  853.600  .10314E+02
  854.300  .10220E+02
  854.900  .10675E+02
  855.600  .10369E+02
  856.200  .10062E+02
  856.800  .10693E+02
  857.500  .10950E+02
  858.100  .10793E+02
  858.800  .10712E+02
  859.400  .10755E+02
  860.000  .10559E+02
  860.700  .10995E+02
  861.300  .10609E+02
  861.900  .11019E+02
  862.600  .10887E+02
  863.200  .10435E+02
  863.900  .11523E+02
  864.500  .10956E+02
  865.100  .11217E+02
  865.800  .11198E+02
  866.400  .10936E+02
  867.000  .10929E+02
  867.700  .10948E+02
  868.300  .11300E+02
  869.000  .11243E+02
  869.600  .11906E+02
  870.200  .11668E+02
  870.900  .12037E+02
  871.500  .11695E+02
  872.200  .11806E+02
  872.800  .12656E+02
  873.400  .12429E+02
  874.100  .12126E+02
  874.700  .12693E+02
  875.300  .12322E+02
  876.000  .12853E+02
  876.600  .13057E+02
  877.300  .12582E+02
  877.900  .12707E+02
  878.500  .13253E+02
  879.200  .13105E+02
  879.800  .13389E+02
  880.400  .13925E+02
  881.100  .14015E+02
  881.700  .14010E+02
  882.300  .13464E+02
  883.000  .13593E+02
  883.600  .14530E+02
  884.300  .14741E+02
  884.900  .15190E+02
  885.500  .14854E+02
  886.200  .15279E+02
  886.800  .15116E+02
  887.400  .14926E+02
  888.100  .15929E+02
  888.700  .15323E+02
  889.300  .15871E+02
  890.000  .16099E+02
  890.600  .15167E+02
  891.300  .16326E+02
  891.900  .17027E+02
  892.500  .17039E+02
  893.200  .17148E+02
  893.800  .16795E+02
  894.400  .17649E+02
  895.100  .17542E+02
  895.700  .17568E+02
  896.300  .18099E+02
  897.000  .18579E+02
  897.600  .18580E+02
  898.300  .18268E+02
  898.900  .19680E+02
  899.500  .19627E+02
  900.200  .19878E+02
  900.800  .20307E+02
  901.400  .20199E+02
  902.100  .20825E+02
  902.700  .21339E+02
  903.300  .21440E+02
  904.000  .21571E+02
  904.600  .22268E+02
  905.200  .23078E+02
  905.900  .22517E+02
  906.500  .23343E+02
  907.100  .23934E+02
  907.800  .23386E+02
  908.400  .23643E+02
  909.100  .25024E+02
  909.700  .24850E+02
  910.300  .25924E+02
  911.000  .25501E+02
  911.600  .25832E+02
  912.200  .26729E+02
  912.900  .27264E+02
  913.500  .27472E+02
  914.100  .27666E+02
  914.800  .27893E+02
  915.400  .28585E+02
  916.000  .28625E+02
  916.700  .29835E+02
  917.300  .29164E+02
  917.900  .30046E+02
  918.600  .30192E+02
  919.200  .30591E+02
  919.800  .31893E+02
  920.500  .31927E+02
  921.100  .32703E+02
  921.700  .33567E+02
  922.400  .33344E+02
  923.000  .34067E+02
  923.600  .34099E+02
  924.300  .34931E+02
  924.900  .35455E+02
  925.500  .35966E+02
  926.200  .36789E+02
  926.800  .36926E+02
  927.400  .37237E+02
  928.100  .37730E+02
  928.700  .38713E+02
  929.300  .39173E+02
  930.000  .38560E+02
  930.600  .39474E+02
  931.200  .39805E+02
  931.900  .40979E+02
  932.500  .42267E+02
  933.100  .42426E+02
  933.800  .42489E+02
  934.400  .42796E+02
  935.000  .43517E+02
  935.700  .43418E+02
  936.300  .44067E+02
  936.900  .45533E+02
  937.600  .46119E+02
  938.200  .45065E+02
  938.800  .46924E+02
  939.500  .47216E+02
  940.100  .47024E+02
  940.700  .47936E+02
  941.400  .48141E+02
  942.000  .48802E+02
  942.600  .48356E+02
  943.300  .50243E+02
  943.900  .49601E+02
  944.500  .51110E+02
  945.200  .52193E+02
  945.800  .51567E+02
  946.400  .52962E+02
  947.100  .53416E+02
  947.700  .53773E+02
  948.300  .53569E+02
  948.900  .54274E+02
  949.600  .54733E+02
  950.200  .55913E+02
  950.800  .55954E+02
  951.500  .56019E+02
  952.100  .56213E+02
  952.700  .57278E+02
  953.400  .57636E+02
  954.000  .57556E+02
  954.600  .59485E+02
  955.300  .58772E+02
  955.900  .59169E+02
  956.500  .59367E+02
  957.200  .59606E+02
  957.800  .60283E+02
  958.400  .60560E+02
  959.000  .61441E+02
  959.700  .61963E+02
  960.300  .61684E+02
  960.900  .63750E+02
  961.600  .63311E+02
  962.200  .64605E+02
  962.800  .64218E+02
  963.500  .64606E+02
  964.100  .64514E+02
  964.700  .64892E+02
  965.400  .65266E+02
  966.000  .67073E+02
  966.600  .67125E+02
  967.200  .65368E+02
  967.900  .68075E+02
  968.500  .68789E+02
  969.100  .68038E+02
  969.800  .68797E+02
  970.400  .69310E+02
  971.000  .69886E+02
  971.700  .68794E+02
  972.300  .69181E+02
  972.900  .70427E+02
  973.500  .70498E+02
  974.200  .71935E+02
  974.800  .71657E+02
  975.400  .72048E+02
  976.100  .73812E+02
  976.700  .74223E+02
  977.300  .73127E+02
  978.000  .75108E+02
  978.600  .74267E+02
  979.200  .75725E+02
  979.800  .75254E+02
  980.500  .75342E+02
  981.100  .75627E+02
  981.700  .76415E+02
  982.400  .77071E+02
  983.000  .76727E+02
  983.600  .78589E+02
  984.200  .78619E+02
  984.900  .78727E+02
  985.500  .78090E+02
  986.100  .79244E+02
  986.800  .79549E+02
  987.400  .79939E+02
  988.000  .80772E+02
  988.700  .80653E+02
  989.300  .81653E+02
  989.900  .81751E+02
  990.500  .81109E+02
  991.200  .82620E+02
  991.800  .82521E+02
  992.400  .81366E+02
  993.100  .83063E+02
  993.700  .83312E+02
  994.300  .84322E+02
  994.900  .84423E+02
  995.600  .84189E+02
  996.200  .85952E+02
  996.800  .84324E+02
  997.400  .85390E+02
  998.100  .86574E+02
  998.700  .86810E+02
  999.300  .86512E+02
 1000.000  .86814E+02
 1000.600  .86900E+02
 1001.200  .88345E+02
 1001.800  .88416E+02
 1002.500  .88536E+02
 1003.100  .88607E+02
 1003.700  .88745E+02
 1004.400  .88966E+02
 1005.000  .88885E+02
 1005.600  .89007E+02
 1006.200  .89095E+02
 1006.900  .90894E+02
 1007.500  .89880E+02
 1008.100  .90309E+02
 1008.700  .90772E+02
 1009.400  .90536E+02
 1010.000  .91734E+02
 1010.600  .91449E+02
 1011.300  .90939E+02
 1011.900  .92261E+02
 1012.500  .91186E+02
 1013.100  .90710E+02
 1013.800  .93304E+02
 1014.400  .92657E+02
 1015.000  .92748E+02
 1015.600  .92391E+02
 1016.300  .93721E+02
 1016.900  .92794E+02
 1017.500  .93248E+02
 1018.100  .93963E+02
 1018.800  .93082E+02
 1019.400  .94388E+02
 1020.000  .95904E+02
 1020.700  .93353E+02
 1021.300  .96108E+02
 1021.900  .95574E+02
 1022.500  .94673E+02
 1023.200  .95567E+02
 1023.800  .95467E+02
 1024.400  .95735E+02
 1025.000  .96653E+02
 1025.700  .95533E+02
 1026.300  .96874E+02
 1026.900  .96352E+02
 1027.500  .97098E+02
 1028.200  .97155E+02
 1028.800  .97478E+02
 1029.400  .96353E+02
 1030.000  .96429E+02
 1030.700  .97157E+02
 1031.300  .97021E+02
 1031.900  .97132E+02
 1032.500  .96408E+02
 1033.200  .97353E+02
 1033.800  .96610E+02
 1034.400  .97523E+02
 1035.000  .99134E+02
 1035.700  .97297E+02
 1036.300  .98464E+02
 1036.900  .97699E+02
 1037.500  .98223E+02
 1038.200  .10000E+03
 1038.800  .98894E+02
 1039.400  .97891E+02
 1040.000  .99012E+02
 1040.700  .97733E+02
 1041.300  .97791E+02
 1041.900  .98064E+02
 1042.500  .99696E+02
 1043.200  .98702E+02
 1043.800  .98161E+02
 1044.400  .98672E+02
 1045.000  .98166E+02
 1045.700  .98256E+02
 1046.300  .98313E+02
 1046.900  .95725E+02
 1047.500  .98098E+02
 1048.200  .97548E+02
 1048.800  .96267E+02
 1049.400  .97329E+02
 1050.000  .97402E+02
 1050.700  .96720E+02
 1051.300  .96333E+02
 1051.900  .95816E+02
 1052.500  .95979E+02
 1053.200  .96213E+02
 1053.800  .94641E+02
 1054.400  .96855E+02
 1055.000  .96502E+02
 1055.600  .94277E+02
 1056.300  .93934E+02
 1056.900  .95154E+02
 1057.500  .94573E+02
 1058.100  .94493E+02
 1058.800  .93515E+02
 1059.400  .93639E+02
 1060.000  .93296E+02
 1060.600  .92691E+02
 1061.300  .92472E+02
 1061.900  .93981E+02
 1062.500  .92568E+02
 1063.100  .91226E+02
 1063.800  .93165E+02
 1064.400  .91407E+02
 1065.000  .91340E+02
 1065.600  .89934E+02
 1066.200  .90639E+02
 1066.900  .90339E+02
 1067.500  .90024E+02
 1068.100  .89272E+02
 1068.700  .88709E+02
 1069.400  .88442E+02
 1070.000  .87515E+02
 1070.600  .88012E+02
 1071.200  .86416E+02
 1071.800  .86132E+02
 1072.500  .86833E+02
 1073.100  .85020E+02
 1073.700  .85726E+02
 1074.300  .83812E+02
 1075.000  .84915E+02
 1075.600  .83379E+02
 1076.200  .83434E+02
 1076.800  .83162E+02
 1077.400  .81812E+02
 1078.100  .82744E+02
 1078.700  .81177E+02
 1079.300  .80052E+02
 1079.900  .81320E+02
 1080.600  .83029E+02
 1081.200  .81494E+02
 1081.800  .79394E+02
 1082.400  .78492E+02
 1083.000  .78910E+02
 1083.700  .77687E+02
 1084.300  .78163E+02
 1084.900  .77704E+02
 1085.500  .76542E+02
 1086.100  .76627E+02
 1086.800  .75335E+02
 1087.400  .76007E+02
 1088.000  .75464E+02
 1088.600  .74979E+02
 1089.300  .75034E+02
 1089.900  .74725E+02
 1090.500  .73292E+02
 1091.100  .73729E+02
 1091.700  .74422E+02
 1092.400  .72936E+02
 1093.000  .73334E+02
 1093.600  .71575E+02
 1094.200  .70150E+02
 1094.800  .71140E+02
 1095.500  .70098E+02
 1096.100  .69321E+02
 1096.700  .67429E+02
 1097.300  .68441E+02
 1097.900  .68517E+02
 1098.600  .68623E+02
 1099.200  .68659E+02
 1099.800  .65656E+02
 1100.400  .66310E+02
 1101.000  .65402E+02
 1101.700  .64642E+02
 1102.300  .64694E+02
 1102.900  .63822E+02
 1103.500  .64919E+02
 1104.100  .63803E+02
 1104.800  .62774E+02
 1105.400  .62521E+02
 1106.000  .61985E+02
 1106.600  .60800E+02
 1107.200  .61152E+02
 1107.900  .60134E+02
 1108.500  .59836E+02
 1109.100  .60086E+02
 1109.700  .59258E+02
 1110.300  .58694E+02
 1111.000  .57708E+02
 1111.600  .58752E+02
 1112.200  .56285E+02
 1112.800  .56206E+02
 1113.400  .56249E+02
 1114.100  .56606E+02
 1114.700  .54865E+02
 1115.300  .55276E+02
 1115.900  .54372E+02
 1116.500  .53570E+02
 1117.200  .52545E+02
 1117.800  .52729E+02
 1118.400  .52953E+02
 1119.000  .51092E+02
 1119.600  .53031E+02
 1120.200  .51436E+02
 1120.900  .50299E+02
 1121.500  .49402E+02
 1122.100  .50371E+02
 1122.700  .48059E+02
 1123.300  .48676E+02
 1124.000  .47862E+02
 1124.600  .48563E+02
 1125.200  .46531E+02
 1125.800  .46981E+02
 1126.400  .46805E+02
 1127.000  .46209E+02
 1127.700  .45953E+02
 1128.300  .45062E+02
 1128.900  .44379E+02
 1129.500  .44408E+02
 1130.100  .44165E+02
 1130.800  .44220E+02
 1131.400  .43048E+02
 1132.000  .42549E+02
 1132.600  .40930E+02
 1133.200  .41061E+02
 1133.800  .40961E+02
 1134.500  .38809E+02
 1135.100  .40912E+02
 1135.700  .38772E+02
 1136.300  .40114E+02
 1136.900  .38309E+02
 1137.500  .38397E+02
 1138.200  .37571E+02
 1138.800  .36954E+02
 1139.400  .36570E+02
 1140.000  .37190E+02
 1140.600  .36549E+02
 1141.300  .35652E+02
 1141.900  .34987E+02
 1142.500  .35758E+02
 1143.100  .35091E+02
 1143.700  .33756E+02
 1144.300  .32741E+02
 1145.000  .32222E+02
 1145.600  .32045E+02
 1146.200  .33466E+02
 1146.800  .31949E+02
 1147.400  .30818E+02
 1148.000  .31441E+02
 1148.700  .30483E+02
 1149.300  .30151E+02
 1149.900  .30166E+02
 1150.500  .28789E+02
 1151.100  .29586E+02
 1151.700  .27900E+02
 1152.400  .28766E+02
 1153.000  .27359E+02
 1153.600  .27262E+02
 1154.200  .27142E+02
 1154.800  .25621E+02
 1155.400  .25193E+02
 1156.000  .25071E+02
 1156.700  .25521E+02
 1157.300  .25311E+02
 1157.900  .24352E+02
 1158.500  .23964E+02
 1159.100  .23642E+02
 1159.700  .24047E+02
 1160.400  .23549E+02
 1161.000  .22008E+02
 1161.600  .21705E+02
 1162.200  .21400E+02
 1162.800  .22804E+02
 1163.400  .20590E+02
 1164.000  .21351E+02
 1164.700  .20979E+02
 1165.300  .19715E+02
 1165.900  .19072E+02
 1166.500  .18450E+02
 1167.100  .19280E+02
 1167.700  .18210E+02
 1168.400  .17675E+02
 1169.000  .18484E+02
 1169.600  .17904E+02
 1170.200  .17322E+02
 1170.800  .18020E+02
 1171.400  .17235E+02
 1172.000  .16763E+02
 1172.700  .16359E+02
 1173.300  .16089E+02
 1173.900  .14418E+02
 1174.500  .15637E+02
 1175.100  .16632E+02
 1175.700  .15093E+02
 1176.300  .14707E+02
 1177.000  .15204E+02
 1177.600  .13977E+02
 1178.200  .14112E+02
 1178.800  .13563E+02
 1179.400  .12764E+02
 1180.000  .12168E+02
 1180.600  .12643E+02
 1181.300  .12457E+02
 1181.900  .12613E+02
 1182.500  .12083E+02
 1183.100  .11438E+02
 1183.700  .11479E+02
 1184.300  .11658E+02
 1184.900  .10896E+02
 1185.600  .10890E+02
 1186.200  .11368E+02
 1186.800  .11594E+02
 1187.400  .98130E+01
 1188.000  .10430E+02
 1188.600  .95694E+01
 1189.200  .96091E+01
 1189.800  .96490E+01
 1190.500  .92010E+01
 1191.100  .10748E+02
 1191.700  .89085E+01
 1192.300  .87386E+01
 1192.900  .91964E+01
 1193.500  .84210E+01
 1194.100  .81568E+01
 1194.800  .91275E+01
 1195.400  .79292E+01
 1196.000  .72664E+01
 1196.600  .81701E+01
 1197.200  .71549E+01
 1197.800  .67942E+01
 1198.400  .76296E+01
 1199.000  .71042E+01
 1199.700  .80575E+01
 1200.300  .65901E+01
 1200.900  .71929E+01
 1201.500  .65001E+01
 1202.100  .56171E+01
 1202.700  .61025E+01
 1203.300  .64470E+01
 1203.900  .56325E+01
 1204.600  .56674E+01
 1205.200  .57991E+01
 1205.800  .57173E+01
 1206.400  .56829E+01
 1207.000  .59101E+01
 1207.600  .54712E+01
 1208.200  .55555E+01
 1208.800  .59024E+01
 1209.500  .56275E+01
 1210.100  .38486E+01
 1210.700  .54145E+01
 1211.300  .45417E+01
 1211.900  .49850E+01
 1212.500  .51894E+01
 1213.100  .44340E+01
 1213.700  .39415E+01
 1214.300  .45782E+01
 1215.000  .45162E+01
 1215.600  .42150E+01
 1216.200  .45886E+01
 1216.800  .36594E+01
 1217.400  .39123E+01
 1218.000  .30774E+01
 1218.600  .33303E+01
 1219.200  .34625E+01
 1219.800  .32069E+01
 1220.500  .28515E+01
 1221.100  .33723E+01
 1221.700  .34807E+01
 1222.300  .30538E+01
 1222.900  .34057E+01
 1223.500  .25877E+01
 1224.100  .28178E+01
 1224.700  .35613E+01
 1225.300  .26923E+01
 1226.000  .24557E+01
 1226.600  .23680E+01
 1227.200  .26480E+01
 1227.800  .37386E+01
 1228.400  .18583E+01
 1229.000  .23599E+01
 1229.600  .32316E+01
 1230.200  .25282E+01
 1230.800  .27852E+01
 1231.400  .29193E+01
 1232.100  .29031E+01
 1232.700  .26666E+01
 1233.300  .19841E+01
 1233.900  .22914E+01
 1234.500  .22520E+01
 1235.100  .23367E+01
 1235.700  .20489E+01
 1236.300  .17855E+01
 1236.900  .15215E+01
 1237.500  .22784E+01
 1238.200  .26851E+01
 1238.800  .19720E+01
 1239.400  .17572E+01
 1240.000  .20421E+01
 1240.600  .27779E+01
 1241.200  .23127E+01
 1241.800  .19471E+01
 1242.400  .13549E+01
 1243.000  .19420E+01
 1243.600  .17761E+01
 1244.200  .19118E+01
 1244.900  .16926E+01
 1245.500  .25847E+01
 1246.100  .42549E+00
 1246.700  .15706E+01
 1247.300  .16309E+01
 1247.900  .19696E+01
 1248.500  .32964E+01
 1249.100  .14576E+01
 1249.700  .19999E+01
 1250.300  .18070E+01
 1250.900  .18678E+01
 1251.600  .16718E+01
 1252.200  .94331E+00
 1252.800  .15642E+01
 1253.400  .13954E+01
 1254.000  .16093E+01
 1254.600  .69932E+00
 1255.200  .98968E+00
 1255.800  .20229E+01
 1256.400  .21612E+01
 1257.000  .47920E+00
 1257.600  .10014E+01
 1258.200  .13190E+01
 1258.900  .76026E+00
 1259.500  .97532E+00
 1260.100  .14999E+01
 1260.700  .12519E+01
 1261.300  .53894E+00
 1261.900 -.20286E-01
 1262.500  .71205E+00
 1263.100  .11093E+01
 1263.700  .34193E+00
 1264.300  .11024E+01
 1264.900  .14752E+01
 1265.500  .26467E+00
 1266.100  .11754E+00
 1266.800 -.70913E+00
 1267.400  .10954E+01
 1268.000  .87043E+00
 1268.600  .72330E+00
 1269.200  .44538E+00
 1269.800  .32374E+00
 1270.400  .46340E+00
 1271.000  .39392E+00
 1271.600  .53389E+00
 1272.200  .51679E+00
 1272.800 -.89128E+00
 1273.400 -.95391E-01
 1274.000 -.32341E+00
 1274.600  .39543E+00
 1275.300  .77033E+00
 1275.900  .72697E+00
 1276.500  .10002E+01
 1277.100  .82489E+00
 1277.700  .64930E+00
 1278.300  .68504E+00
 1278.900  .24425E+00
 1279.500  .17370E+00
 1280.100  .71308E+00
 1280.700  .32425E+00
 1281.300  .51928E+00
 1281.900 -.53523E+00
 1282.500  .53774E+00
 1283.100  .57363E+00
 1283.700  .18298E+00
 1284.400  .42919E+00
 1285.000  .14535E+01
 1285.600 -.83576E+00
 1286.200 -.23895E+00
 1286.800  .59992E+00
 1287.400 -.34049E-01
 1288.000  .21622E+00
 1288.600  .14471E+00
 1289.200  .19323E-01
 1289.800  .64688E+00
 1290.400  .57555E+00
 1291.000  .10430E+01
 1291.600  .27993E-01
 1292.200  .22586E+00
 1292.800  .23496E+00
 1293.400 -.89151E+00
 1294.000 -.77511E+00
 1294.600 -.38766E+00
 1295.300 -.70748E+00
 1295.900 -.21071E+00
 1296.500  .55850E+00
 1297.100 -.32905E+00
 1297.700  .14212E+00
 1298.300  .50519E+00
 1298.900 -.38470E+00
 1299.500 -.34875E+00
 1300.100 -.20356E+00
 1300.700  .16046E+00
 1301.300 -.49148E-01
 1301.900  .37037E+00
 1302.500  .32493E+00
 1303.100 -.32372E+00
 1303.700  .11667E+01
 1304.300 -.14139E+00
 1304.900  .63715E+00
 1305.500 -.12348E+00
 1306.100 -.14205E+00
 1306.700 -.18819E+00
 1307.300 -.17926E+00
 1308.000  .47443E-01
 1308.600 -.21971E+00
 1309.200 -.70855E+00
 1309.800 -.39557E+00
 1310.400 -.55298E+00
 1311.000 -.82155E+00
 1311.600  .13033E+00
 1312.200 -.74909E+00
 1312.800  .99116E-02
 1313.400 -.73201E+00
 1314.000 -.38934E+00
 1314.600 -.35262E+00
 1315.200  .26985E+00
 1315.800 -.50228E+00
 1316.400 -.52143E+00
 1317.000 -.51265E+00
 1317.600  .14550E+01
 1318.200  .65327E+00
 1318.800 -.48622E+00
 1319.400  .72898E+00
 1320.000  .31768E+00
 1320.600 -.40345E+00
 1321.200 -.95703E+00
 1321.800 -.49816E+00
 1322.400  .46007E-01
 1323.000 -.11571E+01
 1323.600 -.38684E+00
 1324.300 -.13826E-01
 1324.900  .58920E+00
 1325.500  .40096E+00
 1326.100  .18408E+00
 1326.700  .16523E+00
 1327.300 -.80582E-01
 1327.900  .42277E-01
 1328.500 -.34612E+00
 1329.100 -.81087E-01
 1329.700 -.12869E+00
 1330.300  .10200E+01
 1330.900  .26053E+00
 1331.500 -.18639E+00
 1332.100  .13701E+00
 1332.700  .32218E-01
 1333.300 -.78788E+00
 1333.900 -.63363E-01
 1334.500 -.48376E+00
 1335.100 -.21662E+00
 1335.700 -.17863E+00
 1336.300 -.25548E+00
 1336.900 -.61995E+00
 1337.500  .13456E+01
 1338.100 -.28523E+00
 1338.700  .79041E+00
 1339.300 -.35916E-01
 1339.900 -.11304E+00
 1340.500  .35868E+00
 1341.100 -.38332E+00
 1341.700 -.40304E+00
 1342.300  .88063E+00
 1342.900 -.52952E+00
 1343.500 -.75250E+00
 1344.100  .73733E+00
 1344.700  .10819E+00
 1345.300  .52505E+00
 1345.900 -.25085E+00
 1346.500 -.79498E+00
 1347.100 -.46529E+00
 1347.700  .47774E+00
 1348.300 -.30078E+00
 1348.900 -.11601E+00
 1349.500  .47861E+00
 1350.100  .75216E+00
 1350.700 -.70264E+00
 1351.300 -.19501E+00
 1351.900  .28411E+00
 1352.500 -.46970E+00
 1353.100  .30396E+00
 1353.700 -.24511E+00
 1354.300  .50056E+00
 1354.900 -.81549E+00
 1355.500  .87478E+00
 1356.100  .73763E+00
 1356.700  .95479E+00
 1357.300 -.72004E+00
 1357.900  .10646E+01
 1358.500 -.76092E+00
 1359.100  .13745E+00
 1359.700  .65164E+00
 1360.300  .18694E+00
 1360.900 -.54594E+00
 1361.500  .38529E+00
 1362.100 -.19982E+00
 1362.700  .48127E-01
 1363.300 -.92575E+00
 1363.900  .90326E+00
 1364.500 -.41651E-01
 1365.100  .10739E+01
 1365.700 -.53042E+00
 1366.300 -.16180E+00
 1366.900  .14751E+00
 1367.500  .12754E+00
 1368.100  .34757E+00
 1368.700 -.78337E+00
 1369.300 -.17302E+00
 1369.900  .13755E+00
 1370.500 -.75550E+00
 1371.100 -.68592E+00
 1371.700  .31847E+00
 1372.300 -.36537E+00
 1372.900 -.11107E+01
 1373.500 -.31580E+00
 1374.100 -.15483E+00
 1374.700  .15776E+00
 1375.300  .76983E-01
 1375.900  .51157E+00
 1376.500 -.20635E+00
 1377.100  .50206E+00
 1377.700 -.49060E+00
 1378.300  .61419E+00
 1378.900 -.10597E+00
 1379.500  .81810E+00
 1380.100  .82882E+00
 1380.700 -.14988E-01
 1381.300  .48377E+00
 1381.900 -.26997E+00
 1382.500 -.65781E+00
 1383.100 -.18898E+00
 1383.700  .10467E+01
 1384.300  .12416E+01
 1384.900 -.28183E+00
 1385.500 -.27193E+00
 1386.100 -.77567E-01
 1386.700 -.43667E+00
 1387.300 -.57386E-01
 1387.900  .10313E+01
 1388.500  .70301E+00
 1389.100 -.12616E+01
 1389.700 -.14038E+00
 1390.300 -.59400E+00
 1390.900  .13339E+01
 1391.500 -.14105E+00
 1392.100 -.16193E+00
 1392.700  .15830E+00
 1393.300 -.29691E+00
 1393.900  .12662E+01
 1394.500 -.18362E+00
 1395.100  .47985E+00
 1395.700 -.72383E+00
 1396.300 -.59743E-01
 1396.900  .79252E+00
 1397.500  .11680E+00
 1398.100 -.10598E+01
 1398.700 -.81218E-01
 1399.300 -.83965E-02
 1399.900  .72206E+00
 1400.500  .12258E-01
 1401.100 -.10283E+00
 1401.700  .37821E+00
 1402.300  .60874E+00
 1402.800  .21442E+00
 1403.400 -.27832E+00
 1404.000  .39292E+00
 1404.600  .25558E-01
 1405.200 -.34239E+00
 1405.800 -.23758E+00
 1406.400 -.66948E+00
 1407.000  .82585E+00
 1407.600  .36248E+00
 1408.200  .91135E+00
 1408.800 -.66149E+00
 1409.400  .29959E+00
 1410.000 -.64161E+00
 1410.600 -.47286E+00
 1411.200 -.74878E+00
 1411.800  .18347E+00
 1412.400 -.21968E+00
 1413.000 -.30492E+00
 1413.600 -.54968E+00
 1414.200  .27936E-02
 1414.800 -.81687E+00
 1415.400 -.71991E-01
 1416.000 -.41329E+00
 1416.600  .65313E+00
 1417.200 -.16860E+00
 1417.800 -.57488E+00
 1418.400 -.11562E+00
 1419.000 -.65093E+00
 1419.500  .45515E+00
 1420.100  .46611E+00
 1420.700  .11206E+01
 1421.300 -.28479E+00
 1421.900  .40240E+00
 1422.500  .73588E+00
 1423.100  .61799E+00
 1423.700  .24149E+00
 1424.300 -.32958E+00
 1424.900  .36727E-01
 1425.500  .17695E+00
 1426.100  .77105E+00
 1426.700 -.54727E+00
 1427.300 -.15755E+01
 1427.900 -.39494E-01
 1428.500  .32875E+00
 1429.100  .10554E+01
 1429.700  .64374E+00
 1430.300  .12089E+01
 1430.900 -.12249E+01
 1431.500  .64489E+00
