  124.500  .25851E+01
  125.200  .26842E+01
  125.900  .26019E+01
  126.600  .25656E+01
  127.300  .25044E+01
  128.000  .24688E+01
  128.600  .23976E+01
  129.300  .23954E+01
  130.000  .24335E+01
  130.700  .25006E+01
  131.400  .25502E+01
  132.100  .26085E+01
  132.800  .26364E+01
  133.500  .26455E+01
  134.200  .25908E+01
  134.900  .26049E+01
  135.600  .25567E+01
  136.300  .26060E+01
  136.900  .25467E+01
  137.600  .25984E+01
  138.300  .26432E+01
  139.000  .26714E+01
  139.700  .27853E+01
  140.400  .28950E+01
  141.100  .30198E+01
  141.800  .29664E+01
  142.500  .29102E+01
  143.200  .28314E+01
  143.900  .27626E+01
  144.500  .27562E+01
  145.200  .27615E+01
  145.900  .27671E+01
  146.600  .27575E+01
  147.300  .28785E+01
  148.000  .28982E+01
  148.700  .29159E+01
  149.400  .29587E+01
  150.100  .29882E+01
  150.800  .29088E+01
  151.500  .29153E+01
  152.100  .29052E+01
  152.800  .29939E+01
  153.500  .30339E+01
  154.200  .30094E+01
  154.900  .30902E+01
  155.600  .31333E+01
  156.300  .31619E+01
  157.000  .31906E+01
  157.700  .31374E+01
  158.400  .31315E+01
  159.000  .31541E+01
  159.700  .31430E+01
  160.400  .31110E+01
  161.100  .30812E+01
  161.800  .31671E+01
  162.500  .31966E+01
  163.200  .32174E+01
  163.900  .32569E+01
  164.600  .32729E+01
  165.200  .32989E+01
  165.900  .32982E+01
  166.600  .32929E+01
  167.300  .32771E+01
  168.000  .32769E+01
  168.700  .32513E+01
  169.400  .33205E+01
  170.100  .33389E+01
  170.800  .33475E+01
  171.400  .34249E+01
  172.100  .34265E+01
  172.800  .35371E+01
  173.500  .34789E+01
  174.200  .34911E+01
  174.900  .34984E+01
  175.600  .34907E+01
  176.300  .35144E+01
  177.000  .35429E+01
  177.600  .35085E+01
  178.300  .35492E+01
  179.000  .35661E+01
  179.700  .36043E+01
  180.400  .36075E+01
  181.100  .36856E+01
  181.800  .36768E+01
  182.500  .36806E+01
  183.100  .35719E+01
  183.800  .36132E+01
  184.500  .36814E+01
  185.200  .37379E+01
  185.900  .38491E+01
  186.600  .37433E+01
  187.300  .38017E+01
  188.000  .38712E+01
  188.600  .38645E+01
  189.300  .38183E+01
  190.000  .39407E+01
  190.700  .38927E+01
  191.400  .39319E+01
  192.100  .39602E+01
  192.800  .39573E+01
  193.500  .39766E+01
  194.100  .39556E+01
  194.800  .39700E+01
  195.500  .40441E+01
  196.200  .40946E+01
  196.900  .41222E+01
  197.600  .41441E+01
  198.300  .40665E+01
  199.000  .41782E+01
  199.600  .41647E+01
  200.300  .42417E+01
  201.000  .43098E+01
  201.700  .44201E+01
  202.400  .42212E+01
  203.100  .44211E+01
  203.800  .43512E+01
  204.400  .44631E+01
  205.100  .44679E+01
  205.800  .44266E+01
  206.500  .45280E+01
  207.200  .45363E+01
  207.900  .44886E+01
  208.600  .45170E+01
  209.200  .46057E+01
  209.900  .46400E+01
  210.600  .46678E+01
  211.300  .47358E+01
  212.000  .47586E+01
  212.700  .47596E+01
  213.400  .47932E+01
  214.000  .47345E+01
  214.700  .48798E+01
  215.400  .48777E+01
  216.100  .49088E+01
  216.800  .49514E+01
  217.500  .49304E+01
  218.200  .50601E+01
  218.800  .51506E+01
  219.500  .51223E+01
  220.200  .51690E+01
  220.900  .51238E+01
  221.600  .51866E+01
  222.300  .52381E+01
  222.900  .52614E+01
  223.600  .52789E+01
  224.300  .53551E+01
  225.000  .54364E+01
  225.700  .54712E+01
  226.400  .53818E+01
  227.100  .54608E+01
  227.700  .55512E+01
  228.400  .54770E+01
  229.100  .55336E+01
  229.800  .56205E+01
  230.500  .56494E+01
  231.200  .56239E+01
  231.800  .57780E+01
  232.500  .58429E+01
  233.200  .58629E+01
  233.900  .59122E+01
  234.600  .59304E+01
  235.300  .60297E+01
  235.900  .59984E+01
  236.600  .61354E+01
  237.300  .60835E+01
  238.000  .62559E+01
  238.700  .62733E+01
  239.400  .63779E+01
  240.000  .63903E+01
  240.700  .63750E+01
  241.400  .64688E+01
  242.100  .65021E+01
  242.800  .65619E+01
  243.500  .65459E+01
  244.100  .65776E+01
  244.800  .66450E+01
  245.500  .67938E+01
  246.200  .68716E+01
  246.900  .67771E+01
  247.600  .68715E+01
  248.200  .70365E+01
  248.900  .69239E+01
  249.600  .70364E+01
  250.300  .71891E+01
  251.000  .70764E+01
  251.700  .71793E+01
  252.300  .72223E+01
  253.000  .73017E+01
  253.700  .73470E+01
  254.400  .73810E+01
  255.100  .74596E+01
  255.700  .73537E+01
  256.400  .74970E+01
  257.100  .75962E+01
  257.800  .77653E+01
  258.500  .77191E+01
  259.200  .79041E+01
  259.800  .77712E+01
  260.500  .79233E+01
  261.200  .80056E+01
  261.900  .80497E+01
  262.600  .80221E+01
  263.200  .82353E+01
  263.900  .81912E+01
  264.600  .81233E+01
  265.300  .82492E+01
  266.000  .83171E+01
  266.700  .85185E+01
  267.300  .84222E+01
  268.000  .85487E+01
  268.700  .84615E+01
  269.400  .87161E+01
  270.100  .87257E+01
  270.700  .87005E+01
  271.400  .88584E+01
  272.100  .89999E+01
  272.800  .89037E+01
  273.500  .91840E+01
  274.100  .91051E+01
  274.800  .92941E+01
  275.500  .91918E+01
  276.200  .94345E+01
  276.900  .92856E+01
  277.500  .95420E+01
  278.200  .97178E+01
  278.900  .96941E+01
  279.600  .96628E+01
  280.300  .97125E+01
  280.900  .96010E+01
  281.600  .10001E+02
  282.300  .98956E+01
  283.000  .98890E+01
  283.700  .10011E+02
  284.300  .10194E+02
  285.000  .10079E+02
  285.700  .10364E+02
  286.400  .10254E+02
  287.100  .10413E+02
  287.700  .10502E+02
  288.400  .10692E+02
  289.100  .10748E+02
  289.800  .10570E+02
  290.500  .10845E+02
  291.100  .11024E+02
  291.800  .10965E+02
  292.500  .11102E+02
  293.200  .11075E+02
  293.900  .11096E+02
  294.500  .11048E+02
  295.200  .11079E+02
  295.900  .11467E+02
  296.600  .11489E+02
  297.300  .11610E+02
  297.900  .11763E+02
  298.600  .11477E+02
  299.300  .11580E+02
  300.000  .11776E+02
  300.600  .11919E+02
  301.300  .11879E+02
  302.000  .11995E+02
  302.700  .12293E+02
  303.400  .12131E+02
  304.000  .12390E+02
  304.700  .12142E+02
  305.400  .12444E+02
  306.100  .12503E+02
  306.800  .12678E+02
  307.400  .12698E+02
  308.100  .12690E+02
  308.800  .12806E+02
  309.500  .12806E+02
  310.100  .12823E+02
  310.800  .13065E+02
  311.500  .13034E+02
  312.200  .13025E+02
  312.900  .13342E+02
  313.500  .13122E+02
  314.200  .13415E+02
  314.900  .13441E+02
  315.600  .13602E+02
  316.200  .13874E+02
  316.900  .13765E+02
  317.600  .13964E+02
  318.300  .14018E+02
  318.900  .13908E+02
  319.600  .14211E+02
  320.300  .14474E+02
  321.000  .14393E+02
  321.700  .14531E+02
  322.300  .14755E+02
  323.000  .14786E+02
  323.700  .14778E+02
  324.400  .14843E+02
  325.000  .14922E+02
  325.700  .15066E+02
  326.400  .15129E+02
  327.100  .15290E+02
  327.700  .15177E+02
  328.400  .15303E+02
  329.100  .15370E+02
  329.800  .15322E+02
  330.500  .15507E+02
  331.100  .15475E+02
  331.800  .15542E+02
  332.500  .15674E+02
  333.200  .16042E+02
  333.800  .16108E+02
  334.500  .16167E+02
  335.200  .16194E+02
  335.900  .16266E+02
  336.500  .16239E+02
  337.200  .16302E+02
  337.900  .16489E+02
  338.600  .16434E+02
  339.200  .16413E+02
  339.900  .16645E+02
  340.600  .16746E+02
  341.300  .17001E+02
  341.900  .16867E+02
  342.600  .16948E+02
  343.300  .17123E+02
  344.000  .17066E+02
  344.600  .17130E+02
  345.300  .17478E+02
  346.000  .17435E+02
  346.700  .17739E+02
  347.300  .17838E+02
  348.000  .18071E+02
  348.700  .17985E+02
  349.400  .17970E+02
  350.000  .18234E+02
  350.700  .18388E+02
  351.400  .18127E+02
  352.100  .18498E+02
  352.700  .18870E+02
  353.400  .18588E+02
  354.100  .18652E+02
  354.800  .19170E+02
  355.400  .18789E+02
  356.100  .19095E+02
  356.800  .19339E+02
  357.500  .19413E+02
  358.100  .19375E+02
  358.800  .19456E+02
  359.500  .19435E+02
  360.200  .19733E+02
  360.800  .19671E+02
  361.500  .19979E+02
  362.200  .20054E+02
  362.800  .19972E+02
  363.500  .20236E+02
  364.200  .20440E+02
  364.900  .20337E+02
  365.500  .20906E+02
  366.200  .20615E+02
  366.900  .21078E+02
  367.600  .20769E+02
  368.200  .20882E+02
  368.900  .21433E+02
  369.600  .21368E+02
  370.300  .21106E+02
  370.900  .21425E+02
  371.600  .21984E+02
  372.300  .21668E+02
  372.900  .21845E+02
  373.600  .22214E+02
  374.300  .22295E+02
  375.000  .22388E+02
  375.600  .22503E+02
  376.300  .22581E+02
  377.000  .22749E+02
  377.700  .22694E+02
  378.300  .22772E+02
  379.000  .23156E+02
  379.700  .23500E+02
  380.300  .23407E+02
  381.000  .23550E+02
  381.700  .23825E+02
  382.400  .23718E+02
  383.000  .24043E+02
  383.700  .24287E+02
  384.400  .24498E+02
  385.000  .24140E+02
  385.700  .24494E+02
  386.400  .24663E+02
  387.100  .24396E+02
  387.700  .25069E+02
  388.400  .25412E+02
  389.100  .25245E+02
  389.800  .25218E+02
  390.400  .25337E+02
  391.100  .25595E+02
  391.800  .25916E+02
  392.400  .25702E+02
  393.100  .26123E+02
  393.800  .26390E+02
  394.500  .26209E+02
  395.100  .26282E+02
  395.800  .26645E+02
  396.500  .26929E+02
  397.100  .26540E+02
  397.800  .27031E+02
  398.500  .27243E+02
  399.100  .27082E+02
  399.800  .27825E+02
  400.500  .27569E+02
  401.200  .28374E+02
  401.800  .28273E+02
  402.500  .28312E+02
  403.200  .28285E+02
  403.800  .28797E+02
  404.500  .28889E+02
  405.200  .28853E+02
  405.900  .28954E+02
  406.500  .29512E+02
  407.200  .29505E+02
  407.900  .29729E+02
  408.500  .30065E+02
  409.200  .30418E+02
  409.900  .29884E+02
  410.500  .30590E+02
  411.200  .30691E+02
  411.900  .30807E+02
  412.600  .30914E+02
  413.200  .30669E+02
  413.900  .31281E+02
  414.600  .31254E+02
  415.200  .31332E+02
  415.900  .31374E+02
  416.600  .31733E+02
  417.200  .32028E+02
  417.900  .31929E+02
  418.600  .32505E+02
  419.200  .32519E+02
  419.900  .32358E+02
  420.600  .33211E+02
  421.300  .33236E+02
  421.900  .33322E+02
  422.600  .33450E+02
  423.300  .33884E+02
  423.900  .33832E+02
  424.600  .34305E+02
  425.300  .34399E+02
  425.900  .34566E+02
  426.600  .34813E+02
  427.300  .34929E+02
  427.900  .35448E+02
  428.600  .35905E+02
  429.300  .35806E+02
  430.000  .35844E+02
  430.600  .35447E+02
  431.300  .36575E+02
  432.000  .36593E+02
  432.600  .37730E+02
  433.300  .37045E+02
  434.000  .37231E+02
  434.600  .37708E+02
  435.300  .37957E+02
  436.000  .38371E+02
  436.600  .38314E+02
  437.300  .38742E+02
  438.000  .38862E+02
  438.600  .39126E+02
  439.300  .39614E+02
  440.000  .39742E+02
  440.600  .38848E+02
  441.300  .40121E+02
  442.000  .40475E+02
  442.600  .40197E+02
  443.300  .41091E+02
  444.000  .40437E+02
  444.600  .40776E+02
  445.300  .41295E+02
  446.000  .41507E+02
  446.600  .41776E+02
  447.300  .41735E+02
  448.000  .42504E+02
  448.600  .42509E+02
  449.300  .42730E+02
  450.000  .42777E+02
  450.600  .42876E+02
  451.300  .43028E+02
  452.000  .43551E+02
  452.600  .43675E+02
  453.300  .43639E+02
  454.000  .44173E+02
  454.600  .44292E+02
  455.300  .44256E+02
  456.000  .45226E+02
  456.600  .44921E+02
  457.300  .44536E+02
  458.000  .45598E+02
  458.600  .45562E+02
  459.300  .45939E+02
  460.000  .46074E+02
  460.600  .46520E+02
  461.300  .46907E+02
  462.000  .46811E+02
  462.600  .47008E+02
  463.300  .47319E+02
  464.000  .47184E+02
  464.600  .47482E+02
  465.300  .47533E+02
  466.000  .47902E+02
  466.600  .47964E+02
  467.300  .47663E+02
  468.000  .48966E+02
  468.600  .49081E+02
  469.300  .49229E+02
  470.000  .48926E+02
  470.600  .49556E+02
  471.300  .49793E+02
  472.000  .50026E+02
  472.600  .49885E+02
  473.300  .50034E+02
  474.000  .50900E+02
  474.600  .50273E+02
  475.300  .50883E+02
  475.900  .50929E+02
  476.600  .50982E+02
  477.300  .51310E+02
  477.900  .51532E+02
  478.600  .51573E+02
  479.300  .52278E+02
  479.900  .52226E+02
  480.600  .53049E+02
  481.300  .52699E+02
  481.900  .52253E+02
  482.600  .52900E+02
  483.300  .53604E+02
  483.900  .53739E+02
  484.600  .53411E+02
  485.200  .53518E+02
  485.900  .54154E+02
  486.600  .54325E+02
  487.200  .55019E+02
  487.900  .54795E+02
  488.600  .53674E+02
  489.200  .55070E+02
  489.900  .55208E+02
  490.600  .55560E+02
  491.200  .55490E+02
  491.900  .55455E+02
  492.500  .54988E+02
  493.200  .55034E+02
  493.900  .55394E+02
  494.500  .55208E+02
  495.200  .55674E+02
  495.900  .55727E+02
  496.500  .55963E+02
  497.200  .56108E+02
  497.900  .56047E+02
  498.500  .56909E+02
  499.200  .55444E+02
  499.800  .56151E+02
  500.500  .54898E+02
  501.200  .55240E+02
  501.800  .55381E+02
  502.500  .55212E+02
  503.200  .55056E+02
  503.800  .54275E+02
  504.500  .54922E+02
  505.100  .54347E+02
  505.800  .53688E+02
  506.500  .54014E+02
  507.100  .53659E+02
  507.800  .53580E+02
  508.500  .53523E+02
  509.100  .52933E+02
  509.800  .52769E+02
  510.400  .52278E+02
  511.100  .51707E+02
  511.800  .51574E+02
  512.400  .50970E+02
  513.100  .50405E+02
  513.800  .49851E+02
  514.400  .50446E+02
  515.100  .49866E+02
  515.700  .48285E+02
  516.400  .48723E+02
  517.100  .47744E+02
  517.700  .47368E+02
  518.400  .46908E+02
  519.000  .46513E+02
  519.700  .45162E+02
  520.400  .45673E+02
  521.000  .44799E+02
  521.700  .44247E+02
  522.400  .44174E+02
  523.000  .43624E+02
  523.700  .43424E+02
  524.300  .42853E+02
  525.000  .43042E+02
  525.700  .42404E+02
  526.300  .41052E+02
  527.000  .41347E+02
  527.600  .41826E+02
  528.300  .40994E+02
  529.000  .40517E+02
  529.600  .39982E+02
  530.300  .39859E+02
  530.900  .39681E+02
  531.600  .39323E+02
  532.300  .39535E+02
  532.900  .38780E+02
  533.600  .38408E+02
  534.200  .37743E+02
  534.900  .37382E+02
  535.600  .37566E+02
  536.200  .37099E+02
  536.900  .36642E+02
  537.500  .36466E+02
  538.200  .36632E+02
  538.900  .35913E+02
  539.500  .36437E+02
  540.200  .35715E+02
  540.800  .35400E+02
  541.500  .35521E+02
  542.200  .35777E+02
  542.800  .34957E+02
  543.500  .35035E+02
  544.100  .35101E+02
  544.800  .35736E+02
  545.500  .34369E+02
  546.100  .34917E+02
  546.800  .34977E+02
  547.400  .34165E+02
  548.100  .34958E+02
  548.800  .34770E+02
  549.400  .34397E+02
  550.100  .34412E+02
  550.700  .34458E+02
  551.400  .34991E+02
  552.100  .34713E+02
  552.700  .34101E+02
  553.400  .34505E+02
  554.000  .34943E+02
  554.700  .34320E+02
  555.300  .35013E+02
  556.000  .35211E+02
  556.700  .35543E+02
  557.300  .35290E+02
  558.000  .35711E+02
  558.600  .34767E+02
  559.300  .35799E+02
  560.000  .36339E+02
  560.600  .36494E+02
  561.300  .36224E+02
  561.900  .36665E+02
  562.600  .36860E+02
  563.200  .37223E+02
  563.900  .36934E+02
  564.600  .37699E+02
  565.200  .38056E+02
  565.900  .37965E+02
  566.500  .37924E+02
  567.200  .38315E+02
  567.800  .38995E+02
  568.500  .38273E+02
  569.200  .39886E+02
  569.800  .39369E+02
  570.500  .39526E+02
  571.100  .38821E+02
  571.800  .39514E+02
  572.400  .39797E+02
  573.100  .40987E+02
  573.800  .40711E+02
  574.400  .40867E+02
  575.100  .40045E+02
  575.700  .40725E+02
  576.400  .40426E+02
  577.000  .41222E+02
  577.700  .40185E+02
  578.400  .40525E+02
  579.000  .40046E+02
  579.700  .40139E+02
  580.300  .39838E+02
  581.000  .39720E+02
  581.600  .40506E+02
  582.300  .39670E+02
  583.000  .39271E+02
  583.600  .39445E+02
  584.300  .38899E+02
  584.900  .39092E+02
  585.600  .38852E+02
  586.200  .38851E+02
  586.900  .38414E+02
  587.600  .38317E+02
  588.200  .38255E+02
  588.900  .37177E+02
  589.500  .37113E+02
  590.200  .37118E+02
  590.800  .37299E+02
  591.500  .36406E+02
  592.100  .36151E+02
  592.800  .35717E+02
  593.500  .35311E+02
  594.100  .34702E+02
  594.800  .34591E+02
  595.400  .34438E+02
  596.100  .33373E+02
  596.700  .33729E+02
  597.400  .32929E+02
  598.000  .32801E+02
  598.700  .32390E+02
  599.400  .32169E+02
  600.000  .32636E+02
  600.700  .31448E+02
  601.300  .30693E+02
  602.000  .30568E+02
  602.600  .30544E+02
  603.300  .30489E+02
  603.900  .30383E+02
  604.600  .29328E+02
  605.200  .29302E+02
  605.900  .28664E+02
  606.600  .28717E+02
  607.200  .28117E+02
  607.900  .27940E+02
  608.500  .26993E+02
  609.200  .27679E+02
  609.800  .26580E+02
  610.500  .26922E+02
  611.100  .26552E+02
  611.800  .25926E+02
  612.400  .25669E+02
  613.100  .25069E+02
  613.800  .24700E+02
  614.400  .24046E+02
  615.100  .24258E+02
  615.700  .24549E+02
  616.400  .23940E+02
  617.000  .23310E+02
  617.700  .23704E+02
  618.300  .22996E+02
  619.000  .23509E+02
  619.600  .22291E+02
  620.300  .22253E+02
  620.900  .21904E+02
  621.600  .22005E+02
  622.200  .21720E+02
  622.900  .21102E+02
  623.600  .21279E+02
  624.200  .20618E+02
  624.900  .20969E+02
  625.500  .20931E+02
  626.200  .20744E+02
  626.800  .20374E+02
  627.500  .19788E+02
  628.100  .19614E+02
  628.800  .19667E+02
  629.400  .20292E+02
  630.100  .19266E+02
  630.700  .18777E+02
  631.400  .19868E+02
  632.000  .18773E+02
  632.700  .18824E+02
  633.300  .18937E+02
  634.000  .18763E+02
  634.700  .18780E+02
  635.300  .17999E+02
  636.000  .17629E+02
  636.600  .17899E+02
  637.300  .17425E+02
  637.900  .17798E+02
  638.600  .17436E+02
  639.200  .17685E+02
  639.900  .16988E+02
  640.500  .17076E+02
  641.200  .16996E+02
  641.800  .16277E+02
  642.500  .16681E+02
  643.100  .15854E+02
  643.800  .16119E+02
  644.400  .16206E+02
  645.100  .16438E+02
  645.700  .16701E+02
  646.400  .15917E+02
  647.000  .15477E+02
  647.700  .16307E+02
  648.300  .15995E+02
  649.000  .15062E+02
  649.600  .16233E+02
  650.300  .15522E+02
  650.900  .15442E+02
  651.600  .15178E+02
  652.200  .15406E+02
  652.900  .14675E+02
  653.500  .14546E+02
  654.200  .14767E+02
  654.800  .14686E+02
  655.500  .15172E+02
  656.200  .14818E+02
  656.800  .14772E+02
  657.500  .14778E+02
  658.100  .14755E+02
  658.800  .14931E+02
  659.400  .14969E+02
  660.100  .14245E+02
  660.700  .14587E+02
  661.400  .14628E+02
  662.000  .14617E+02
  662.700  .14978E+02
  663.300  .14390E+02
  664.000  .14948E+02
  664.600  .14616E+02
  665.300  .14251E+02
  665.900  .14473E+02
  666.600  .13697E+02
  667.200  .13969E+02
  667.900  .13574E+02
  668.500  .13585E+02
  669.200  .14611E+02
  669.800  .14198E+02
  670.500  .13963E+02
  671.100  .14352E+02
  671.800  .14670E+02
  672.400  .14216E+02
  673.000  .14303E+02
  673.700  .14509E+02
  674.300  .13811E+02
  675.000  .14448E+02
  675.600  .14435E+02
  676.300  .15139E+02
  676.900  .14947E+02
  677.600  .14325E+02
  678.200  .14323E+02
  678.900  .14686E+02
  679.500  .14569E+02
  680.200  .14559E+02
  680.800  .14390E+02
  681.500  .14380E+02
  682.100  .14430E+02
  682.800  .15263E+02
  683.400  .14431E+02
  684.100  .14146E+02
  684.700  .14366E+02
  685.400  .15413E+02
  686.000  .15164E+02
  686.700  .14984E+02
  687.300  .15154E+02
  688.000  .14959E+02
  688.600  .14853E+02
  689.300  .14459E+02
  689.900  .14681E+02
  690.600  .14471E+02
  691.200  .15066E+02
  691.900  .14643E+02
  692.500  .14001E+02
  693.200  .14602E+02
  693.800  .14546E+02
  694.400  .14745E+02
  695.100  .14290E+02
  695.700  .14663E+02
  696.400  .15001E+02
  697.000  .14567E+02
  697.700  .14879E+02
  698.300  .14633E+02
  699.000  .14294E+02
  699.600  .13530E+02
  700.300  .14699E+02
  700.900  .14778E+02
  701.600  .14875E+02
  702.200  .14338E+02
  702.900  .15531E+02
  703.500  .15021E+02
  704.200  .15063E+02
  704.800  .14316E+02
  705.500  .14964E+02
  706.100  .14615E+02
  706.700  .14570E+02
  707.400  .14417E+02
  708.000  .15052E+02
  708.700  .15443E+02
  709.300  .14366E+02
  710.000  .14728E+02
  710.600  .14164E+02
  711.300  .14962E+02
  711.900  .13933E+02
  712.600  .15015E+02
  713.200  .14729E+02
  713.900  .14417E+02
  714.500  .14950E+02
  715.100  .14818E+02
  715.800  .14832E+02
  716.400  .14528E+02
  717.100  .14185E+02
  717.700  .14251E+02
  718.400  .14678E+02
  719.000  .14400E+02
  719.700  .14814E+02
  720.300  .14307E+02
  721.000  .14952E+02
  721.600  .15178E+02
  722.200  .14596E+02
  722.900  .14695E+02
  723.500  .15182E+02
  724.200  .14586E+02
  724.800  .14667E+02
  725.500  .14520E+02
  726.100  .14032E+02
  726.800  .14102E+02
  727.400  .14666E+02
  728.100  .14267E+02
  728.700  .14040E+02
  729.300  .14224E+02
  730.000  .14678E+02
  730.600  .14907E+02
  731.300  .13900E+02
  731.900  .13966E+02
  732.600  .13799E+02
  733.200  .14593E+02
  733.900  .13251E+02
  734.500  .13391E+02
  735.100  .14531E+02
  735.800  .14692E+02
  736.400  .14086E+02
  737.100  .14337E+02
  737.700  .14585E+02
  738.400  .14551E+02
  739.000  .14589E+02
  739.700  .13633E+02
  740.300  .14002E+02
  740.900  .13630E+02
  741.600  .13928E+02
  742.200  .13904E+02
  742.900  .14538E+02
  743.500  .13966E+02
  744.200  .14923E+02
  744.800  .13982E+02
  745.500  .14053E+02
  746.100  .14658E+02
  746.700  .13651E+02
  747.400  .14183E+02
  748.000  .15131E+02
  748.700  .13782E+02
  749.300  .12983E+02
  750.000  .13565E+02
  750.600  .13772E+02
  751.200  .13046E+02
  751.900  .13771E+02
  752.500  .14088E+02
  753.200  .13816E+02
  753.800  .13634E+02
  754.500  .13878E+02
  755.100  .14637E+02
  755.700  .13873E+02
  756.400  .13346E+02
  757.000  .13840E+02
  757.700  .13627E+02
  758.300  .13537E+02
  759.000  .14116E+02
  759.600  .13486E+02
  760.200  .13554E+02
  760.900  .13642E+02
  761.500  .13950E+02
  762.200  .13814E+02
  762.800  .14411E+02
  763.500  .13571E+02
  764.100  .13655E+02
  764.700  .13933E+02
  765.400  .14103E+02
  766.000  .14108E+02
  766.700  .13049E+02
  767.300  .13619E+02
  767.900  .13591E+02
  768.600  .14329E+02
  769.200  .13603E+02
  769.900  .13757E+02
  770.500  .13239E+02
  771.200  .14014E+02
  771.800  .13674E+02
  772.400  .13334E+02
  773.100  .13817E+02
  773.700  .12834E+02
  774.400  .13779E+02
  775.000  .12562E+02
  775.600  .13176E+02
  776.300  .13265E+02
  776.900  .12953E+02
  777.600  .12593E+02
  778.200  .13410E+02
  778.900  .12717E+02
  779.500  .13186E+02
  780.100  .13122E+02
  780.800  .13362E+02
  781.400  .13332E+02
  782.100  .12884E+02
  782.700  .13324E+02
  783.300  .12148E+02
  784.000  .12692E+02
  784.600  .12491E+02
  785.300  .12089E+02
  785.900  .12666E+02
  786.500  .12583E+02
  787.200  .12179E+02
  787.800  .12316E+02
  788.500  .11724E+02
  789.100  .12441E+02
  789.700  .12151E+02
  790.400  .12685E+02
  791.000  .11812E+02
  791.700  .11094E+02
  792.300  .11849E+02
  792.900  .12022E+02
  793.600  .12007E+02
  794.200  .11956E+02
  794.900  .11007E+02
  795.500  .11127E+02
  796.100  .10761E+02
  796.800  .10988E+02
  797.400  .11160E+02
  798.100  .10970E+02
  798.700  .11108E+02
  799.300  .97775E+01
  800.000  .10635E+02
  800.600  .10896E+02
  801.300  .10071E+02
  801.900  .10912E+02
  801.100  .11789E+02
  801.700  .11471E+02
  802.400  .11596E+02
  803.000  .11190E+02
  803.600  .11329E+02
  804.300  .10994E+02
  804.900  .11063E+02
  805.600  .10975E+02
  806.200  .10724E+02
  806.900  .95138E+01
  807.500  .96879E+01
  808.100  .91126E+01
  808.800  .85377E+01
  809.400  .97139E+01
  810.100  .93893E+01
  810.700  .79657E+01
  811.400  .87347E+01
  812.000  .80085E+01
  812.600  .84168E+01
  813.300  .85573E+01
  813.900  .75199E+01
  814.600  .77862E+01
  815.200  .71983E+01
  815.900  .79375E+01
  816.500  .73480E+01
  817.100  .68481E+01
  817.800  .63482E+01
  818.400  .58635E+01
  819.100  .61114E+01
  819.700  .59551E+01
  820.300  .57983E+01
  821.000  .56240E+01
  821.600  .61294E+01
  822.300  .53831E+01
  822.900  .46703E+01
  823.600  .43265E+01
  824.200  .35545E+01
  824.800  .45060E+01
  825.500  .38816E+01
  826.100  .35150E+01
  826.800  .35209E+01
  827.400  .29474E+01
  828.000  .23349E+01
  828.700  .25074E+01
  829.300  .25673E+01
  830.000  .25718E+01
  830.600  .16918E+01
  831.200  .25040E+01
  831.900  .20180E+01
  832.500  .26253E+01
  833.200  .15139E+01
  833.800  .10238E+01
  834.400  .15186E+01
  835.100  .93249E+00
  835.700  .11623E+01
  836.400  .17360E+01
  837.000  .17195E+01
  837.600  .11109E+01
  838.300  .12086E+01
  838.900  .76990E+00
  839.600  .10593E+01
  840.200  .10994E+01
  840.900  .10822E+01
  841.500  .19754E+00
  842.100  .10161E+00
  842.800  .60459E+00
  843.400  .21865E+00
  844.100  .58760E+00
  844.700 -.18767E+00
  845.300  .43427E+00
  846.000 -.65474E+00
  846.600 -.28499E+00
  847.200  .24187E+00
  847.900 -.69568E+00
  848.500 -.89541E-01
  849.200 -.12855E+00
  849.800  .10713E+00
  850.400 -.18726E+00
  851.100 -.69092E-01
  851.700  .58162E+00
  852.400  .38544E+00
  853.000 -.28915E-01
  853.600 -.14743E+00
  854.300  .20956E+00
  854.900  .62703E+00
  855.600  .58858E+00
  856.200  .60956E+00
  856.800  .41131E+00
  857.500  .79165E+00
  858.100  .63305E+00
  858.800  .87465E+00
  859.400  .11423E+00
  860.000  .12791E+01
  860.700  .73850E+00
  861.300  .73978E+00
  861.900  .11442E+01
  862.600  .16511E+01
  863.200  .82468E+00
  863.900  .80605E+00
  864.500  .10710E+01
  865.100  .82906E+00
  865.800  .12576E+01
  866.400  .77099E+00
  867.000  .85384E+00
  867.700  .56967E+00
  868.300  .12453E+01
  869.000  .10633E+01
  869.600  .10240E+01
  870.200  .13541E+01
  870.900  .16854E+01
  871.500  .17908E+01
  872.200  .15877E+01
  872.800  .17346E+01
  873.400  .22125E+01
  874.100  .21955E+01
  874.700  .23645E+01
  875.300  .20150E+01
  876.000  .21639E+01
  876.600  .27913E+01
  877.300  .31919E+01
  877.900  .22363E+01
  878.500  .25321E+01
  879.200  .24316E+01
  879.800  .28751E+01
  880.400  .32987E+01
  881.100  .32410E+01
  881.700  .25932E+01
  882.300  .36080E+01
  883.000  .29176E+01
  883.600  .44849E+01
  884.300  .24186E+01
  884.900  .44344E+01
  885.500  .43343E+01
  886.200  .38101E+01
  886.800  .44746E+01
  887.400  .25214E+01
  888.100  .40184E+01
  888.700  .43869E+01
  889.300  .43073E+01
  890.000  .47851E+01
  890.600  .55848E+01
  891.300  .49278E+01
  891.900  .58588E+01
  892.500  .52853E+01
  893.200  .60696E+01
  893.800  .55596E+01
  894.400  .60856E+01
  895.100  .61815E+01
  895.700  .60813E+01
  896.300  .66101E+01
  897.000  .66419E+01
  897.600  .74774E+01
  898.300  .62031E+01
  898.900  .80439E+01
  899.500  .73771E+01
  900.200  .72352E+01
  900.800  .77484E+01
  901.400  .82628E+01
  902.100  .82753E+01
  902.700  .83299E+01
  903.300  .88691E+01
  904.000  .87060E+01
  904.600  .93354E+01
  905.200  .95685E+01
  905.900  .95828E+01
  906.500  .10748E+02
  907.100  .92300E+01
  907.800  .11555E+02
  908.400  .10635E+02
  909.100  .10540E+02
  909.700  .10107E+02
  910.300  .12756E+02
  911.000  .11947E+02
  911.600  .12768E+02
  912.200  .12986E+02
  912.900  .13298E+02
  913.500  .13674E+02
  914.100  .13196E+02
  914.800  .14027E+02
  915.400  .15309E+02
  916.000  .14582E+02
  916.700  .15554E+02
  917.300  .15642E+02
  917.900  .13506E+02
  918.600  .16411E+02
  919.200  .15818E+02
  919.800  .16703E+02
  920.500  .16978E+02
  921.100  .17410E+02
  921.700  .17798E+02
  922.400  .18053E+02
  923.000  .18488E+02
  923.600  .18809E+02
  924.300  .20308E+02
  924.900  .18791E+02
  925.500  .19528E+02
  926.200  .20503E+02
  926.800  .19973E+02
  927.400  .21641E+02
  928.100  .22738E+02
  928.700  .20956E+02
  929.300  .21841E+02
  930.000  .23919E+02
  930.600  .22435E+02
  931.200  .21763E+02
  931.900  .24596E+02
  932.500  .24696E+02
  933.100  .25007E+02
  933.800  .24785E+02
  934.400  .24839E+02
  935.000  .25080E+02
  935.700  .27421E+02
  936.300  .27078E+02
  936.900  .26686E+02
  937.600  .28354E+02
  938.200  .28270E+02
  938.800  .27665E+02
  939.500  .29458E+02
  940.100  .30182E+02
  940.700  .30741E+02
  941.400  .30928E+02
  942.000  .30870E+02
  942.600  .31456E+02
  943.300  .32551E+02
  943.900  .31107E+02
  944.500  .33491E+02
  945.200  .32219E+02
  945.800  .34299E+02
  946.400  .35974E+02
  947.100  .34821E+02
  947.700  .35321E+02
  948.300  .35315E+02
  948.900  .36226E+02
  949.600  .36664E+02
  950.200  .37628E+02
  950.800  .37624E+02
  951.500  .37798E+02
  952.100  .37187E+02
  952.700  .40516E+02
  953.400  .41352E+02
  954.000  .38401E+02
  954.600  .41622E+02
  955.300  .40603E+02
  955.900  .41117E+02
  956.500  .41067E+02
  957.200  .41640E+02
  957.800  .41025E+02
  958.400  .41049E+02
  959.000  .41911E+02
  959.700  .43770E+02
  960.300  .44167E+02
  960.900  .44590E+02
  961.600  .43215E+02
  962.200  .45919E+02
  962.800  .45476E+02
  963.500  .45663E+02
  964.100  .44498E+02
  964.700  .46343E+02
  965.400  .47330E+02
  966.000  .45887E+02
  966.600  .47166E+02
  967.200  .47847E+02
  967.900  .48990E+02
  968.500  .47943E+02
  969.100  .49105E+02
  969.800  .48669E+02
  970.400  .49859E+02
  971.000  .50926E+02
  971.700  .50970E+02
  972.300  .50802E+02
  972.900  .51898E+02
  973.500  .52770E+02
  974.200  .52943E+02
  974.800  .51302E+02
  975.400  .51336E+02
  976.100  .51380E+02
  976.700  .53760E+02
  977.300  .53414E+02
  978.000  .53358E+02
  978.600  .53625E+02
  979.200  .53840E+02
  979.800  .54672E+02
  980.500  .56466E+02
  981.100  .54783E+02
  981.700  .55490E+02
  982.400  .56209E+02
  983.000  .56867E+02
  983.600  .56106E+02
  984.200  .57825E+02
  984.900  .55650E+02
  985.500  .58747E+02
  986.100  .58866E+02
  986.800  .58763E+02
  987.400  .56931E+02
  988.000  .59732E+02
  988.700  .59368E+02
  989.300  .61420E+02
  989.900  .59713E+02
  990.500  .60906E+02
  991.200  .60516E+02
  991.800  .59955E+02
  992.400  .61048E+02
  993.100  .63996E+02
  993.700  .61909E+02
  994.300  .61637E+02
  994.900  .60546E+02
  995.600  .63401E+02
  996.200  .63446E+02
  996.800  .62009E+02
  997.400  .63882E+02
  998.100  .61975E+02
  998.700  .61221E+02
  999.300  .63898E+02
 1000.000  .64143E+02
 1000.600  .64909E+02
 1001.200  .64074E+02
 1001.800  .63932E+02
 1002.500  .65730E+02
 1003.100  .66072E+02
 1003.700  .65717E+02
 1004.400  .64943E+02
 1005.000  .64586E+02
 1005.600  .65897E+02
 1006.200  .66268E+02
 1006.900  .66489E+02
 1007.500  .66834E+02
 1008.100  .67423E+02
 1008.700  .68880E+02
 1009.400  .66204E+02
 1010.000  .66984E+02
 1010.600  .68635E+02
 1011.300  .70602E+02
 1011.900  .68856E+02
 1012.500  .69341E+02
 1013.100  .70129E+02
 1013.800  .69673E+02
 1014.400  .70517E+02
 1015.000  .69472E+02
 1015.600  .69440E+02
 1016.300  .69859E+02
 1016.900  .70927E+02
 1017.500  .69904E+02
 1018.100  .72214E+02
 1018.800  .71562E+02
 1019.400  .72387E+02
 1020.000  .72163E+02
 1020.700  .72810E+02
 1021.300  .73805E+02
 1021.900  .72277E+02
 1022.500  .73496E+02
 1023.200  .74064E+02
 1023.800  .73226E+02
 1024.400  .75509E+02
 1025.000  .76569E+02
 1025.700  .74935E+02
 1026.300  .75801E+02
 1026.900  .74848E+02
 1027.500  .78574E+02
 1028.200  .78001E+02
 1028.800  .74883E+02
 1029.400  .76935E+02
 1030.000  .76540E+02
 1030.700  .77879E+02
 1031.300  .79432E+02
 1031.900  .81327E+02
 1032.500  .80963E+02
 1033.200  .76903E+02
 1033.800  .80276E+02
 1034.400  .81925E+02
 1035.000  .79002E+02
 1035.700  .81834E+02
 1036.300  .79929E+02
 1036.900  .81299E+02
 1037.500  .84213E+02
 1038.200  .82720E+02
 1038.800  .81465E+02
 1039.400  .84532E+02
 1040.000  .83763E+02
 1040.700  .84730E+02
 1041.300  .84736E+02
 1041.900  .86755E+02
 1042.500  .87598E+02
 1043.200  .85027E+02
 1043.800  .86533E+02
 1044.400  .86569E+02
 1045.000  .86691E+02
 1045.700  .86800E+02
 1046.300  .86459E+02
 1046.900  .88177E+02
 1047.500  .88970E+02
 1048.200  .88063E+02
 1048.800  .91158E+02
 1049.400  .89069E+02
 1050.000  .86946E+02
 1050.700  .88662E+02
 1051.300  .87704E+02
 1051.900  .91635E+02
 1052.500  .91147E+02
 1053.200  .91789E+02
 1053.800  .89653E+02
 1054.400  .89249E+02
 1055.000  .92466E+02
 1055.600  .93892E+02
 1056.300  .92208E+02
 1056.900  .92188E+02
 1057.500  .93972E+02
 1058.100  .94339E+02
 1058.800  .93300E+02
 1059.400  .92835E+02
 1060.000  .94390E+02
 1060.600  .95263E+02
 1061.300  .94577E+02
 1061.900  .95274E+02
 1062.500  .94838E+02
 1063.100  .93474E+02
 1063.800  .95055E+02
 1064.400  .95336E+02
 1065.000  .94327E+02
 1065.600  .10001E+03
 1066.200  .96239E+02
 1066.900  .97771E+02
 1067.500  .96459E+02
 1068.100  .95988E+02
 1068.700  .95878E+02
 1069.400  .99138E+02
 1070.000  .96914E+02
 1070.600  .95472E+02
 1071.200  .98451E+02
 1071.800  .97159E+02
 1072.500  .96458E+02
 1073.100  .98961E+02
 1073.700  .96904E+02
 1074.300  .95634E+02
 1075.000  .99229E+02
 1075.600  .95455E+02
 1076.200  .96716E+02
 1076.800  .94828E+02
 1077.400  .95509E+02
 1078.100  .95043E+02
 1078.700  .95173E+02
 1079.300  .96686E+02
 1079.900  .94203E+02
 1080.600  .95518E+02
 1081.200  .96389E+02
 1081.800  .96242E+02
 1082.400  .95415E+02
 1083.000  .95143E+02
 1083.700  .95197E+02
 1084.300  .96690E+02
 1084.900  .94184E+02
 1085.500  .96332E+02
 1086.100  .96401E+02
 1086.800  .94400E+02
 1087.400  .95714E+02
 1088.000  .96998E+02
 1088.600  .95037E+02
 1089.300  .95214E+02
 1089.900  .94217E+02
 1090.500  .92717E+02
 1091.100  .92593E+02
 1091.700  .92908E+02
 1092.400  .92203E+02
 1093.000  .91920E+02
 1093.600  .95920E+02
 1094.200  .93875E+02
 1094.800  .91983E+02
 1095.500  .93326E+02
 1096.100  .91904E+02
 1096.700  .92030E+02
 1097.300  .91553E+02
 1097.900  .93075E+02
 1098.600  .91439E+02
 1099.200  .90611E+02
 1099.800  .90799E+02
 1100.400  .87642E+02
 1101.000  .89773E+02
 1101.700  .91860E+02
 1102.300  .87638E+02
 1102.900  .88656E+02
 1103.500  .88522E+02
 1104.100  .85406E+02
 1104.800  .86374E+02
 1105.400  .86527E+02
 1106.000  .85714E+02
 1106.600  .84739E+02
 1107.200  .88177E+02
 1107.900  .84603E+02
 1108.500  .86078E+02
 1109.100  .84257E+02
 1109.700  .84019E+02
 1110.300  .81934E+02
 1111.000  .84236E+02
 1111.600  .83445E+02
 1112.200  .82782E+02
 1112.800  .82540E+02
 1113.400  .83145E+02
 1114.100  .80015E+02
 1114.700  .80259E+02
 1115.300  .82006E+02
 1115.900  .81500E+02
 1116.500  .80011E+02
 1117.200  .78434E+02
 1117.800  .80219E+02
 1118.400  .78920E+02
 1119.000  .76830E+02
 1119.600  .74769E+02
 1120.200  .76096E+02
 1120.900  .74503E+02
 1121.500  .74710E+02
 1122.100  .74686E+02
 1122.700  .74926E+02
 1123.300  .73280E+02
 1124.000  .72106E+02
 1124.600  .75098E+02
 1125.200  .71752E+02
 1125.800  .71824E+02
 1126.400  .71396E+02
 1127.000  .71168E+02
 1127.700  .71818E+02
 1128.300  .68752E+02
 1128.900  .69656E+02
 1129.500  .66113E+02
 1130.100  .68924E+02
 1130.800  .68267E+02
 1131.400  .66523E+02
 1132.000  .65817E+02
 1132.600  .65680E+02
 1133.200  .66015E+02
 1133.800  .64464E+02
 1134.500  .65820E+02
 1135.100  .64704E+02
 1135.700  .62436E+02
 1136.300  .61077E+02
 1136.900  .62696E+02
 1137.500  .60453E+02
 1138.200  .60489E+02
 1138.800  .60753E+02
 1139.400  .61119E+02
 1140.000  .58491E+02
 1140.600  .58412E+02
 1141.300  .57457E+02
 1141.900  .56933E+02
 1142.500  .57126E+02
 1143.100  .57730E+02
 1143.700  .55185E+02
 1144.300  .55616E+02
 1145.000  .55989E+02
 1145.600  .52266E+02
 1146.200  .55137E+02
 1146.800  .53780E+02
 1147.400  .52834E+02
 1148.000  .52265E+02
 1148.700  .51911E+02
 1149.300  .51859E+02
 1149.900  .50457E+02
 1150.500  .48360E+02
 1151.100  .49135E+02
 1151.700  .49010E+02
 1152.400  .47643E+02
 1153.000  .48454E+02
 1153.600  .48675E+02
 1154.200  .47156E+02
 1154.800  .45912E+02
 1155.400  .47039E+02
 1156.000  .44745E+02
 1156.700  .42593E+02
 1157.300  .44630E+02
 1157.900  .42922E+02
 1158.500  .42508E+02
 1159.100  .42163E+02
 1159.700  .42872E+02
 1160.400  .41654E+02
 1161.000  .40604E+02
 1161.600  .42617E+02
 1162.200  .40824E+02
 1162.800  .40157E+02
 1163.400  .39066E+02
 1164.000  .37795E+02
 1164.700  .39042E+02
 1165.300  .37094E+02
 1165.900  .36492E+02
 1166.500  .37664E+02
 1167.100  .36172E+02
 1167.700  .35851E+02
 1168.400  .34680E+02
 1169.000  .35035E+02
 1169.600  .29643E+02
 1170.200  .33995E+02
 1170.800  .34243E+02
 1171.400  .31878E+02
 1172.000  .31837E+02
 1172.700  .31837E+02
 1173.300  .31042E+02
 1173.900  .29742E+02
 1174.500  .30958E+02
 1175.100  .30556E+02
 1175.700  .29432E+02
 1176.300  .29028E+02
 1177.000  .28158E+02
 1177.600  .28330E+02
 1178.200  .28827E+02
 1178.800  .26682E+02
 1179.400  .26345E+02
 1180.000  .25064E+02
 1180.600  .23926E+02
 1181.300  .23917E+02
 1181.900  .24231E+02
 1182.500  .24073E+02
 1183.100  .23111E+02
 1183.700  .23718E+02
 1184.300  .23850E+02
 1184.900  .21496E+02
 1185.600  .22472E+02
 1186.200  .21981E+02
 1186.800  .19948E+02
 1187.400  .21216E+02
 1188.000  .19215E+02
 1188.600  .20264E+02
 1189.200  .20688E+02
 1189.800  .18018E+02
 1190.500  .18297E+02
 1191.100  .17724E+02
 1191.700  .17038E+02
 1192.300  .18017E+02
 1192.900  .17479E+02
 1193.500  .16829E+02
 1194.100  .16325E+02
 1194.800  .16307E+02
 1195.400  .15579E+02
 1196.000  .15408E+02
 1196.600  .13524E+02
 1197.200  .13947E+02
 1197.800  .14781E+02
 1198.400  .13526E+02
 1199.000  .13614E+02
 1199.700  .15014E+02
 1200.300  .12818E+02
 1200.900  .12531E+02
 1201.500  .12355E+02
 1202.100  .12217E+02
 1202.700  .10274E+02
 1203.300  .99453E+01
 1203.900  .10595E+02
 1204.600  .10985E+02
 1205.200  .80513E+01
 1205.800  .11913E+02
 1206.400  .93152E+01
 1207.000  .89838E+01
 1207.600  .96367E+01
 1208.200  .68022E+01
 1208.800  .76820E+01
 1209.500  .80329E+01
 1210.100  .68620E+01
 1210.700  .67166E+01
 1211.300  .67234E+01
 1211.900  .85988E+01
 1212.500  .63552E+01
 1213.100  .76606E+01
 1213.700  .67122E+01
 1214.300  .54559E+01
 1215.000  .45045E+01
 1215.600  .57748E+01
 1216.200  .42068E+01
 1216.800  .50949E+01
 1217.400  .47541E+01
 1218.000  .36812E+01
 1218.600  .52648E+01
 1219.200  .38048E+01
 1219.800  .13771E+01
 1220.500  .52432E+01
 1221.100  .26574E+01
 1221.700  .40927E+01
 1222.300  .38258E+01
 1222.900  .40237E+01
 1223.500  .37175E+01
 1224.100  .18954E+01
 1224.700  .37643E+01
 1225.300  .34180E+01
 1226.000  .18248E+01
 1226.600  .16710E+01
 1227.200  .34687E+01
 1227.800  .18315E+01
 1228.400  .73880E+00
 1229.000  .24623E+01
 1229.600  .33662E+01
 1230.200  .23111E+01
 1230.800  .94008E+00
 1231.400  .15584E+00
 1232.100  .66792E+00
 1232.700  .74784E+00
 1233.300  .10643E+01
 1233.900  .11841E+01
 1234.500  .19357E+01
 1235.100  .15430E+01
 1235.700  .63556E+00
 1236.300  .51800E+00
 1236.900 -.11470E+00
 1237.500  .34143E+01
 1238.200  .13548E+01
 1238.800 -.33705E-01
 1239.400  .48373E+00
 1240.000  .14000E+01
 1240.600  .10833E+01
 1241.200 -.78890E+00
 1241.800 -.31019E+00
 1242.400  .52883E+00
 1243.000 -.29735E-01
 1243.600  .45095E+00
 1244.200  .11728E+01
 1244.900 -.90985E+00
 1245.500  .16177E+01
 1246.100 -.87011E+00
 1246.700  .35512E+01
 1247.300  .16641E+01
 1247.900  .55502E-01
 1248.500  .16280E+01
 1249.100  .14687E+01
 1249.700 -.14441E+00
 1250.300  .66429E+00
 1250.900  .99221E-01
 1251.600  .26199E+00
 1252.200 -.14243E+00
 1252.800 -.42588E+00
 1253.400 -.70983E+00
 1254.000  .20532E+01
 1254.600 -.18893E+01
 1255.200 -.17903E-01
 1255.800 -.22102E+00
 1256.400  .18999E+01
 1257.000 -.17938E+00
 1257.600  .13325E+01
 1258.200 -.42379E+00
 1258.900 -.96081E-01
 1259.500  .31410E+00
 1260.100 -.18171E+01
 1260.700  .48003E+00
 1261.300 -.15316E+01
 1261.900 -.17566E+00
 1262.500  .68889E+00
 1263.100 -.25710E+00
 1263.700  .48524E+00
 1264.300 -.46260E+00
 1264.900 -.37981E+00
 1265.500 -.16607E+01
 1266.100  .34408E-01
 1266.800 -.22422E+01
 1267.400  .12377E+01
 1268.000 -.46491E-01
 1268.600 -.22463E+01
 1269.200 -.41931E+00
 1269.800 -.79336E+00
 1270.400 -.33555E+00
 1271.000 -.25189E+00
 1271.600 -.10021E+01
 1272.200  .13349E+01
 1272.800 -.17127E+01
 1273.400 -.45932E+00
 1274.000  .16858E+00
 1274.600  .54630E+00
 1275.300  .71528E+00
 1275.900  .75850E+00
 1276.500 -.14661E+01
 1277.100  .13056E+00
 1277.700 -.20527E+00
 1278.300 -.16271E+00
 1278.900 -.96297E+00
 1279.500  .49171E-01
 1280.100 -.66786E+00
 1280.700  .13504E+00
 1281.300  .22037E+00
 1281.900 -.75105E-01
 1282.500  .10191E-01
 1283.100  .47726E+00
 1283.700  .60562E+00
 1284.400 -.10073E+01
 1285.000  .22547E+00
 1285.600 -.45459E+00
 1286.200  .82343E+00
 1286.800  .27060E+00
 1287.400 -.32586E+00
 1288.000  .35775E+00
 1288.600  .95706E+00
 1289.200 -.25348E-01
 1289.800 -.79538E+00
 1290.400 -.32407E+00
 1291.000  .23353E+01
 1291.600  .19176E+00
 1292.200  .75107E+00
 1292.800  .13543E+01
 1293.400  .10119E+01
 1294.000 -.10110E+01
 1294.600 -.10113E+01
 1295.300  .11893E+01
 1295.900 -.13141E+01
 1296.500 -.32034E+00
 1297.100 -.19208E+01
 1297.700 -.10990E+01
 1298.300  .54755E+00
 1298.900  .28842E+00
 1299.500 -.57989E-01
 1300.100  .98542E+00
 1300.700  .17262E+01
 1301.300  .33554E+00
 1301.900 -.99146E-01
 1302.500 -.40378E+00
 1303.100  .16911E+01
 1303.700  .73236E+00
 1304.300 -.35914E+00
 1304.900  .10412E+01
 1305.500  .95513E+00
 1306.100  .25543E+00
 1306.700  .13090E+01
 1307.300 -.62134E-02
 1308.000 -.70852E+00
 1308.600  .24141E+01
 1309.200  .83217E+00
 1309.800  .11419E+01
 1310.400  .70263E+00
 1311.000 -.90429E-01
 1311.600  .11468E+01
 1312.200  .17596E+00
 1312.800  .29197E+01
 1313.400 -.44232E+00
 1314.000  .11090E+01
 1314.600  .39937E+01
 1315.200  .11123E+01
 1315.800 -.66331E+00
 1316.400  .10265E+01
 1317.000  .19627E+01
 1317.600  .94214E-01
 1318.200  .29035E+01
 1318.800  .76496E+00
 1319.400  .20613E+01
 1320.000  .41006E+00
 1320.600  .10373E+01
 1321.200  .13970E+01
 1321.800 -.75184E+00
 1322.400  .13110E+01
 1323.000  .18962E+01
 1323.600  .24375E+01
 1324.300  .26205E+01
 1324.900  .19034E+01
 1325.500  .32568E+01
 1326.100  .20432E+01
 1326.700  .29027E+01
 1327.300  .11901E+01
 1327.900  .25926E+01
 1328.500  .60546E+00
 1329.100  .24625E+01
 1329.700  .20009E+00
 1330.300  .18786E+01
 1330.900  .12001E+01
 1331.500  .22010E+01
 1332.100  .42036E+01
 1332.700  .18876E+01
 1333.300  .20264E+01
 1333.900  .16187E+01
 1334.500  .32170E+01
 1335.100  .18966E+01
 1335.700  .28582E+01
 1336.300  .11696E+01
 1336.900  .34593E+01
 1337.500  .24095E+01
 1338.100  .19538E+01
 1338.700  .31947E+01
 1339.300  .25553E+01
 1339.900  .36149E+01
 1340.500  .17331E+01
 1341.100  .45429E+01
 1341.700  .29811E+01
 1342.300  .22466E+01
 1342.900  .50177E+01
 1343.500  .18823E+01
 1344.100  .23005E+01
 1344.700  .23956E+01
 1345.300  .82429E+00
 1345.900  .11037E+01
 1346.500  .13371E+01
 1347.100  .34737E+01
 1347.700  .18516E+01
 1348.300  .41782E+01
 1348.900  .32518E+01
 1349.500  .34414E+01
 1350.100  .44236E+01
 1350.700  .55473E+01
 1351.300  .41989E+01
 1351.900  .24278E+01
 1352.500  .42072E+01
 1353.100  .20589E+01
 1353.700  .34194E+01
 1354.300  .33292E+01
 1354.900  .49275E+01
 1355.500  .36177E+01
 1356.100  .47960E+01
 1356.700  .18852E+01
 1357.300  .32052E+01
 1357.900  .48571E+01
 1358.500  .34475E+01
 1359.100  .32624E+01
 1359.700  .43045E+01
 1360.300  .42615E+01
 1360.900  .42657E+01
 1361.500  .53585E+01
 1362.100  .32319E+01
 1362.700  .32352E+01
 1363.300  .44248E+01
 1363.900  .61387E+01
 1364.500  .42433E+01
 1365.100  .48183E+01
 1365.700  .35376E+01
 1366.300  .64951E+01
 1366.900  .35448E+01
 1367.500  .68888E+01
 1368.100  .32177E+01
 1368.700  .32688E+01
 1369.300  .35114E+01
 1369.900  .58130E+01
 1370.500  .44289E+01
 1371.100  .32823E+01
 1371.700  .59253E+01
 1372.300  .28568E+01
 1372.900  .43020E+01
 1373.500  .46429E+01
 1374.100  .69585E+01
 1374.700  .73022E+01
 1375.300  .61031E+01
 1375.900  .44195E+01
 1376.500  .62594E+01
 1377.100  .55400E+01
 1377.700  .66580E+01
 1378.300  .47757E+01
 1378.900  .52648E+01
 1379.500  .60458E+01
 1380.100  .50806E+01
 1380.700  .45511E+01
 1381.300  .49931E+01
 1381.900  .52411E+01
 1382.500  .83625E+01
 1383.100  .61769E+01
 1383.700  .59387E+01
 1384.300  .63347E+01
 1384.900  .62917E+01
 1385.500  .73731E+01
 1386.100  .57650E+01
 1386.700  .45951E+01
 1387.300  .52857E+01
 1387.900  .72526E+01
 1388.500  .67682E+01
 1389.100  .62831E+01
 1389.700  .48139E+01
 1390.300  .81152E+01
 1390.900  .73346E+01
 1391.500  .81297E+01
 1392.100  .91234E+01
 1392.700  .67620E+01
 1393.300  .66694E+01
 1393.900  .75654E+01
 1394.500  .64341E+01
 1395.100  .77770E+01
 1395.700  .85273E+01
 1396.300  .64517E+01
 1396.900  .84928E+01
 1397.500  .57183E+01
 1398.100  .63202E+01
 1398.700  .82167E+01
 1399.300  .68297E+01
 1399.900  .65867E+01
 1400.500  .73907E+01
 1401.100  .69480E+01
 1401.700  .86028E+01
 1402.300  .10160E+02
 1402.800  .79163E+01
 1403.400  .80235E+01
 1404.000  .79304E+01
 1404.600  .78873E+01
 1405.200  .72920E+01
 1405.800  .87551E+01
 1406.400  .60484E+01
 1407.000  .91226E+01
 1407.600  .11245E+02
 1408.200  .77277E+01
 1408.800  .80875E+01
 1409.400  .94572E+01
 1410.000  .79503E+01
 1410.600  .91704E+01
 1411.200  .10241E+02
 1411.800  .64527E+01
 1412.400  .10157E+02
 1413.000  .75291E+01
 1413.600  .10276E+02
 1414.200  .74409E+01
 1414.800  .88706E+01
 1415.400  .97430E+01
 1416.000  .74608E+01
 1416.600  .93523E+01
 1417.200  .11400E+02
 1417.800  .74806E+01
 1418.400  .81000E+01
 1419.000  .80560E+01
 1419.500  .10312E+02
 1420.100  .12163E+02
 1420.700  .10842E+02
 1421.300  .10646E+02
 1421.900  .83467E+01
 1422.500  .90214E+01
 1423.100  .90292E+01
 1423.700  .10477E+02
 1424.300  .10434E+02
 1424.900  .10598E+02
 1425.500  .11328E+02
 1426.100  .97904E+01
 1426.700  .10986E+02
 1427.300  .10634E+02
 1427.900  .10488E+02
 1428.500  .96171E+01
 1429.100  .96771E+01
 1429.700  .10929E+02
 1430.300  .13843E+02
 1430.900  .12764E+02
 1431.500  .96584E+01
