  124.500  .31167E+01
  125.200  .30622E+01
  125.900  .30095E+01
  126.600  .30045E+01
  127.300  .29900E+01
  128.000  .30053E+01
  128.600  .29948E+01
  129.300  .30933E+01
  130.000  .31540E+01
  130.700  .31657E+01
  131.400  .31925E+01
  132.100  .32666E+01
  132.800  .32711E+01
  133.500  .32326E+01
  134.200  .31731E+01
  134.900  .32056E+01
  135.600  .31980E+01
  136.300  .32223E+01
  136.900  .32043E+01
  137.600  .32473E+01
  138.300  .33727E+01
  139.000  .34500E+01
  139.700  .35716E+01
  140.400  .35829E+01
  141.100  .35710E+01
  141.800  .35866E+01
  142.500  .35285E+01
  143.200  .34976E+01
  143.900  .35293E+01
  144.500  .35065E+01
  145.200  .35131E+01
  145.900  .35469E+01
  146.600  .35536E+01
  147.300  .36485E+01
  148.000  .36868E+01
  148.700  .36746E+01
  149.400  .36642E+01
  150.100  .36350E+01
  150.800  .37334E+01
  151.500  .36975E+01
  152.100  .37632E+01
  152.800  .38165E+01
  153.500  .38594E+01
  154.200  .38700E+01
  154.900  .39504E+01
  155.600  .40234E+01
  156.300  .39817E+01
  157.000  .40017E+01
  157.700  .40109E+01
  158.400  .39866E+01
  159.000  .39784E+01
  159.700  .40096E+01
  160.400  .39230E+01
  161.100  .40181E+01
  161.800  .40364E+01
  162.500  .41234E+01
  163.200  .41443E+01
  163.900  .42197E+01
  164.600  .41633E+01
  165.200  .42420E+01
  165.900  .42621E+01
  166.600  .42804E+01
  167.300  .42770E+01
  168.000  .43013E+01
  168.700  .42849E+01
  169.400  .43589E+01
  170.100  .44428E+01
  170.800  .44575E+01
  171.400  .45586E+01
  172.100  .45169E+01
  172.800  .44903E+01
  173.500  .45274E+01
  174.200  .45455E+01
  174.900  .45671E+01
  175.600  .46334E+01
  176.300  .45690E+01
  177.000  .46123E+01
  177.600  .46814E+01
  178.300  .47172E+01
  179.000  .47898E+01
  179.700  .47395E+01
  180.400  .48339E+01
  181.100  .48141E+01
  181.800  .48210E+01
  182.500  .48560E+01
  183.100  .48688E+01
  183.800  .49608E+01
  184.500  .49402E+01
  185.200  .50264E+01
  185.900  .50239E+01
  186.600  .51013E+01
  187.300  .51584E+01
  188.000  .51736E+01
  188.600  .51254E+01
  189.300  .51020E+01
  190.000  .52291E+01
  190.700  .51846E+01
  191.400  .52694E+01
  192.100  .52899E+01
  192.800  .53188E+01
  193.500  .53722E+01
  194.100  .53347E+01
  194.800  .54205E+01
  195.500  .55486E+01
  196.200  .55289E+01
  196.900  .56024E+01
  197.600  .55531E+01
  198.300  .56595E+01
  199.000  .56981E+01
  199.600  .57188E+01
  200.300  .57690E+01
  201.000  .57437E+01
  201.700  .58147E+01
  202.400  .58188E+01
  203.100  .58565E+01
  203.800  .59664E+01
  204.400  .60834E+01
  205.100  .59921E+01
  205.800  .60666E+01
  206.500  .61185E+01
  207.200  .60854E+01
  207.900  .61853E+01
  208.600  .61909E+01
  209.200  .61631E+01
  209.900  .62767E+01
  210.600  .63032E+01
  211.300  .63170E+01
  212.000  .64620E+01
  212.700  .65058E+01
  213.400  .65186E+01
  214.000  .65670E+01
  214.700  .66346E+01
  215.400  .65446E+01
  216.100  .66612E+01
  216.800  .66427E+01
  217.500  .68008E+01
  218.200  .68430E+01
  218.800  .68385E+01
  219.500  .69804E+01
  220.200  .69257E+01
  220.900  .70373E+01
  221.600  .71081E+01
  222.300  .70645E+01
  222.900  .72181E+01
  223.600  .72264E+01
  224.300  .73469E+01
  225.000  .71487E+01
  225.700  .73603E+01
  226.400  .73287E+01
  227.100  .74615E+01
  227.700  .74862E+01
  228.400  .75334E+01
  229.100  .75719E+01
  229.800  .76224E+01
  230.500  .78009E+01
  231.200  .78495E+01
  231.800  .77959E+01
  232.500  .79314E+01
  233.200  .79112E+01
  233.900  .80420E+01
  234.600  .80556E+01
  235.300  .80861E+01
  235.900  .81903E+01
  236.600  .82402E+01
  237.300  .81819E+01
  238.000  .84477E+01
  238.700  .84616E+01
  239.400  .84202E+01
  240.000  .84770E+01
  240.700  .86309E+01
  241.400  .86824E+01
  242.100  .86911E+01
  242.800  .88626E+01
  243.500  .87894E+01
  244.100  .88327E+01
  244.800  .88796E+01
  245.500  .89419E+01
  246.200  .91363E+01
  246.900  .91156E+01
  247.600  .91307E+01
  248.200  .92252E+01
  248.900  .91860E+01
  249.600  .95344E+01
  250.300  .94655E+01
  251.000  .95181E+01
  251.700  .95279E+01
  252.300  .96110E+01
  253.000  .97650E+01
  253.700  .96825E+01
  254.400  .98852E+01
  255.100  .97246E+01
  255.700  .99987E+01
  256.400  .10094E+02
  257.100  .10065E+02
  257.800  .10117E+02
  258.500  .10234E+02
  259.200  .10382E+02
  259.800  .10386E+02
  260.500  .10525E+02
  261.200  .10449E+02
  261.900  .10613E+02
  262.600  .10805E+02
  263.200  .10864E+02
  263.900  .10915E+02
  264.600  .10906E+02
  265.300  .10910E+02
  266.000  .10993E+02
  266.700  .11134E+02
  267.300  .11186E+02
  268.000  .11416E+02
  268.700  .11296E+02
  269.400  .11353E+02
  270.100  .11475E+02
  270.700  .11701E+02
  271.400  .11688E+02
  272.100  .11727E+02
  272.800  .11948E+02
  273.500  .11843E+02
  274.100  .11825E+02
  274.800  .12277E+02
  275.500  .12239E+02
  276.200  .12348E+02
  276.900  .12343E+02
  277.500  .12504E+02
  278.200  .12474E+02
  278.900  .12700E+02
  279.600  .12681E+02
  280.300  .12795E+02
  280.900  .12945E+02
  281.600  .12891E+02
  282.300  .13118E+02
  283.000  .13162E+02
  283.700  .13323E+02
  284.300  .13380E+02
  285.000  .13290E+02
  285.700  .13554E+02
  286.400  .13461E+02
  287.100  .13496E+02
  287.700  .13654E+02
  288.400  .13746E+02
  289.100  .13807E+02
  289.800  .13899E+02
  290.500  .13866E+02
  291.100  .13938E+02
  291.800  .14350E+02
  292.500  .14202E+02
  293.200  .14510E+02
  293.900  .14502E+02
  294.500  .14522E+02
  295.200  .14507E+02
  295.900  .14737E+02
  296.600  .14808E+02
  297.300  .15043E+02
  297.900  .15067E+02
  298.600  .15144E+02
  299.300  .15377E+02
  300.000  .15270E+02
  300.600  .15361E+02
  301.300  .15485E+02
  302.000  .15528E+02
  302.700  .15533E+02
  303.400  .15694E+02
  304.000  .15954E+02
  304.700  .16030E+02
  305.400  .15891E+02
  306.100  .16139E+02
  306.800  .16238E+02
  307.400  .16320E+02
  308.100  .16306E+02
  308.800  .16776E+02
  309.500  .16701E+02
  310.100  .16758E+02
  310.800  .16822E+02
  311.500  .17189E+02
  312.200  .17092E+02
  312.900  .17047E+02
  313.500  .17271E+02
  314.200  .17438E+02
  314.900  .17407E+02
  315.600  .17623E+02
  316.200  .17681E+02
  316.900  .17761E+02
  317.600  .17906E+02
  318.300  .17874E+02
  318.900  .18205E+02
  319.600  .18218E+02
  320.300  .18357E+02
  321.000  .18436E+02
  321.700  .18784E+02
  322.300  .18747E+02
  323.000  .19199E+02
  323.700  .18937E+02
  324.400  .19085E+02
  325.000  .18976E+02
  325.700  .19337E+02
  326.400  .19129E+02
  327.100  .19424E+02
  327.700  .19668E+02
  328.400  .19712E+02
  329.100  .19503E+02
  329.800  .20012E+02
  330.500  .19700E+02
  331.100  .19912E+02
  331.800  .19955E+02
  332.500  .20112E+02
  333.200  .20103E+02
  333.800  .20634E+02
  334.500  .20526E+02
  335.200  .20336E+02
  335.900  .20677E+02
  336.500  .20750E+02
  337.200  .20956E+02
  337.900  .20972E+02
  338.600  .21124E+02
  339.200  .21192E+02
  339.900  .21163E+02
  340.600  .21439E+02
  341.300  .21555E+02
  341.900  .21579E+02
  342.600  .21604E+02
  343.300  .21518E+02
  344.000  .21847E+02
  344.600  .22035E+02
  345.300  .22117E+02
  346.000  .22126E+02
  346.700  .22331E+02
  347.300  .22528E+02
  348.000  .22974E+02
  348.700  .22535E+02
  349.400  .22946E+02
  350.000  .23028E+02
  350.700  .23108E+02
  351.400  .23193E+02
  352.100  .23624E+02
  352.700  .23483E+02
  353.400  .23876E+02
  354.100  .23625E+02
  354.800  .23923E+02
  355.400  .23913E+02
  356.100  .24086E+02
  356.800  .24053E+02
  357.500  .24705E+02
  358.100  .24606E+02
  358.800  .24698E+02
  359.500  .24617E+02
  360.200  .24852E+02
  360.800  .25089E+02
  361.500  .25366E+02
  362.200  .25499E+02
  362.800  .25583E+02
  363.500  .25811E+02
  364.200  .25865E+02
  364.900  .25816E+02
  365.500  .26277E+02
  366.200  .26191E+02
  366.900  .26412E+02
  367.600  .26366E+02
  368.200  .26822E+02
  368.900  .26768E+02
  369.600  .26740E+02
  370.300  .27117E+02
  370.900  .27284E+02
  371.600  .27427E+02
  372.300  .27402E+02
  372.900  .27332E+02
  373.600  .27958E+02
  374.300  .27902E+02
  375.000  .28013E+02
  375.600  .27989E+02
  376.300  .28388E+02
  377.000  .28304E+02
  377.700  .28593E+02
  378.300  .28671E+02
  379.000  .28823E+02
  379.700  .29242E+02
  380.300  .29178E+02
  381.000  .29484E+02
  381.700  .29309E+02
  382.400  .29278E+02
  383.000  .30287E+02
  383.700  .29803E+02
  384.400  .30493E+02
  385.000  .30011E+02
  385.700  .30729E+02
  386.400  .30637E+02
  387.100  .30858E+02
  387.700  .30630E+02
  388.400  .31100E+02
  389.100  .31315E+02
  389.800  .31589E+02
  390.400  .32109E+02
  391.100  .32176E+02
  391.800  .31786E+02
  392.400  .32099E+02
  393.100  .32535E+02
  393.800  .32427E+02
  394.500  .32643E+02
  395.100  .32973E+02
  395.800  .33144E+02
  396.500  .33000E+02
  397.100  .33281E+02
  397.800  .33892E+02
  398.500  .33324E+02
  399.100  .33765E+02
  399.800  .34105E+02
  400.500  .34456E+02
  401.200  .34044E+02
  401.800  .34846E+02
  402.500  .34773E+02
  403.200  .34892E+02
  403.800  .35640E+02
  404.500  .34988E+02
  405.200  .35220E+02
  405.900  .35987E+02
  406.500  .36256E+02
  407.200  .36200E+02
  407.900  .36496E+02
  408.500  .36557E+02
  409.200  .36721E+02
  409.900  .36923E+02
  410.500  .37256E+02
  411.200  .37121E+02
  411.900  .37189E+02
  412.600  .37739E+02
  413.200  .37786E+02
  413.900  .37832E+02
  414.600  .38519E+02
  415.200  .38705E+02
  415.900  .38761E+02
  416.600  .38823E+02
  417.200  .38928E+02
  417.900  .39052E+02
  418.600  .39161E+02
  419.200  .39730E+02
  419.900  .39928E+02
  420.600  .40121E+02
  421.300  .40374E+02
  421.900  .40546E+02
  422.600  .40991E+02
  423.300  .41070E+02
  423.900  .41515E+02
  424.600  .41496E+02
  425.300  .41715E+02
  425.900  .42025E+02
  426.600  .42280E+02
  427.300  .42896E+02
  427.900  .42679E+02
  428.600  .43208E+02
  429.300  .43689E+02
  430.000  .44178E+02
  430.600  .43955E+02
  431.300  .43728E+02
  432.000  .44439E+02
  432.600  .44202E+02
  433.300  .44466E+02
  434.000  .44890E+02
  434.600  .45446E+02
  435.300  .45792E+02
  436.000  .45806E+02
  436.600  .46186E+02
  437.300  .46190E+02
  438.000  .46854E+02
  438.600  .46891E+02
  439.300  .47027E+02
  440.000  .47549E+02
  440.600  .47300E+02
  441.300  .47666E+02
  442.000  .48337E+02
  442.600  .49065E+02
  443.300  .48616E+02
  444.000  .49359E+02
  444.600  .49479E+02
  445.300  .49632E+02
  446.000  .50181E+02
  446.600  .50826E+02
  447.300  .50517E+02
  448.000  .50277E+02
  448.600  .50794E+02
  449.300  .51489E+02
  450.000  .51260E+02
  450.600  .51765E+02
  451.300  .51306E+02
  452.000  .51846E+02
  452.600  .52289E+02
  453.300  .51881E+02
  454.000  .53167E+02
  454.600  .52714E+02
  455.300  .53449E+02
  456.000  .53372E+02
  456.600  .53749E+02
  457.300  .54303E+02
  458.000  .54037E+02
  458.600  .54365E+02
  459.300  .54844E+02
  460.000  .55843E+02
  460.600  .55391E+02
  461.300  .55358E+02
  462.000  .55197E+02
  462.600  .56433E+02
  463.300  .55244E+02
  464.000  .55648E+02
  464.600  .56894E+02
  465.300  .56272E+02
  466.000  .56703E+02
  466.600  .56657E+02
  467.300  .56378E+02
  468.000  .57681E+02
  468.600  .57193E+02
  469.300  .57983E+02
  470.000  .57677E+02
  470.600  .58358E+02
  471.300  .57730E+02
  472.000  .58613E+02
  472.600  .58753E+02
  473.300  .59276E+02
  474.000  .58525E+02
  474.600  .59308E+02
  475.300  .59386E+02
  475.900  .60162E+02
  476.600  .59878E+02
  477.300  .60767E+02
  477.900  .60254E+02
  478.600  .60432E+02
  479.300  .61316E+02
  479.900  .61285E+02
  480.600  .61360E+02
  481.300  .61937E+02
  481.900  .61502E+02
  482.600  .61942E+02
  483.300  .62124E+02
  483.900  .61818E+02
  484.600  .62343E+02
  485.200  .62290E+02
  485.900  .62638E+02
  486.600  .62705E+02
  487.200  .63250E+02
  487.900  .62775E+02
  488.600  .63301E+02
  489.200  .63427E+02
  489.900  .63910E+02
  490.600  .63586E+02
  491.200  .64033E+02
  491.900  .63824E+02
  492.500  .64365E+02
  493.200  .63944E+02
  493.900  .64002E+02
  494.500  .64267E+02
  495.200  .63760E+02
  495.900  .64316E+02
  496.500  .63868E+02
  497.200  .64144E+02
  497.900  .63508E+02
  498.500  .63382E+02
  499.200  .63084E+02
  499.800  .63118E+02
  500.500  .63270E+02
  501.200  .62763E+02
  501.800  .62802E+02
  502.500  .62761E+02
  503.200  .61657E+02
  503.800  .61905E+02
  504.500  .61694E+02
  505.100  .61024E+02
  505.800  .61203E+02
  506.500  .60591E+02
  507.100  .60524E+02
  507.800  .59711E+02
  508.500  .59578E+02
  509.100  .59612E+02
  509.800  .58894E+02
  510.400  .57967E+02
  511.100  .57551E+02
  511.800  .57386E+02
  512.400  .56469E+02
  513.100  .57011E+02
  513.800  .56015E+02
  514.400  .56230E+02
  515.100  .55713E+02
  515.700  .54146E+02
  516.400  .54276E+02
  517.100  .53951E+02
  517.700  .53228E+02
  518.400  .52433E+02
  519.000  .51797E+02
  519.700  .51401E+02
  520.400  .50660E+02
  521.000  .50248E+02
  521.700  .50102E+02
  522.400  .49579E+02
  523.000  .49072E+02
  523.700  .48298E+02
  524.300  .48652E+02
  525.000  .48141E+02
  525.700  .47887E+02
  526.300  .47211E+02
  527.000  .46968E+02
  527.600  .46361E+02
  528.300  .45602E+02
  529.000  .46166E+02
  529.600  .45030E+02
  530.300  .44450E+02
  530.900  .44801E+02
  531.600  .44217E+02
  532.300  .44072E+02
  532.900  .43460E+02
  533.600  .43564E+02
  534.200  .42986E+02
  534.900  .43012E+02
  535.600  .42683E+02
  536.200  .42174E+02
  536.900  .42198E+02
  537.500  .41864E+02
  538.200  .41722E+02
  538.900  .41634E+02
  539.500  .41977E+02
  540.200  .40648E+02
  540.800  .40723E+02
  541.500  .40661E+02
  542.200  .40931E+02
  542.800  .40277E+02
  543.500  .40284E+02
  544.100  .40437E+02
  544.800  .40117E+02
  545.500  .39947E+02
  546.100  .40692E+02
  546.800  .39582E+02
  547.400  .40579E+02
  548.100  .40480E+02
  548.800  .39668E+02
  549.400  .39479E+02
  550.100  .39416E+02
  550.700  .39803E+02
  551.400  .40083E+02
  552.100  .39406E+02
  552.700  .39574E+02
  553.400  .40011E+02
  554.000  .40328E+02
  554.700  .40603E+02
  555.300  .40426E+02
  556.000  .40784E+02
  556.700  .40220E+02
  557.300  .40099E+02
  558.000  .40683E+02
  558.600  .40536E+02
  559.300  .41308E+02
  560.000  .40906E+02
  560.600  .41137E+02
  561.300  .41475E+02
  561.900  .41657E+02
  562.600  .42184E+02
  563.200  .41798E+02
  563.900  .43222E+02
  564.600  .43081E+02
  565.200  .43181E+02
  565.900  .44068E+02
  566.500  .43680E+02
  567.200  .43528E+02
  567.800  .44311E+02
  568.500  .44436E+02
  569.200  .44041E+02
  569.800  .44325E+02
  570.500  .44808E+02
  571.100  .44902E+02
  571.800  .44433E+02
  572.400  .46474E+02
  573.100  .45900E+02
  573.800  .46099E+02
  574.400  .45533E+02
  575.100  .46386E+02
  575.700  .45436E+02
  576.400  .46283E+02
  577.000  .46487E+02
  577.700  .46018E+02
  578.400  .46414E+02
  579.000  .46026E+02
  579.700  .46316E+02
  580.300  .45899E+02
  581.000  .46514E+02
  581.600  .45823E+02
  582.300  .45841E+02
  583.000  .45723E+02
  583.600  .45717E+02
  584.300  .45433E+02
  584.900  .45554E+02
  585.600  .45653E+02
  586.200  .45159E+02
  586.900  .44880E+02
  587.600  .45170E+02
  588.200  .45133E+02
  588.900  .45073E+02
  589.500  .44404E+02
  590.200  .44481E+02
  590.800  .43630E+02
  591.500  .43462E+02
  592.100  .42905E+02
  592.800  .43343E+02
  593.500  .42965E+02
  594.100  .42780E+02
  594.800  .42663E+02
  595.400  .41917E+02
  596.100  .41740E+02
  596.700  .42357E+02
  597.400  .41808E+02
  598.000  .41702E+02
  598.700  .40356E+02
  599.400  .40814E+02
  600.000  .40465E+02
  600.700  .39539E+02
  601.300  .39542E+02
  602.000  .39267E+02
  602.600  .39346E+02
  603.300  .38302E+02
  603.900  .38516E+02
  604.600  .37933E+02
  605.200  .38390E+02
  605.900  .38078E+02
  606.600  .36852E+02
  607.200  .36661E+02
  607.900  .36185E+02
  608.500  .35893E+02
  609.200  .35472E+02
  609.800  .35801E+02
  610.500  .35228E+02
  611.100  .35021E+02
  611.800  .34733E+02
  612.400  .34513E+02
  613.100  .33862E+02
  613.800  .33710E+02
  614.400  .33928E+02
  615.100  .33523E+02
  615.700  .33146E+02
  616.400  .33141E+02
  617.000  .32762E+02
  617.700  .32715E+02
  618.300  .32151E+02
  619.000  .32295E+02
  619.600  .31748E+02
  620.300  .31564E+02
  620.900  .31208E+02
  621.600  .30755E+02
  622.200  .30467E+02
  622.900  .30897E+02
  623.600  .29862E+02
  624.200  .30139E+02
  624.900  .30135E+02
  625.500  .29842E+02
  626.200  .29670E+02
  626.800  .29208E+02
  627.500  .29807E+02
  628.100  .29353E+02
  628.800  .29241E+02
  629.400  .29363E+02
  630.100  .29018E+02
  630.700  .28231E+02
  631.400  .27470E+02
  632.000  .27853E+02
  632.700  .28256E+02
  633.300  .28323E+02
  634.000  .27971E+02
  634.700  .28034E+02
  635.300  .27576E+02
  636.000  .26920E+02
  636.600  .27349E+02
  637.300  .27432E+02
  637.900  .27443E+02
  638.600  .26413E+02
  639.200  .26336E+02
  639.900  .26319E+02
  640.500  .25893E+02
  641.200  .26006E+02
  641.800  .25981E+02
  642.500  .25766E+02
  643.100  .26102E+02
  643.800  .25029E+02
  644.400  .25607E+02
  645.100  .25466E+02
  645.700  .24732E+02
  646.400  .25540E+02
  647.000  .25380E+02
  647.700  .24637E+02
  648.300  .24897E+02
  649.000  .24351E+02
  649.600  .24823E+02
  650.300  .24398E+02
  650.900  .24838E+02
  651.600  .23939E+02
  652.200  .23997E+02
  652.900  .24130E+02
  653.500  .24098E+02
  654.200  .24480E+02
  654.800  .24188E+02
  655.500  .23639E+02
  656.200  .23476E+02
  656.800  .23796E+02
  657.500  .24408E+02
  658.100  .23678E+02
  658.800  .23466E+02
  659.400  .23995E+02
  660.100  .24002E+02
  660.700  .23519E+02
  661.400  .23651E+02
  662.000  .23015E+02
  662.700  .23158E+02
  663.300  .23285E+02
  664.000  .22929E+02
  664.600  .23172E+02
  665.300  .23375E+02
  665.900  .23491E+02
  666.600  .23132E+02
  667.200  .23166E+02
  667.900  .23146E+02
  668.500  .22778E+02
  669.200  .23171E+02
  669.800  .22648E+02
  670.500  .23397E+02
  671.100  .22956E+02
  671.800  .23208E+02
  672.400  .22765E+02
  673.000  .23311E+02
  673.700  .23182E+02
  674.300  .23323E+02
  675.000  .23205E+02
  675.600  .22312E+02
  676.300  .23156E+02
  676.900  .23322E+02
  677.600  .22695E+02
  678.200  .22727E+02
  678.900  .22339E+02
  679.500  .22844E+02
  680.200  .22041E+02
  680.800  .22462E+02
  681.500  .23110E+02
  682.100  .22468E+02
  682.800  .22431E+02
  683.400  .23028E+02
  684.100  .22880E+02
  684.700  .22937E+02
  685.400  .23184E+02
  686.000  .23154E+02
  686.700  .22534E+02
  687.300  .22689E+02
  688.000  .22513E+02
  688.600  .22881E+02
  689.300  .22730E+02
  689.900  .23224E+02
  690.600  .22860E+02
  691.200  .22464E+02
  691.900  .23847E+02
  692.500  .33248E+02
  693.200  .23589E+02
  693.800  .22862E+02
  694.400  .22031E+02
  695.100  .22535E+02
  695.700  .22336E+02
  696.400  .23353E+02
  697.000  .22810E+02
  697.700  .23242E+02
  698.300  .22325E+02
  699.000  .23040E+02
  699.600  .23264E+02
  700.300  .22579E+02
  700.900  .23189E+02
  701.600  .23536E+02
  702.200  .22480E+02
  702.900  .22994E+02
  703.500  .23285E+02
  704.200  .23021E+02
  704.800  .22595E+02
  705.500  .22565E+02
  706.100  .23091E+02
  706.700  .23082E+02
  707.400  .22619E+02
  708.000  .22898E+02
  708.700  .23223E+02
  709.300  .22462E+02
  710.000  .23342E+02
  710.600  .22896E+02
  711.300  .23169E+02
  711.900  .23319E+02
  712.600  .23261E+02
  713.200  .22851E+02
  713.900  .22979E+02
  714.500  .23477E+02
  715.100  .21980E+02
  715.800  .22979E+02
  716.400  .23385E+02
  717.100  .22679E+02
  717.700  .22195E+02
  718.400  .22715E+02
  719.000  .23231E+02
  719.700  .22791E+02
  720.300  .22766E+02
  721.000  .22854E+02
  721.600  .22569E+02
  722.200  .23117E+02
  722.900  .23082E+02
  723.500  .23550E+02
  724.200  .22953E+02
  724.800  .23546E+02
  725.500  .23195E+02
  726.100  .22810E+02
  726.800  .22291E+02
  727.400  .22817E+02
  728.100  .23502E+02
  728.700  .23392E+02
  729.300  .22921E+02
  730.000  .22285E+02
  730.600  .23806E+02
  731.300  .22834E+02
  731.900  .23114E+02
  732.600  .22923E+02
  733.200  .23429E+02
  733.900  .22505E+02
  734.500  .23012E+02
  735.100  .22278E+02
  735.800  .23003E+02
  736.400  .22719E+02
  737.100  .22581E+02
  737.700  .23135E+02
  738.400  .23680E+02
  739.000  .23338E+02
  739.700  .23243E+02
  740.300  .22842E+02
  740.900  .23443E+02
  741.600  .23462E+02
  742.200  .22972E+02
  742.900  .23912E+02
  743.500  .22758E+02
  744.200  .22934E+02
  744.800  .23251E+02
  745.500  .23066E+02
  746.100  .23733E+02
  746.700  .23369E+02
  747.400  .23212E+02
  748.000  .23502E+02
  748.700  .23140E+02
  749.300  .22992E+02
  750.000  .22716E+02
  750.600  .23404E+02
  751.200  .22725E+02
  751.900  .23626E+02
  752.500  .22827E+02
  753.200  .23450E+02
  753.800  .24485E+02
  754.500  .23806E+02
  755.100  .24161E+02
  755.700  .23654E+02
  756.400  .23269E+02
  757.000  .23356E+02
  757.700  .23552E+02
  758.300  .23909E+02
  759.000  .23762E+02
  759.600  .22783E+02
  760.200  .23697E+02
  760.900  .22719E+02
  761.500  .24285E+02
  762.200  .22700E+02
  762.800  .24316E+02
  763.500  .23651E+02
  764.100  .23921E+02
  764.700  .24390E+02
  765.400  .23387E+02
  766.000  .24131E+02
  766.700  .24591E+02
  767.300  .23104E+02
  767.900  .23835E+02
  768.600  .24666E+02
  769.200  .24248E+02
  769.900  .23803E+02
  770.500  .23768E+02
  771.200  .23954E+02
  771.800  .23733E+02
  772.400  .24892E+02
  773.100  .23900E+02
  773.700  .23912E+02
  774.400  .24831E+02
  775.000  .24032E+02
  775.600  .24216E+02
  776.300  .24655E+02
  776.900  .24651E+02
  777.600  .24668E+02
  778.200  .24900E+02
  778.900  .24507E+02
  779.500  .24030E+02
  780.100  .24388E+02
  780.800  .24088E+02
  781.400  .24114E+02
  782.100  .24082E+02
  782.700  .25111E+02
  783.300  .24693E+02
  784.000  .24693E+02
  784.600  .24592E+02
  785.300  .24544E+02
  785.900  .24892E+02
  786.500  .23539E+02
  787.200  .24662E+02
  787.800  .24448E+02
  788.500  .25253E+02
  789.100  .24312E+02
  789.700  .24468E+02
  790.400  .24758E+02
  791.000  .24055E+02
  791.700  .23760E+02
  792.300  .24144E+02
  792.900  .24626E+02
  793.600  .27661E+02
  794.200  .30192E+02
  794.900  .31543E+02
  795.500  .25578E+02
  796.100  .24194E+02
  796.800  .23089E+02
  797.400  .24283E+02
  798.100  .23405E+02
  798.700  .24520E+02
  799.300  .23686E+02
  800.000  .23633E+02
  800.600  .23641E+02
  801.300  .23404E+02
  801.900  .23461E+02
  801.100  .25557E+02
  801.700  .25867E+02
  802.400  .25283E+02
  803.000  .25728E+02
  803.600  .25137E+02
  804.300  .24933E+02
  804.900  .24725E+02
  805.600  .25343E+02
  806.200  .24210E+02
  806.900  .24761E+02
  807.500  .25226E+02
  808.100  .24188E+02
  808.800  .24336E+02
  809.400  .24836E+02
  810.100  .24136E+02
  810.700  .23651E+02
  811.400  .23288E+02
  812.000  .22613E+02
  812.600  .22874E+02
  813.300  .21944E+02
  813.900  .22530E+02
  814.600  .22814E+02
  815.200  .22115E+02
  815.900  .22140E+02
  816.500  .22489E+02
  817.100  .22287E+02
  817.800  .21570E+02
  818.400  .21297E+02
  819.100  .20749E+02
  819.700  .20890E+02
  820.300  .20684E+02
  821.000  .20271E+02
  821.600  .20168E+02
  822.300  .19579E+02
  822.900  .19457E+02
  823.600  .18830E+02
  824.200  .18759E+02
  824.800  .18881E+02
  825.500  .18092E+02
  826.100  .18336E+02
  826.800  .18602E+02
  827.400  .17629E+02
  828.000  .18386E+02
  828.700  .17183E+02
  829.300  .16683E+02
  830.000  .16574E+02
  830.600  .16765E+02
  831.200  .16155E+02
  831.900  .16188E+02
  832.500  .15772E+02
  833.200  .15178E+02
  833.800  .15350E+02
  834.400  .15039E+02
  835.100  .15321E+02
  835.700  .15081E+02
  836.400  .13652E+02
  837.000  .14040E+02
  837.600  .13977E+02
  838.300  .13608E+02
  838.900  .13490E+02
  839.600  .13264E+02
  840.200  .13545E+02
  840.900  .13118E+02
  841.500  .14019E+02
  842.100  .12130E+02
  842.800  .12102E+02
  843.400  .12017E+02
  844.100  .12299E+02
  844.700  .12361E+02
  845.300  .11927E+02
  846.000  .12358E+02
  846.600  .11848E+02
  847.200  .11892E+02
  847.900  .11695E+02
  848.500  .11905E+02
  849.200  .11300E+02
  849.800  .11268E+02
  850.400  .11385E+02
  851.100  .12174E+02
  851.700  .11154E+02
  852.400  .12038E+02
  853.000  .10978E+02
  853.600  .10683E+02
  854.300  .11195E+02
  854.900  .10768E+02
  855.600  .10792E+02
  856.200  .10947E+02
  856.800  .11574E+02
  857.500  .10976E+02
  858.100  .10961E+02
  858.800  .10872E+02
  859.400  .11180E+02
  860.000  .11584E+02
  860.700  .10182E+02
  861.300  .11214E+02
  861.900  .10780E+02
  862.600  .10728E+02
  863.200  .10521E+02
  863.900  .11062E+02
  864.500  .11335E+02
  865.100  .10802E+02
  865.800  .11134E+02
  866.400  .11909E+02
  867.000  .11374E+02
  867.700  .10800E+02
  868.300  .11346E+02
  869.000  .11487E+02
  869.600  .11336E+02
  870.200  .11069E+02
  870.900  .11191E+02
  871.500  .10961E+02
  872.200  .11180E+02
  872.800  .11985E+02
  873.400  .11463E+02
  874.100  .11409E+02
  874.700  .10865E+02
  875.300  .11615E+02
  876.000  .11935E+02
  876.600  .12274E+02
  877.300  .11118E+02
  877.900  .11220E+02
  878.500  .11837E+02
  879.200  .10793E+02
  879.800  .11828E+02
  880.400  .11813E+02
  881.100  .11759E+02
  881.700  .12420E+02
  882.300  .12446E+02
  883.000  .12272E+02
  883.600  .12338E+02
  884.300  .12324E+02
  884.900  .12008E+02
  885.500  .11953E+02
  886.200  .13124E+02
  886.800  .11561E+02
  887.400  .12552E+02
  888.100  .11287E+02
  888.700  .12928E+02
  889.300  .12731E+02
  890.000  .12251E+02
  890.600  .12540E+02
  891.300  .13582E+02
  891.900  .12125E+02
  892.500  .12577E+02
  893.200  .12869E+02
  893.800  .12977E+02
  894.400  .13494E+02
  895.100  .13112E+02
  895.700  .13261E+02
  896.300  .12466E+02
  897.000  .13747E+02
  897.600  .14247E+02
  898.300  .13390E+02
  898.900  .13561E+02
  899.500  .14001E+02
  900.200  .13678E+02
  900.800  .13456E+02
  901.400  .13379E+02
  902.100  .14882E+02
  902.700  .14120E+02
  903.300  .13690E+02
  904.000  .14656E+02
  904.600  .14622E+02
  905.200  .15089E+02
  905.900  .14868E+02
  906.500  .13743E+02
  907.100  .14694E+02
  907.800  .14976E+02
  908.400  .15068E+02
  909.100  .15794E+02
  909.700  .15359E+02
  910.300  .15726E+02
  911.000  .16075E+02
  911.600  .16359E+02
  912.200  .15774E+02
  912.900  .17144E+02
  913.500  .15899E+02
  914.100  .16333E+02
  914.800  .16706E+02
  915.400  .16887E+02
  916.000  .17794E+02
  916.700  .17443E+02
  917.300  .17646E+02
  917.900  .17442E+02
  918.600  .18464E+02
  919.200  .17873E+02
  919.800  .18638E+02
  920.500  .18241E+02
  921.100  .18360E+02
  921.700  .19540E+02
  922.400  .19013E+02
  923.000  .19133E+02
  923.600  .18928E+02
  924.300  .19485E+02
  924.900  .19236E+02
  925.500  .20077E+02
  926.200  .20158E+02
  926.800  .20936E+02
  927.400  .20884E+02
  928.100  .21668E+02
  928.700  .21639E+02
  929.300  .22093E+02
  930.000  .21957E+02
  930.600  .21377E+02
  931.200  .23839E+02
  931.900  .23020E+02
  932.500  .23435E+02
  933.100  .24293E+02
  933.800  .24136E+02
  934.400  .23665E+02
  935.000  .24482E+02
  935.700  .24725E+02
  936.300  .25457E+02
  936.900  .26056E+02
  937.600  .26458E+02
  938.200  .25673E+02
  938.800  .26342E+02
  939.500  .26365E+02
  940.100  .27373E+02
  940.700  .27012E+02
  941.400  .27711E+02
  942.000  .28003E+02
  942.600  .28814E+02
  943.300  .29202E+02
  943.900  .28999E+02
  944.500  .30018E+02
  945.200  .31611E+02
  945.800  .29752E+02
  946.400  .31640E+02
  947.100  .31647E+02
  947.700  .32197E+02
  948.300  .31836E+02
  948.900  .32273E+02
  949.600  .32853E+02
  950.200  .32925E+02
  950.800  .33778E+02
  951.500  .32961E+02
  952.100  .34942E+02
  952.700  .33867E+02
  953.400  .35605E+02
  954.000  .35566E+02
  954.600  .35272E+02
  955.300  .35723E+02
  955.900  .37885E+02
  956.500  .37105E+02
  957.200  .37026E+02
  957.800  .38755E+02
  958.400  .38579E+02
  959.000  .38915E+02
  959.700  .38954E+02
  960.300  .39571E+02
  960.900  .40214E+02
  961.600  .40934E+02
  962.200  .39890E+02
  962.800  .41686E+02
  963.500  .42457E+02
  964.100  .42518E+02
  964.700  .42178E+02
  965.400  .42976E+02
  966.000  .42069E+02
  966.600  .42295E+02
  967.200  .43326E+02
  967.900  .44675E+02
  968.500  .43599E+02
  969.100  .45538E+02
  969.800  .45847E+02
  970.400  .45531E+02
  971.000  .44879E+02
  971.700  .46454E+02
  972.300  .46400E+02
  972.900  .45722E+02
  973.500  .47824E+02
  974.200  .48474E+02
  974.800  .49311E+02
  975.400  .49716E+02
  976.100  .49359E+02
  976.700  .49065E+02
  977.300  .49906E+02
  978.000  .49886E+02
  978.600  .49277E+02
  979.200  .51550E+02
  979.800  .50796E+02
  980.500  .50922E+02
  981.100  .50408E+02
  981.700  .51647E+02
  982.400  .51920E+02
  983.000  .51845E+02
  983.600  .52673E+02
  984.200  .51081E+02
  984.900  .53046E+02
  985.500  .53437E+02
  986.100  .54442E+02
  986.800  .55361E+02
  987.400  .55115E+02
  988.000  .54820E+02
  988.700  .54286E+02
  989.300  .56360E+02
  989.900  .55175E+02
  990.500  .56388E+02
  991.200  .55431E+02
  991.800  .56226E+02
  992.400  .56922E+02
  993.100  .56659E+02
  993.700  .57208E+02
  994.300  .57759E+02
  994.900  .57661E+02
  995.600  .56722E+02
  996.200  .58024E+02
  996.800  .57726E+02
  997.400  .58681E+02
  998.100  .58039E+02
  998.700  .58041E+02
  999.300  .58144E+02
 1000.000  .59238E+02
 1000.600  .59443E+02
 1001.200  .59294E+02
 1001.800  .60132E+02
 1002.500  .58777E+02
 1003.100  .59843E+02
 1003.700  .60227E+02
 1004.400  .60443E+02
 1005.000  .60064E+02
 1005.600  .60271E+02
 1006.200  .61473E+02
 1006.900  .60516E+02
 1007.500  .61592E+02
 1008.100  .62262E+02
 1008.700  .61805E+02
 1009.400  .63691E+02
 1010.000  .62876E+02
 1010.600  .61878E+02
 1011.300  .63204E+02
 1011.900  .62488E+02
 1012.500  .62389E+02
 1013.100  .64821E+02
 1013.800  .63233E+02
 1014.400  .65439E+02
 1015.000  .63657E+02
 1015.600  .65038E+02
 1016.300  .64508E+02
 1016.900  .63994E+02
 1017.500  .65899E+02
 1018.100  .65776E+02
 1018.800  .65323E+02
 1019.400  .65904E+02
 1020.000  .66800E+02
 1020.700  .65769E+02
 1021.300  .68450E+02
 1021.900  .66910E+02
 1022.500  .67916E+02
 1023.200  .69329E+02
 1023.800  .68785E+02
 1024.400  .68847E+02
 1025.000  .69067E+02
 1025.700  .70091E+02
 1026.300  .69386E+02
 1026.900  .69236E+02
 1027.500  .69696E+02
 1028.200  .69397E+02
 1028.800  .67784E+02
 1029.400  .70904E+02
 1030.000  .69929E+02
 1030.700  .71042E+02
 1031.300  .70598E+02
 1031.900  .71302E+02
 1032.500  .71794E+02
 1033.200  .70475E+02
 1033.800  .72335E+02
 1034.400  .72937E+02
 1035.000  .72410E+02
 1035.700  .74073E+02
 1036.300  .73385E+02
 1036.900  .73639E+02
 1037.500  .73624E+02
 1038.200  .74917E+02
 1038.800  .75877E+02
 1039.400  .76053E+02
 1040.000  .73761E+02
 1040.700  .75929E+02
 1041.300  .75915E+02
 1041.900  .75819E+02
 1042.500  .76268E+02
 1043.200  .78857E+02
 1043.800  .79556E+02
 1044.400  .78779E+02
 1045.000  .77317E+02
 1045.700  .79425E+02
 1046.300  .79221E+02
 1046.900  .81022E+02
 1047.500  .79610E+02
 1048.200  .80298E+02
 1048.800  .81913E+02
 1049.400  .82372E+02
 1050.000  .81369E+02
 1050.700  .80817E+02
 1051.300  .80280E+02
 1051.900  .82928E+02
 1052.500  .82531E+02
 1053.200  .83200E+02
 1053.800  .82912E+02
 1054.400  .82540E+02
 1055.000  .85567E+02
 1055.600  .84026E+02
 1056.300  .85956E+02
 1056.900  .86228E+02
 1057.500  .84934E+02
 1058.100  .86130E+02
 1058.800  .86920E+02
 1059.400  .86970E+02
 1060.000  .86625E+02
 1060.600  .89263E+02
 1061.300  .88426E+02
 1061.900  .89323E+02
 1062.500  .90419E+02
 1063.100  .89793E+02
 1063.800  .89433E+02
 1064.400  .89286E+02
 1065.000  .90244E+02
 1065.600  .90608E+02
 1066.200  .91655E+02
 1066.900  .93172E+02
 1067.500  .91546E+02
 1068.100  .90915E+02
 1068.700  .91252E+02
 1069.400  .91804E+02
 1070.000  .91198E+02
 1070.600  .92911E+02
 1071.200  .91531E+02
 1071.800  .93248E+02
 1072.500  .93660E+02
 1073.100  .93973E+02
 1073.700  .93595E+02
 1074.300  .93707E+02
 1075.000  .94554E+02
 1075.600  .93828E+02
 1076.200  .95386E+02
 1076.800  .94804E+02
 1077.400  .94569E+02
 1078.100  .94666E+02
 1078.700  .94284E+02
 1079.300  .96315E+02
 1079.900  .97855E+02
 1080.600  .96732E+02
 1081.200  .95387E+02
 1081.800  .96697E+02
 1082.400  .98010E+02
 1083.000  .95199E+02
 1083.700  .98196E+02
 1084.300  .97227E+02
 1084.900  .97136E+02
 1085.500  .97221E+02
 1086.100  .97306E+02
 1086.800  .98642E+02
 1087.400  .98993E+02
 1088.000  .97604E+02
 1088.600  .99166E+02
 1089.300  .98735E+02
 1089.900  .99887E+02
 1090.500  .97128E+02
 1091.100  .99497E+02
 1091.700  .98307E+02
 1092.400  .97930E+02
 1093.000  .97241E+02
 1093.600  .99888E+02
 1094.200  .10000E+03
 1094.800  .98419E+02
 1095.500  .98638E+02
 1096.100  .95910E+02
 1096.700  .99797E+02
 1097.300  .99073E+02
 1097.900  .98408E+02
 1098.600  .97245E+02
 1099.200  .99885E+02
 1099.800  .99520E+02
 1100.400  .98429E+02
 1101.000  .98665E+02
 1101.700  .97374E+02
 1102.300  .97548E+02
 1102.900  .95875E+02
 1103.500  .96502E+02
 1104.100  .97069E+02
 1104.800  .97925E+02
 1105.400  .94695E+02
 1106.000  .96813E+02
 1106.600  .97444E+02
 1107.200  .96977E+02
 1107.900  .94295E+02
 1108.500  .96391E+02
 1109.100  .93750E+02
 1109.700  .94809E+02
 1110.300  .94551E+02
 1111.000  .94705E+02
 1111.600  .95276E+02
 1112.200  .94556E+02
 1112.800  .92419E+02
 1113.400  .93636E+02
 1114.100  .94714E+02
 1114.700  .93650E+02
 1115.300  .93357E+02
 1115.900  .93806E+02
 1116.500  .91964E+02
 1117.200  .90750E+02
 1117.800  .92097E+02
 1118.400  .91614E+02
 1119.000  .91192E+02
 1119.600  .91827E+02
 1120.200  .90781E+02
 1120.900  .89308E+02
 1121.500  .92066E+02
 1122.100  .98331E+02
 1122.700  .94282E+02
 1123.300  .87626E+02
 1124.000  .86705E+02
 1124.600  .86649E+02
 1125.200  .86907E+02
 1125.800  .87889E+02
 1126.400  .86827E+02
 1127.000  .85478E+02
 1127.700  .84170E+02
 1128.300  .86542E+02
 1128.900  .85442E+02
 1129.500  .84529E+02
 1130.100  .85578E+02
 1130.800  .83501E+02
 1131.400  .84329E+02
 1132.000  .79915E+02
 1132.600  .82299E+02
 1133.200  .82173E+02
 1133.800  .80835E+02
 1134.500  .79345E+02
 1135.100  .80972E+02
 1135.700  .79340E+02
 1136.300  .79370E+02
 1136.900  .79111E+02
 1137.500  .77569E+02
 1138.200  .79564E+02
 1138.800  .77087E+02
 1139.400  .75827E+02
 1140.000  .74082E+02
 1140.600  .75040E+02
 1141.300  .73783E+02
 1141.900  .72547E+02
 1142.500  .76286E+02
 1143.100  .74143E+02
 1143.700  .72936E+02
 1144.300  .72309E+02
 1145.000  .72339E+02
 1145.600  .72425E+02
 1146.200  .69487E+02
 1146.800  .71459E+02
 1147.400  .68937E+02
 1148.000  .69509E+02
 1148.700  .68719E+02
 1149.300  .68376E+02
 1149.900  .69407E+02
 1150.500  .68180E+02
 1151.100  .67836E+02
 1151.700  .66441E+02
 1152.400  .65346E+02
 1153.000  .64801E+02
 1153.600  .65044E+02
 1154.200  .65057E+02
 1154.800  .64904E+02
 1155.400  .62441E+02
 1156.000  .62815E+02
 1156.700  .62535E+02
 1157.300  .62147E+02
 1157.900  .60599E+02
 1158.500  .62100E+02
 1159.100  .59951E+02
 1159.700  .59991E+02
 1160.400  .60637E+02
 1161.000  .58413E+02
 1161.600  .58319E+02
 1162.200  .57890E+02
 1162.800  .57928E+02
 1163.400  .56428E+02
 1164.000  .54758E+02
 1164.700  .54229E+02
 1165.300  .54968E+02
 1165.900  .53996E+02
 1166.500  .53694E+02
 1167.100  .54031E+02
 1167.700  .52886E+02
 1168.400  .52588E+02
 1169.000  .50562E+02
 1169.600  .51606E+02
 1170.200  .49001E+02
 1170.800  .49572E+02
 1171.400  .51125E+02
 1172.000  .51190E+02
 1172.700  .48579E+02
 1173.300  .48608E+02
 1173.900  .47922E+02
 1174.500  .46997E+02
 1175.100  .47126E+02
 1175.700  .45619E+02
 1176.300  .44552E+02
 1177.000  .46016E+02
 1177.600  .45015E+02
 1178.200  .43637E+02
 1178.800  .42564E+02
 1179.400  .43752E+02
 1180.000  .42059E+02
 1180.600  .41943E+02
 1181.300  .41315E+02
 1181.900  .40234E+02
 1182.500  .39117E+02
 1183.100  .39998E+02
 1183.700  .39327E+02
 1184.300  .36892E+02
 1184.900  .38327E+02
 1185.600  .38071E+02
 1186.200  .38124E+02
 1186.800  .36164E+02
 1187.400  .34061E+02
 1188.000  .35500E+02
 1188.600  .34958E+02
 1189.200  .32744E+02
 1189.800  .32931E+02
 1190.500  .33853E+02
 1191.100  .32155E+02
 1191.700  .31712E+02
 1192.300  .32843E+02
 1192.900  .30824E+02
 1193.500  .28555E+02
 1194.100  .30915E+02
 1194.800  .29768E+02
 1195.400  .28581E+02
 1196.000  .28132E+02
 1196.600  .28950E+02
 1197.200  .27160E+02
 1197.800  .28261E+02
 1198.400  .27351E+02
 1199.000  .26615E+02
 1199.700  .25029E+02
 1200.300  .24467E+02
 1200.900  .23868E+02
 1201.500  .22700E+02
 1202.100  .24657E+02
 1202.700  .23772E+02
 1203.300  .22102E+02
 1203.900  .22745E+02
 1204.600  .22820E+02
 1205.200  .21465E+02
 1205.800  .20859E+02
 1206.400  .20394E+02
 1207.000  .19786E+02
 1207.600  .18603E+02
 1208.200  .21686E+02
 1208.800  .19497E+02
 1209.500  .17232E+02
 1210.100  .16581E+02
 1210.700  .17730E+02
 1211.300  .17259E+02
 1211.900  .17689E+02
 1212.500  .17578E+02
 1213.100  .15623E+02
 1213.700  .15329E+02
 1214.300  .15506E+02
 1215.000  .14775E+02
 1215.600  .15241E+02
 1216.200  .14038E+02
 1216.800  .13232E+02
 1217.400  .13262E+02
 1218.000  .12854E+02
 1218.600  .13940E+02
 1219.200  .12256E+02
 1219.800  .12065E+02
 1220.500  .10704E+02
 1221.100  .11828E+02
 1221.700  .12369E+02
 1222.300  .12215E+02
 1222.900  .99322E+01
 1223.500  .11538E+02
 1224.100  .90298E+01
 1224.700  .88716E+01
 1225.300  .10812E+02
 1226.000  .95477E+01
 1226.600  .92051E+01
 1227.200  .96373E+01
 1227.800  .87766E+01
 1228.400  .80253E+01
 1229.000  .76800E+01
 1229.600  .82606E+01
 1230.200  .89164E+01
 1230.800  .76426E+01
 1231.400  .80018E+01
 1232.100  .67598E+01
 1232.700  .70444E+01
 1233.300  .79258E+01
 1233.900  .62347E+01
 1234.500  .51007E+01
 1235.100  .60574E+01
 1235.700  .62304E+01
 1236.300  .61790E+01
 1236.900  .47410E+01
 1237.500  .50632E+01
 1238.200  .60970E+01
 1238.800  .54064E+01
 1239.400  .54292E+01
 1240.000  .53767E+01
 1240.600  .57010E+01
 1241.200  .42532E+01
 1241.800  .40485E+01
 1242.400  .44103E+01
 1243.000  .35247E+01
 1243.600  .32431E+01
 1244.200  .38702E+01
 1244.900  .44200E+01
 1245.500  .37588E+01
 1246.100  .40463E+01
 1246.700  .46004E+01
 1247.300  .35570E+01
 1247.900  .36545E+01
 1248.500  .43623E+01
 1249.100  .27816E+01
 1249.700  .36044E+01
 1250.300  .21349E+01
 1250.900  .36091E+01
 1251.600  .31682E+01
 1252.200  .33426E+01
 1252.800  .31337E+01
 1253.400  .37309E+01
 1254.000  .18305E+01
 1254.600  .30817E+01
 1255.200  .29488E+01
 1255.800  .20062E+01
 1256.400  .12163E+01
 1257.000  .35139E+01
 1257.600  .23761E+01
 1258.200  .13909E+01
 1258.900  .22980E+01
 1259.500  .26674E+01
 1260.100  .25719E+01
 1260.700  .16609E+01
 1261.300  .16421E+01
 1261.900  .22455E+01
 1262.500  .13707E+01
 1263.100  .11178E+01
 1263.700  .16833E+01
 1264.300  .20157E+01
 1264.900  .78603E+00
 1265.500  .29558E+01
 1266.100  .14509E+01
 1266.800  .14677E+01
 1267.400  .19582E+01
 1268.000  .68362E+00
 1268.600  .12921E+01
 1269.200  .60441E+00
 1269.800  .11746E+01
 1270.400  .68244E+00
 1271.000  .17661E+01
 1271.600  .36624E+00
 1272.200  .81973E+00
 1272.800  .10369E+01
 1273.400  .16895E+01
 1274.000  .11953E+01
 1274.600  .38316E+00
 1275.300  .16286E+01
 1275.900  .57711E+00
 1276.500  .19077E+01
 1277.100  .16500E+01
 1277.700 -.27983E+00
 1278.300  .12926E+01
 1278.900  .22297E+01
 1279.500  .14127E+01
 1280.100  .59425E+00
 1280.700  .73376E+00
 1281.300  .67348E+00
 1281.900  .69318E+00
 1282.500  .91331E+00
 1283.100  .89313E+00
 1283.700  .29779E-01
 1284.400  .96986E+00
 1285.000  .18540E+00
 1285.600  .11307E+01
 1286.200  .38536E+00
 1286.800  .10099E+01
 1287.400  .94930E+00
 1288.000  .10502E+01
 1288.600 -.18306E+00
 1289.200  .44314E+00
 1289.800  .34134E+00
 1290.400  .11718E+01
 1291.000  .56056E-01
 1291.600 -.33060E+00
 1292.200  .94848E+00
 1292.800  .56192E+00
 1293.400  .25612E+00
 1294.000  .10908E+01
 1294.600  .49941E+00
 1295.300 -.54562E+00
 1295.900 -.77121E-01
 1296.500 -.42573E+00
 1297.100 -.36563E+00
 1297.700  .22293E-01
 1298.300  .82880E-01
 1298.900 -.55404E+00
 1299.500  .77937E+00
 1300.100 -.35133E+00
 1300.700  .53198E+00
 1301.300 -.14244E+01
 1301.900  .28374E+00
 1302.500  .17886E+01
 1303.100  .12731E+01
 1303.700  .42627E+00
 1304.300 -.75288E+00
 1304.900  .34234E+00
 1305.500  .72431E-01
 1306.100  .63124E+00
 1306.700 -.13681E+00
 1307.300  .33973E+00
 1308.000 -.15560E+01
 1308.600 -.49730E+00
 1309.200  .27171E+00
 1309.800  .10837E+01
 1310.400 -.93940E+00
 1311.000 -.25230E+00
 1311.600 -.65041E+00
 1312.200 -.33827E+00
 1312.800 -.44414E+00
 1313.400 -.50831E+00
 1314.000  .39171E+00
 1314.600  .37010E+00
 1315.200  .18183E+01
 1315.800 -.21963E+00
 1316.400  .68368E+00
 1317.000  .66225E+00
 1317.600 -.91836E+00
 1318.200 -.12364E+01
 1318.800  .21595E+01
 1319.400 -.26876E+00
 1320.000  .93507E+00
 1320.600 -.16676E+01
 1321.200  .93472E+00
 1321.800  .44707E+00
 1322.400 -.15687E+01
 1323.000  .10403E+01
 1323.600  .10190E+01
 1324.300  .44107E+00
 1324.900 -.34713E+00
 1325.500 -.10088E+01
 1326.100  .14414E+01
 1326.700 -.71370E+00
 1327.300  .97202E+00
 1327.900 -.11444E+01
 1328.500  .11595E+00
 1329.100  .99295E+00
 1329.700  .11000E+01
 1330.300 -.14095E+01
 1330.900 -.14516E+00
 1331.500 -.64039E+00
 1332.100  .66970E+00
 1332.700 -.12694E+00
 1333.300  .45348E+00
 1333.900 -.21534E+00
 1334.500  .15310E+01
 1335.100 -.18586E+01
 1335.700 -.67559E-01
 1336.300 -.39301E+00
 1336.900 -.19952E+00
 1337.500 -.16954E+01
 1338.100 -.80890E+00
 1338.700  .73010E+00
 1339.300 -.85566E+00
 1339.900 -.10095E+01
 1340.500  .27213E+00
 1341.100  .94629E+00
 1341.700  .40134E+00
 1342.300 -.53706E+00
 1342.900 -.16746E+00
 1343.500 -.11953E+01
 1344.100 -.16973E+00
 1344.700 -.28027E+00
 1345.300  .13609E+01
 1345.900 -.50189E+00
 1346.500 -.39362E+00
 1347.100 -.46081E+00
 1347.700 -.17657E+00
 1348.300 -.81539E+00
 1348.900 -.31091E+00
 1349.500 -.46634E+00
 1350.100 -.71020E+00
 1350.700  .28098E+00
 1351.300  .12564E+00
 1351.900 -.10022E+01
 1352.500  .38923E+00
 1353.100 -.78458E+00
 1353.700 -.14730E+01
 1354.300  .27631E+00
 1354.900  .83025E+00
 1355.500  .58565E+00
 1356.100 -.50393E+00
 1356.700 -.21618E+00
 1357.300 -.15753E+01
 1357.900  .13791E+00
 1358.500 -.86641E+00
 1359.100 -.13368E+01
 1359.700  .38088E+00
 1360.300  .22371E+00
 1360.900  .37947E+00
 1361.500  .13248E+00
 1362.100  .24361E+00
 1362.700 -.31787E+00
 1363.300 -.13740E+01
 1363.900 -.94939E+00
 1364.500 -.11535E+01
 1365.100 -.11780E+01
 1365.700 -.75213E+00
 1366.300  .14773E+01
 1366.900 -.80051E+00
 1367.500  .21359E+00
 1368.100 -.17979E+01
 1368.700  .84494E+00
 1369.300  .97877E-01
 1369.900 -.13298E+01
 1370.500 -.10826E+01
 1371.100 -.11979E+01
 1371.700  .36648E+00
 1372.300  .97918E+00
 1372.900 -.45358E+00
 1373.500  .10697E+01
 1374.100 -.77524E+00
 1374.700 -.11188E+01
 1375.300 -.41357E+00
 1375.900  .52110E+00
 1376.500  .86358E-01
 1377.100  .61134E+00
 1377.700 -.11057E+01
 1378.300  .56443E+00
 1378.900 -.51353E+00
 1379.500 -.53793E+00
 1380.100  .34588E-01
 1380.700 -.15060E+01
 1381.300  .78547E-01
 1381.900 -.49782E+00
 1382.500 -.15559E-01
 1383.100  .16662E+01
 1383.700  .74602E-01
 1384.300 -.41836E-01
 1384.900  .76586E+00
 1385.500 -.32153E+00
 1386.100 -.16083E+00
 1386.700 -.37048E+00
 1387.300  .62500E+00
 1387.900  .97246E+00
 1388.500 -.81571E+00
 1389.100 -.70124E+00
 1389.700  .76231E+00
 1390.300 -.56483E+00
 1390.900  .24895E+00
 1391.500 -.54971E-01
 1392.100 -.77934E+00
 1392.700 -.66428E+00
 1393.300 -.10164E+01
 1393.900 -.21642E+01
 1394.500 -.37115E-01
 1395.100  .82850E+00
 1395.700  .18830E+01
 1396.300  .73384E+00
 1396.900  .52420E-01
 1397.500  .21588E+00
 1398.100  .52072E+00
 1398.700 -.68030E+00
 1399.300 -.18725E+00
 1399.900 -.30635E+00
 1400.500  .51808E+00
 1401.100 -.10645E+01
 1401.700  .12257E+01
 1402.300 -.97379E+00
 1402.800  .33016E+00
 1403.400  .73196E+00
 1404.000  .80257E+00
 1404.600  .19338E-01
 1405.200 -.10043E+00
 1405.800  .15377E+01
 1406.400  .32524E+00
 1407.000 -.84158E+00
 1407.600  .13307E+00
 1408.200 -.41608E+00
 1408.800 -.25053E+00
 1409.400 -.12305E+01
 1410.000  .55916E+00
 1410.600  .13953E+01
 1411.200  .31859E+00
 1411.800 -.80773E+00
 1412.400 -.64170E+00
 1413.000 -.43698E-01
 1413.600 -.74091E+00
 1414.200 -.43030E+00
 1414.800  .40970E+00
 1415.400  .25502E+01
 1416.000  .13713E+01
 1416.600  .10580E+01
 1417.200  .20732E-01
 1417.800  .17815E+01
 1418.400 -.29739E-01
 1419.000  .67016E+00
 1419.500 -.85019E+00
 1420.100  .15930E+01
 1420.700  .64833E+00
 1421.300  .47802E+00
 1421.900  .11332E+00
 1422.500  .88014E-01
 1423.100 -.22896E+00
 1423.700 -.10329E+01
 1424.300  .30396E+00
 1424.900 -.45206E+00
 1425.500  .15212E+01
 1426.100  .18384E+01
 1426.700  .10513E+00
 1427.300  .17413E+01
 1427.900  .24980E+00
 1428.500  .22441E+00
 1429.100  .59086E+00
 1429.700  .26436E-01
 1430.300  .22576E+01
 1430.900  .73342E-01
 1431.500  .30943E+01
