  124.500  .31343E+01
  125.200  .30540E+01
  125.900  .29960E+01
  126.600  .29494E+01
  127.300  .29307E+01
  128.000  .29757E+01
  128.600  .29702E+01
  129.300  .30013E+01
  130.000  .31374E+01
  130.700  .31356E+01
  131.400  .31343E+01
  132.100  .31964E+01
  132.800  .31660E+01
  133.500  .31197E+01
  134.200  .30760E+01
  134.900  .30864E+01
  135.600  .31247E+01
  136.300  .31413E+01
  136.900  .31342E+01
  137.600  .32094E+01
  138.300  .32405E+01
  139.000  .33732E+01
  139.700  .34441E+01
  140.400  .35253E+01
  141.100  .34596E+01
  141.800  .34854E+01
  142.500  .34156E+01
  143.200  .34092E+01
  143.900  .33462E+01
  144.500  .33593E+01
  145.200  .33735E+01
  145.900  .33679E+01
  146.600  .33918E+01
  147.300  .34956E+01
  148.000  .35285E+01
  148.700  .35391E+01
  149.400  .35212E+01
  150.100  .36025E+01
  150.800  .35269E+01
  151.500  .35776E+01
  152.100  .36218E+01
  152.800  .36371E+01
  153.500  .36268E+01
  154.200  .36324E+01
  154.900  .37282E+01
  155.600  .38261E+01
  156.300  .38029E+01
  157.000  .38374E+01
  157.700  .38264E+01
  158.400  .37854E+01
  159.000  .37649E+01
  159.700  .37687E+01
  160.400  .38014E+01
  161.100  .37809E+01
  161.800  .38209E+01
  162.500  .38428E+01
  163.200  .39827E+01
  163.900  .40003E+01
  164.600  .40008E+01
  165.200  .40296E+01
  165.900  .40669E+01
  166.600  .40201E+01
  167.300  .40023E+01
  168.000  .40060E+01
  168.700  .40480E+01
  169.400  .41303E+01
  170.100  .41348E+01
  170.800  .42220E+01
  171.400  .42838E+01
  172.100  .42960E+01
  172.800  .42882E+01
  173.500  .42664E+01
  174.200  .42996E+01
  174.900  .42806E+01
  175.600  .42970E+01
  176.300  .43162E+01
  177.000  .42947E+01
  177.600  .43992E+01
  178.300  .43904E+01
  179.000  .43800E+01
  179.700  .44027E+01
  180.400  .44818E+01
  181.100  .45493E+01
  181.800  .44903E+01
  182.500  .44457E+01
  183.100  .45571E+01
  183.800  .46278E+01
  184.500  .45403E+01
  185.200  .45884E+01
  185.900  .46946E+01
  186.600  .47647E+01
  187.300  .47625E+01
  188.000  .47743E+01
  188.600  .48683E+01
  189.300  .48295E+01
  190.000  .49160E+01
  190.700  .48740E+01
  191.400  .49751E+01
  192.100  .49565E+01
  192.800  .49021E+01
  193.500  .49903E+01
  194.100  .50031E+01
  194.800  .50710E+01
  195.500  .51287E+01
  196.200  .51807E+01
  196.900  .52600E+01
  197.600  .51336E+01
  198.300  .52512E+01
  199.000  .52454E+01
  199.600  .52241E+01
  200.300  .53574E+01
  201.000  .53080E+01
  201.700  .53983E+01
  202.400  .54817E+01
  203.100  .54776E+01
  203.800  .55567E+01
  204.400  .55286E+01
  205.100  .54973E+01
  205.800  .56169E+01
  206.500  .57363E+01
  207.200  .57410E+01
  207.900  .57169E+01
  208.600  .58465E+01
  209.200  .58206E+01
  209.900  .59974E+01
  210.600  .59283E+01
  211.300  .60471E+01
  212.000  .59244E+01
  212.700  .59985E+01
  213.400  .60375E+01
  214.000  .59934E+01
  214.700  .60003E+01
  215.400  .61175E+01
  216.100  .62857E+01
  216.800  .63642E+01
  217.500  .64018E+01
  218.200  .63245E+01
  218.800  .65089E+01
  219.500  .65319E+01
  220.200  .64924E+01
  220.900  .65974E+01
  221.600  .66586E+01
  222.300  .66305E+01
  222.900  .67187E+01
  223.600  .67588E+01
  224.300  .66729E+01
  225.000  .67869E+01
  225.700  .67600E+01
  226.400  .71206E+01
  227.100  .69703E+01
  227.700  .70229E+01
  228.400  .72499E+01
  229.100  .71459E+01
  229.800  .71708E+01
  230.500  .72505E+01
  231.200  .72738E+01
  231.800  .73446E+01
  232.500  .72988E+01
  233.200  .75121E+01
  233.900  .75378E+01
  234.600  .76167E+01
  235.300  .76684E+01
  235.900  .77434E+01
  236.600  .77082E+01
  237.300  .77567E+01
  238.000  .78832E+01
  238.700  .79093E+01
  239.400  .81573E+01
  240.000  .81310E+01
  240.700  .81416E+01
  241.400  .82428E+01
  242.100  .81710E+01
  242.800  .83242E+01
  243.500  .83900E+01
  244.100  .84270E+01
  244.800  .85232E+01
  245.500  .84603E+01
  246.200  .87271E+01
  246.900  .86657E+01
  247.600  .87542E+01
  248.200  .88652E+01
  248.900  .88449E+01
  249.600  .89424E+01
  250.300  .90797E+01
  251.000  .92455E+01
  251.700  .91383E+01
  252.300  .91951E+01
  253.000  .94068E+01
  253.700  .94139E+01
  254.400  .95316E+01
  255.100  .95163E+01
  255.700  .94932E+01
  256.400  .94665E+01
  257.100  .98343E+01
  257.800  .98373E+01
  258.500  .10112E+02
  259.200  .99468E+01
  259.800  .10038E+02
  260.500  .10168E+02
  261.200  .10138E+02
  261.900  .10399E+02
  262.600  .10353E+02
  263.200  .10376E+02
  263.900  .10555E+02
  264.600  .10458E+02
  265.300  .10589E+02
  266.000  .10772E+02
  266.700  .10774E+02
  267.300  .11033E+02
  268.000  .11009E+02
  268.700  .10938E+02
  269.400  .11071E+02
  270.100  .11288E+02
  270.700  .11126E+02
  271.400  .11418E+02
  272.100  .11400E+02
  272.800  .11841E+02
  273.500  .11536E+02
  274.100  .11703E+02
  274.800  .12127E+02
  275.500  .12009E+02
  276.200  .12050E+02
  276.900  .12102E+02
  277.500  .12324E+02
  278.200  .12385E+02
  278.900  .12335E+02
  279.600  .12456E+02
  280.300  .12432E+02
  280.900  .12477E+02
  281.600  .12777E+02
  282.300  .12743E+02
  283.000  .12966E+02
  283.700  .13029E+02
  284.300  .13203E+02
  285.000  .13272E+02
  285.700  .13395E+02
  286.400  .13207E+02
  287.100  .13460E+02
  287.700  .13764E+02
  288.400  .13613E+02
  289.100  .13895E+02
  289.800  .13870E+02
  290.500  .14095E+02
  291.100  .14213E+02
  291.800  .13892E+02
  292.500  .14212E+02
  293.200  .14148E+02
  293.900  .14321E+02
  294.500  .14449E+02
  295.200  .14511E+02
  295.900  .14513E+02
  296.600  .14842E+02
  297.300  .14744E+02
  297.900  .14807E+02
  298.600  .15350E+02
  299.300  .15152E+02
  300.000  .15013E+02
  300.600  .15345E+02
  301.300  .15452E+02
  302.000  .15559E+02
  302.700  .15768E+02
  303.400  .15979E+02
  304.000  .15904E+02
  304.700  .15938E+02
  305.400  .16082E+02
  306.100  .16371E+02
  306.800  .16445E+02
  307.400  .16368E+02
  308.100  .16690E+02
  308.800  .16723E+02
  309.500  .16838E+02
  310.100  .16597E+02
  310.800  .17055E+02
  311.500  .17088E+02
  312.200  .17124E+02
  312.900  .17193E+02
  313.500  .17458E+02
  314.200  .17604E+02
  314.900  .17611E+02
  315.600  .17690E+02
  316.200  .17513E+02
  316.900  .17790E+02
  317.600  .17830E+02
  318.300  .17981E+02
  318.900  .18136E+02
  319.600  .18210E+02
  320.300  .18570E+02
  321.000  .18611E+02
  321.700  .18802E+02
  322.300  .18797E+02
  323.000  .18996E+02
  323.700  .19122E+02
  324.400  .19079E+02
  325.000  .19262E+02
  325.700  .19474E+02
  326.400  .19513E+02
  327.100  .19516E+02
  327.700  .19923E+02
  328.400  .19870E+02
  329.100  .19953E+02
  329.800  .20301E+02
  330.500  .20042E+02
  331.100  .20241E+02
  331.800  .20234E+02
  332.500  .20620E+02
  333.200  .20711E+02
  333.800  .20514E+02
  334.500  .20646E+02
  335.200  .21007E+02
  335.900  .20860E+02
  336.500  .21566E+02
  337.200  .21343E+02
  337.900  .21423E+02
  338.600  .21421E+02
  339.200  .21676E+02
  339.900  .21628E+02
  340.600  .21755E+02
  341.300  .21853E+02
  341.900  .21964E+02
  342.600  .22142E+02
  343.300  .22371E+02
  344.000  .22431E+02
  344.600  .22916E+02
  345.300  .22725E+02
  346.000  .22914E+02
  346.700  .22909E+02
  347.300  .23223E+02
  348.000  .23519E+02
  348.700  .23667E+02
  349.400  .23801E+02
  350.000  .23926E+02
  350.700  .23978E+02
  351.400  .24423E+02
  352.100  .24249E+02
  352.700  .24341E+02
  353.400  .25147E+02
  354.100  .24683E+02
  354.800  .24775E+02
  355.400  .25162E+02
  356.100  .25216E+02
  356.800  .25617E+02
  357.500  .25394E+02
  358.100  .25536E+02
  358.800  .25586E+02
  359.500  .25727E+02
  360.200  .26198E+02
  360.800  .26180E+02
  361.500  .26119E+02
  362.200  .26378E+02
  362.800  .26415E+02
  363.500  .26668E+02
  364.200  .26935E+02
  364.900  .27365E+02
  365.500  .27514E+02
  366.200  .27105E+02
  366.900  .27704E+02
  367.600  .27708E+02
  368.200  .28119E+02
  368.900  .28390E+02
  369.600  .28044E+02
  370.300  .28273E+02
  370.900  .28694E+02
  371.600  .28581E+02
  372.300  .28847E+02
  372.900  .29111E+02
  373.600  .29341E+02
  374.300  .29273E+02
  375.000  .29440E+02
  375.600  .29816E+02
  376.300  .30063E+02
  377.000  .30033E+02
  377.700  .30128E+02
  378.300  .30361E+02
  379.000  .30835E+02
  379.700  .30950E+02
  380.300  .31341E+02
  381.000  .31205E+02
  381.700  .31259E+02
  382.400  .31072E+02
  383.000  .31641E+02
  383.700  .31884E+02
  384.400  .32245E+02
  385.000  .32280E+02
  385.700  .31968E+02
  386.400  .32499E+02
  387.100  .32993E+02
  387.700  .32905E+02
  388.400  .33145E+02
  389.100  .33086E+02
  389.800  .33391E+02
  390.400  .33677E+02
  391.100  .33790E+02
  391.800  .33529E+02
  392.400  .34093E+02
  393.100  .34649E+02
  393.800  .34769E+02
  394.500  .34903E+02
  395.100  .34992E+02
  395.800  .34908E+02
  396.500  .35234E+02
  397.100  .35481E+02
  397.800  .35810E+02
  398.500  .36140E+02
  399.100  .36445E+02
  399.800  .36278E+02
  400.500  .36557E+02
  401.200  .36613E+02
  401.800  .37259E+02
  402.500  .37051E+02
  403.200  .37433E+02
  403.800  .37274E+02
  404.500  .37832E+02
  405.200  .38094E+02
  405.900  .38212E+02
  406.500  .39265E+02
  407.200  .38807E+02
  407.900  .39084E+02
  408.500  .39636E+02
  409.200  .39199E+02
  409.900  .39911E+02
  410.500  .40004E+02
  411.200  .40372E+02
  411.900  .40357E+02
  412.600  .40412E+02
  413.200  .40734E+02
  413.900  .41029E+02
  414.600  .41393E+02
  415.200  .41353E+02
  415.900  .41703E+02
  416.600  .41782E+02
  417.200  .42120E+02
  417.900  .42242E+02
  418.600  .42852E+02
  419.200  .42657E+02
  419.900  .43645E+02
  420.600  .43486E+02
  421.300  .44014E+02
  421.900  .43521E+02
  422.600  .44202E+02
  423.300  .44263E+02
  423.900  .44466E+02
  424.600  .44931E+02
  425.300  .44981E+02
  425.900  .45505E+02
  426.600  .45899E+02
  427.300  .46454E+02
  427.900  .46420E+02
  428.600  .46161E+02
  429.300  .46469E+02
  430.000  .47763E+02
  430.600  .47808E+02
  431.300  .48038E+02
  432.000  .48353E+02
  432.600  .48240E+02
  433.300  .48459E+02
  434.000  .48560E+02
  434.600  .49421E+02
  435.300  .50183E+02
  436.000  .49742E+02
  436.600  .49776E+02
  437.300  .50711E+02
  438.000  .50863E+02
  438.600  .50928E+02
  439.300  .51774E+02
  440.000  .52028E+02
  440.600  .51802E+02
  441.300  .52414E+02
  442.000  .51950E+02
  442.600  .53234E+02
  443.300  .53385E+02
  444.000  .53817E+02
  444.600  .53958E+02
  445.300  .54230E+02
  446.000  .54743E+02
  446.600  .55085E+02
  447.300  .55343E+02
  448.000  .54772E+02
  448.600  .56116E+02
  449.300  .55829E+02
  450.000  .55973E+02
  450.600  .56681E+02
  451.300  .56771E+02
  452.000  .56942E+02
  452.600  .56625E+02
  453.300  .57712E+02
  454.000  .57412E+02
  454.600  .57852E+02
  455.300  .58487E+02
  456.000  .58492E+02
  456.600  .58917E+02
  457.300  .59287E+02
  458.000  .59476E+02
  458.600  .58638E+02
  459.300  .59504E+02
  460.000  .59973E+02
  460.600  .60910E+02
  461.300  .60878E+02
  462.000  .60459E+02
  462.600  .60624E+02
  463.300  .60995E+02
  464.000  .61180E+02
  464.600  .61625E+02
  465.300  .61108E+02
  466.000  .61195E+02
  466.600  .62546E+02
  467.300  .61617E+02
  468.000  .62487E+02
  468.600  .62755E+02
  469.300  .62036E+02
  470.000  .63616E+02
  470.600  .63467E+02
  471.300  .63970E+02
  472.000  .63832E+02
  472.600  .63808E+02
  473.300  .63984E+02
  474.000  .64167E+02
  474.600  .64202E+02
  475.300  .64935E+02
  475.900  .65713E+02
  476.600  .65040E+02
  477.300  .65259E+02
  477.900  .65185E+02
  478.600  .65796E+02
  479.300  .66389E+02
  479.900  .66681E+02
  480.600  .66522E+02
  481.300  .66848E+02
  481.900  .67532E+02
  482.600  .68057E+02
  483.300  .67463E+02
  483.900  .66979E+02
  484.600  .67385E+02
  485.200  .68746E+02
  485.900  .68386E+02
  486.600  .67923E+02
  487.200  .67658E+02
  487.900  .68045E+02
  488.600  .68263E+02
  489.200  .67758E+02
  489.900  .69477E+02
  490.600  .68580E+02
  491.200  .68865E+02
  491.900  .68264E+02
  492.500  .68643E+02
  493.200  .68934E+02
  493.900  .68473E+02
  494.500  .68296E+02
  495.200  .68241E+02
  495.900  .67779E+02
  496.500  .68255E+02
  497.200  .67768E+02
  497.900  .66854E+02
  498.500  .67344E+02
  499.200  .66856E+02
  499.800  .66540E+02
  500.500  .66735E+02
  501.200  .65022E+02
  501.800  .66159E+02
  502.500  .65106E+02
  503.200  .64615E+02
  503.800  .64536E+02
  504.500  .63499E+02
  505.100  .63089E+02
  505.800  .63265E+02
  506.500  .62852E+02
  507.100  .62019E+02
  507.800  .60752E+02
  508.500  .60906E+02
  509.100  .60719E+02
  509.800  .60073E+02
  510.400  .59556E+02
  511.100  .58505E+02
  511.800  .56915E+02
  512.400  .57397E+02
  513.100  .57202E+02
  513.800  .54973E+02
  514.400  .55215E+02
  515.100  .54181E+02
  515.700  .53437E+02
  516.400  .53896E+02
  517.100  .52976E+02
  517.700  .52207E+02
  518.400  .50764E+02
  519.000  .50685E+02
  519.700  .49238E+02
  520.400  .49568E+02
  521.000  .48756E+02
  521.700  .48380E+02
  522.400  .47350E+02
  523.000  .46640E+02
  523.700  .46532E+02
  524.300  .46037E+02
  525.000  .44710E+02
  525.700  .44751E+02
  526.300  .43232E+02
  527.000  .44130E+02
  527.600  .43339E+02
  528.300  .42952E+02
  529.000  .42862E+02
  529.600  .42054E+02
  530.300  .41651E+02
  530.900  .41264E+02
  531.600  .40587E+02
  532.300  .40564E+02
  532.900  .40754E+02
  533.600  .40281E+02
  534.200  .38713E+02
  534.900  .39390E+02
  535.600  .39003E+02
  536.200  .38609E+02
  536.900  .38321E+02
  537.500  .37837E+02
  538.200  .37717E+02
  538.900  .37829E+02
  539.500  .36543E+02
  540.200  .36843E+02
  540.800  .36453E+02
  541.500  .36536E+02
  542.200  .35867E+02
  542.800  .35839E+02
  543.500  .36025E+02
  544.100  .35346E+02
  544.800  .35646E+02
  545.500  .35628E+02
  546.100  .35616E+02
  546.800  .35127E+02
  547.400  .35113E+02
  548.100  .35851E+02
  548.800  .34894E+02
  549.400  .34762E+02
  550.100  .34093E+02
  550.700  .34921E+02
  551.400  .34854E+02
  552.100  .35121E+02
  552.700  .35004E+02
  553.400  .34981E+02
  554.000  .35428E+02
  554.700  .35141E+02
  555.300  .35251E+02
  556.000  .34237E+02
  556.700  .35663E+02
  557.300  .35479E+02
  558.000  .35824E+02
  558.600  .35131E+02
  559.300  .35235E+02
  560.000  .36176E+02
  560.600  .35366E+02
  561.300  .36040E+02
  561.900  .36536E+02
  562.600  .36999E+02
  563.200  .35487E+02
  563.900  .36694E+02
  564.600  .36980E+02
  565.200  .36744E+02
  565.900  .37610E+02
  566.500  .37013E+02
  567.200  .37797E+02
  567.800  .38409E+02
  568.500  .38472E+02
  569.200  .38046E+02
  569.800  .38152E+02
  570.500  .38012E+02
  571.100  .38321E+02
  571.800  .38325E+02
  572.400  .39111E+02
  573.100  .37833E+02
  573.800  .39403E+02
  574.400  .39483E+02
  575.100  .38921E+02
  575.700  .39627E+02
  576.400  .38797E+02
  577.000  .39082E+02
  577.700  .38946E+02
  578.400  .39829E+02
  579.000  .39424E+02
  579.700  .39953E+02
  580.300  .39933E+02
  581.000  .39887E+02
  581.600  .39367E+02
  582.300  .39579E+02
  583.000  .39641E+02
  583.600  .39418E+02
  584.300  .39813E+02
  584.900  .38952E+02
  585.600  .39265E+02
  586.200  .38491E+02
  586.900  .38163E+02
  587.600  .38567E+02
  588.200  .39062E+02
  588.900  .38395E+02
  589.500  .38245E+02
  590.200  .38138E+02
  590.800  .37554E+02
  591.500  .37382E+02
  592.100  .37321E+02
  592.800  .37096E+02
  593.500  .36724E+02
  594.100  .37222E+02
  594.800  .36775E+02
  595.400  .36879E+02
  596.100  .36334E+02
  596.700  .35985E+02
  597.400  .35541E+02
  598.000  .35800E+02
  598.700  .35353E+02
  599.400  .35645E+02
  600.000  .35301E+02
  600.700  .34998E+02
  601.300  .34225E+02
  602.000  .33331E+02
  602.600  .33534E+02
  603.300  .32785E+02
  603.900  .32880E+02
  604.600  .33363E+02
  605.200  .32263E+02
  605.900  .32292E+02
  606.600  .31563E+02
  607.200  .31613E+02
  607.900  .31010E+02
  608.500  .30917E+02
  609.200  .30527E+02
  609.800  .30575E+02
  610.500  .29295E+02
  611.100  .29120E+02
  611.800  .28470E+02
  612.400  .27950E+02
  613.100  .28013E+02
  613.800  .27698E+02
  614.400  .27995E+02
  615.100  .27724E+02
  615.700  .27164E+02
  616.400  .26900E+02
  617.000  .26012E+02
  617.700  .26394E+02
  618.300  .26197E+02
  619.000  .25039E+02
  619.600  .25155E+02
  620.300  .24442E+02
  620.900  .24216E+02
  621.600  .24349E+02
  622.200  .23849E+02
  622.900  .23913E+02
  623.600  .22984E+02
  624.200  .23565E+02
  624.900  .23124E+02
  625.500  .22984E+02
  626.200  .22171E+02
  626.800  .22916E+02
  627.500  .22562E+02
  628.100  .22257E+02
  628.800  .21644E+02
  629.400  .20744E+02
  630.100  .22046E+02
  630.700  .21936E+02
  631.400  .23235E+02
  632.000  .22388E+02
  632.700  .20054E+02
  633.300  .19833E+02
  634.000  .20807E+02
  634.700  .20085E+02
  635.300  .19684E+02
  636.000  .19360E+02
  636.600  .18956E+02
  637.300  .19414E+02
  637.900  .19211E+02
  638.600  .18560E+02
  639.200  .18870E+02
  639.900  .18359E+02
  640.500  .18141E+02
  641.200  .18433E+02
  641.800  .17816E+02
  642.500  .17818E+02
  643.100  .17318E+02
  643.800  .17865E+02
  644.400  .17205E+02
  645.100  .17437E+02
  645.700  .17152E+02
  646.400  .16712E+02
  647.000  .17049E+02
  647.700  .16411E+02
  648.300  .16392E+02
  649.000  .16230E+02
  649.600  .15729E+02
  650.300  .15676E+02
  650.900  .15333E+02
  651.600  .15738E+02
  652.200  .15233E+02
  652.900  .16087E+02
  653.500  .15955E+02
  654.200  .15251E+02
  654.800  .15429E+02
  655.500  .14972E+02
  656.200  .15306E+02
  656.800  .14628E+02
  657.500  .14432E+02
  658.100  .14458E+02
  658.800  .14844E+02
  659.400  .14274E+02
  660.100  .14394E+02
  660.700  .14407E+02
  661.400  .13633E+02
  662.000  .14362E+02
  662.700  .13802E+02
  663.300  .14033E+02
  664.000  .14487E+02
  664.600  .13882E+02
  665.300  .13136E+02
  665.900  .13005E+02
  666.600  .13629E+02
  667.200  .13991E+02
  667.900  .13890E+02
  668.500  .13668E+02
  669.200  .13527E+02
  669.800  .13577E+02
  670.500  .12675E+02
  671.100  .13985E+02
  671.800  .13843E+02
  672.400  .12893E+02
  673.000  .12256E+02
  673.700  .12731E+02
  674.300  .13138E+02
  675.000  .12715E+02
  675.600  .13150E+02
  676.300  .12844E+02
  676.900  .13561E+02
  677.600  .13215E+02
  678.200  .13520E+02
  678.900  .12675E+02
  679.500  .13357E+02
  680.200  .12805E+02
  680.800  .12747E+02
  681.500  .13558E+02
  682.100  .13135E+02
  682.800  .12145E+02
  683.400  .12778E+02
  684.100  .12369E+02
  684.700  .12677E+02
  685.400  .12266E+02
  686.000  .12178E+02
  686.700  .13355E+02
  687.300  .12115E+02
  688.000  .12113E+02
  688.600  .11514E+02
  689.300  .11966E+02
  689.900  .11724E+02
  690.600  .12261E+02
  691.200  .11963E+02
  691.900  .12086E+02
  692.500  .12734E+02
  693.200  .12299E+02
  693.800  .11496E+02
  694.400  .12244E+02
  695.100  .12241E+02
  695.700  .11912E+02
  696.400  .11894E+02
  697.000  .12592E+02
  697.700  .11628E+02
  698.300  .12243E+02
  699.000  .11729E+02
  699.600  .12360E+02
  700.300  .12300E+02
  700.900  .12421E+02
  701.600  .12775E+02
  702.200  .11367E+02
  702.900  .11877E+02
  703.500  .11395E+02
  704.200  .11606E+02
  704.800  .12231E+02
  705.500  .12516E+02
  706.100  .11670E+02
  706.700  .11082E+02
  707.400  .11568E+02
  708.000  .11719E+02
  708.700  .10782E+02
  709.300  .12099E+02
  710.000  .12050E+02
  710.600  .11939E+02
  711.300  .12374E+02
  711.900  .11661E+02
  712.600  .11934E+02
  713.200  .11911E+02
  713.900  .11757E+02
  714.500  .11807E+02
  715.100  .11798E+02
  715.800  .12029E+02
  716.400  .11886E+02
  717.100  .11732E+02
  717.700  .11692E+02
  718.400  .11177E+02
  719.000  .12499E+02
  719.700  .11084E+02
  720.300  .11959E+02
  721.000  .12299E+02
  721.600  .12049E+02
  722.200  .11541E+02
  722.900  .12063E+02
  723.500  .12568E+02
  724.200  .11910E+02
  724.800  .12249E+02
  725.500  .11710E+02
  726.100  .11898E+02
  726.800  .12044E+02
  727.400  .11773E+02
  728.100  .11766E+02
  728.700  .12200E+02
  729.300  .11867E+02
  730.000  .12522E+02
  730.600  .11726E+02
  731.300  .12367E+02
  731.900  .12450E+02
  732.600  .11792E+02
  733.200  .11858E+02
  733.900  .11882E+02
  734.500  .11699E+02
  735.100  .12421E+02
  735.800  .12523E+02
  736.400  .11354E+02
  737.100  .12004E+02
  737.700  .12401E+02
  738.400  .12394E+02
  739.000  .12856E+02
  739.700  .12312E+02
  740.300  .12333E+02
  740.900  .11625E+02
  741.600  .12853E+02
  742.200  .12573E+02
  742.900  .13234E+02
  743.500  .12602E+02
  744.200  .12626E+02
  744.800  .12503E+02
  745.500  .12672E+02
  746.100  .11665E+02
  746.700  .12183E+02
  747.400  .13189E+02
  748.000  .12856E+02
  748.700  .12800E+02
  749.300  .11850E+02
  750.000  .13040E+02
  750.600  .12347E+02
  751.200  .12839E+02
  751.900  .12260E+02
  752.500  .12493E+02
  753.200  .12958E+02
  753.800  .12586E+02
  754.500  .12545E+02
  755.100  .13255E+02
  755.700  .13046E+02
  756.400  .13483E+02
  757.000  .12053E+02
  757.700  .13117E+02
  758.300  .13536E+02
  759.000  .13793E+02
  759.600  .13367E+02
  760.200  .13356E+02
  760.900  .14014E+02
  761.500  .13019E+02
  762.200  .14297E+02
  762.800  .14153E+02
  763.500  .13978E+02
  764.100  .13799E+02
  764.700  .14141E+02
  765.400  .14049E+02
  766.000  .13397E+02
  766.700  .13963E+02
  767.300  .13444E+02
  767.900  .13075E+02
  768.600  .14441E+02
  769.200  .14481E+02
  769.900  .14321E+02
  770.500  .15060E+02
  771.200  .14131E+02
  771.800  .14701E+02
  772.400  .14605E+02
  773.100  .14374E+02
  773.700  .13898E+02
  774.400  .15285E+02
  775.000  .15533E+02
  775.600  .15454E+02
  776.300  .15205E+02
  776.900  .15611E+02
  777.600  .14633E+02
  778.200  .15299E+02
  778.900  .15118E+02
  779.500  .15630E+02
  780.100  .14921E+02
  780.800  .15823E+02
  781.400  .15375E+02
  782.100  .15473E+02
  782.700  .15567E+02
  783.300  .15944E+02
  784.000  .16096E+02
  784.600  .15097E+02
  785.300  .14824E+02
  785.900  .15928E+02
  786.500  .14888E+02
  787.200  .14969E+02
  787.800  .16718E+02
  788.500  .15714E+02
  789.100  .16167E+02
  789.700  .16049E+02
  790.400  .15326E+02
  791.000  .16874E+02
  791.700  .16276E+02
  792.300  .17020E+02
  792.900  .16182E+02
  793.600  .15922E+02
  794.200  .17013E+02
  794.900  .16265E+02
  795.500  .17069E+02
  796.100  .16787E+02
  796.800  .15199E+02
  797.400  .16115E+02
  798.100  .15833E+02
  798.700  .15657E+02
  799.300  .17052E+02
  800.000  .16057E+02
  800.600  .14376E+02
  801.300  .15082E+02
  801.900  .15546E+02
  801.100  .14705E+02
  801.700  .16677E+02
  802.400  .16540E+02
  803.000  .16971E+02
  803.600  .16683E+02
  804.300  .17360E+02
  804.900  .15923E+02
  805.600  .16508E+02
  806.200  .16849E+02
  806.900  .17586E+02
  807.500  .17874E+02
  808.100  .17341E+02
  808.800  .17745E+02
  809.400  .17023E+02
  810.100  .17391E+02
  810.700  .16928E+02
  811.400  .16469E+02
  812.000  .16946E+02
  812.600  .16217E+02
  813.300  .16699E+02
  813.900  .14946E+02
  814.600  .15825E+02
  815.200  .15470E+02
  815.900  .15535E+02
  816.500  .14835E+02
  817.100  .14915E+02
  817.800  .13318E+02
  818.400  .14199E+02
  819.100  .13918E+02
  819.700  .13709E+02
  820.300  .13480E+02
  821.000  .13427E+02
  821.600  .12716E+02
  822.300  .12565E+02
  822.900  .11618E+02
  823.600  .11794E+02
  824.200  .10127E+02
  824.800  .11481E+02
  825.500  .11443E+02
  826.100  .10780E+02
  826.800  .10741E+02
  827.400  .99185E+01
  828.000  .10774E+02
  828.700  .96390E+01
  829.300  .98893E+01
  830.000  .91614E+01
  830.600  .87040E+01
  831.200  .90328E+01
  831.900  .88326E+01
  832.500  .84517E+01
  833.200  .81708E+01
  833.800  .74711E+01
  834.400  .71461E+01
  835.100  .69214E+01
  835.700  .70919E+01
  836.400  .61494E+01
  837.000  .57408E+01
  837.600  .57905E+01
  838.300  .51619E+01
  838.900  .51508E+01
  839.600  .41983E+01
  840.200  .43064E+01
  840.900  .37924E+01
  841.500  .37995E+01
  842.100  .30602E+01
  842.800  .46637E+01
  843.400  .35996E+01
  844.100  .17837E+01
  844.700  .24172E+01
  845.300  .20771E+01
  846.000  .15536E+01
  846.600  .14354E+01
  847.200  .23576E+01
  847.900  .99440E+00
  848.500  .91592E+00
  849.200  .16986E+01
  849.800  .13540E+01
  850.400  .86466E+00
  851.100  .13212E+01
  851.700  .13869E+01
  852.400  .23550E+00
  853.000  .13334E+01
  853.600  .24028E+00
  854.300  .63692E+00
  854.900  .74363E+00
  855.600  .35223E+00
  856.200  .45886E+00
  856.800  .23857E-01
  857.500 -.15418E-01
  858.100 -.34778E+00
  858.800  .51900E-01
  859.400 -.21844E+00
  860.000  .11922E+00
  860.700  .31106E+00
  861.300  .12413E+00
  861.900 -.61129E+00
  862.600 -.10108E+01
  863.200 -.67185E+00
  863.900 -.24701E+00
  864.500 -.49957E+00
  865.100 -.41319E+00
  865.800  .16261E+00
  866.400 -.28203E+00
  867.000  .29518E+00
  867.700  .61831E+00
  868.300 -.72523E+00
  869.000 -.57400E+00
  869.600  .15614E+00
  870.200 -.18488E+00
  870.900 -.32192E-01
  871.500 -.13768E+00
  872.200  .38192E+00
  872.800  .51408E+00
  873.400  .17115E+00
  874.100 -.17233E+00
  874.700  .21968E+00
  875.300  .48555E-01
  876.000  .29443E-01
  876.600  .16418E+01
  877.300  .44830E+00
  877.900 -.46536E+00
  878.500  .10000E+01
  879.200  .85116E-01
  879.800  .41605E+00
  880.400 -.15157E+00
  881.100  .61971E+00
  881.700  .35874E+00
  882.300  .75787E+00
  883.000 -.62811E+00
  883.600  .19051E+00
  884.300  .14763E+01
  884.900  .15247E+01
  885.500  .79709E+00
  886.200  .12006E+01
  886.800  .15924E+00
  887.400  .10078E+01
  888.100  .40981E+00
  888.700  .56886E+00
  889.300  .12201E+01
  890.000  .95590E+00
  890.600  .95936E+00
  891.300  .16369E+01
  891.900  .19335E+01
  892.500  .45271E+00
  893.200  .11998E+01
  893.800  .13390E+01
  894.400  .98143E+00
  895.100  .14155E+01
  895.700  .55852E+00
  896.300  .18547E+01
  897.000  .19510E+01
  897.600  .15689E+01
  898.300  .24624E+01
  898.900  .10763E+01
  899.500  .19022E+01
  900.200  .16789E+01
  900.800  .15917E+01
  901.400  .26738E+01
  902.100  .26574E+01
  902.700  .19502E+01
  903.300  .17708E+01
  904.000  .23755E+01
  904.600  .29117E+01
  905.200  .29177E+01
  905.900  .29478E+01
  906.500  .30465E+01
  907.100  .35631E+01
  907.800  .29203E+01
  908.400  .22050E+01
  909.100  .40750E+01
  909.700  .37791E+01
  910.300  .43000E+01
  911.000  .37709E+01
  911.600  .42463E+01
  912.200  .36912E+01
  912.900  .53900E+01
  913.500  .36356E+01
  914.100  .38779E+01
  914.800  .43813E+01
  915.400  .47903E+01
  916.000  .50586E+01
  916.700  .56840E+01
  917.300  .58118E+01
  917.900  .57027E+01
  918.600  .55711E+01
  919.200  .47001E+01
  919.800  .62803E+01
  920.500  .59104E+01
  921.100  .52275E+01
  921.700  .71969E+01
  922.400  .57494E+01
  923.000  .76767E+01
  923.600  .69684E+01
  924.300  .74859E+01
  924.900  .72327E+01
  925.500  .80873E+01
  926.200  .85842E+01
  926.800  .87179E+01
  927.400  .75215E+01
  928.100  .77772E+01
  928.700  .80073E+01
  929.300  .82866E+01
  930.000  .94926E+01
  930.600  .10164E+02
  931.200  .99837E+01
  931.900  .10489E+02
  932.500  .10040E+02
  933.100  .10641E+02
  933.800  .10733E+02
  934.400  .11558E+02
  935.000  .97811E+01
  935.700  .11544E+02
  936.300  .11413E+02
  936.900  .10862E+02
  937.600  .11991E+02
  938.200  .13219E+02
  938.800  .12025E+02
  939.500  .13036E+02
  940.100  .13277E+02
  940.700  .14712E+02
  941.400  .13218E+02
  942.000  .14631E+02
  942.600  .15499E+02
  943.300  .15074E+02
  943.900  .16969E+02
  944.500  .15741E+02
  945.200  .16868E+02
  945.800  .16740E+02
  946.400  .17617E+02
  947.100  .17292E+02
  947.700  .18172E+02
  948.300  .19659E+02
  948.900  .18750E+02
  949.600  .19867E+02
  950.200  .19893E+02
  950.800  .20223E+02
  951.500  .20355E+02
  952.100  .21119E+02
  952.700  .20358E+02
  953.400  .22503E+02
  954.000  .22507E+02
  954.600  .21489E+02
  955.300  .23644E+02
  955.900  .22548E+02
  956.500  .22705E+02
  957.200  .24870E+02
  957.800  .23309E+02
  958.400  .24136E+02
  959.000  .25532E+02
  959.700  .25157E+02
  960.300  .25396E+02
  960.900  .26799E+02
  961.600  .26372E+02
  962.200  .27002E+02
  962.800  .26958E+02
  963.500  .26063E+02
  964.100  .28437E+02
  964.700  .29098E+02
  965.400  .28854E+02
  966.000  .29282E+02
  966.600  .30887E+02
  967.200  .30637E+02
  967.900  .31075E+02
  968.500  .30405E+02
  969.100  .30759E+02
  969.800  .31592E+02
  970.400  .31974E+02
  971.000  .34018E+02
  971.700  .34225E+02
  972.300  .35166E+02
  972.900  .33569E+02
  973.500  .34378E+02
  974.200  .35091E+02
  974.800  .35320E+02
  975.400  .36321E+02
  976.100  .35840E+02
  976.700  .35938E+02
  977.300  .36782E+02
  978.000  .37529E+02
  978.600  .36478E+02
  979.200  .37112E+02
  979.800  .37104E+02
  980.500  .36647E+02
  981.100  .39003E+02
  981.700  .39481E+02
  982.400  .40130E+02
  983.000  .40961E+02
  983.600  .40794E+02
  984.200  .40086E+02
  984.900  .41253E+02
  985.500  .40924E+02
  986.100  .41326E+02
  986.800  .42471E+02
  987.400  .41706E+02
  988.000  .42382E+02
  988.700  .42551E+02
  989.300  .43148E+02
  989.900  .43965E+02
  990.500  .44374E+02
  991.200  .44079E+02
  991.800  .44983E+02
  992.400  .45668E+02
  993.100  .44686E+02
  993.700  .45869E+02
  994.300  .43112E+02
  994.900  .45454E+02
  995.600  .47230E+02
  996.200  .45267E+02
  996.800  .47702E+02
  997.400  .46400E+02
  998.100  .48435E+02
  998.700  .47881E+02
  999.300  .48466E+02
 1000.000  .48422E+02
 1000.600  .46694E+02
 1001.200  .47671E+02
 1001.800  .49767E+02
 1002.500  .49052E+02
 1003.100  .50903E+02
 1003.700  .50122E+02
 1004.400  .49460E+02
 1005.000  .50249E+02
 1005.600  .51772E+02
 1006.200  .52255E+02
 1006.900  .50267E+02
 1007.500  .52077E+02
 1008.100  .51205E+02
 1008.700  .51378E+02
 1009.400  .51164E+02
 1010.000  .49152E+02
 1010.600  .52477E+02
 1011.300  .51894E+02
 1011.900  .53436E+02
 1012.500  .52015E+02
 1013.100  .53075E+02
 1013.800  .53233E+02
 1014.400  .52865E+02
 1015.000  .52726E+02
 1015.600  .54479E+02
 1016.300  .55070E+02
 1016.900  .54990E+02
 1017.500  .52061E+02
 1018.100  .55261E+02
 1018.800  .55826E+02
 1019.400  .55919E+02
 1020.000  .55088E+02
 1020.700  .56899E+02
 1021.300  .56095E+02
 1021.900  .56972E+02
 1022.500  .56689E+02
 1023.200  .55921E+02
 1023.800  .58344E+02
 1024.400  .58818E+02
 1025.000  .57398E+02
 1025.700  .58994E+02
 1026.300  .59529E+02
 1026.900  .59861E+02
 1027.500  .61717E+02
 1028.200  .59304E+02
 1028.800  .59813E+02
 1029.400  .58410E+02
 1030.000  .59301E+02
 1030.700  .59852E+02
 1031.300  .61012E+02
 1031.900  .60579E+02
 1032.500  .60471E+02
 1033.200  .61883E+02
 1033.800  .61716E+02
 1034.400  .64101E+02
 1035.000  .63787E+02
 1035.700  .64764E+02
 1036.300  .64003E+02
 1036.900  .65119E+02
 1037.500  .64566E+02
 1038.200  .65517E+02
 1038.800  .66788E+02
 1039.400  .66354E+02
 1040.000  .68137E+02
 1040.700  .66696E+02
 1041.300  .67371E+02
 1041.900  .68891E+02
 1042.500  .67794E+02
 1043.200  .67822E+02
 1043.800  .69136E+02
 1044.400  .67037E+02
 1045.000  .68836E+02
 1045.700  .68926E+02
 1046.300  .69670E+02
 1046.900  .69748E+02
 1047.500  .70312E+02
 1048.200  .71225E+02
 1048.800  .72004E+02
 1049.400  .70499E+02
 1050.000  .72592E+02
 1050.700  .71738E+02
 1051.300  .72858E+02
 1051.900  .72449E+02
 1052.500  .73725E+02
 1053.200  .72838E+02
 1053.800  .75991E+02
 1054.400  .76014E+02
 1055.000  .76128E+02
 1055.600  .76212E+02
 1056.300  .78347E+02
 1056.900  .75128E+02
 1057.500  .75984E+02
 1058.100  .75603E+02
 1058.800  .76630E+02
 1059.400  .76745E+02
 1060.000  .81024E+02
 1060.600  .77971E+02
 1061.300  .79877E+02
 1061.900  .79154E+02
 1062.500  .79522E+02
 1063.100  .80483E+02
 1063.800  .81055E+02
 1064.400  .81676E+02
 1065.000  .82110E+02
 1065.600  .80850E+02
 1066.200  .82791E+02
 1066.900  .83368E+02
 1067.500  .84592E+02
 1068.100  .82730E+02
 1068.700  .84776E+02
 1069.400  .82989E+02
 1070.000  .85007E+02
 1070.600  .84846E+02
 1071.200  .84843E+02
 1071.800  .83127E+02
 1072.500  .85963E+02
 1073.100  .87455E+02
 1073.700  .83922E+02
 1074.300  .88249E+02
 1075.000  .86351E+02
 1075.600  .87306E+02
 1076.200  .86825E+02
 1076.800  .88326E+02
 1077.400  .88742E+02
 1078.100  .87442E+02
 1078.700  .88307E+02
 1079.300  .89847E+02
 1079.900  .88529E+02
 1080.600  .90926E+02
 1081.200  .89799E+02
 1081.800  .91315E+02
 1082.400  .89507E+02
 1083.000  .92222E+02
 1083.700  .92887E+02
 1084.300  .90912E+02
 1084.900  .92404E+02
 1085.500  .92568E+02
 1086.100  .94780E+02
 1086.800  .94833E+02
 1087.400  .90828E+02
 1088.000  .92719E+02
 1088.600  .93177E+02
 1089.300  .94960E+02
 1089.900  .92475E+02
 1090.500  .94899E+02
 1091.100  .93557E+02
 1091.700  .92738E+02
 1092.400  .94233E+02
 1093.000  .95221E+02
 1093.600  .95783E+02
 1094.200  .93115E+02
 1094.800  .96579E+02
 1095.500  .97194E+02
 1096.100  .94882E+02
 1096.700  .95016E+02
 1097.300  .94752E+02
 1097.900  .96378E+02
 1098.600  .94968E+02
 1099.200  .96265E+02
 1099.800  .95568E+02
 1100.400  .99366E+02
 1101.000  .99104E+02
 1101.700  .94284E+02
 1102.300  .96856E+02
 1102.900  .97694E+02
 1103.500  .97127E+02
 1104.100  .97430E+02
 1104.800  .97885E+02
 1105.400  .97382E+02
 1106.000  .10001E+03
 1106.600  .96105E+02
 1107.200  .95296E+02
 1107.900  .95109E+02
 1108.500  .96525E+02
 1109.100  .95882E+02
 1109.700  .94798E+02
 1110.300  .94897E+02
 1111.000  .97048E+02
 1111.600  .96300E+02
 1112.200  .99187E+02
 1112.800  .96195E+02
 1113.400  .97214E+02
 1114.100  .96446E+02
 1114.700  .95932E+02
 1115.300  .95041E+02
 1115.900  .92780E+02
 1116.500  .95239E+02
 1117.200  .92647E+02
 1117.800  .92160E+02
 1118.400  .94934E+02
 1119.000  .93039E+02
 1119.600  .94511E+02
 1120.200  .93507E+02
 1120.900  .93517E+02
 1121.500  .94338E+02
 1122.100  .92812E+02
 1122.700  .92874E+02
 1123.300  .92173E+02
 1124.000  .90205E+02
 1124.600  .89015E+02
 1125.200  .89801E+02
 1125.800  .91910E+02
 1126.400  .89987E+02
 1127.000  .90115E+02
 1127.700  .88863E+02
 1128.300  .92340E+02
 1128.900  .88208E+02
 1129.500  .89278E+02
 1130.100  .91050E+02
 1130.800  .87970E+02
 1131.400  .87534E+02
 1132.000  .88362E+02
 1132.600  .86203E+02
 1133.200  .85130E+02
 1133.800  .86063E+02
 1134.500  .86202E+02
 1135.100  .83961E+02
 1135.700  .87227E+02
 1136.300  .85583E+02
 1136.900  .85706E+02
 1137.500  .83881E+02
 1138.200  .81781E+02
 1138.800  .83534E+02
 1139.400  .84757E+02
 1140.000  .82354E+02
 1140.600  .82402E+02
 1141.300  .79826E+02
 1141.900  .81764E+02
 1142.500  .79561E+02
 1143.100  .78355E+02
 1143.700  .79724E+02
 1144.300  .78337E+02
 1145.000  .78753E+02
 1145.600  .76571E+02
 1146.200  .78626E+02
 1146.800  .77807E+02
 1147.400  .77887E+02
 1148.000  .78002E+02
 1148.700  .76688E+02
 1149.300  .76007E+02
 1149.900  .75723E+02
 1150.500  .74715E+02
 1151.100  .73088E+02
 1151.700  .72909E+02
 1152.400  .72705E+02
 1153.000  .74923E+02
 1153.600  .71798E+02
 1154.200  .71253E+02
 1154.800  .71690E+02
 1155.400  .72456E+02
 1156.000  .72603E+02
 1156.700  .70824E+02
 1157.300  .68921E+02
 1157.900  .69027E+02
 1158.500  .68364E+02
 1159.100  .69645E+02
 1159.700  .67144E+02
 1160.400  .67666E+02
 1161.000  .67329E+02
 1161.600  .64119E+02
 1162.200  .64479E+02
 1162.800  .63732E+02
 1163.400  .64426E+02
 1164.000  .61865E+02
 1164.700  .62901E+02
 1165.300  .60593E+02
 1165.900  .60098E+02
 1166.500  .61645E+02
 1167.100  .63046E+02
 1167.700  .60989E+02
 1168.400  .61211E+02
 1169.000  .57806E+02
 1169.600  .59245E+02
 1170.200  .56840E+02
 1170.800  .56898E+02
 1171.400  .58191E+02
 1172.000  .57988E+02
 1172.700  .55507E+02
 1173.300  .56540E+02
 1173.900  .56146E+02
 1174.500  .55978E+02
 1175.100  .52609E+02
 1175.700  .54321E+02
 1176.300  .53169E+02
 1177.000  .53534E+02
 1177.600  .52077E+02
 1178.200  .49217E+02
 1178.800  .52259E+02
 1179.400  .51403E+02
 1180.000  .47699E+02
 1180.600  .49381E+02
 1181.300  .46969E+02
 1181.900  .45875E+02
 1182.500  .45465E+02
 1183.100  .47152E+02
 1183.700  .45292E+02
 1184.300  .46255E+02
 1184.900  .42976E+02
 1185.600  .43526E+02
 1186.200  .43072E+02
 1186.800  .43078E+02
 1187.400  .42777E+02
 1188.000  .42322E+02
 1188.600  .42827E+02
 1189.200  .39869E+02
 1189.800  .38947E+02
 1190.500  .39457E+02
 1191.100  .40038E+02
 1191.700  .38920E+02
 1192.300  .37336E+02
 1192.900  .39659E+02
 1193.500  .37452E+02
 1194.100  .37840E+02
 1194.800  .35867E+02
 1195.400  .33261E+02
 1196.000  .36331E+02
 1196.600  .34266E+02
 1197.200  .33210E+02
 1197.800  .31880E+02
 1198.400  .32109E+02
 1199.000  .31244E+02
 1199.700  .31204E+02
 1200.300  .30610E+02
 1200.900  .28330E+02
 1201.500  .29027E+02
 1202.100  .28390E+02
 1202.700  .28539E+02
 1203.300  .27546E+02
 1203.900  .26551E+02
 1204.600  .25954E+02
 1205.200  .25864E+02
 1205.800  .24746E+02
 1206.400  .24338E+02
 1207.000  .24285E+02
 1207.600  .25777E+02
 1208.200  .22396E+02
 1208.800  .21984E+02
 1209.500  .22092E+02
 1210.100  .21520E+02
 1210.700  .22339E+02
 1211.300  .19217E+02
 1211.900  .19558E+02
 1212.500  .22613E+02
 1213.100  .18443E+02
 1213.700  .21343E+02
 1214.300  .19166E+02
 1215.000  .17188E+02
 1215.600  .18370E+02
 1216.200  .16987E+02
 1216.800  .17046E+02
 1217.400  .15176E+02
 1218.000  .18092E+02
 1218.600  .16139E+02
 1219.200  .11682E+02
 1219.800  .14401E+02
 1220.500  .12966E+02
 1221.100  .14074E+02
 1221.700  .14374E+02
 1222.300  .13784E+02
 1222.900  .10800E+02
 1223.500  .12275E+02
 1224.100  .11681E+02
 1224.700  .11289E+02
 1225.300  .10815E+02
 1226.000  .10709E+02
 1226.600  .10315E+02
 1227.200  .98389E+01
 1227.800  .11445E+02
 1228.400  .87202E+01
 1229.000  .78319E+01
 1229.600  .96863E+01
 1230.200  .86743E+01
 1230.800  .75373E+01
 1231.400  .68500E+01
 1232.100  .82189E+01
 1232.700  .81070E+01
 1233.300  .88598E+01
 1233.900  .63571E+01
 1234.500  .40562E+01
 1235.100  .62530E+01
 1235.700  .51880E+01
 1236.300  .63140E+01
 1236.900  .46673E+01
 1237.500  .40124E+01
 1238.200  .39800E+01
 1238.800  .16205E+01
 1239.400  .53673E+01
 1240.000  .19230E+01
 1240.600  .33031E+01
 1241.200  .45607E+01
 1241.800  .32340E+01
 1242.400  .23642E+01
 1243.000  .40423E+01
 1243.600  .24187E+01
 1244.200  .23832E+01
 1244.900  .32707E+01
 1245.500  .20613E+01
 1246.100  .11437E+01
 1246.700  .22416E+01
 1247.300  .19954E+01
 1247.900  .16646E+01
 1248.500  .17546E+01
 1249.100  .23930E+01
 1249.700  .19773E+01
 1250.300  .14762E+01
 1250.900  .14818E+01
 1251.600  .23773E+01
 1252.200 -.31457E-01
 1252.800  .26869E+01
 1253.400  .14202E+01
 1254.000  .78843E+00
 1254.600  .49575E+00
 1255.200  .28838E+01
 1255.800  .37739E+00
 1256.400  .38200E+00
 1257.000 -.33881E+00
 1257.600  .56209E+00
 1258.200 -.28808E+00
 1258.900  .10432E+01
 1259.500  .53445E+00
 1260.100 -.16471E+01
 1260.700  .19599E+01
 1261.300 -.13837E+01
 1261.900 -.56395E+00
 1262.500 -.43106E+00
 1263.100  .56320E+00
 1263.700  .74041E+00
 1264.300  .14152E+00
 1264.900 -.11060E+01
 1265.500 -.19669E+01
 1266.100 -.53706E+00
 1266.800  .24672E+00
 1267.400  .46793E+00
 1268.000 -.35130E+00
 1268.600 -.26044E+00
 1269.200 -.10383E+01
 1269.800  .40006E+00
 1270.400  .49182E+00
 1271.000 -.12022E+01
 1271.600 -.23972E+00
 1272.200 -.36647E+00
 1272.800 -.84282E+00
 1273.400 -.79546E+00
 1274.000  .16145E+01
 1274.600 -.48154E+00
 1275.300 -.12624E+00
 1275.900 -.11749E+01
 1276.500 -.11765E+00
 1277.100  .16006E+01
 1277.700 -.12967E+01
 1278.300 -.10292E+01
 1278.900 -.19070E+01
 1279.500 -.31655E+00
 1280.100  .26143E+00
 1280.700 -.44077E+00
 1281.300  .66871E+00
 1281.900 -.47691E+00
 1282.500  .14723E+00
 1283.100  .63947E+00
 1283.700  .91070E+00
 1284.400 -.21479E+01
 1285.000 -.98947E+00
 1285.600 -.27397E+00
 1286.200 -.22521E+00
 1286.800  .10716E+01
 1287.400  .67552E+00
 1288.000 -.18643E+01
 1288.600  .18475E+01
 1289.200 -.20376E+00
 1289.800  .65106E+00
 1290.400  .29771E+00
 1291.000  .93022E+00
 1291.600 -.45573E+00
 1292.200 -.90079E+00
 1292.800 -.17775E+00
 1293.400 -.44336E+00
 1294.000 -.16902E+00
 1294.600 -.74497E-01
 1295.300 -.34000E+00
 1295.900  .20612E+00
 1296.500  .30047E-01
 1297.100 -.14129E+01
 1297.700  .62774E+00
 1298.300 -.22811E+00
 1298.900  .91002E+00
 1299.500  .46145E+00
 1300.100  .14841E+00
 1300.700 -.43799E+00
 1301.300 -.16075E+00
 1301.900  .71406E-01
 1302.500 -.10636E+01
 1303.100 -.28431E+00
 1303.700  .20032E+01
 1304.300  .68411E+00
 1304.900  .21530E+01
 1305.500  .69446E+00
 1306.100 -.30836E+00
 1306.700  .16985E-01
 1307.300 -.25377E+00
 1308.000  .19106E+01
 1308.600  .10892E+01
 1309.200  .26594E+01
 1309.800  .11924E+01
 1310.400  .18434E+01
 1311.000  .18867E+00
 1311.600 -.31448E+00
 1312.200  .42935E+00
 1312.800  .48061E+00
 1313.400  .11338E+01
 1314.000  .62972E+00
 1314.600  .31391E+01
 1315.200  .64011E+00
 1315.800 -.28373E+00
 1316.400 -.93019E+00
 1317.000  .15863E+01
 1317.600  .13595E+01
 1318.200  .60278E-01
 1318.800  .20496E+00
 1319.400  .39656E+00
 1320.000  .11025E+01
 1320.600  .13887E+01
 1321.200  .31264E+01
 1321.800 -.17850E+01
 1322.400  .93749E+00
 1323.000  .16468E+01
 1323.600  .85456E+00
 1324.300  .57884E+00
 1324.900  .66503E-01
 1325.500  .29437E+01
 1326.100  .87725E+00
 1326.700  .30996E+01
 1327.300  .28709E+01
 1327.900  .79919E+00
 1328.500  .27434E+01
 1329.100  .29397E+01
 1329.700  .33259E+01
 1330.300  .91571E+00
 1330.900  .19650E+01
 1331.500 -.40281E+00
 1332.100  .22630E+01
 1332.700  .15086E+01
 1333.300  .23239E+01
 1333.900  .21401E+01
 1334.500  .14314E+01
 1335.100  .28214E+01
 1335.700  .26375E+01
 1336.300  .12104E+01
 1336.900  .22209E+01
 1337.500  .98257E+00
 1338.100  .23300E+01
 1338.700  .10897E+01
 1339.300  .32076E+01
 1339.900  .22062E+01
 1340.500  .21647E+01
 1341.100  .11608E+01
 1341.700  .20817E+01
 1342.300  .12688E+01
 1342.900  .93701E+00
 1343.500  .22945E+01
 1344.100  .15764E+01
 1344.700  .21146E+01
 1345.300  .17340E+01
 1345.900  .23700E+01
 1346.500 -.38664E+00
 1347.100  .45671E+01
 1347.700  .27790E+01
 1348.300  .27376E+01
 1348.900  .70173E+00
 1349.500  .36768E+01
 1350.100  .33437E+01
 1350.700  .47654E+01
 1351.300  .13093E+01
 1351.900  .32201E+01
 1352.500  .28366E+01
 1353.100  .22568E+01
 1353.700  .40262E+01
 1354.300  .49655E+01
 1354.900  .47783E+01
 1355.500  .25784E+01
 1356.100  .53364E+01
 1356.700  .43133E+01
 1357.300  .39281E+01
 1357.900  .33946E+01
 1358.500  .49301E+01
 1359.100  .35087E+01
 1359.700  .52443E+01
 1360.300  .23386E+01
 1360.900  .29388E+01
 1361.500  .56680E+01
 1362.100  .37955E+01
 1362.700  .46463E+01
 1363.300  .51015E+01
 1363.900  .39687E+01
 1364.500  .25359E+01
 1365.100  .56760E+01
 1365.700  .60838E+01
 1366.300  .32545E+01
 1366.900  .37607E+01
 1367.500  .44173E+01
 1368.100  .37269E+01
 1368.700  .29353E+01
 1369.300  .41931E+01
 1369.900  .30002E+01
 1370.500  .49113E+01
 1371.100  .49203E+01
 1371.700  .38254E+01
 1372.300  .55410E+01
 1372.900  .48469E+01
 1373.500  .55601E+01
 1374.100  .56703E+01
 1374.700  .35639E+01
 1375.300  .85636E+01
 1375.900  .51442E+01
 1376.500  .38908E+01
 1377.100  .70833E+01
 1377.700  .62847E+01
 1378.300  .46243E+01
 1378.900  .69130E+01
 1379.500  .51997E+01
 1380.100  .83046E+01
 1380.700  .64372E+01
 1381.300  .52784E+01
 1381.900  .54912E+01
 1382.500  .50934E+01
 1383.100  .58160E+01
 1383.700  .72536E+01
 1384.300  .63459E+01
 1384.900  .67137E+01
 1385.500  .58041E+01
 1386.100  .59674E+01
 1386.700  .68989E+01
 1387.300  .70633E+01
 1387.900  .60997E+01
 1388.500  .87272E+01
 1389.100  .63766E+01
 1389.700  .61299E+01
 1390.300  .53168E+01
 1390.900  .42450E+01
 1391.500  .78090E+01
 1392.100  .53451E+01
 1392.700  .87092E+01
 1393.300  .88763E+01
 1393.900  .56319E+01
 1394.500  .62624E+01
 1395.100  .60655E+01
 1395.700  .92363E+01
 1396.300  .81598E+01
 1396.900  .72374E+01
 1397.500  .81313E+01
 1398.100  .66875E+01
 1398.700  .71143E+01
 1399.300  .76978E+01
 1399.900  .77092E+01
 1400.500  .81899E+01
 1401.100  .81494E+01
 1401.700  .82656E+01
 1402.300  .63433E+01
 1402.800  .10223E+02
 1403.400  .96077E+01
 1404.000  .59534E+01
 1404.600  .85848E+01
 1405.200  .83345E+01
 1405.800  .96067E+01
 1406.400  .87787E+01
 1407.000  .11053E+02
 1407.600  .56975E+01
 1408.200  .80252E+01
 1408.800  .95130E+01
 1409.400  .97369E+01
 1410.000  .96970E+01
 1410.600  .97628E+01
 1411.200  .93527E+01
 1411.800  .98418E+01
 1412.400  .75771E+01
 1413.000  .89137E+01
 1413.600  .12428E+02
 1414.200  .10478E+02
 1414.800  .85788E+01
 1415.400  .98139E+01
 1416.000  .83900E+01
 1416.600  .87215E+01
 1417.200  .11879E+02
 1417.800  .85325E+01
 1418.400  .10947E+02
 1419.000  .10266E+02
 1419.500  .10064E+02
 1420.100  .10933E+02
 1420.700  .91263E+01
 1421.300  .11443E+02
 1421.900  .99559E+01
 1422.500  .96470E+01
 1423.100  .12937E+02
 1423.700  .89740E+01
 1424.300  .10116E+02
 1424.900  .99141E+01
 1425.500  .11382E+02
 1426.100  .10803E+02
 1426.700  .11681E+02
 1427.300  .10345E+02
 1427.900  .10791E+02
 1428.500  .11562E+02
 1429.100  .10548E+02
 1429.700  .11537E+02
 1430.300  .11714E+02
 1430.900  .10806E+02
 1431.500  .10765E+02
