  124.500  .49444E+01
  125.200  .45948E+01
  125.900  .42893E+01
  126.600  .40423E+01
  127.300  .39851E+01
  128.000  .37190E+01
  128.600  .38898E+01
  129.300  .41182E+01
  130.000  .43846E+01
  130.700  .44040E+01
  131.400  .44896E+01
  132.100  .46365E+01
  132.800  .44109E+01
  133.500  .42650E+01
  134.200  .40627E+01
  134.900  .40610E+01
  135.600  .38999E+01
  136.300  .37324E+01
  136.900  .39564E+01
  137.600  .41018E+01
  138.300  .43587E+01
  139.000  .48022E+01
  139.700  .53937E+01
  140.400  .53947E+01
  141.100  .52602E+01
  141.800  .48076E+01
  142.500  .46712E+01
  143.200  .44798E+01
  143.900  .41688E+01
  144.500  .41947E+01
  145.200  .42291E+01
  145.900  .43680E+01
  146.600  .43010E+01
  147.300  .45915E+01
  148.000  .47273E+01
  148.700  .46512E+01
  149.400  .45317E+01
  150.100  .44004E+01
  150.800  .45401E+01
  151.500  .45816E+01
  152.100  .46509E+01
  152.800  .48259E+01
  153.500  .49629E+01
  154.200  .48218E+01
  154.900  .50839E+01
  155.600  .54846E+01
  156.300  .54847E+01
  157.000  .53374E+01
  157.700  .49598E+01
  158.400  .49301E+01
  159.000  .49065E+01
  159.700  .46050E+01
  160.400  .47943E+01
  161.100  .49349E+01
  161.800  .48316E+01
  162.500  .51309E+01
  163.200  .51215E+01
  163.900  .53527E+01
  164.600  .52795E+01
  165.200  .53569E+01
  165.900  .52088E+01
  166.600  .50576E+01
  167.300  .50882E+01
  168.000  .50591E+01
  168.700  .54010E+01
  169.400  .58881E+01
  170.100  .54624E+01
  170.800  .55411E+01
  171.400  .61258E+01
  172.100  .74057E+01
  172.800  .62320E+01
  173.500  .55748E+01
  174.200  .56109E+01
  174.900  .55340E+01
  175.600  .57278E+01
  176.300  .55963E+01
  177.000  .55986E+01
  177.600  .56856E+01
  178.300  .57840E+01
  179.000  .58326E+01
  179.700  .59113E+01
  180.400  .58063E+01
  181.100  .57035E+01
  181.800  .58076E+01
  182.500  .59522E+01
  183.100  .57565E+01
  183.800  .59553E+01
  184.500  .59145E+01
  185.200  .59042E+01
  185.900  .60570E+01
  186.600  .63857E+01
  187.300  .64602E+01
  188.000  .64749E+01
  188.600  .63468E+01
  189.300  .65955E+01
  190.000  .65388E+01
  190.700  .66768E+01
  191.400  .63827E+01
  192.100  .63992E+01
  192.800  .64985E+01
  193.500  .63575E+01
  194.100  .65842E+01
  194.800  .64859E+01
  195.500  .67976E+01
  196.200  .71435E+01
  196.900  .69030E+01
  197.600  .69561E+01
  198.300  .69887E+01
  199.000  .70368E+01
  199.600  .69527E+01
  200.300  .71267E+01
  201.000  .70640E+01
  201.700  .71120E+01
  202.400  .75579E+01
  203.100  .75548E+01
  203.800  .71860E+01
  204.400  .75671E+01
  205.100  .75625E+01
  205.800  .71907E+01
  206.500  .75627E+01
  207.200  .77647E+01
  207.900  .72889E+01
  208.600  .77417E+01
  209.200  .76588E+01
  209.900  .76742E+01
  210.600  .77066E+01
  211.300  .79145E+01
  212.000  .79832E+01
  212.700  .80287E+01
  213.400  .76388E+01
  214.000  .81544E+01
  214.700  .80253E+01
  215.400  .84347E+01
  216.100  .82985E+01
  216.800  .82094E+01
  217.500  .87811E+01
  218.200  .85308E+01
  218.800  .85076E+01
  219.500  .85291E+01
  220.200  .86391E+01
  220.900  .89160E+01
  221.600  .89389E+01
  222.300  .88840E+01
  222.900  .88722E+01
  223.600  .93971E+01
  224.300  .93688E+01
  225.000  .91346E+01
  225.700  .92698E+01
  226.400  .90980E+01
  227.100  .98670E+01
  227.700  .97010E+01
  228.400  .98749E+01
  229.100  .10037E+02
  229.800  .99859E+01
  230.500  .99549E+01
  231.200  .99578E+01
  231.800  .10148E+02
  232.500  .10039E+02
  233.200  .10254E+02
  233.900  .10278E+02
  234.600  .10100E+02
  235.300  .10665E+02
  235.900  .10725E+02
  236.600  .10721E+02
  237.300  .10900E+02
  238.000  .11133E+02
  238.700  .10862E+02
  239.400  .10759E+02
  240.000  .11202E+02
  240.700  .11137E+02
  241.400  .11421E+02
  242.100  .11493E+02
  242.800  .11619E+02
  243.500  .11367E+02
  244.100  .12027E+02
  244.800  .12086E+02
  245.500  .12012E+02
  246.200  .11873E+02
  246.900  .12010E+02
  247.600  .12356E+02
  248.200  .12141E+02
  248.900  .12409E+02
  249.600  .12866E+02
  250.300  .13181E+02
  251.000  .12982E+02
  251.700  .13225E+02
  252.300  .12806E+02
  253.000  .13175E+02
  253.700  .13078E+02
  254.400  .13443E+02
  255.100  .13633E+02
  255.700  .13415E+02
  256.400  .13794E+02
  257.100  .14108E+02
  257.800  .14320E+02
  258.500  .13875E+02
  259.200  .14244E+02
  259.800  .14194E+02
  260.500  .14762E+02
  261.200  .14334E+02
  261.900  .15068E+02
  262.600  .14877E+02
  263.200  .14916E+02
  263.900  .15237E+02
  264.600  .14725E+02
  265.300  .15047E+02
  266.000  .15427E+02
  266.700  .14795E+02
  267.300  .15537E+02
  268.000  .15588E+02
  268.700  .16013E+02
  269.400  .16452E+02
  270.100  .16497E+02
  270.700  .15788E+02
  271.400  .16508E+02
  272.100  .16494E+02
  272.800  .17223E+02
  273.500  .17115E+02
  274.100  .16954E+02
  274.800  .17341E+02
  275.500  .17122E+02
  276.200  .17591E+02
  276.900  .18035E+02
  277.500  .17702E+02
  278.200  .18430E+02
  278.900  .18087E+02
  279.600  .18155E+02
  280.300  .18151E+02
  280.900  .18523E+02
  281.600  .18417E+02
  282.300  .18464E+02
  283.000  .18978E+02
  283.700  .19611E+02
  284.300  .18917E+02
  285.000  .18934E+02
  285.700  .19573E+02
  286.400  .19708E+02
  287.100  .19993E+02
  287.700  .20128E+02
  288.400  .20179E+02
  289.100  .20069E+02
  289.800  .20011E+02
  290.500  .20312E+02
  291.100  .20765E+02
  291.800  .20290E+02
  292.500  .20926E+02
  293.200  .21645E+02
  293.900  .21421E+02
  294.500  .20878E+02
  295.200  .21695E+02
  295.900  .21387E+02
  296.600  .21837E+02
  297.300  .21937E+02
  297.900  .21977E+02
  298.600  .22652E+02
  299.300  .23437E+02
  300.000  .22858E+02
  300.600  .23459E+02
  301.300  .23167E+02
  302.000  .23483E+02
  302.700  .23387E+02
  303.400  .23005E+02
  304.000  .24010E+02
  304.700  .24512E+02
  305.400  .24212E+02
  306.100  .24489E+02
  306.800  .24706E+02
  307.400  .24909E+02
  308.100  .24628E+02
  308.800  .24760E+02
  309.500  .24844E+02
  310.100  .25173E+02
  310.800  .25519E+02
  311.500  .25855E+02
  312.200  .26520E+02
  312.900  .26483E+02
  313.500  .25873E+02
  314.200  .27154E+02
  314.900  .27117E+02
  315.600  .27747E+02
  316.200  .27347E+02
  316.900  .27761E+02
  317.600  .27646E+02
  318.300  .29002E+02
  318.900  .28479E+02
  319.600  .29100E+02
  320.300  .30080E+02
  321.000  .30181E+02
  321.700  .30867E+02
  322.300  .30524E+02
  323.000  .31537E+02
  323.700  .31265E+02
  324.400  .32086E+02
  325.000  .31182E+02
  325.700  .31598E+02
  326.400  .31757E+02
  327.100  .32067E+02
  327.700  .31215E+02
  328.400  .31538E+02
  329.100  .32043E+02
  329.800  .31700E+02
  330.500  .31998E+02
  331.100  .31970E+02
  331.800  .31747E+02
  332.500  .32202E+02
  333.200  .32362E+02
  333.800  .31631E+02
  334.500  .32864E+02
  335.200  .32925E+02
  335.900  .33636E+02
  336.500  .32895E+02
  337.200  .33815E+02
  337.900  .33936E+02
  338.600  .34556E+02
  339.200  .34453E+02
  339.900  .35035E+02
  340.600  .34772E+02
  341.300  .35388E+02
  341.900  .35553E+02
  342.600  .35678E+02
  343.300  .35502E+02
  344.000  .35414E+02
  344.600  .35335E+02
  345.300  .36283E+02
  346.000  .36410E+02
  346.700  .36798E+02
  347.300  .36596E+02
  348.000  .37576E+02
  348.700  .37223E+02
  349.400  .37117E+02
  350.000  .37334E+02
  350.700  .38737E+02
  351.400  .38949E+02
  352.100  .38433E+02
  352.700  .38607E+02
  353.400  .39010E+02
  354.100  .39191E+02
  354.800  .40242E+02
  355.400  .39921E+02
  356.100  .40121E+02
  356.800  .39882E+02
  357.500  .41438E+02
  358.100  .40326E+02
  358.800  .41301E+02
  359.500  .41852E+02
  360.200  .41313E+02
  360.800  .42543E+02
  361.500  .43086E+02
  362.200  .42526E+02
  362.800  .43502E+02
  363.500  .42652E+02
  364.200  .43555E+02
  364.900  .44702E+02
  365.500  .45185E+02
  366.200  .44547E+02
  366.900  .45450E+02
  367.600  .44427E+02
  368.200  .44982E+02
  368.900  .45094E+02
  369.600  .46304E+02
  370.300  .45319E+02
  370.900  .46601E+02
  371.600  .46840E+02
  372.300  .48247E+02
  372.900  .47652E+02
  373.600  .47148E+02
  374.300  .46801E+02
  375.000  .48851E+02
  375.600  .49145E+02
  376.300  .48347E+02
  377.000  .48955E+02
  377.700  .49366E+02
  378.300  .49681E+02
  379.000  .49967E+02
  379.700  .50273E+02
  380.300  .49469E+02
  381.000  .51307E+02
  381.700  .51210E+02
  382.400  .51577E+02
  383.000  .51994E+02
  383.700  .51596E+02
  384.400  .53225E+02
  385.000  .52706E+02
  385.700  .53268E+02
  386.400  .53359E+02
  387.100  .53907E+02
  387.700  .54527E+02
  388.400  .55560E+02
  389.100  .55637E+02
  389.800  .53879E+02
  390.400  .55220E+02
  391.100  .54555E+02
  391.800  .54918E+02
  392.400  .55804E+02
  393.100  .56781E+02
  393.800  .55477E+02
  394.500  .57110E+02
  395.100  .57356E+02
  395.800  .56875E+02
  396.500  .57108E+02
  397.100  .58656E+02
  397.800  .58071E+02
  398.500  .60062E+02
  399.100  .59710E+02
  399.800  .58694E+02
  400.500  .59461E+02
  401.200  .60519E+02
  401.800  .60119E+02
  402.500  .59889E+02
  403.200  .62213E+02
  403.800  .60736E+02
  404.500  .62121E+02
  405.200  .63473E+02
  405.900  .62179E+02
  406.500  .63676E+02
  407.200  .64412E+02
  407.900  .64308E+02
  408.500  .64828E+02
  409.200  .65381E+02
  409.900  .64190E+02
  410.500  .65289E+02
  411.200  .66338E+02
  411.900  .66233E+02
  412.600  .65025E+02
  413.200  .66785E+02
  413.900  .65983E+02
  414.600  .66175E+02
  415.200  .66905E+02
  415.900  .67778E+02
  416.600  .67887E+02
  417.200  .68251E+02
  417.900  .68073E+02
  418.600  .68624E+02
  419.200  .69992E+02
  419.900  .70149E+02
  420.600  .70463E+02
  421.300  .70957E+02
  421.900  .70948E+02
  422.600  .70316E+02
  423.300  .70335E+02
  423.900  .71799E+02
  424.600  .72026E+02
  425.300  .73260E+02
  425.900  .73825E+02
  426.600  .74633E+02
  427.300  .74568E+02
  427.900  .74977E+02
  428.600  .74933E+02
  429.300  .74726E+02
  430.000  .74959E+02
  430.600  .75136E+02
  431.300  .77790E+02
  432.000  .76053E+02
  432.600  .76444E+02
  433.300  .77084E+02
  434.000  .77038E+02
  434.600  .78386E+02
  435.300  .78461E+02
  436.000  .79206E+02
  436.600  .78068E+02
  437.300  .80672E+02
  438.000  .80557E+02
  438.600  .80380E+02
  439.300  .81453E+02
  440.000  .81263E+02
  440.600  .83531E+02
  441.300  .82803E+02
  442.000  .82587E+02
  442.600  .84555E+02
  443.300  .82632E+02
  444.000  .85167E+02
  444.600  .83345E+02
  445.300  .84046E+02
  446.000  .85978E+02
  446.600  .82959E+02
  447.300  .84316E+02
  448.000  .85201E+02
  448.600  .84279E+02
  449.300  .86844E+02
  450.000  .87052E+02
  450.600  .87837E+02
  451.300  .87611E+02
  452.000  .86225E+02
  452.600  .88068E+02
  453.300  .86959E+02
  454.000  .89238E+02
  454.600  .88814E+02
  455.300  .85816E+02
  456.000  .87664E+02
  456.600  .89563E+02
  457.300  .89773E+02
  458.000  .90036E+02
  458.600  .89812E+02
  459.300  .89650E+02
  460.000  .90683E+02
  460.600  .88989E+02
  461.300  .88312E+02
  462.000  .89721E+02
  462.600  .90670E+02
  463.300  .89287E+02
  464.000  .88545E+02
  464.600  .90878E+02
  465.300  .91195E+02
  466.000  .88348E+02
  466.600  .89495E+02
  467.300  .90464E+02
  468.000  .91411E+02
  468.600  .90808E+02
  469.300  .90486E+02
  470.000  .90744E+02
  470.600  .90243E+02
  471.300  .89831E+02
  472.000  .90533E+02
  472.600  .89828E+02
  473.300  .92470E+02
  474.000  .90900E+02
  474.600  .91233E+02
  475.300  .91575E+02
  475.900  .91029E+02
  476.600  .91740E+02
  477.300  .93711E+02
  477.900  .92533E+02
  478.600  .93940E+02
  479.300  .93741E+02
  479.900  .92494E+02
  480.600  .93590E+02
  481.300  .93067E+02
  481.900  .94016E+02
  482.600  .93751E+02
  483.300  .94771E+02
  483.900  .95670E+02
  484.600  .96758E+02
  485.200  .95218E+02
  485.900  .96928E+02
  486.600  .96987E+02
  487.200  .96027E+02
  487.900  .96230E+02
  488.600  .98943E+02
  489.200  .98726E+02
  489.900  .97434E+02
  490.600  .98061E+02
  491.200  .97052E+02
  491.900  .96499E+02
  492.500  .95935E+02
  493.200  .96955E+02
  493.900  .98224E+02
  494.500  .98268E+02
  495.200  .96111E+02
  495.900  .95940E+02
  496.500  .95853E+02
  497.200  .95122E+02
  497.900  .93364E+02
  498.500  .92584E+02
  499.200  .93579E+02
  499.800  .90642E+02
  500.500  .89163E+02
  501.200  .90372E+02
  501.800  .85956E+02
  502.500  .85144E+02
  503.200  .87140E+02
  503.800  .83788E+02
  504.500  .84550E+02
  505.100  .83881E+02
  505.800  .82218E+02
  506.500  .80066E+02
  507.100  .78513E+02
  507.800  .78269E+02
  508.500  .76506E+02
  509.100  .78391E+02
  509.800  .76877E+02
  510.400  .74613E+02
  511.100  .73080E+02
  511.800  .72388E+02
  512.400  .70913E+02
  513.100  .69226E+02
  513.800  .68023E+02
  514.400  .67843E+02
  515.100  .67390E+02
  515.700  .66445E+02
  516.400  .63891E+02
  517.100  .63355E+02
  517.700  .63260E+02
  518.400  .62451E+02
  519.000  .62018E+02
  519.700  .60898E+02
  520.400  .58524E+02
  521.000  .56421E+02
  521.700  .58596E+02
  522.400  .56910E+02
  523.000  .56523E+02
  523.700  .56085E+02
  524.300  .55693E+02
  525.000  .54359E+02
  525.700  .53189E+02
  526.300  .51994E+02
  527.000  .51985E+02
  527.600  .52581E+02
  528.300  .51151E+02
  529.000  .52531E+02
  529.600  .51213E+02
  530.300  .46131E+02
  530.900  .48226E+02
  531.600  .49153E+02
  532.300  .47972E+02
  532.900  .47085E+02
  533.600  .46882E+02
  534.200  .48151E+02
  534.900  .44679E+02
  535.600  .45893E+02
  536.200  .44454E+02
  536.900  .45529E+02
  537.500  .44118E+02
  538.200  .43506E+02
  538.900  .44188E+02
  539.500  .45147E+02
  540.200  .44460E+02
  540.800  .43536E+02
  541.500  .41385E+02
  542.200  .42871E+02
  542.800  .42996E+02
  543.500  .42183E+02
  544.100  .41205E+02
  544.800  .42335E+02
  545.500  .41883E+02
  546.100  .42264E+02
  546.800  .42365E+02
  547.400  .40074E+02
  548.100  .38158E+02
  548.800  .41011E+02
  549.400  .41843E+02
  550.100  .40742E+02
  550.700  .40111E+02
  551.400  .41072E+02
  552.100  .38525E+02
  552.700  .41177E+02
  553.400  .40325E+02
  554.000  .41015E+02
  554.700  .40044E+02
  555.300  .40888E+02
  556.000  .37922E+02
  556.700  .38240E+02
  557.300  .39086E+02
  558.000  .40410E+02
  558.600  .37401E+02
  559.300  .38804E+02
  560.000  .39088E+02
  560.600  .38116E+02
  561.300  .39217E+02
  561.900  .36873E+02
  562.600  .39307E+02
  563.200  .38718E+02
  563.900  .38768E+02
  564.600  .37438E+02
  565.200  .35576E+02
  565.900  .37478E+02
  566.500  .36877E+02
  567.200  .38035E+02
  567.800  .37153E+02
  568.500  .37677E+02
  569.200  .37883E+02
  569.800  .38117E+02
  570.500  .37198E+02
  571.100  .37794E+02
  571.800  .35982E+02
  572.400  .36132E+02
  573.100  .38485E+02
  573.800  .36905E+02
  574.400  .37791E+02
  575.100  .38284E+02
  575.700  .35739E+02
  576.400  .36106E+02
  577.000  .35764E+02
  577.700  .35226E+02
  578.400  .35718E+02
  579.000  .37647E+02
  579.700  .37772E+02
  580.300  .38011E+02
  581.000  .36596E+02
  581.600  .36540E+02
  582.300  .36621E+02
  583.000  .36241E+02
  583.600  .36184E+02
  584.300  .37989E+02
  584.900  .36248E+02
  585.600  .37257E+02
  586.200  .38090E+02
  586.900  .39404E+02
  587.600  .39704E+02
  588.200  .39778E+02
  588.900  .39652E+02
  589.500  .39683E+02
  590.200  .40328E+02
  590.800  .40575E+02
  591.500  .41224E+02
  592.100  .39272E+02
  592.800  .37367E+02
  593.500  .39399E+02
  594.100  .40559E+02
  594.800  .42040E+02
  595.400  .41420E+02
  596.100  .41729E+02
  596.700  .42025E+02
  597.400  .42204E+02
  598.000  .40698E+02
  598.700  .43784E+02
  599.400  .44320E+02
  600.000  .42675E+02
  600.700  .40282E+02
  601.300  .41512E+02
  602.000  .42135E+02
  602.600  .42748E+02
  603.300  .42392E+02
  603.900  .42156E+02
  604.600  .41482E+02
  605.200  .41647E+02
  605.900  .42187E+02
  606.600  .42548E+02
  607.200  .39636E+02
  607.900  .37813E+02
  608.500  .42338E+02
  609.200  .39009E+02
  609.800  .37709E+02
  610.500  .38429E+02
  611.100  .35930E+02
  611.800  .36786E+02
  612.400  .36254E+02
  613.100  .34576E+02
  613.800  .35480E+02
  614.400  .34338E+02
  615.100  .35617E+02
  615.700  .34517E+02
  616.400  .33842E+02
  617.000  .34042E+02
  617.700  .32521E+02
  618.300  .31734E+02
  619.000  .30859E+02
  619.600  .28512E+02
  620.300  .28995E+02
  620.900  .30463E+02
  621.600  .28867E+02
  622.200  .27920E+02
  622.900  .27025E+02
  623.600  .27365E+02
  624.200  .26458E+02
  624.900  .27515E+02
  625.500  .25549E+02
  626.200  .26128E+02
  626.800  .23430E+02
  627.500  .26755E+02
  628.100  .24675E+02
  628.800  .24772E+02
  629.400  .26657E+02
  630.100  .22870E+02
  630.700  .23054E+02
  631.400  .22758E+02
  632.000  .21378E+02
  632.700  .21027E+02
  633.300  .22338E+02
  634.000  .21250E+02
  634.700  .22277E+02
  635.300  .21523E+02
  636.000  .21169E+02
  636.600  .20758E+02
  637.300  .20847E+02
  637.900  .20483E+02
  638.600  .16981E+02
  639.200  .18857E+02
  639.900  .18291E+02
  640.500  .18220E+02
  641.200  .18606E+02
  641.800  .17126E+02
  642.500  .17208E+02
  643.100  .15618E+02
  643.800  .18280E+02
  644.400  .17446E+02
  645.100  .16106E+02
  645.700  .15316E+02
  646.400  .15293E+02
  647.000  .15930E+02
  647.700  .14934E+02
  648.300  .15522E+02
  649.000  .14418E+02
  649.600  .14904E+02
  650.300  .15756E+02
  650.900  .12781E+02
  651.600  .14202E+02
  652.200  .13341E+02
  652.900  .14145E+02
  653.500  .13697E+02
  654.200  .13356E+02
  654.800  .13375E+02
  655.500  .13399E+02
  656.200  .13212E+02
  656.800  .13284E+02
  657.500  .13676E+02
  658.100  .11320E+02
  658.800  .14513E+02
  659.400  .12150E+02
  660.100  .10311E+02
  660.700  .12294E+02
  661.400  .10929E+02
  662.000  .12065E+02
  662.700  .10962E+02
  663.300  .10119E+02
  664.000  .12177E+02
  664.600  .12624E+02
  665.300  .11945E+02
  665.900  .11529E+02
  666.600  .99250E+01
  667.200  .12649E+02
  667.900  .12344E+02
  668.500  .10892E+02
  669.200  .10256E+02
  669.800  .10652E+02
  670.500  .98478E+01
  671.100  .10080E+02
  671.800  .10810E+02
  672.400  .80190E+01
  673.000  .99025E+01
  673.700  .90344E+01
  674.300  .92672E+01
  675.000  .75079E+01
  675.600  .85716E+01
  676.300  .86398E+01
  676.900  .83164E+01
  677.600  .96681E+01
  678.200  .69967E+01
  678.900  .10312E+02
  679.500  .10830E+02
  680.200  .83730E+01
  680.800  .79327E+01
  681.500  .67587E+01
  682.100  .77838E+01
  682.800  .78512E+01
  683.400  .78606E+01
  684.100  .79283E+01
  684.700  .58310E+01
  685.400  .85192E+01
  686.000  .71010E+01
  686.700  .83699E+01
  687.300  .65448E+01
  688.000  .83917E+01
  688.600  .94378E+01
  689.300  .67989E+01
  689.900  .72684E+01
  690.600  .87826E+01
  691.200  .68223E+01
  691.900  .75279E+01
  692.500  .66638E+01
  693.200  .81876E+01
  693.800  .86058E+01
  694.400  .98442E+01
  695.100  .78663E+01
  695.700  .72885E+01
  696.400  .74742E+01
  697.000  .64812E+01
  697.700  .83773E+01
  698.300  .83280E+01
  699.000  .67996E+01
  699.600  .57984E+01
  700.300  .65773E+01
  700.900  .81317E+01
  701.600  .74865E+01
  702.200  .70168E+01
  702.900  .64868E+01
  703.500  .80519E+01
  704.200  .71015E+01
  704.800  .71692E+01
  705.500  .65753E+01
  706.100  .75477E+01
  706.700  .56816E+01
  707.400  .63539E+01
  708.000  .84836E+01
  708.700  .74007E+01
  709.300  .72258E+01
  710.000  .60757E+01
  710.600  .85863E+01
  711.300  .67613E+01
  711.900  .70746E+01
  712.600  .84343E+01
  713.200  .75824E+01
  713.900  .67288E+01
  714.500  .69824E+01
  715.100  .56291E+01
  715.800  .76790E+01
  716.400  .53914E+01
  717.100  .74479E+01
  717.700  .65839E+01
  718.400  .71526E+01
  719.000  .55355E+01
  719.700  .41639E+01
  720.300  .53574E+01
  721.000  .71837E+01
  721.600  .72537E+01
  722.200  .71350E+01
  722.900  .76481E+01
  723.500  .72135E+01
  724.200  .50685E+01
  724.800  .90685E+01
  725.500  .53943E+01
  726.100  .85173E+01
  726.800  .71251E+01
  727.400  .92395E+01
  728.100  .77159E+01
  728.700  .81722E+01
  729.300  .94643E+01
  730.000  .78691E+01
  730.600  .80059E+01
  731.300  .71122E+01
  731.900  .78944E+01
  732.600  .68032E+01
  733.200  .89489E+01
  733.900  .79209E+01
  734.500  .55220E+01
  735.100  .76110E+01
  735.800  .67059E+01
  736.400  .74310E+01
  737.100  .72428E+01
  737.700  .96764E+01
  738.400  .80461E+01
  739.000  .79224E+01
  739.700  .84590E+01
  740.300  .94580E+01
  740.900  .10857E+02
  741.600  .84200E+01
  742.200  .98881E+01
  742.900  .94353E+01
  743.500  .82471E+01
  744.200  .68562E+01
  744.800  .10469E+02
  745.500  .10081E+02
  746.100  .11298E+02
  746.700  .92973E+01
  747.400  .12132E+02
  748.000  .94530E+01
  748.700  .79805E+01
  749.300  .11771E+02
  750.000  .12802E+02
  750.600  .83435E+01
  751.200  .12221E+02
  751.900  .13257E+02
  752.500  .11842E+02
  753.200  .11108E+02
  753.800  .12965E+02
  754.500  .11476E+02
  755.100  .10941E+02
  755.700  .13904E+02
  756.400  .12273E+02
  757.000  .14078E+02
  757.700  .14166E+02
  758.300  .15288E+02
  759.000  .13510E+02
  759.600  .14565E+02
  760.200  .11458E+02
  760.900  .14115E+02
  761.500  .16291E+02
  762.200  .14640E+02
  762.800  .17312E+02
  763.500  .15797E+02
  764.100  .16306E+02
  764.700  .14430E+02
  765.400  .14590E+02
  766.000  .18974E+02
  766.700  .19707E+02
  767.300  .17894E+02
  767.900  .17633E+02
  768.600  .18863E+02
  769.200  .19241E+02
  769.900  .20549E+02
  770.500  .20717E+02
  771.200  .20105E+02
  771.800  .19487E+02
  772.400  .20011E+02
  773.100  .20542E+02
  773.700  .21285E+02
  774.400  .23760E+02
  775.000  .23862E+02
  775.600  .22162E+02
  776.300  .27106E+02
  776.900  .23741E+02
  777.600  .25370E+02
  778.200  .24967E+02
  778.900  .26966E+02
  779.500  .26637E+02
  780.100  .22296E+02
  780.800  .26199E+02
  781.400  .24111E+02
  782.100  .29055E+02
  782.700  .28652E+02
  783.300  .26852E+02
  784.000  .28290E+02
  784.600  .29800E+02
  785.300  .28146E+02
  785.900  .29808E+02
  786.500  .29328E+02
  787.200  .31671E+02
  787.800  .32231E+02
  788.500  .30494E+02
  789.100  .31204E+02
  789.700  .34079E+02
  790.400  .31215E+02
  791.000  .31031E+02
  791.700  .32501E+02
  792.300  .32543E+02
  792.900  .32960E+02
  793.600  .31804E+02
  794.200  .37727E+02
  794.900  .34838E+02
  795.500  .35034E+02
  796.100  .31897E+02
  796.800  .35207E+02
  797.400  .31833E+02
  798.100  .35457E+02
  798.700  .31920E+02
  799.300  .32189E+02
  800.000  .34912E+02
  800.600  .34574E+02
  801.300  .36082E+02
  801.900  .34208E+02
  801.100  .34242E+02
  801.700  .32520E+02
  802.400  .33490E+02
  803.000  .36227E+02
  803.600  .36659E+02
  804.300  .34937E+02
  804.900  .34672E+02
  805.600  .34335E+02
  806.200  .33758E+02
  806.900  .35750E+02
  807.500  .35717E+02
  808.100  .35294E+02
  808.800  .35814E+02
  809.400  .34765E+02
  810.100  .36695E+02
  810.700  .35800E+02
  811.400  .34674E+02
  812.000  .34639E+02
  812.600  .32556E+02
  813.300  .34732E+02
  813.900  .36039E+02
  814.600  .32057E+02
  815.200  .34710E+02
  815.900  .34681E+02
  816.500  .35201E+02
  817.100  .33494E+02
  817.800  .33860E+02
  818.400  .33184E+02
  819.100  .35789E+02
  819.700  .34472E+02
  820.300  .33152E+02
  821.000  .32476E+02
  821.600  .33481E+02
  822.300  .31676E+02
  822.900  .30343E+02
  823.600  .32001E+02
  824.200  .27915E+02
  824.800  .31754E+02
  825.500  .31880E+02
  826.100  .30294E+02
  826.800  .30255E+02
  827.400  .31513E+02
  828.000  .27634E+02
  828.700  .27263E+02
  829.300  .29423E+02
  830.000  .28889E+02
  830.600  .28349E+02
  831.200  .30437E+02
  831.900  .27515E+02
  832.500  .25487E+02
  833.200  .29318E+02
  833.800  .23483E+02
  834.400  .25496E+02
  835.100  .26359E+02
  835.700  .22654E+02
  836.400  .22267E+02
  837.000  .24457E+02
  837.600  .21482E+02
  838.300  .23264E+02
  838.900  .26969E+02
  839.600  .21644E+02
  840.200  .22507E+02
  840.900  .22535E+02
  841.500  .21383E+02
  842.100  .21574E+02
  842.800  .22614E+02
  843.400  .22216E+02
  844.100  .19706E+02
  844.700  .20320E+02
  845.300  .18984E+02
  846.000  .18158E+02
  846.600  .16645E+02
  847.200  .17002E+02
  847.900  .16852E+02
  848.500  .15074E+02
  849.200  .17316E+02
  849.800  .13735E+02
  850.400  .16064E+02
  851.100  .10325E+02
  851.700  .12828E+02
  852.400  .11032E+02
  853.000  .11558E+02
  853.600  .99261E+01
  854.300  .11579E+02
  854.900  .11588E+02
  855.600  .11773E+02
  856.200  .93497E+01
  856.800  .75290E+01
  857.500  .97125E+01
  858.100  .10592E+02
  858.800  .11650E+02
  859.400  .76344E+01
  860.000  .74633E+01
  860.700  .10189E+02
  861.300  .65931E+01
  861.900  .84437E+01
  862.600  .71280E+01
  863.200  .38665E+01
  863.900  .77541E+01
  864.500  .53690E+01
  865.100  .48385E+01
  865.800  .72351E+01
  866.400  .67054E+01
  867.000  .70641E+01
  867.700  .51076E+01
  868.300  .60005E+01
  869.000  .60027E+01
  869.600  .79731E+01
  870.200  .58272E+01
  870.900  .57394E+01
  871.500  .69986E+01
  872.200  .56525E+01
  872.800  .32212E+01
  873.400  .68280E+01
  874.100  .43918E+01
  874.700  .64722E+01
  875.300  .53875E+01
  876.000  .82916E+01
  876.600  .29369E+01
  877.300  .17516E+01
  877.900  .68488E+01
  878.500  .31121E+01
  879.200  .60327E+01
  879.800  .70404E+01
  880.400  .60360E+01
  881.100  .50290E+01
  881.700  .93455E+01
  882.300  .65009E+01
  883.000  .47538E+01
  883.600  .87186E+01
  884.300  .58617E+01
  884.900  .54932E+01
  885.500  .79937E+01
  886.200  .70712E+01
  886.800  .62386E+01
  887.400  .43812E+01
  888.100  .52183E+01
  888.700  .39139E+01
  889.300  .60591E+01
  890.000  .66217E+01
  890.600  .58751E+01
  891.300  .70950E+01
  891.900  .84115E+01
  892.500  .73823E+01
  893.200  .96443E+01
  893.800  .70121E+01
  894.400  .41846E+01
  895.100  .76790E+01
  895.700  .37094E+01
  896.300  .79699E+01
  897.000  .32316E+01
  897.600  .37042E+01
  898.300  .59849E+01
  898.900  .92239E+01
  899.500  .73221E+01
  900.200  .83758E+01
  900.800  .84756E+01
  901.400  .80012E+01
  902.100  .80054E+01
  902.700  .74331E+01
  903.300  .72438E+01
  904.000  .74394E+01
  904.600  .79241E+01
  905.200  .72521E+01
  905.900  .10637E+02
  906.500  .80318E+01
  907.100  .52261E+01
  907.800  .92035E+01
  908.400  .77516E+01
  909.100  .84361E+01
  909.700  .93167E+01
  910.300  .87366E+01
  911.000  .11183E+02
  911.600  .80616E+01
  912.200  .10219E+02
  912.900  .65005E+01
  913.500  .85633E+01
  914.100  .66017E+01
  914.800  .10147E+02
  915.400  .64081E+01
  916.000  .62121E+01
  916.700  .98691E+01
  917.300  .10864E+02
  917.900  .72059E+01
  918.600  .12069E+02
  919.200  .97929E+01
  919.800  .91022E+01
  920.500  .80122E+01
  921.100  .10009E+02
  921.700  .10314E+02
  922.400  .90218E+01
  923.000  .11829E+02
  923.600  .10133E+02
  924.300  .10742E+02
  924.900  .96428E+01
  925.500  .13269E+02
  926.200  .10661E+02
  926.800  .12180E+02
  927.400  .86539E+01
  928.100  .12602E+02
  928.700  .86621E+01
  929.300  .91727E+01
  930.000  .11716E+02
  930.600  .65397E+01
  931.200  .94918E+01
  931.900  .14898E+02
  932.500  .10012E+02
  933.100  .10835E+02
  933.800  .10330E+02
  934.400  .87999E+01
  935.000  .10137E+02
  935.700  .59329E+01
  936.300  .11690E+02
  936.900  .11080E+02
  937.600  .12428E+02
  938.200  .12126E+02
  938.800  .12754E+02
  939.500  .11005E+02
  940.100  .12358E+02
  940.700  .12884E+02
  941.400  .10817E+02
  942.000  .12279E+02
  942.600  .13119E+02
  943.300  .10523E+02
  943.900  .12303E+02
  944.500  .11475E+02
  945.200  .10227E+02
  945.800  .15052E+02
  946.400  .16846E+02
  947.100  .13395E+02
  947.700  .12983E+02
  948.300  .14886E+02
  948.900  .13632E+02
  949.600  .15437E+02
  950.200  .11750E+02
  950.800  .12920E+02
  951.500  .16215E+02
  952.100  .14636E+02
  952.700  .15389E+02
  953.400  .17104E+02
  954.000  .18927E+02
  954.600  .18836E+02
  955.300  .18106E+02
  955.900  .13738E+02
  956.500  .15995E+02
  957.200  .15472E+02
  957.800  .12480E+02
  958.400  .19898E+02
  959.000  .15290E+02
  959.700  .20149E+02
  960.300  .18332E+02
  960.900  .12950E+02
  961.600  .19660E+02
  962.200  .18702E+02
  962.800  .14492E+02
  963.500  .18951E+02
  964.100  .19400E+02
  964.700  .18872E+02
  965.400  .20305E+02
  966.000  .19994E+02
  966.600  .18482E+02
  967.200  .18387E+02
  967.900  .22561E+02
  968.500  .18089E+02
  969.100  .22818E+02
  969.800  .25037E+02
  970.400  .21101E+02
  971.000  .23209E+02
  971.700  .23453E+02
  972.300  .25900E+02
  972.900  .23824E+02
  973.500  .20305E+02
  974.200  .20988E+02
  974.800  .24331E+02
  975.400  .25573E+02
  976.100  .26599E+02
  976.700  .25954E+02
  977.300  .22078E+02
  978.000  .28457E+02
  978.600  .26249E+02
  979.200  .30856E+02
  979.800  .31332E+02
  980.500  .26097E+02
  981.100  .28812E+02
  981.700  .30523E+02
  982.400  .26955E+02
  983.000  .29119E+02
  983.600  .27002E+02
  984.200  .30976E+02
  984.900  .34061E+02
  985.500  .30924E+02
  986.100  .34010E+02
  986.800  .31324E+02
  987.400  .30103E+02
  988.000  .30129E+02
  988.700  .34146E+02
  989.300  .35545E+02
  989.900  .34322E+02
  990.500  .37895E+02
  991.200  .41711E+02
  991.800  .34994E+02
  992.400  .37549E+02
  993.100  .37819E+02
  993.700  .37854E+02
  994.300  .40075E+02
  994.900  .34814E+02
  995.600  .36696E+02
  996.200  .36846E+02
  996.800  .38960E+02
  997.400  .36798E+02
  998.100  .41473E+02
  998.700  .37103E+02
  999.300  .37137E+02
 1000.000  .38572E+02
 1000.600  .38608E+02
 1001.200  .38760E+02
 1001.800  .37862E+02
 1002.500  .39772E+02
 1003.100  .38522E+02
 1003.700  .35630E+02
 1004.400  .41413E+02
 1005.000  .39925E+02
 1005.600  .38317E+02
 1006.200  .38822E+02
 1006.900  .45579E+02
 1007.500  .38663E+02
 1008.100  .39761E+02
 1008.700  .42280E+02
 1009.400  .38775E+02
 1010.000  .39877E+02
 1010.600  .40862E+02
 1011.300  .38887E+02
 1011.900  .43084E+02
 1012.500  .38719E+02
 1013.100  .41257E+02
 1013.800  .45835E+02
 1014.400  .42175E+02
 1015.000  .39702E+02
 1015.600  .46443E+02
 1016.300  .41578E+02
 1016.900  .47617E+02
 1017.500  .45859E+02
 1018.100  .48788E+02
 1018.800  .44265E+02
 1019.400  .43824E+02
 1020.000  .49899E+02
 1020.700  .47778E+02
 1021.300  .48428E+02
 1021.900  .51016E+02
 1022.500  .50822E+02
 1023.200  .51606E+02
 1023.800  .46064E+02
 1024.400  .51824E+02
 1025.000  .52360E+02
 1025.700  .53637E+02
 1026.300  .52101E+02
 1026.900  .56183E+02
 1027.500  .51220E+02
 1028.200  .57279E+02
 1028.800  .51568E+02
 1029.400  .55914E+02
 1030.000  .57073E+02
 1030.700  .60459E+02
 1031.300  .58792E+02
 1031.900  .54530E+02
 1032.500  .60014E+02
 1033.200  .62059E+02
 1033.800  .59395E+02
 1034.400  .63540E+02
 1035.000  .62609E+02
 1035.700  .62306E+02
 1036.300  .64603E+02
 1036.900  .66531E+02
 1037.500  .60614E+02
 1038.200  .67917E+02
 1038.800  .67607E+02
 1039.400  .67922E+02
 1040.000  .66610E+02
 1040.700  .74203E+02
 1041.300  .70511E+02
 1041.900  .64048E+02
 1042.500  .73789E+02
 1043.200  .72739E+02
 1043.800  .74951E+02
 1044.400  .76790E+02
 1045.000  .80273E+02
 1045.700  .71134E+02
 1046.300  .74872E+02
 1046.900  .76845E+02
 1047.500  .74889E+02
 1048.200  .71290E+02
 1048.800  .81147E+02
 1049.400  .78171E+02
 1050.000  .81304E+02
 1050.700  .82416E+02
 1051.300  .81091E+02
 1051.900  .77845E+02
 1052.500  .85854E+02
 1053.200  .78775E+02
 1053.800  .81672E+02
 1054.400  .84576E+02
 1055.000  .81315E+02
 1055.600  .81907E+02
 1056.300  .87153E+02
 1056.900  .81561E+02
 1057.500  .88483E+02
 1058.100  .88051E+02
 1058.800  .81679E+02
 1059.400  .82534E+02
 1060.000  .84428E+02
 1060.600  .94506E+02
 1061.300  .85643E+02
 1061.900  .91320E+02
 1062.500  .83332E+02
 1063.100  .87323E+02
 1063.800  .84940E+02
 1064.400  .88549E+02
 1065.000  .89942E+02
 1065.600  .87278E+02
 1066.200  .89983E+02
 1066.900  .88639E+02
 1067.500  .89249E+02
 1068.100  .89071E+02
 1068.700  .89814E+02
 1069.400  .92551E+02
 1070.000  .95806E+02
 1070.600  .91670E+02
 1071.200  .95989E+02
 1071.800  .96081E+02
 1072.500  .83064E+02
 1073.100  .84337E+02
 1073.700  .96504E+02
 1074.300  .85027E+02
 1075.000  .85520E+02
 1075.600  .90798E+02
 1076.200  .92618E+02
 1076.800  .91103E+02
 1077.400  .92392E+02
 1078.100  .90352E+02
 1078.700  .94859E+02
 1079.300  .94009E+02
 1079.900  .93292E+02
 1080.600  .89227E+02
 1081.200  .94424E+02
 1081.800  .98959E+02
 1082.400  .95007E+02
 1083.000  .88751E+02
 1083.700  .92362E+02
 1084.300  .89607E+02
 1084.900  .90503E+02
 1085.500  .88148E+02
 1086.100  .88908E+02
 1086.800  .93760E+02
 1087.400  .95344E+02
 1088.000  .89851E+02
 1088.600  .92251E+02
 1089.300  .92624E+02
 1089.900  .88612E+02
 1090.500  .97446E+02
 1091.100  .90282E+02
 1091.700  .92695E+02
 1092.400  .91423E+02
 1093.000  .95902E+02
 1093.600  .92830E+02
 1094.200  .86035E+02
 1094.800  .93828E+02
 1095.500  .93377E+02
 1096.100  .93464E+02
 1096.700  .97143E+02
 1097.300  .89486E+02
 1097.900  .97600E+02
 1098.600  .94516E+02
 1099.200  .92383E+02
 1099.800  .96914E+02
 1100.400  .97281E+02
 1101.000  .91106E+02
 1101.700  .95803E+02
 1102.300  .94496E+02
 1102.900  .93884E+02
 1103.500  .97605E+02
 1104.100  .96995E+02
 1104.800  .97939E+02
 1105.400  .92419E+02
 1106.000  .91100E+02
 1106.600  .93290E+02
 1107.200  .95767E+02
 1107.900  .91925E+02
 1108.500  .91022E+02
 1109.100  .98302E+02
 1109.700  .95425E+02
 1110.300  .91977E+02
 1111.000  .88959E+02
 1111.600  .97684E+02
 1112.200  .97064E+02
 1112.800  .96726E+02
 1113.400  .97525E+02
 1114.100  .90370E+02
 1114.700  .96577E+02
 1115.300  .93527E+02
 1115.900  .10003E+03
 1116.500  .97696E+02
 1117.200  .90933E+02
 1117.800  .96170E+02
 1118.400  .92960E+02
 1119.000  .91465E+02
 1119.600  .96286E+02
 1120.200  .99823E+02
 1120.900  .84959E+02
 1121.500  .93391E+02
 1122.100  .93330E+02
 1122.700  .94857E+02
 1123.300  .89595E+02
 1124.000  .86216E+02
 1124.600  .89913E+02
 1125.200  .93617E+02
 1125.800  .93845E+02
 1126.400  .91895E+02
 1127.000  .95466E+02
 1127.700  .90907E+02
 1128.300  .90551E+02
 1128.900  .91506E+02
 1129.500  .88229E+02
 1130.100  .90645E+02
 1130.800  .91616E+02
 1131.400  .90818E+02
 1132.000  .86646E+02
 1132.600  .93033E+02
 1133.200  .87386E+02
 1133.800  .87315E+02
 1134.500  .88140E+02
 1135.100  .92491E+02
 1135.700  .88294E+02
 1136.300  .86747E+02
 1136.900  .91404E+02
 1137.500  .87342E+02
 1138.200  .91578E+02
 1138.800  .86024E+02
 1139.400  .88919E+02
 1140.000  .86619E+02
 1140.600  .90709E+02
 1141.300  .92438E+02
 1141.900  .84026E+02
 1142.500  .82905E+02
 1143.100  .87007E+02
 1143.700  .82001E+02
 1144.300  .88803E+02
 1145.000  .89042E+02
 1145.600  .84922E+02
 1146.200  .80643E+02
 1146.800  .81613E+02
 1147.400  .80781E+02
 1148.000  .79645E+02
 1148.700  .78971E+02
 1149.300  .79943E+02
 1149.900  .81067E+02
 1150.500  .84460E+02
 1151.100  .77121E+02
 1151.700  .81122E+02
 1152.400  .77564E+02
 1153.000  .77933E+02
 1153.600  .84680E+02
 1154.200  .75632E+02
 1154.800  .71587E+02
 1155.400  .73473E+02
 1156.000  .80699E+02
 1156.700  .76353E+02
 1157.300  .81458E+02
 1157.900  .76021E+02
 1158.500  .80829E+02
 1159.100  .76147E+02
 1159.700  .72837E+02
 1160.400  .75056E+02
 1161.000  .78806E+02
 1161.600  .73027E+02
 1162.200  .73241E+02
 1162.800  .77770E+02
 1163.400  .68887E+02
 1164.000  .72340E+02
 1164.700  .73646E+02
 1165.300  .73087E+02
 1165.900  .74851E+02
 1166.500  .72277E+02
 1167.100  .77146E+02
 1167.700  .70996E+02
 1168.400  .74951E+02
 1169.000  .70810E+02
 1169.600  .68842E+02
 1170.200  .66870E+02
 1170.800  .76758E+02
 1171.400  .70102E+02
 1172.000  .69845E+02
 1172.700  .68971E+02
 1173.300  .62131E+02
 1173.900  .74572E+02
 1174.500  .68352E+02
 1175.100  .63377E+02
 1175.700  .69248E+02
 1176.300  .68673E+02
 1177.000  .68895E+02
 1177.600  .61060E+02
 1178.200  .57475E+02
 1178.800  .67636E+02
 1179.400  .66582E+02
 1180.000  .66793E+02
 1180.600  .65895E+02
 1181.300  .68495E+02
 1181.900  .66960E+02
 1182.500  .55722E+02
 1183.100  .57993E+02
 1183.700  .64410E+02
 1184.300  .65736E+02
 1184.900  .65308E+02
 1185.600  .58976E+02
 1186.200  .56142E+02
 1186.800  .59065E+02
 1187.400  .62636E+02
 1188.000  .54183E+02
 1188.600  .58879E+02
 1189.200  .61013E+02
 1189.800  .58325E+02
 1190.500  .55800E+02
 1191.100  .59226E+02
 1191.700  .56044E+02
 1192.300  .55440E+02
 1192.900  .56775E+02
 1193.500  .48566E+02
 1194.100  .54268E+02
 1194.800  .54153E+02
 1195.400  .54355E+02
 1196.000  .56181E+02
 1196.600  .48745E+02
 1197.200  .47966E+02
 1197.800  .50769E+02
 1198.400  .58793E+02
 1199.000  .48557E+02
 1199.700  .45657E+02
 1200.300  .46670E+02
 1200.900  .50957E+02
 1201.500  .48864E+02
 1202.100  .53489E+02
 1202.700  .48113E+02
 1203.300  .47982E+02
 1203.900  .50975E+02
 1204.600  .49042E+02
 1205.200  .42981E+02
 1205.800  .46968E+02
 1206.400  .42544E+02
 1207.000  .44885E+02
 1207.600  .42601E+02
 1208.200  .40312E+02
 1208.800  .40338E+02
 1209.500  .43685E+02
 1210.100  .41557E+02
 1210.700  .41584E+02
 1211.300  .45270E+02
 1211.900  .44801E+02
 1212.500  .40999E+02
 1213.100  .40526E+02
 1213.700  .44057E+02
 1214.300  .38740E+02
 1215.000  .38267E+02
 1215.600  .37454E+02
 1216.200  .42001E+02
 1216.800  .35656E+02
 1217.400  .35845E+02
 1218.000  .40403E+02
 1218.600  .40261E+02
 1219.200  .33049E+02
 1219.800  .33236E+02
 1220.500  .31403E+02
 1221.100  .34797E+02
 1221.700  .32452E+02
 1222.300  .33654E+02
 1222.900  .31981E+02
 1223.500  .29797E+02
 1224.100  .26082E+02
 1224.700  .29149E+02
 1225.300  .22709E+02
 1226.000  .23910E+02
 1226.600  .31921E+02
 1227.200  .28702E+02
 1227.800  .25476E+02
 1228.400  .19002E+02
 1229.000  .26525E+02
 1229.600  .29445E+02
 1230.200  .22443E+02
 1230.800  .21081E+02
 1231.400  .26061E+02
 1232.100  .25046E+02
 1232.700  .23854E+02
 1233.300  .32462E+02
 1233.900  .19227E+02
 1234.500  .21301E+02
 1235.100  .23722E+02
 1235.700  .25458E+02
 1236.300  .14069E+02
 1236.900  .23579E+02
 1237.500  .16840E+02
 1238.200  .19616E+02
 1238.800  .23610E+02
 1239.400  .23620E+02
 1240.000  .19982E+02
 1240.600  .11296E+02
 1241.200  .18080E+02
 1241.800  .13557E+02
 1242.400  .14952E+02
 1243.000  .17571E+02
 1243.600  .17051E+02
 1244.200  .13384E+02
 1244.900  .10235E+02
 1245.500  .11809E+02
 1246.100  .11632E+02
 1246.700  .15140E+02
 1247.300  .16898E+02
 1247.900  .10223E+02
 1248.500  .13035E+02
 1249.100  .15676E+02
 1249.700  .13035E+02
 1250.300  .10389E+02
 1250.900  .12152E+02
 1251.600  .82625E+01
 1252.200  .10381E+02
 1252.800  .13742E+02
 1253.400  .39964E+01
 1254.000  .17645E+02
 1254.600  .43349E+01
 1255.200  .48600E+01
 1255.800  .15700E+02
 1256.400  .52009E+01
 1257.000  .89347E+01
 1257.600  .39383E+01
 1258.200  .10355E+02
 1258.900  .67784E+01
 1259.500  .26601E+01
 1260.100  .69456E+01
 1260.700  .87310E+01
 1261.300  .37070E+01
 1261.900  .24423E+01
 1262.500 -.38534E+01
 1263.100  .35012E+01
 1263.700 -.28586E+00
 1264.300  .78052E+01
 1264.900  .40152E+01
 1265.500  .38194E-01
 1266.100  .26206E-01
 1266.800  .14581E+01
 1267.400 -.30750E+01
 1268.000  .21607E+01
 1268.600 -.20515E+00
 1269.200  .34100E+01
 1269.800 -.22265E+01
 1270.400 -.24222E+01
 1271.000  .15642E+01
 1271.600  .55576E+01
 1272.200 -.51974E+01
 1272.800  .11673E+01
 1273.400  .40760E+01
 1274.000  .49806E+01
 1274.600  .25963E+01
 1275.300  .18528E+01
 1275.900  .45895E+01
 1276.500 -.14679E+01
 1277.100 -.19715E+00
 1277.700  .52994E+01
 1278.300 -.46329E+01
 1278.900 -.63048E+01
 1279.500  .41719E+01
 1280.100  .19520E+01
 1280.700 -.56204E+01
 1281.300 -.41608E+01
 1281.900  .44218E+00
 1282.500  .19096E+01
 1283.100 -.67996E+01
 1283.700  .22113E+00
 1284.400 -.34931E+00
 1285.000 -.18466E+01
 1285.600  .11113E+01
 1286.200 -.26182E+01
 1286.800 -.33771E+01
 1287.400  .16357E+01
 1288.000 -.23914E+00
 1288.600 -.56617E+01
 1289.200  .72041E+01
 1289.800 -.19589E+01
 1290.400  .17676E+01
 1291.000  .13823E+01
 1291.600 -.68988E+00
 1292.200 -.42658E+01
 1292.800 -.20298E+01
 1293.400 -.61766E+01
 1294.000 -.93030E+00
 1294.600  .15025E+01
 1295.300 -.58249E+00
 1295.900  .41174E+01
 1296.500 -.98593E+00
 1297.100  .70022E+00
 1297.700  .23893E+01
 1298.300  .48379E+01
 1298.900  .18002E+01
 1299.500 -.14322E+01
 1300.100 -.10667E+01
 1300.700 -.18395E+01
 1301.300  .46055E+01
 1301.900 -.14877E+01
 1302.500 -.72107E+01
 1303.100  .43888E+01
 1303.700  .15205E+01
 1304.300 -.39883E+00
 1304.900  .24524E+01
 1305.500  .72178E+00
 1306.100  .10922E+01
 1306.700 -.65773E+01
 1307.300  .43259E+01
 1308.000  .12466E+01
 1308.600 -.87668E+00
 1309.200  .56419E+01
 1309.800  .14037E+01
 1310.400  .40863E+01
 1311.000 -.93092E+00
 1311.600 -.40289E+01
 1312.200  .42512E+01
 1312.800 -.46408E+01
 1313.400 -.33047E+01
 1314.000  .13219E+01
 1314.600 -.33361E+01
 1315.200 -.35456E+01
 1315.800 -.65263E+00
 1316.400  .30216E+01
 1317.000  .10781E+02
 1317.600 -.34149E+01
 1318.200  .82440E+01
 1318.800  .62906E+01
 1319.400  .10204E+01
 1320.000  .23738E+01
 1320.600 -.95618E+00
 1321.200 -.13608E+01
 1321.800 -.78287E+01
 1322.400  .54614E+01
 1323.000  .83914E+01
 1323.600  .83855E+01
 1324.300  .46497E+01
 1324.900  .75868E+01
 1325.500 -.50012E+01
 1326.100  .63928E+01
 1326.700  .16592E+01
 1327.300  .20416E+01
 1327.900  .20302E+01
 1328.500  .47825E+01
 1329.100  .62434E+00
 1329.700  .79281E+01
 1330.300 -.29633E+01
 1330.900  .45478E+01
 1331.500  .67190E+01
 1332.100  .23466E+01
 1332.700 -.47515E-01
 1333.300  .86835E+01
 1333.900  .45007E+01
 1334.500  .50883E+01
 1335.100 -.54799E+01
 1335.700  .38739E+01
 1336.300  .34648E+01
 1336.900  .12573E+01
 1337.500  .64539E+00
 1338.100  .48339E+01
 1338.700  .11833E+02
 1339.300  .70197E+01
 1339.900  .28003E+01
 1340.500  .64024E+01
 1341.100  .63944E+01
 1341.700  .73916E+01
 1342.300  .43659E+01
 1342.900 -.83318E+01
 1343.500  .85792E+01
 1344.100  .53452E+01
 1344.700  .57399E+01
 1345.300  .77519E+01
 1345.900  .59248E+01
 1346.500  .12595E+02
 1347.100 -.77701E+00
 1347.700  .99537E+01
 1348.300  .40643E+01
 1348.900  .91308E+01
 1349.500  .18084E+01
 1350.100  .48474E+01
 1350.700  .70771E+01
 1351.300  .10940E+02
 1351.900  .40031E+01
 1352.500  .48091E+01
 1353.100  .84758E+01
 1353.700  .13148E+01
 1354.300  .41664E+01
 1354.900  .84558E+01
 1355.500  .61951E+01
 1356.100  .85442E+00
 1356.700  .11925E+02
 1357.300  .76073E+01
 1357.900  .61607E+01
 1358.500  .12942E+02
 1359.100  .98500E+01
 1359.700  .55165E+01
 1360.300  .77761E+01
 1360.900  .10039E+02
 1361.500  .34228E+01
 1362.100  .63066E+01
 1362.700  .12506E+02
 1363.300  .33899E+01
 1363.900  .75243E+01
 1364.500  .11873E+02
 1365.100  .68861E+01
 1365.700  .87479E+01
 1366.300  .95730E+01
 1366.900  .97751E+01
 1367.500  .66448E+01
 1368.100  .74702E+01
 1368.700  .11426E+02
 1369.300  .70370E+01
 1369.900  .12253E+02
 1370.500  .78572E+01
 1371.100  .14129E+02
 1371.700  .99368E+01
 1372.300  .74152E+01
 1372.900  .15800E+02
 1373.500  .12649E+02
 1374.100  .11804E+02
 1374.700  .12221E+02
 1375.300  .92697E+01
 1375.900  .10738E+02
 1376.500  .14527E+02
 1377.100  .18534E+02
 1377.700  .15790E+02
 1378.300  .90255E+01
 1378.900  .92303E+01
 1379.500  .15151E+02
 1380.100  .87932E+01
 1380.700  .20660E+02
 1381.300  .14933E+02
 1381.900  .11108E+02
 1382.500  .79149E+01
 1383.100  .12374E+02
 1383.700  .12583E+02
 1384.300  .12366E+02
 1384.900  .13214E+02
 1385.500  .57418E+01
 1386.100  .15129E+02
 1386.700  .14700E+02
 1387.300  .11702E+02
 1387.900  .14695E+02
 1388.500  .10836E+02
 1389.100  .10401E+02
 1389.700  .14473E+02
 1390.300  .10604E+02
 1390.900  .12963E+02
 1391.500  .65053E+01
 1392.100  .15538E+02
 1392.700  .75643E+01
 1393.300  .13594E+02
 1393.900  .14885E+02
 1394.500  .19418E+02
 1395.100  .15744E+02
 1395.700  .19636E+02
 1396.300  .13576E+02
 1396.900  .22022E+02
 1397.500  .12268E+02
 1398.100  .15301E+02
 1398.700  .17905E+02
 1399.300  .87759E+01
 1399.900  .14642E+02
 1400.500  .19863E+02
 1401.100  .15725E+02
 1401.700  .17686E+02
 1402.300  .15066E+02
 1402.800  .14846E+02
 1403.400  .15717E+02
 1404.000  .91540E+01
 1404.600  .15056E+02
 1405.200  .54155E+01
 1405.800  .20970E+02
 1406.400  .16145E+02
 1407.000  .11093E+02
 1407.600  .22734E+02
 1408.200  .23177E+02
 1408.800  .79945E+01
 1409.400  .20321E+02
 1410.000  .15693E+02
 1410.600  .20986E+02
 1411.200  .18780E+02
 1411.800  .20768E+02
 1412.400  .16568E+02
 1413.000  .17673E+02
 1413.600  .20552E+02
 1414.200  .21883E+02
 1414.800  .21886E+02
 1415.400  .19002E+02
 1416.000  .21668E+02
 1416.600  .23894E+02
 1417.200  .15664E+02
 1417.800  .23234E+02
 1418.400  .20785E+02
 1419.000  .16995E+02
 1419.500  .14092E+02
 1420.100  .26150E+02
 1420.700  .16096E+02
 1421.300  .23029E+02
 1421.900  .20794E+02
 1422.500  .20571E+02
 1423.100  .21245E+02
 1423.700  .21920E+02
 1424.300  .18104E+02
 1424.900  .21025E+02
 1425.500  .22826E+02
 1426.100  .23729E+02
 1426.700  .16523E+02
 1427.300  .22383E+02
 1427.900  .21483E+02
 1428.500  .21711E+02
 1429.100  .21035E+02
 1429.700  .30309E+02
 1430.300  .19000E+02
 1430.900  .22171E+02
 1431.500  .22627E+02
