  124.500  .32562E+01
  125.200  .31176E+01
  125.900  .30211E+01
  126.600  .29897E+01
  127.300  .30127E+01
  128.000  .28929E+01
  128.600  .29971E+01
  129.300  .30567E+01
  130.000  .31483E+01
  130.700  .32446E+01
  131.400  .32875E+01
  132.100  .32605E+01
  132.800  .31727E+01
  133.500  .31729E+01
  134.200  .30948E+01
  134.900  .31013E+01
  135.600  .31285E+01
  136.300  .31077E+01
  136.900  .31310E+01
  137.600  .33140E+01
  138.300  .33121E+01
  139.000  .35457E+01
  139.700  .36623E+01
  140.400  .37230E+01
  141.100  .37230E+01
  141.800  .36207E+01
  142.500  .35047E+01
  143.200  .35346E+01
  143.900  .34762E+01
  144.500  .34944E+01
  145.200  .34085E+01
  145.900  .34873E+01
  146.600  .35842E+01
  147.300  .36179E+01
  148.000  .35649E+01
  148.700  .36321E+01
  149.400  .36447E+01
  150.100  .36158E+01
  150.800  .35825E+01
  151.500  .35789E+01
  152.100  .37833E+01
  152.800  .38175E+01
  153.500  .38134E+01
  154.200  .37464E+01
  154.900  .39141E+01
  155.600  .40304E+01
  156.300  .40092E+01
  157.000  .39225E+01
  157.700  .39114E+01
  158.400  .38524E+01
  159.000  .39774E+01
  159.700  .38149E+01
  160.400  .38911E+01
  161.100  .39232E+01
  161.800  .40279E+01
  162.500  .39616E+01
  163.200  .40833E+01
  163.900  .41018E+01
  164.600  .41509E+01
  165.200  .41226E+01
  165.900  .40984E+01
  166.600  .41914E+01
  167.300  .41941E+01
  168.000  .42174E+01
  168.700  .42927E+01
  169.400  .41902E+01
  170.100  .43485E+01
  170.800  .44326E+01
  171.400  .45270E+01
  172.100  .45164E+01
  172.800  .45171E+01
  173.500  .45902E+01
  174.200  .45905E+01
  174.900  .45226E+01
  175.600  .46783E+01
  176.300  .46489E+01
  177.000  .45676E+01
  177.600  .46633E+01
  178.300  .46335E+01
  179.000  .48746E+01
  179.700  .48594E+01
  180.400  .49190E+01
  181.100  .48432E+01
  181.800  .47756E+01
  182.500  .49725E+01
  183.100  .50970E+01
  183.800  .49804E+01
  184.500  .50578E+01
  185.200  .49873E+01
  185.900  .53970E+01
  186.600  .51933E+01
  187.300  .55234E+01
  188.000  .53654E+01
  188.600  .53377E+01
  189.300  .54399E+01
  190.000  .56392E+01
  190.700  .53596E+01
  191.400  .55765E+01
  192.100  .54331E+01
  192.800  .55011E+01
  193.500  .55751E+01
  194.100  .55478E+01
  194.800  .57101E+01
  195.500  .57728E+01
  196.200  .57489E+01
  196.900  .58709E+01
  197.600  .58081E+01
  198.300  .58928E+01
  199.000  .59958E+01
  199.600  .59724E+01
  200.300  .58970E+01
  201.000  .61120E+01
  201.700  .63334E+01
  202.400  .61531E+01
  203.100  .63081E+01
  203.800  .63486E+01
  204.400  .65020E+01
  205.100  .65682E+01
  205.800  .66598E+01
  206.500  .66330E+01
  207.200  .67001E+01
  207.900  .67210E+01
  208.600  .66712E+01
  209.200  .66636E+01
  209.900  .69168E+01
  210.600  .67422E+01
  211.300  .69589E+01
  212.000  .70259E+01
  212.700  .69027E+01
  213.400  .72729E+01
  214.000  .72680E+01
  214.700  .73573E+01
  215.400  .72313E+01
  216.100  .75266E+01
  216.800  .73946E+01
  217.500  .77586E+01
  218.200  .76488E+01
  218.800  .76641E+01
  219.500  .77072E+01
  220.200  .79403E+01
  220.900  .79944E+01
  221.600  .80414E+01
  222.300  .81224E+01
  222.900  .81335E+01
  223.600  .81834E+01
  224.300  .83195E+01
  225.000  .84246E+01
  225.700  .84782E+01
  226.400  .86674E+01
  227.100  .86969E+01
  227.700  .85440E+01
  228.400  .87635E+01
  229.100  .89673E+01
  229.800  .88917E+01
  230.500  .88614E+01
  231.200  .89190E+01
  231.800  .89642E+01
  232.500  .90697E+01
  233.200  .92531E+01
  233.900  .94542E+01
  234.600  .95094E+01
  235.300  .96268E+01
  235.900  .99328E+01
  236.600  .98235E+01
  237.300  .98224E+01
  238.000  .10006E+02
  238.700  .10166E+02
  239.400  .10227E+02
  240.000  .10232E+02
  240.700  .10389E+02
  241.400  .10457E+02
  242.100  .10413E+02
  242.800  .10468E+02
  243.500  .10834E+02
  244.100  .10886E+02
  244.800  .10914E+02
  245.500  .10972E+02
  246.200  .11074E+02
  246.900  .11201E+02
  247.600  .11373E+02
  248.200  .11454E+02
  248.900  .11767E+02
  249.600  .11741E+02
  250.300  .11958E+02
  251.000  .12004E+02
  251.700  .12035E+02
  252.300  .11908E+02
  253.000  .12263E+02
  253.700  .12332E+02
  254.400  .12662E+02
  255.100  .12461E+02
  255.700  .12712E+02
  256.400  .13084E+02
  257.100  .12922E+02
  257.800  .13226E+02
  258.500  .13332E+02
  259.200  .13611E+02
  259.800  .13754E+02
  260.500  .13912E+02
  261.200  .13769E+02
  261.900  .14291E+02
  262.600  .14362E+02
  263.200  .14473E+02
  263.900  .14298E+02
  264.600  .14837E+02
  265.300  .14456E+02
  266.000  .15410E+02
  266.700  .15105E+02
  267.300  .15129E+02
  268.000  .15294E+02
  268.700  .15732E+02
  269.400  .15935E+02
  270.100  .16019E+02
  270.700  .16170E+02
  271.400  .16248E+02
  272.100  .16330E+02
  272.800  .16545E+02
  273.500  .16773E+02
  274.100  .16942E+02
  274.800  .17162E+02
  275.500  .17004E+02
  276.200  .17569E+02
  276.900  .17656E+02
  277.500  .17860E+02
  278.200  .18349E+02
  278.900  .17900E+02
  279.600  .18681E+02
  280.300  .18764E+02
  280.900  .18693E+02
  281.600  .18937E+02
  282.300  .19025E+02
  283.000  .19275E+02
  283.700  .19317E+02
  284.300  .19295E+02
  285.000  .19784E+02
  285.700  .19843E+02
  286.400  .20088E+02
  287.100  .20327E+02
  287.700  .20414E+02
  288.400  .20353E+02
  289.100  .21197E+02
  289.800  .21135E+02
  290.500  .21221E+02
  291.100  .20938E+02
  291.800  .21406E+02
  292.500  .21675E+02
  293.200  .22059E+02
  293.900  .21768E+02
  294.500  .22530E+02
  295.200  .22625E+02
  295.900  .22569E+02
  296.600  .22545E+02
  297.300  .22656E+02
  297.900  .22749E+02
  298.600  .23017E+02
  299.300  .22948E+02
  300.000  .23809E+02
  300.600  .23897E+02
  301.300  .23773E+02
  302.000  .24003E+02
  302.700  .23930E+02
  303.400  .24641E+02
  304.000  .24606E+02
  304.700  .24416E+02
  305.400  .25186E+02
  306.100  .25493E+02
  306.800  .25724E+02
  307.400  .25338E+02
  308.100  .26233E+02
  308.800  .26427E+02
  309.500  .26474E+02
  310.100  .26573E+02
  310.800  .26871E+02
  311.500  .26932E+02
  312.200  .27242E+02
  312.900  .27620E+02
  313.500  .27723E+02
  314.200  .27990E+02
  314.900  .28173E+02
  315.600  .28616E+02
  316.200  .28856E+02
  316.900  .28970E+02
  317.600  .28701E+02
  318.300  .29228E+02
  318.900  .29663E+02
  319.600  .29996E+02
  320.300  .29990E+02
  321.000  .30598E+02
  321.700  .30812E+02
  322.300  .30223E+02
  323.000  .30963E+02
  323.700  .30750E+02
  324.400  .31441E+02
  325.000  .31477E+02
  325.700  .31751E+02
  326.400  .32524E+02
  327.100  .33039E+02
  327.700  .32734E+02
  328.400  .32579E+02
  329.100  .33057E+02
  329.800  .33423E+02
  330.500  .33639E+02
  331.100  .34189E+02
  331.800  .34033E+02
  332.500  .34634E+02
  333.200  .34620E+02
  333.800  .34677E+02
  334.500  .35188E+02
  335.200  .35320E+02
  335.900  .35403E+02
  336.500  .36053E+02
  337.200  .35592E+02
  337.900  .36283E+02
  338.600  .36500E+02
  339.200  .36542E+02
  339.900  .37071E+02
  340.600  .36846E+02
  341.300  .37204E+02
  341.900  .37763E+02
  342.600  .37895E+02
  343.300  .38701E+02
  344.000  .38450E+02
  344.600  .38324E+02
  345.300  .39132E+02
  346.000  .38809E+02
  346.700  .39203E+02
  347.300  .39831E+02
  348.000  .39545E+02
  348.700  .40817E+02
  349.400  .40034E+02
  350.000  .40924E+02
  350.700  .41082E+02
  351.400  .41241E+02
  352.100  .41400E+02
  352.700  .41971E+02
  353.400  .41020E+02
  354.100  .41507E+02
  354.800  .42196E+02
  355.400  .42255E+02
  356.100  .43004E+02
  356.800  .43801E+02
  357.500  .43979E+02
  358.100  .44122E+02
  358.800  .43581E+02
  359.500  .43455E+02
  360.200  .44089E+02
  360.800  .44119E+02
  361.500  .44659E+02
  362.200  .44375E+02
  362.800  .45058E+02
  363.500  .45706E+02
  364.200  .45762E+02
  364.900  .46491E+02
  365.500  .46090E+02
  366.200  .46728E+02
  366.900  .46438E+02
  367.600  .47183E+02
  368.200  .47785E+02
  368.900  .48064E+02
  369.600  .47673E+02
  370.300  .48319E+02
  370.900  .48660E+02
  371.600  .48165E+02
  372.300  .49326E+02
  372.900  .49075E+02
  373.600  .50245E+02
  374.300  .49745E+02
  375.000  .50099E+02
  375.600  .50765E+02
  376.300  .50934E+02
  377.000  .51523E+02
  377.700  .51402E+02
  378.300  .51941E+02
  379.000  .52476E+02
  379.700  .52168E+02
  380.300  .52906E+02
  381.000  .52693E+02
  381.700  .53185E+02
  382.400  .53380E+02
  383.000  .54065E+02
  383.700  .54999E+02
  384.400  .54982E+02
  385.000  .55761E+02
  385.700  .55440E+02
  386.400  .55634E+02
  387.100  .55814E+02
  387.700  .56732E+02
  388.400  .56298E+02
  389.100  .56594E+02
  389.800  .56689E+02
  390.400  .56966E+02
  391.100  .57607E+02
  391.800  .57565E+02
  392.400  .58188E+02
  393.100  .58947E+02
  393.800  .58818E+02
  394.500  .59470E+02
  395.100  .59749E+02
  395.800  .60176E+02
  396.500  .60366E+02
  397.100  .59755E+02
  397.800  .60988E+02
  398.500  .60644E+02
  399.100  .62197E+02
  399.800  .61466E+02
  400.500  .62153E+02
  401.200  .62332E+02
  401.800  .62404E+02
  402.500  .62960E+02
  403.200  .64135E+02
  403.800  .63963E+02
  404.500  .64177E+02
  405.200  .65333E+02
  405.900  .65308E+02
  406.500  .65965E+02
  407.200  .65719E+02
  407.900  .66181E+02
  408.500  .66385E+02
  409.200  .66961E+02
  409.900  .66943E+02
  410.500  .67219E+02
  411.200  .68185E+02
  411.900  .68425E+02
  412.600  .68035E+02
  413.200  .68833E+02
  413.900  .68448E+02
  414.600  .69282E+02
  415.200  .69728E+02
  415.900  .70593E+02
  416.600  .70584E+02
  417.200  .70235E+02
  417.900  .70627E+02
  418.600  .70946E+02
  419.200  .71658E+02
  419.900  .71788E+02
  420.600  .73441E+02
  421.300  .73139E+02
  421.900  .72817E+02
  422.600  .73573E+02
  423.300  .74325E+02
  423.900  .73754E+02
  424.600  .74798E+02
  425.300  .74907E+02
  425.900  .75505E+02
  426.600  .75451E+02
  427.300  .76760E+02
  427.900  .76846E+02
  428.600  .78164E+02
  429.300  .77425E+02
  430.000  .78664E+02
  430.600  .78323E+02
  431.300  .79113E+02
  432.000  .80339E+02
  432.600  .79589E+02
  433.300  .79828E+02
  434.000  .80325E+02
  434.600  .80431E+02
  435.300  .80537E+02
  436.000  .80795E+02
  436.600  .81152E+02
  437.300  .81700E+02
  438.000  .81933E+02
  438.600  .82857E+02
  439.300  .81982E+02
  440.000  .82242E+02
  440.600  .83144E+02
  441.300  .84299E+02
  442.000  .83671E+02
  442.600  .82724E+02
  443.300  .84996E+02
  444.000  .83813E+02
  444.600  .85065E+02
  445.300  .85294E+02
  446.000  .85439E+02
  446.600  .84607E+02
  447.300  .86201E+02
  448.000  .85987E+02
  448.600  .86530E+02
  449.300  .85895E+02
  450.000  .86305E+02
  450.600  .86229E+02
  451.300  .87503E+02
  452.000  .87811E+02
  452.600  .86935E+02
  453.300  .87958E+02
  454.000  .87762E+02
  454.600  .87547E+02
  455.300  .89484E+02
  456.000  .89738E+02
  456.600  .88738E+02
  457.300  .88674E+02
  458.000  .89280E+02
  458.600  .90256E+02
  459.300  .89260E+02
  460.000  .89541E+02
  460.600  .89316E+02
  461.300  .90036E+02
  462.000  .89335E+02
  462.600  .89245E+02
  463.300  .90907E+02
  464.000  .90431E+02
  464.600  .89205E+02
  465.300  .89126E+02
  466.000  .89894E+02
  466.600  .89921E+02
  467.300  .87974E+02
  468.000  .88699E+02
  468.600  .88587E+02
  469.300  .89348E+02
  470.000  .89126E+02
  470.600  .88855E+02
  471.300  .89598E+02
  472.000  .89194E+02
  472.600  .89076E+02
  473.300  .89980E+02
  474.000  .89739E+02
  474.600  .89967E+02
  475.300  .90190E+02
  475.900  .91077E+02
  476.600  .91355E+02
  477.300  .90810E+02
  477.900  .91821E+02
  478.600  .91413E+02
  479.300  .91658E+02
  479.900  .92234E+02
  480.600  .92459E+02
  481.300  .93401E+02
  481.900  .95322E+02
  482.600  .94255E+02
  483.300  .94517E+02
  483.900  .96760E+02
  484.600  .95840E+02
  485.200  .96927E+02
  485.900  .97040E+02
  486.600  .98294E+02
  487.200  .98749E+02
  487.900  .98340E+02
  488.600  .98755E+02
  489.200  .98281E+02
  489.900  .99101E+02
  490.600  .99372E+02
  491.200  .99231E+02
  491.900  .99332E+02
  492.500  .97804E+02
  493.200  .10000E+03
  493.900  .97115E+02
  494.500  .97500E+02
  495.200  .97386E+02
  495.900  .95900E+02
  496.500  .95038E+02
  497.200  .95653E+02
  497.900  .94311E+02
  498.500  .93494E+02
  499.200  .90913E+02
  499.800  .91484E+02
  500.500  .89972E+02
  501.200  .88804E+02
  501.800  .87089E+02
  502.500  .85952E+02
  503.200  .85305E+02
  503.800  .83756E+02
  504.500  .82219E+02
  505.100  .80868E+02
  505.800  .79218E+02
  506.500  .77726E+02
  507.100  .76376E+02
  507.800  .75855E+02
  508.500  .74062E+02
  509.100  .71023E+02
  509.800  .70881E+02
  510.400  .69399E+02
  511.100  .69385E+02
  511.800  .67415E+02
  512.400  .65740E+02
  513.100  .63651E+02
  513.800  .63040E+02
  514.400  .62329E+02
  515.100  .58803E+02
  515.700  .58623E+02
  516.400  .57791E+02
  517.100  .55435E+02
  517.700  .54520E+02
  518.400  .53858E+02
  519.000  .52884E+02
  519.700  .52390E+02
  520.400  .50328E+02
  521.000  .48755E+02
  521.700  .48791E+02
  522.400  .47821E+02
  523.000  .47441E+02
  523.700  .45671E+02
  524.300  .45603E+02
  525.000  .43319E+02
  525.700  .43428E+02
  526.300  .42373E+02
  527.000  .41446E+02
  527.600  .42144E+02
  528.300  .40794E+02
  529.000  .40440E+02
  529.600  .39496E+02
  530.300  .38744E+02
  530.900  .39547E+02
  531.600  .39172E+02
  532.300  .37859E+02
  532.900  .36923E+02
  533.600  .36577E+02
  534.200  .35832E+02
  534.900  .35069E+02
  535.600  .34835E+02
  536.200  .33852E+02
  536.900  .34618E+02
  537.500  .33120E+02
  538.200  .32770E+02
  538.900  .32175E+02
  539.500  .31864E+02
  540.200  .32050E+02
  540.800  .31410E+02
  541.500  .31363E+02
  542.200  .29883E+02
  542.800  .30779E+02
  543.500  .30058E+02
  544.100  .29872E+02
  544.800  .29903E+02
  545.500  .30126E+02
  546.100  .28929E+02
  546.800  .29275E+02
  547.400  .28682E+02
  548.100  .28499E+02
  548.800  .28707E+02
  549.400  .27267E+02
  550.100  .28146E+02
  550.700  .27260E+02
  551.400  .27283E+02
  552.100  .27361E+02
  552.700  .25363E+02
  553.400  .26799E+02
  554.000  .26583E+02
  554.700  .25961E+02
  555.300  .26684E+02
  556.000  .25902E+02
  556.700  .25732E+02
  557.300  .25352E+02
  558.000  .24618E+02
  558.600  .25360E+02
  559.300  .25115E+02
  560.000  .24810E+02
  560.600  .24801E+02
  561.300  .24917E+02
  561.900  .24761E+02
  562.600  .23880E+02
  563.200  .23972E+02
  563.900  .24424E+02
  564.600  .24022E+02
  565.200  .22902E+02
  565.900  .24317E+02
  566.500  .22969E+02
  567.200  .22887E+02
  567.800  .23499E+02
  568.500  .23417E+02
  569.200  .22676E+02
  569.800  .23681E+02
  570.500  .23870E+02
  571.100  .22801E+02
  571.800  .23139E+02
  572.400  .22623E+02
  573.100  .22978E+02
  573.800  .22588E+02
  574.400  .22723E+02
  575.100  .22437E+02
  575.700  .22649E+02
  576.400  .22807E+02
  577.000  .22927E+02
  577.700  .23425E+02
  578.400  .22226E+02
  579.000  .23243E+02
  579.700  .23140E+02
  580.300  .23448E+02
  581.000  .23048E+02
  581.600  .23560E+02
  582.300  .23456E+02
  583.000  .23288E+02
  583.600  .24589E+02
  584.300  .24076E+02
  584.900  .25826E+02
  585.600  .24570E+02
  586.200  .24616E+02
  586.900  .25147E+02
  587.600  .25998E+02
  588.200  .24754E+02
  588.900  .25464E+02
  589.500  .26040E+02
  590.200  .26113E+02
  590.800  .27176E+02
  591.500  .27848E+02
  592.100  .26720E+02
  592.800  .27960E+02
  593.500  .28800E+02
  594.100  .29000E+02
  594.800  .29259E+02
  595.400  .29901E+02
  596.100  .29851E+02
  596.700  .30595E+02
  597.400  .31138E+02
  598.000  .31723E+02
  598.700  .31956E+02
  599.400  .32290E+02
  600.000  .32747E+02
  600.700  .31955E+02
  601.300  .33511E+02
  602.000  .33516E+02
  602.600  .33344E+02
  603.300  .32227E+02
  603.900  .33075E+02
  604.600  .32322E+02
  605.200  .32398E+02
  605.900  .31859E+02
  606.600  .30810E+02
  607.200  .31968E+02
  607.900  .30881E+02
  608.500  .30988E+02
  609.200  .28751E+02
  609.800  .29811E+02
  610.500  .29052E+02
  611.100  .28813E+02
  611.800  .28805E+02
  612.400  .27133E+02
  613.100  .28002E+02
  613.800  .25568E+02
  614.400  .25597E+02
  615.100  .24573E+02
  615.700  .24494E+02
  616.400  .23777E+02
  617.000  .22579E+02
  617.700  .22800E+02
  618.300  .21015E+02
  619.000  .20759E+02
  619.600  .21659E+02
  620.300  .19231E+02
  620.900  .19724E+02
  621.600  .19091E+02
  622.200  .17543E+02
  622.900  .16937E+02
  623.600  .16615E+02
  624.200  .16607E+02
  624.900  .16622E+02
  625.500  .15753E+02
  626.200  .15551E+02
  626.800  .14875E+02
  627.500  .14471E+02
  628.100  .13844E+02
  628.800  .13979E+02
  629.400  .12841E+02
  630.100  .12756E+02
  630.700  .11666E+02
  631.400  .12345E+02
  632.000  .12567E+02
  632.700  .10574E+02
  633.300  .11876E+02
  634.000  .11788E+02
  634.700  .10372E+02
  635.300  .10296E+02
  636.000  .95186E+01
  636.600  .94036E+01
  637.300  .10369E+02
  637.900  .84856E+01
  638.600  .79782E+01
  639.200  .71489E+01
  639.900  .74609E+01
  640.500  .83916E+01
  641.200  .81807E+01
  641.800  .63655E+01
  642.500  .68103E+01
  643.100  .62149E+01
  643.800  .62440E+01
  644.400  .63478E+01
  645.100  .64724E+01
  645.700  .56048E+01
  646.400  .62057E+01
  647.000  .50856E+01
  647.700  .36938E+01
  648.300  .51192E+01
  649.000  .31833E+01
  649.600  .50952E+01
  650.300  .43495E+01
  650.900  .42387E+01
  651.600  .38568E+01
  652.200  .31424E+01
  652.900  .30487E+01
  653.500  .30517E+01
  654.200  .33483E+01
  654.800  .32343E+01
  655.500  .43169E+01
  656.200  .18072E+01
  656.800  .30680E+01
  657.500  .32293E+01
  658.100  .21654E+01
  658.800  .15333E+01
  659.400  .32196E+01
  660.100  .25475E+01
  660.700  .25694E+01
  661.400  .24321E+01
  662.000  .21541E+01
  662.700  .26963E+01
  663.300  .24378E+01
  664.000  .91219E+00
  664.600  .10724E+01
  665.300  .15357E+01
  665.900  .11722E+01
  666.600  .24012E+00
  667.200  .76549E+00
  667.900  .22073E+01
  668.500  .13127E+01
  669.200  .11493E+01
  669.800  .24957E+00
  670.500  .12915E+01
  671.100  .12091E+01
  671.800  .24270E+00
  672.400  .26121E+00
  673.000  .11481E+00
  673.700  .36007E+00
  674.300 -.15925E+00
  675.000  .17869E+01
  675.600  .52023E+00
  676.300  .10204E+00
  676.900 -.15050E+00
  677.600 -.29999E+00
  678.200  .12245E+01
  678.900  .49015E+00
  679.500  .48844E+00
  680.200  .75999E+00
  680.800  .37931E+00
  681.500  .81398E-01
  682.100 -.42874E+00
  682.800  .47885E+00
  683.400  .11615E+00
  684.100  .92108E-01
  684.700 -.46433E+00
  685.400 -.59635E+00
  686.000  .20243E-01
  686.700  .87433E+00
  687.300 -.88672E+00
  688.000 -.41838E+00
  688.600  .22450E+00
  689.300 -.61978E+00
  689.900  .89933E-01
  690.600  .75846E+00
  691.200 -.58794E+00
  691.900 -.17224E+01
  692.500  .29688E+00
  693.200  .75246E+00
  693.800  .29222E+00
  694.400 -.10887E+01
  695.100 -.19464E-01
  695.700  .43729E-01
  696.400 -.64144E+00
  697.000 -.11301E+01
  697.700  .65340E+00
  698.300  .54575E-01
  699.000 -.32519E+00
  699.600  .69267E+00
  700.300  .31278E+00
  700.900  .15466E+00
  701.600 -.69628E+00
  702.200  .21641E+00
  702.900 -.48063E+00
  703.500  .54778E+00
  704.200 -.44326E+00
  704.800 -.64013E-01
  705.500  .36121E+00
  706.100 -.54455E+00
  706.700  .35690E+00
  707.400  .37705E+00
  708.000 -.48791E+00
  708.700 -.59814E-01
  709.300  .11449E+01
  710.000  .48133E-01
  710.600  .15316E+01
  711.300 -.32422E+00
  711.900  .12326E+01
  712.600 -.78512E-01
  713.200 -.38073E+00
  713.900  .10915E+01
  714.500  .48981E+00
  715.100  .55720E+00
  715.800 -.70962E-01
  716.400  .18999E-01
  717.100  .80667E+00
  717.700  .36260E-01
  718.400  .10834E+01
  719.000  .33418E+00
  719.700  .27000E-01
  720.300  .77491E+00
  721.000  .17367E+01
  721.600 -.54683E+00
  722.200  .88765E+00
  722.900  .16654E+01
  723.500  .88449E+00
  724.200  .36135E+00
  724.800  .64389E+00
  725.500  .13552E+01
  726.100  .75894E+00
  726.800  .82855E+00
  727.400  .10660E+01
  728.100  .58565E+00
  728.700  .15200E+00
  729.300  .15184E+01
  730.000  .22877E+01
  730.600  .91472E+00
  731.300  .10578E+01
  731.900  .24832E+01
  732.600  .13457E+01
  733.200  .10295E+01
  733.900  .34734E+00
  734.500  .11240E+01
  735.100  .63510E+00
  735.800  .87706E+00
  736.400  .24411E+01
  737.100  .10451E+01
  737.700  .37438E+01
  738.400  .42388E+01
  739.000  .24692E+01
  739.700  .27169E+01
  740.300  .26192E+01
  740.900  .40061E+01
  741.600  .24479E+01
  742.200  .35908E+01
  742.900  .40663E+01
  743.500  .49663E+01
  744.200  .37738E+01
  744.800  .41014E+01
  745.500  .50317E+01
  746.100  .32809E+01
  746.700  .29061E+01
  747.400  .54740E+01
  748.000  .42950E+01
  748.700  .49554E+01
  749.300  .40244E+01
  750.000  .58768E+01
  750.600  .63645E+01
  751.200  .58884E+01
  751.900  .43429E+01
  752.500  .68695E+01
  753.200  .68780E+01
  753.800  .78314E+01
  754.500  .55618E+01
  755.100  .54388E+01
  755.700  .69597E+01
  756.400  .79978E+01
  757.000  .79293E+01
  757.700  .89724E+01
  758.300  .82328E+01
  759.000  .96683E+01
  759.600  .88494E+01
  760.200  .10107E+02
  760.900  .96521E+01
  761.500  .99500E+01
  762.200  .94153E+01
  762.800  .93739E+01
  763.500  .12006E+02
  764.100  .97908E+01
  764.700  .11668E+02
  765.400  .11947E+02
  766.000  .13411E+02
  766.700  .14012E+02
  767.300  .12919E+02
  767.900  .14709E+02
  768.600  .14624E+02
  769.200  .15041E+02
  769.900  .15090E+02
  770.500  .16602E+02
  771.200  .17587E+02
  771.800  .17984E+02
  772.400  .17660E+02
  773.100  .18142E+02
  773.700  .20744E+02
  774.400  .21475E+02
  775.000  .21719E+02
  775.600  .23907E+02
  776.300  .23430E+02
  776.900  .25464E+02
  777.600  .25206E+02
  778.200  .24451E+02
  778.900  .26366E+02
  779.500  .28118E+02
  780.100  .28155E+02
  780.800  .28336E+02
  781.400  .28264E+02
  782.100  .28363E+02
  782.700  .29801E+02
  783.300  .30143E+02
  784.000  .29805E+02
  784.600  .30176E+02
  785.300  .32350E+02
  785.900  .30982E+02
  786.500  .31966E+02
  787.200  .32238E+02
  787.800  .32308E+02
  788.500  .29797E+02
  789.100  .30785E+02
  789.700  .33757E+02
  790.400  .32523E+02
  791.000  .33211E+02
  791.700  .34553E+02
  792.300  .34121E+02
  792.900  .34589E+02
  793.600  .33769E+02
  794.200  .35451E+02
  794.900  .35477E+02
  795.500  .35525E+02
  796.100  .34183E+02
  796.800  .36820E+02
  797.400  .35020E+02
  798.100  .35815E+02
  798.700  .37032E+02
  799.300  .37909E+02
  800.000  .35507E+02
  800.600  .34780E+02
  801.300  .31332E+02
  801.900  .32063E+02
  801.100  .36778E+02
  801.700  .35275E+02
  802.400  .37631E+02
  803.000  .35376E+02
  803.600  .36980E+02
  804.300  .36864E+02
  804.900  .37549E+02
  805.600  .38215E+02
  806.200  .37394E+02
  806.900  .36986E+02
  807.500  .37559E+02
  808.100  .37112E+02
  808.800  .35884E+02
  809.400  .37422E+02
  810.100  .36512E+02
  810.700  .35738E+02
  811.400  .37673E+02
  812.000  .37369E+02
  812.600  .35355E+02
  813.300  .36205E+02
  813.900  .31877E+02
  814.600  .36514E+02
  815.200  .35019E+02
  815.900  .35666E+02
  816.500  .35682E+02
  817.100  .36472E+02
  817.800  .34946E+02
  818.400  .35290E+02
  819.100  .33757E+02
  819.700  .33021E+02
  820.300  .34833E+02
  821.000  .33833E+02
  821.600  .32883E+02
  822.300  .34770E+02
  822.900  .34241E+02
  823.600  .34141E+02
  824.200  .34608E+02
  824.800  .34136E+02
  825.500  .32638E+02
  826.100  .32953E+02
  826.800  .30809E+02
  827.400  .34415E+02
  828.000  .32260E+02
  828.700  .32063E+02
  829.300  .31827E+02
  830.000  .32456E+02
  830.600  .29825E+02
  831.200  .32014E+02
  831.900  .29689E+02
  832.500  .29171E+02
  833.200  .28718E+02
  833.800  .30053E+02
  834.400  .29749E+02
  835.100  .28830E+02
  835.700  .26783E+02
  836.400  .27755E+02
  837.000  .26106E+02
  837.600  .26824E+02
  838.300  .26737E+02
  838.900  .26957E+02
  839.600  .26619E+02
  840.200  .24642E+02
  840.900  .24425E+02
  841.500  .21149E+02
  842.100  .22750E+02
  842.800  .21455E+02
  843.400  .23060E+02
  844.100  .21604E+02
  844.700  .21851E+02
  845.300  .18797E+02
  846.000  .19458E+02
  846.600  .18875E+02
  847.200  .17621E+02
  847.900  .17453E+02
  848.500  .16897E+02
  849.200  .15509E+02
  849.800  .16007E+02
  850.400  .15318E+02
  851.100  .13183E+02
  851.700  .13422E+02
  852.400  .11213E+02
  853.000  .11999E+02
  853.600  .12011E+02
  854.300  .10406E+02
  854.900  .85348E+01
  855.600  .12018E+02
  856.200  .10177E+02
  856.800  .99257E+01
  857.500  .83057E+01
  858.100  .64513E+01
  858.800  .57698E+01
  859.400  .66249E+01
  860.000  .59082E+01
  860.700  .75876E+01
  861.300  .39104E+01
  861.900  .39115E+01
  862.600  .22639E+01
  863.200  .30554E+01
  863.900  .20963E+01
  864.500  .20950E+01
  865.100  .43486E+01
  865.800  .10959E+01
  866.400  .27227E+01
  867.000  .18565E+01
  867.700  .13878E+01
  868.300  .19198E+01
  869.000  .13830E+01
  869.600  .34266E+00
  870.200  .14120E+01
  870.900  .40198E+00
  871.500 -.17315E+00
  872.200  .93307E+00
  872.800 -.95797E+00
  873.400 -.52440E+00
  874.100  .34915E+00
  874.700  .18351E+01
  875.300  .74864E+00
  876.000  .23573E+00
  876.600 -.13658E+01
  877.300 -.14067E+01
  877.900  .21326E+01
  878.500 -.87247E+00
  879.200  .42039E+00
  879.800  .24566E+00
  880.400  .61882E+00
  881.100  .13357E+01
  881.700 -.10381E+01
  882.300  .88344E+00
  883.000  .12172E+00
  883.600  .25572E+00
  884.300  .35490E+00
  884.900  .24737E+00
  885.500 -.12463E+01
  886.200 -.12877E+01
  886.800 -.12241E+01
  887.400  .13443E+01
  888.100 -.33082E+00
  888.700  .22265E+00
  889.300  .20349E+01
  890.000  .16132E+01
  890.600 -.11207E+01
  891.300  .10122E+01
  891.900 -.11330E+01
  892.500 -.40026E+00
  893.200  .12845E+01
  893.800  .22406E+00
  894.400 -.10156E+01
  895.100 -.10928E+01
  895.700 -.29038E+01
  896.300  .17193E+00
  897.000  .96184E-01
  897.600  .12649E+01
  898.300  .51525E-01
  898.900  .10452E+01
  899.500  .86373E+00
  900.200  .14525E+00
  900.800 -.16479E+01
  901.400  .78179E+00
  902.100  .59848E+00
  902.700  .23567E+00
  903.300  .87744E-01
  904.000  .11881E+00
  904.600 -.89520E+00
  905.200 -.17673E+01
  905.900 -.30639E-02
  906.500 -.74408E-02
  907.100 -.11831E-01
  907.800  .55629E-01
  908.400  .87649E-01
  909.100  .14295E+01
  909.700  .39782E+01
  910.300  .62141E+00
  911.000 -.69847E+00
  911.600  .24759E+00
  912.200 -.26874E+01
  912.900 -.13023E+01
  913.500 -.79406E+00
  914.100  .24371E+01
  914.800 -.13215E+01
  915.400 -.73752E-01
  916.000  .62323E+00
  916.700  .20240E+01
  917.300  .17093E+00
  917.900  .61146E+00
  918.600 -.21026E+01
  919.200 -.12549E+01
  919.800  .74843E+00
  920.500  .48339E+00
  921.100 -.42867E-01
  921.700  .69967E+00
  922.400  .13426E+00
  923.000 -.17803E+01
  923.600  .38802E+00
  924.300  .11719E+01
  924.900  .78402E-01
  925.500  .78919E+00
  926.200  .70960E+00
  926.800 -.16342E+01
  927.400  .70217E+00
  928.100  .84921E+00
  928.700  .17550E+01
  929.300 -.10629E+00
  930.000  .10659E+01
  930.600 -.87725E+00
  931.200  .14400E+01
  931.900  .55960E+00
  932.500  .12811E+01
  933.100 -.10156E+01
  933.800  .62364E+00
  934.400  .83162E-01
  935.000 -.22837E+00
  935.700  .20331E+01
  936.300  .79974E+00
  936.900 -.24399E+00
  937.600  .56028E+00
  938.200  .51766E+00
  938.800 -.12264E+01
  939.500  .54849E-02
  940.100  .80700E-03
  940.700  .34920E-01
  941.400  .13121E+01
  942.000  .16981E+01
  942.600 -.96745E-01
  943.300  .59988E+00
  943.900  .18849E+01
  944.500  .19606E+01
  945.200  .74380E+00
  945.800  .23023E+00
  946.400 -.10697E+01
  947.100  .14190E+00
  947.700  .17903E+01
  948.300 -.22194E+00
  948.900  .52260E+00
  949.600  .71526E+00
  950.200  .14628E+01
  950.800  .39941E+01
  951.500 -.11213E+01
  952.100  .93700E+00
  952.700  .44311E+01
  953.400  .25233E+00
  954.000  .22403E+01
  954.600  .17992E+01
  955.300  .12368E+01
  955.900  .25133E+01
  956.500  .39931E+01
  957.200  .28701E+01
  957.800  .41964E+00
  958.400  .97799E+00
  959.000  .26644E+01
  959.700  .39922E+01
  960.300  .28220E+01
  960.900  .39918E+01
  961.600  .18074E+01
  962.200  .48012E+01
  962.800  .39505E+01
  963.500  .26105E+01
  964.100  .30151E+01
  964.700  .45599E+01
  965.400  .29305E+01
  966.000  .25211E+01
  966.600  .51738E+01
  967.200  .47250E+01
  967.900  .48076E+01
  968.500  .42753E+01
  969.100  .48909E+01
  969.800  .39876E+01
  970.400  .53450E+01
  971.000  .57581E+01
  971.700  .65025E+01
  972.300  .57617E+01
  972.900  .86160E+01
  973.500  .60548E+01
  974.200  .85853E+01
  974.800  .87146E+01
  975.400  .86781E+01
  976.100  .55225E+01
  976.700  .77310E+01
  977.300  .71929E+01
  978.000  .71967E+01
  978.600  .71999E+01
  979.200  .77471E+01
  979.800  .68293E+01
  980.500  .72596E+01
  981.100  .90191E+01
  981.700  .10202E+02
  982.400  .11430E+02
  983.000  .95836E+01
  983.600  .10265E+02
  984.200  .11201E+02
  984.900  .11844E+02
  985.500  .11133E+02
  986.100  .12115E+02
  986.800  .90687E+01
  987.400  .11879E+02
  988.000  .12058E+02
  988.700  .12409E+02
  989.300  .10541E+02
  989.900  .11316E+02
  990.500  .11196E+02
  991.200  .11846E+02
  991.800  .13576E+02
  992.400  .12479E+02
  993.100  .12259E+02
  993.700  .14074E+02
  994.300  .15032E+02
  994.900  .14398E+02
  995.600  .15187E+02
  996.200  .15113E+02
  996.800  .15730E+02
  997.400  .15440E+02
  998.100  .17189E+02
  998.700  .16552E+02
  999.300  .14522E+02
 1000.000  .14274E+02
 1000.600  .15199E+02
 1001.200  .15604E+02
 1001.800  .16563E+02
 1002.500  .16767E+02
 1003.100  .17231E+02
 1003.700  .16889E+02
 1004.400  .17249E+02
 1005.000  .17614E+02
 1005.600  .16265E+02
 1006.200  .18612E+02
 1006.900  .17307E+02
 1007.500  .19969E+02
 1008.100  .18572E+02
 1008.700  .19472E+02
 1009.400  .19270E+02
 1010.000  .19884E+02
 1010.600  .19807E+02
 1011.300  .20398E+02
 1011.900  .19538E+02
 1012.500  .20110E+02
 1013.100  .23338E+02
 1013.800  .22201E+02
 1014.400  .21952E+02
 1015.000  .21971E+02
 1015.600  .20914E+02
 1016.300  .24973E+02
 1016.900  .24231E+02
 1017.500  .22274E+02
 1018.100  .22293E+02
 1018.800  .26192E+02
 1019.400  .25177E+02
 1020.000  .26013E+02
 1020.700  .23190E+02
 1021.300  .25808E+02
 1021.900  .26086E+02
 1022.500  .27107E+02
 1023.200  .30725E+02
 1023.800  .27933E+02
 1024.400  .28550E+02
 1025.000  .29351E+02
 1025.700  .28606E+02
 1026.300  .28997E+02
 1026.900  .31310E+02
 1027.500  .30652E+02
 1028.200  .30272E+02
 1028.800  .32227E+02
 1029.400  .32073E+02
 1030.000  .30723E+02
 1030.700  .35545E+02
 1031.300  .37469E+02
 1031.900  .35658E+02
 1032.500  .32733E+02
 1033.200  .33462E+02
 1033.800  .36550E+02
 1034.400  .37882E+02
 1035.000  .35829E+02
 1035.700  .35496E+02
 1036.300  .36739E+02
 1036.900  .40313E+02
 1037.500  .38346E+02
 1038.200  .38574E+02
 1038.800  .39077E+02
 1039.400  .43138E+02
 1040.000  .38495E+02
 1040.700  .41257E+02
 1041.300  .41718E+02
 1041.900  .44389E+02
 1042.500  .43208E+02
 1043.200  .44998E+02
 1043.800  .44570E+02
 1044.400  .44659E+02
 1045.000  .45505E+02
 1045.700  .44656E+02
 1046.300  .43182E+02
 1046.900  .43175E+02
 1047.500  .46159E+02
 1048.200  .42883E+02
 1048.800  .45016E+02
 1049.400  .46678E+02
 1050.000  .48248E+02
 1050.700  .45867E+02
 1051.300  .49351E+02
 1051.900  .47341E+02
 1052.500  .48822E+02
 1053.200  .49089E+02
 1053.800  .47818E+02
 1054.400  .48344E+02
 1055.000  .47942E+02
 1055.600  .49205E+02
 1056.300  .48098E+02
 1056.900  .48485E+02
 1057.500  .49208E+02
 1058.100  .48101E+02
 1058.800  .50131E+02
 1059.400  .49063E+02
 1060.000  .52895E+02
 1060.600  .50662E+02
 1061.300  .52566E+02
 1061.900  .53346E+02
 1062.500  .53786E+02
 1063.100  .52809E+02
 1063.800  .52773E+02
 1064.400  .53996E+02
 1065.000  .53148E+02
 1065.600  .49589E+02
 1066.200  .51647E+02
 1066.900  .53079E+02
 1067.500  .51358E+02
 1068.100  .53523E+02
 1068.700  .50468E+02
 1069.400  .51954E+02
 1070.000  .53682E+02
 1070.600  .53287E+02
 1071.200  .53436E+02
 1071.800  .53783E+02
 1072.500  .53445E+02
 1073.100  .49969E+02
 1073.700  .49540E+02
 1074.300  .50210E+02
 1075.000  .51909E+02
 1075.600  .54201E+02
 1076.200  .53852E+02
 1076.800  .51253E+02
 1077.400  .50699E+02
 1078.100  .48600E+02
 1078.700  .54010E+02
 1079.300  .51400E+02
 1079.900  .49236E+02
 1080.600  .51502E+02
 1081.200  .52289E+02
 1081.800  .52958E+02
 1082.400  .52452E+02
 1083.000  .48559E+02
 1083.700  .54428E+02
 1084.300  .51794E+02
 1084.900  .52298E+02
 1085.500  .55035E+02
 1086.100  .51073E+02
 1086.800  .54788E+02
 1087.400  .45574E+02
 1088.000  .55551E+02
 1088.600  .51675E+02
 1089.300  .51270E+02
 1089.900  .52748E+02
 1090.500  .51261E+02
 1091.100  .53664E+02
 1091.700  .51200E+02
 1092.400  .50176E+02
 1093.000  .49964E+02
 1093.600  .49340E+02
 1094.200  .48148E+02
 1094.800  .48655E+02
 1095.500  .51700E+02
 1096.100  .51798E+02
 1096.700  .49621E+02
 1097.300  .48889E+02
 1097.900  .53337E+02
 1098.600  .50540E+02
 1099.200  .48819E+02
 1099.800  .48862E+02
 1100.400  .45419E+02
 1101.000  .45980E+02
 1101.700  .49887E+02
 1102.300  .49983E+02
 1102.900  .49191E+02
 1103.500  .52897E+02
 1104.100  .48807E+02
 1104.800  .46708E+02
 1105.400  .45857E+02
 1106.000  .45949E+02
 1106.600  .49145E+02
 1107.200  .47293E+02
 1107.900  .46867E+02
 1108.500  .49229E+02
 1109.100  .46896E+02
 1109.700  .52805E+02
 1110.300  .50047E+02
 1111.000  .47503E+02
 1111.600  .49825E+02
 1112.200  .47320E+02
 1112.800  .51825E+02
 1113.400  .49530E+02
 1114.100  .47717E+02
 1114.700  .53782E+02
 1115.300  .53403E+02
 1115.900  .49604E+02
 1116.500  .51251E+02
 1117.200  .54302E+02
 1117.800  .51349E+02
 1118.400  .50374E+02
 1119.000  .51116E+02
 1119.600  .51268E+02
 1120.200  .50076E+02
 1120.900  .50503E+02
 1121.500  .56209E+02
 1122.100  .56636E+02
 1122.700  .48366E+02
 1123.300  .51598E+02
 1124.000  .54412E+02
 1124.600  .50286E+02
 1125.200  .51686E+02
 1125.800  .54446E+02
 1126.400  .54113E+02
 1127.000  .54269E+02
 1127.700  .52799E+02
 1128.300  .58571E+02
 1128.900  .54801E+02
 1129.500  .51133E+02
 1130.100  .54350E+02
 1130.800  .52105E+02
 1131.400  .55000E+02
 1132.000  .57462E+02
 1132.600  .53722E+02
 1133.200  .56627E+02
 1133.800  .51119E+02
 1134.500  .54420E+02
 1135.100  .51986E+02
 1135.700  .52693E+02
 1136.300  .55887E+02
 1136.900  .52506E+02
 1137.500  .53603E+02
 1138.200  .56594E+02
 1138.800  .52427E+02
 1139.400  .51416E+02
 1140.000  .56797E+02
 1140.600  .55343E+02
 1141.300  .55900E+02
 1141.900  .57788E+02
 1142.500  .51531E+02
 1143.100  .55485E+02
 1143.700  .52177E+02
 1144.300  .50262E+02
 1145.000  .52273E+02
 1145.600  .53439E+02
 1146.200  .53260E+02
 1146.800  .56228E+02
 1147.400  .54476E+02
 1148.000  .52100E+02
 1148.700  .55591E+02
 1149.300  .53606E+02
 1149.900  .52578E+02
 1150.500  .52227E+02
 1151.100  .53799E+02
 1151.700  .56224E+02
 1152.400  .52536E+02
 1153.000  .53829E+02
 1153.600  .52852E+02
 1154.200  .56309E+02
 1154.800  .52542E+02
 1155.400  .52529E+02
 1156.000  .52458E+02
 1156.700  .52624E+02
 1157.300  .52668E+02
 1157.900  .53684E+02
 1158.500  .52813E+02
 1159.100  .51882E+02
 1159.700  .51523E+02
 1160.400  .52378E+02
 1161.000  .50523E+02
 1161.600  .54537E+02
 1162.200  .46803E+02
 1162.800  .53071E+02
 1163.400  .55655E+02
 1164.000  .54141E+02
 1164.700  .50317E+02
 1165.300  .53428E+02
 1165.900  .48081E+02
 1166.500  .51602E+02
 1167.100  .51005E+02
 1167.700  .50117E+02
 1168.400  .55635E+02
 1169.000  .51196E+02
 1169.600  .50188E+02
 1170.200  .51221E+02
 1170.800  .51613E+02
 1171.400  .49784E+02
 1172.000  .51288E+02
 1172.700  .50868E+02
 1173.300  .50909E+02
 1173.900  .50012E+02
 1174.500  .49053E+02
 1175.100  .52092E+02
 1175.700  .52076E+02
 1176.300  .52177E+02
 1177.000  .47684E+02
 1177.600  .50261E+02
 1178.200  .46637E+02
 1178.800  .51348E+02
 1179.400  .50383E+02
 1180.000  .46452E+02
 1180.600  .46607E+02
 1181.300  .47898E+02
 1181.900  .50314E+02
 1182.500  .47974E+02
 1183.100  .46031E+02
 1183.700  .48425E+02
 1184.300  .58890E+02
 1184.900  .48783E+02
 1185.600  .45241E+02
 1186.200  .47371E+02
 1186.800  .47049E+02
 1187.400  .46786E+02
 1188.000  .47003E+02
 1188.600  .48361E+02
 1189.200  .47317E+02
 1189.800  .51448E+02
 1190.500  .44023E+02
 1191.100  .47073E+02
 1191.700  .45178E+02
 1192.300  .43762E+02
 1192.900  .40893E+02
 1193.500  .44798E+02
 1194.100  .42409E+02
 1194.800  .45298E+02
 1195.400  .45940E+02
 1196.000  .42390E+02
 1196.600  .42422E+02
 1197.200  .45925E+02
 1197.800  .44924E+02
 1198.400  .42946E+02
 1199.000  .40597E+02
 1199.700  .45156E+02
 1200.300  .42621E+02
 1200.900  .41244E+02
 1201.500  .35758E+02
 1202.100  .40263E+02
 1202.700  .43732E+02
 1203.300  .43888E+02
 1203.900  .40045E+02
 1204.600  .40018E+02
 1205.200  .38876E+02
 1205.800  .42484E+02
 1206.400  .35969E+02
 1207.000  .38529E+02
 1207.600  .36268E+02
 1208.200  .38586E+02
 1208.800  .37002E+02
 1209.500  .37157E+02
 1210.100  .40166E+02
 1210.700  .37211E+02
 1211.300  .36677E+02
 1211.900  .36268E+02
 1212.500  .35919E+02
 1213.100  .37755E+02
 1213.700  .36220E+02
 1214.300  .34308E+02
 1215.000  .36401E+02
 1215.600  .33796E+02
 1216.200  .33130E+02
 1216.800  .36981E+02
 1217.400  .32987E+02
 1218.000  .30557E+02
 1218.600  .32591E+02
 1219.200  .33621E+02
 1219.800  .29862E+02
 1220.500  .29948E+02
 1221.100  .25609E+02
 1221.700  .30240E+02
 1222.300  .35197E+02
 1222.900  .25846E+02
 1223.500  .26306E+02
 1224.100  .29749E+02
 1224.700  .30403E+02
 1225.300  .24892E+02
 1226.000  .27455E+02
 1226.600  .30467E+02
 1227.200  .29530E+02
 1227.800  .29103E+02
 1228.400  .25033E+02
 1229.000  .23514E+02
 1229.600  .26663E+02
 1230.200  .26616E+02
 1230.800  .27209E+02
 1231.400  .25172E+02
 1232.100  .21207E+02
 1232.700  .23340E+02
 1233.300  .23418E+02
 1233.900  .22852E+02
 1234.500  .26604E+02
 1235.100  .20426E+02
 1235.700  .21793E+02
 1236.300  .19542E+02
 1236.900  .21493E+02
 1237.500  .17619E+02
 1238.200  .21842E+02
 1238.800  .17506E+02
 1239.400  .18099E+02
 1240.000  .15182E+02
 1240.600  .13887E+02
 1241.200  .14673E+02
 1241.800  .14808E+02
 1242.400  .13705E+02
 1243.000  .17561E+02
 1243.600  .14759E+02
 1244.200  .18100E+02
 1244.900  .14836E+02
 1245.500  .15366E+02
 1246.100  .11501E+02
 1246.700  .12751E+02
 1247.300  .13806E+02
 1247.900  .10061E+02
 1248.500  .15263E+02
 1249.100  .11513E+02
 1249.700  .87454E+01
 1250.300  .12904E+02
 1250.900  .76879E+01
 1251.600  .72898E+01
 1252.200  .10135E+02
 1252.800  .70880E+01
 1253.400  .86115E+01
 1254.000  .77483E+01
 1254.600  .66842E+01
 1255.200  .61502E+01
 1255.800  .52159E+01
 1256.400  .61450E+01
 1257.000  .34757E+01
 1257.600  .76745E+01
 1258.200  .40668E+01
 1258.900  .52649E+01
 1259.500  .25849E+01
 1260.100  .28470E+01
 1260.700  .53886E+01
 1261.300  .69284E+01
 1261.900 -.72881E+00
 1262.500  .26229E+01
 1263.100 -.81364E+00
 1263.700  .25439E+01
 1264.300  .25380E+01
 1264.900  .25996E+01
 1265.500  .26612E+01
 1266.100  .38716E+01
 1266.800 -.35063E+01
 1267.400 -.10806E+01
 1268.000  .25013E+01
 1268.600  .38516E+01
 1269.200  .25572E+01
 1269.800 -.12531E+01
 1270.400 -.99045E+00
 1271.000  .90594E+00
 1271.600 -.14173E+01
 1272.200 -.13587E+01
 1272.800 -.39609E+01
 1273.400  .46632E+00
 1274.000 -.49413E+01
 1274.600 -.11913E+01
 1275.300  .24958E+01
 1275.900 -.25823E+01
 1276.500  .25522E+01
 1277.100  .21164E+00
 1277.700  .66065E-01
 1278.300  .40171E+00
 1278.900 -.50119E+00
 1279.500  .25217E+01
 1280.100 -.38978E+01
 1280.700 -.14938E+01
 1281.300 -.10199E+01
 1281.900 -.52467E+01
 1282.500 -.34605E+01
 1283.100 -.39567E+01
 1283.700 -.52163E+01
 1284.400 -.55089E+01
 1285.000 -.29524E+01
 1285.600 -.15731E+01
 1286.200 -.67847E+00
 1286.800 -.13838E+01
 1287.400 -.14631E+01
 1288.000 -.44722E+01
 1288.600 -.51826E+01
 1289.200 -.37282E+01
 1289.800 -.30406E+01
 1290.400  .22679E+01
 1291.000  .22614E+01
 1291.600  .21847E+01
 1292.200 -.48854E+00
 1292.800 -.38688E+01
 1293.400 -.51459E+01
 1294.000 -.17114E+01
 1294.600  .81364E+00
 1295.300 -.37067E+01
 1295.900 -.47061E+01
 1296.500  .50637E+00
 1297.100 -.70313E+00
 1297.700 -.41781E+01
 1298.300  .19686E+01
 1298.900 -.37639E+00
 1299.500  .11109E+00
 1300.100 -.16717E+01
 1300.700  .30065E+01
 1301.300  .51215E+00
 1301.900 -.49220E+00
 1302.500 -.17831E+01
 1303.100 -.65689E+01
 1303.700 -.15181E+01
 1304.300 -.18136E+01
 1304.900 -.29672E+01
 1305.500 -.90424E+00
 1306.100  .16892E-01
 1306.700  .28023E+01
 1307.300 -.19364E+01
 1308.000 -.10872E+01
 1308.600  .69912E+00
 1309.200 -.44856E+01
 1309.800 -.58654E+01
 1310.400 -.44387E+01
 1311.000 -.63084E+00
 1311.600 -.56795E+00
 1312.200 -.43277E+00
 1312.800 -.14536E+01
 1313.400 -.10296E+01
 1314.000 -.35728E+01
 1314.600 -.61418E+00
 1315.200 -.25813E+01
 1315.800 -.25197E+01
 1316.400  .33527E+01
 1317.000 -.21528E+00
 1317.600 -.37166E+01
 1318.200 -.10342E+01
 1318.800  .34746E+01
 1319.400 -.32419E+01
 1320.000  .19297E+01
 1320.600 -.19633E+00
 1321.200 -.20335E+01
 1321.800  .22008E+01
 1322.400  .19741E+01
 1323.000  .19668E+01
 1323.600 -.47172E+01
 1324.300 -.38509E+01
 1324.900  .17969E+01
 1325.500  .27459E+01
 1326.100  .20030E+01
 1326.700  .18484E+01
 1327.300  .32423E+01
 1327.900  .17598E+01
 1328.500  .19001E+01
 1329.100  .11825E+00
 1329.700  .14414E+01
 1330.300 -.10104E+01
 1330.900 -.13167E+01
 1331.500 -.16977E+01
 1332.100 -.20051E+01
 1332.700  .18484E+01
 1333.300  .18409E+01
 1333.900 -.32515E+00
 1334.500 -.24203E+01
 1335.100 -.10148E+01
 1335.700  .15125E+01
 1336.300  .30977E+00
 1336.900  .29918E+01
 1337.500 -.90472E+00
 1338.100 -.25617E+01
 1338.700  .30470E+01
 1339.300  .52903E+01
 1339.900 -.11844E+00
 1340.500  .31025E+01
 1341.100  .23909E+00
 1341.700  .25627E+01
 1342.300  .30829E+01
 1342.900  .17197E+01
 1343.500  .62378E+01
 1344.100  .35916E+01
 1344.700 -.12501E+01
 1345.300  .18400E+01
 1345.900  .15297E+01
 1346.500  .56877E+01
 1347.100  .56074E+01
 1347.700  .56787E+01
 1348.300  .19536E+01
 1348.900  .46177E-01
 1349.500  .36117E+01
 1350.100  .23875E+01
 1350.700  .30659E+01
 1351.300  .18393E+01
 1351.900  .62574E+01
 1352.500  .46496E+01
 1353.100  .55613E+01
 1353.700  .41032E+01
 1354.300  .39735E-01
 1354.900  .14097E+01
 1355.500  .56192E+01
 1356.100  .29284E+01
 1356.700  .13085E+01
 1357.300  .28377E+01
 1357.900  .44464E+01
 1358.500  .55187E+01
 1359.100  .57451E+01
 1359.700  .55091E+01
 1360.300  .40377E+01
 1360.900  .19459E+01
 1361.500  .56492E+01
 1362.100  .35553E+01
 1362.700  .28518E+01
 1363.300  .50149E+01
 1363.900  .12088E+01
 1364.500  .10050E+02
 1365.100  .74075E+01
 1365.700  .54602E+01
 1366.300  .13782E+02
 1366.900  .72416E+01
 1367.500  .99662E+01
 1368.100  .38020E+01
 1368.700  .77775E+01
 1369.300  .97278E+01
 1369.900  .11603E+02
 1370.500  .71419E+01
 1371.100  .54150E+01
 1371.700  .57235E+01
 1372.300  .32865E+01
 1372.900  .32797E+01
 1373.500  .60232E+01
 1374.100  .83780E+01
 1374.700  .61714E+01
 1375.300  .10106E+02
 1375.900  .54528E+01
 1376.500  .84459E+01
 1377.100  .10575E+02
 1377.700  .10021E+02
 1378.300  .73303E+01
 1378.900  .10097E+02
 1379.500  .71646E+01
 1380.100  .10491E+02
 1380.700  .11283E+02
 1381.300  .10171E+02
 1381.900  .11123E+02
 1382.500  .77021E+01
 1383.100  .11918E+02
 1383.700  .54646E+01
 1384.300  .60972E+01
 1384.900  .68106E+01
 1385.500  .11119E+02
 1386.100  .64825E+01
 1386.700  .83177E+01
 1387.300  .10556E+02
 1387.900  .13920E+02
 1388.500  .98321E+01
 1389.100  .76636E+01
 1389.700  .10069E+02
 1390.300  .11193E+02
 1390.900  .11273E+02
 1391.500  .11755E+02
 1392.100  .10143E+02
 1392.700  .10545E+02
 1393.300  .19258E+02
 1393.900  .14661E+02
 1394.500  .10379E+02
 1395.100  .11914E+02
 1395.700  .16447E+02
 1396.300  .99693E+01
 1396.900  .11184E+02
 1397.500  .15402E+02
 1398.100  .11913E+02
 1398.700  .11669E+02
 1399.300  .10041E+02
 1399.900  .12481E+02
 1400.500  .11015E+02
 1401.100  .12971E+02
 1401.700  .15990E+02
 1402.300  .77451E+01
 1402.800  .12073E+02
 1403.400  .15998E+02
 1404.000  .11827E+02
 1404.600  .17560E+02
 1405.200  .15761E+02
 1405.800  .16419E+02
 1406.400  .20117E+02
 1407.000  .11906E+02
 1407.600  .15195E+02
 1408.200  .12481E+02
 1408.800  .11904E+02
 1409.400  .20312E+02
 1410.000  .11738E+02
 1410.600  .12315E+02
 1411.200  .19504E+02
 1411.800  .12067E+02
 1412.400  .14218E+02
 1413.000  .11900E+02
 1413.600  .12314E+02
 1414.200  .12977E+02
 1414.800  .12894E+02
 1415.400  .11067E+02
 1416.000  .19629E+02
 1416.600  .16889E+02
 1417.200  .16642E+02
 1417.800  .19812E+02
 1418.400  .15480E+02
 1419.000  .17903E+02
 1419.500  .17906E+02
 1420.100  .16907E+02
 1420.700  .13564E+02
 1421.300  .21518E+02
 1421.900  .15492E+02
 1422.500  .19687E+02
 1423.100  .19944E+02
 1423.700  .17430E+02
 1424.300  .17937E+02
 1424.900  .20801E+02
 1425.500  .19881E+02
 1426.100  .15590E+02
 1426.700  .16266E+02
 1427.300  .13568E+02
 1427.900  .21000E+02
 1428.500  .24978E+02
 1429.100  .18137E+02
 1429.700  .22627E+02
 1430.300  .23058E+02
 1430.900  .71471E+02
 1431.500  .75250E+02
