314.5, 1.6822699323453918
315, 1.6822699323453918
315.5, 1.7109674600942526
316, 1.7109674600942526
316.5, 1.739664987843156
317, 1.739664987843156
317.5, 1.739664987843156
318, 1.8544550988386561
318.5, 1.8544550988386561
319, 1.9405476820852812
319.5, 1.9692452098341704
320, 1.9692452098341704
320.5, 1.9692452098341704
321, 1.9692452098341704
321.5, 1.9692452098341704
322, 1.9692452098341704
322.5, 1.9979427375830312
323, 2.1127328485785455
323.5, 2.1127328485785455
324, 2.1414303763274205
324.5, 2.1414303763274205
325, 2.1701279040763097
325.5, 2.1414303763274205
326, 2.1414303763274205
326.5, 2.1414303763274205
327, 2.1414303763274205
327.5, 2.1988254318251705
328, 2.1988254318251705
328.5, 2.256220487322935
329, 2.342313070569574
329.5, 2.342313070569574
330, 2.3997081260673383
330.5, 2.3997081260673383
331, 2.428405653816199
331.5, 2.4571031815650883
332, 2.4571031815650883
332.5, 2.5144982370628384
333, 2.5144982370628384
333.5, 2.5431957648117134
334, 2.5431957648117134
334.5, 2.5718932925606026
335, 2.6005908203094634
335.5, 2.6005908203094634
336, 2.6579858758072277
336.5, 2.6579858758072277
337, 2.8014735145516028
337.5, 2.858868570049367
338, 2.858868570049367
338.5, 2.916263625547117
339, 2.916263625547117
339.5, 2.973658681044867
340, 3.0023562087937705
340.5, 3.0023562087937705
341, 3.0597512642915206
341.5, 3.0597512642915206
342, 3.0884487920403814
342.5, 3.0884487920403814
343, 3.1458438475381456
343.5, 3.1745413752870206
344, 3.1745413752870206
344.5, 3.2319364307847707
345, 3.2319364307847707
345.5, 3.318029014031424
346, 3.432819125026924
346.5, 3.432819125026924
347, 3.4902141805246885
347.5, 3.4902141805246885
348, 3.4902141805246885
348.5, 3.4902141805246885
349, 3.4902141805246885
349.5, 3.5189117082735493
350, 3.5189117082735493
350.5, 3.6050042915201743
351, 3.6050042915201743
351.5, 3.691096874766828
352, 3.805886985762342
352.5, 3.805886985762342
353, 3.863282041260092
353.5, 3.863282041260092
354, 3.920677096757842
354.5, 3.920677096757842
355, 3.949374624506717
355.5, 3.9780721522556064
356, 3.9780721522556064
356.5, 4.064164735502217
357, 4.064164735502217
357.5, 4.178954846497746
358, 4.265047429744357
358.5, 4.265047429744357
359, 4.322442485242121
359.5, 4.322442485242121
360, 4.379837540739871
360.5, 4.379837540739871
361, 4.40853506848876
361.5, 4.437232596237635
362, 4.437232596237635
362.5, 4.437232596237635
363, 4.437232596237635
363.5, 4.494627651735385
364, 4.552022707233135
364.5, 4.552022707233135
365, 4.638115290479774
365.5, 4.638115290479774
366, 4.752905401475289
366.5, 4.752905401475289
367, 4.896393040219678
367.5, 4.925090567968553
368, 4.925090567968553
368.5, 4.925090567968553
369, 4.925090567968553
369.5, 5.039880678964053
370, 5.097275734461817
370.5, 5.097275734461817
371, 5.183368317708442
371.5, 5.183368317708442
372, 5.269460900955096
372.5, 5.355553484201707
373, 5.355553484201707
373.5, 5.49904112294611
374, 5.49904112294611
374.5, 5.61383123394161
375, 5.61383123394161
375.5, 5.6425287616904996
376, 5.6425287616904996
376.5, 5.6425287616904996
377, 5.6425287616904996
377.5, 5.6425287616904996
378, 5.757318872686014
378.5, 5.872108983681528
379, 5.872108983681528
379.5, 5.929504039179278
380, 5.929504039179278
380.5, 5.958201566928139
381, 5.958201566928139
381.5, 6.044294150174792
382, 6.1303867334214175
382.5, 6.1303867334214175
383, 6.2164793166680425
383.5, 6.2164793166680425
384, 6.273874372165793
384.5, 6.331269427663557
385, 6.331269427663557
385.5, 6.417362010910196
386, 6.417362010910196
386.5, 6.589547177403446
387, 6.589547177403446
387.5, 6.6756397606501
388, 6.73303481614785
388.5, 6.73303481614785
389, 6.819127399394475
389.5, 6.819127399394475
390, 6.905219982641114
390.5, 7.020010093636628
391, 7.020010093636628
391.5, 7.077405149134364
392, 7.077405149134364
392.5, 7.134800204632128
393, 7.134800204632128
393.5, 7.192195260129878
394, 7.335682898874282
394.5, 7.335682898874282
395, 7.479170537618657
395.5, 7.479170537618657
396, 7.6513557041119356
396.5, 7.708750759609686
397, 7.708750759609686
397.49999999999994, 7.76614581510745
398, 7.76614581510745
398.5, 7.852238398354061
399, 7.852238398354061
399.5, 7.995726037098464
400, 8.110516148093964
400.5, 8.110516148093964
401, 8.139213675842853
401.5, 8.139213675842853
402, 8.225306259089464
402.5, 8.311398842336118
403, 8.311398842336118
403.5, 8.483584008829382
404, 8.483584008829382
404.5, 8.655769175322632
405, 8.799256814067036
405.5, 8.799256814067036
406, 8.94274445281141
406.5, 8.94274445281141
407, 8.91404692506255
407.5, 8.91404692506255
408, 8.88534939731366
408.5, 8.88534939731366
409, 8.88534939731366
409.5, 8.94274445281141
410, 8.94274445281141
410.5, 9.14362714705355
411, 9.315812313546814
411.5, 9.315812313546814
412, 9.430602424542329
412.5, 9.430602424542329
413, 9.459299952291218
413.5, 9.459299952291218
414, 9.602787591035607
414.5, 9.746275229779982
415, 9.746275229779982
415.5, 9.861065340775497
416, 9.861065340775497
416.5, 9.889762868524386
417, 10.0045529795199
417.5, 10.0045529795199
418, 10.090645562766525
418.5, 10.090645562766525
419, 10.14804061826429
419.5, 10.14804061826429
420, 10.20543567376204
420.5, 10.320225784757554
421, 10.320225784757554
421.5, 10.492410951250818
422, 10.492410951250818
422.5, 10.693293645492957
423, 10.836781284237333
423.5, 10.836781284237333
424, 10.922873867483972
424.5, 10.922873867483972
424.99999999999994, 10.951571395232847
425.5, 10.951571395232847
426, 11.008966450730597
426.49999999999994, 11.095059033977236
426.99999999999994, 11.095059033977236
427.5, 11.29594172821939
428, 11.29594172821939
428.5, 11.410731839214904
429, 11.496824422461515
429.5, 11.496824422461515
430, 11.52552195021039
430.5, 11.52552195021039
431, 11.669009588954793
431.5, 11.669009588954793
432, 11.783799699950308
432.5, 11.841194755448058
433, 11.841194755448058
433.5, 12.013379921941308
434, 12.013379921941308
434.5, 12.185565088434572
435, 12.35775025492785
435.5, 12.35775025492785
436, 12.47254036592335
436.5, 12.47254036592335
437, 12.501237893672226
437.5, 12.501237893672226
438, 12.55863294916999
438.5, 12.64472553241663
439, 12.64472553241663
439.5, 12.730818115663254
440, 12.730818115663254
440.5, 12.845608226658769
441, 13.046490920900908
441.5, 13.046490920900908
442, 13.189978559645311
442.5, 13.189978559645311
443, 13.247373615143061
443.5, 13.304768670640811
444, 13.304768670640811
444.5, 13.333466198389686
445, 13.333466198389686
445.5, 13.419558781636312
446, 13.419558781636312
446.49999999999994, 13.563046420380715
447, 13.70653405912509
447.5, 13.70653405912509
448, 13.878719225618354
448.5, 13.878719225618354
449, 13.936114281116105
449.5, 13.993509336613869
450, 13.993509336613869
450.5, 14.022206864362744
451, 14.022206864362744
451.5, 14.079601919860494
452, 14.079601919860494
452.5, 14.165694503107147
453, 14.337879669600412
453.5, 14.337879669600412
454, 14.510064836093662
454.5, 14.510064836093662
455, 14.510064836093662
455.5, 14.596157419340315
456, 14.596157419340315
456.5, 14.710947530335815
457, 14.710947530335815
457.5, 14.85443516908019
458, 14.85443516908019
458.5, 14.911830224577955
459, 14.94052775232683
459.5, 14.94052775232683
460, 14.99792280782458
460.5, 14.99792280782458
461, 15.112712918820094
461.5, 15.313595613062247
462, 15.313595613062247
462.5, 15.428385724057748
463, 15.428385724057748
463.5, 15.543175835053262
464, 15.543175835053262
464.5, 15.629268418299901
465, 15.657965946048762
465.5, 15.657965946048762
466, 15.715361001546526
466.5, 15.715361001546526
467, 15.772756057044276
467.5, 15.88754616803979
468, 15.88754616803979
468.5, 15.973638751286416
469, 15.973638751286416
469.5, 16.05973133453307
470, 16.05973133453307
470.5, 16.11712639003082
471, 16.289311556524083
471.5, 16.289311556524083
472, 16.490194250766223
472.5, 16.490194250766223
473, 16.576286834012848
473.5, 16.748472000506112
474, 16.748472000506112
474.5, 16.94935469474825
475, 16.94935469474825
475.5, 17.064144805743766
476, 17.064144805743766
476.5, 17.064144805743766
477, 17.092842333492655
477.5, 17.092842333492655
478, 17.322422555483683
478.5, 17.322422555483683
479, 17.351120083232544
479.5, 17.37981761098142
480, 17.37981761098142
480.5, 17.37981761098142
481, 17.37981761098142
481.5, 17.46591019422806
481.99999999999994, 17.580700305223573
482.5, 17.580700305223573
483, 17.724187943967948
483.5, 17.724187943967948
484, 17.8102805272146
484.5, 17.8102805272146
485, 17.98246569370785
485.5, 18.01116322145674
485.99999999999994, 18.01116322145674
486.5, 18.0398607492056
487, 18.0398607492056
487.5, 18.097255804703366
487.99999999999994, 18.183348387950005
488.5, 18.183348387950005
489, 18.24074344344777
489.5, 18.24074344344777
490, 18.355533554443255
490.5, 18.355533554443255
491, 18.52771872093652
491.5, 18.613811304183173
492, 18.613811304183173
492.5, 18.699903887429784
493, 18.699903887429784
493.5, 18.728601415178687
494, 18.699903887429784
494.5, 18.699903887429784
495, 18.757298942927548
495.5, 18.757298942927548
496, 18.785996470676437
496.5, 18.785996470676437
497, 18.814693998425298
497.5, 18.814693998425298
498, 18.814693998425298
498.5, 18.785996470676437
499, 18.785996470676437
499.5, 18.785996470676437
500, 18.757298942927548
500.5, 18.757298942927548
501, 18.814693998425298
501.5, 18.814693998425298
502, 18.843391526174173
502.5, 18.843391526174173
503, 18.785996470676437
503.5, 18.671206359680923
504, 18.671206359680923
504.5, 18.585113776434284
505, 18.585113776434284
505.5, 18.49902119318766
506, 18.49902119318766
506.5, 18.49902119318766
507, 18.49902119318766
507.5, 18.49902119318766
508, 18.29813849894552
508.49999999999994, 18.068558276954505
508.99999999999994, 18.068558276954505
509.5, 17.98246569370785
510, 17.98246569370785
510.49999999999994, 17.953768165958977
511, 17.953768165958977
511.5, 17.9250706382101
512, 17.867675582712337
512.5, 17.867675582712337
513, 17.609397832972448
513.5, 17.609397832972448
514, 17.322422555483683
514.5, 17.23632997223703
515, 17.23632997223703
515.5, 17.12153986124153
516, 17.12153986124153
516.5, 17.006749750246016
517, 17.006749750246016
517.5, 16.863262111501626
518, 16.71977447275725
518.5, 16.71977447275725
519, 16.691076945008362
519.5, 16.691076945008362
520, 16.576286834012848
520.5, 16.576286834012848
521, 16.576286834012848
521.5, 16.461496723017333
522, 16.461496723017333
522.5, 16.289311556524083
523, 16.289311556524083
523.5, 16.231916501026333
524, 16.03103380678418
524.5, 16.03103380678418
525, 15.916243695788665
525.5, 15.916243695788665
526, 15.715361001546526
526.5, 15.657965946048762
527, 15.657965946048762
527.5, 15.686663473797651
528, 15.686663473797651
528.5, 15.744058529295415
529, 15.600570890551012
529.5, 15.600570890551012
530, 15.543175835053262
530.5, 15.543175835053262
531, 15.543175835053262
531.5, 15.543175835053262
532, 15.514478307304387
532.5, 15.428385724057748
533, 15.428385724057748
533.4999999999999, 15.284898085313358
533.9999999999999, 15.284898085313358
534.5, 15.428385724057748
535, 15.428385724057748
535.5, 15.428385724057748
536, 15.342293140811108
536.5, 15.342293140811108
537, 15.198805502066733
537.5, 15.198805502066733
538, 15.198805502066733
538.5, 15.227503029815608
539, 15.227503029815608
539.5, 15.227503029815608
540, 15.227503029815608
540.5, 15.170107974317844
541, 15.256200557564497
541.5, 15.256200557564497
542, 15.457083251806623
542.5, 15.457083251806623
543, 15.543175835053262
543.5, 15.543175835053262
544, 15.485780779555498
544.5, 15.514478307304387
545, 15.514478307304387
545.5, 15.600570890551012
546, 15.600570890551012
546.5, 15.629268418299901
547, 15.657965946048762
547.5, 15.657965946048762
548, 15.88754616803979
548.5, 15.88754616803979
549, 16.08842886228193
549.5, 16.231916501026333
550, 16.490194250766223
550.5, 16.691076945008362
551, 16.691076945008362
551.5, 16.691076945008362
552, 16.691076945008362
552.5, 16.289311556524083
553, 16.231916501026333
553.5, 16.231916501026333
553.9999999999999, 16.14582391777968
554.5, 16.14582391777968
555, 16.318009084272944
555.5, 16.43279919526846
556, 16.43279919526846
556.5, 16.604984361761737
557, 16.604984361761737
557.5, 16.8919596392505
558, 16.8919596392505
558.5, 17.26502749998592
559, 17.408515138730294
559.5, 17.408515138730294
560, 17.23632997223703
560.5, 17.23632997223703
561, 17.15023738899042
561.5, 17.12153986124153
562, 17.12153986124153
562.5, 17.12153986124153
563, 17.12153986124153
563.5, 17.20763244448817
564, 17.20763244448817
564.5, 17.322422555483683
565, 17.408515138730294
565.5, 17.408515138730294
566, 17.580700305223573
566.5, 17.580700305223573
567, 17.638095360721337
567.5, 17.609397832972448
568, 17.609397832972448
568.5, 17.437212666479184
569, 17.437212666479184
569.5, 17.437212666479184
570, 17.437212666479184
570.5, 17.494607721976934
571, 17.494607721976934
571.5, 17.494607721976934
572, 17.408515138730294
572.5, 17.408515138730294
573, 17.351120083232544
573.5, 17.26502749998592
574, 17.26502749998592
574.5, 17.20763244448817
575, 17.20763244448817
575.5, 17.293725027734794
576, 17.293725027734794
576.5, 17.23632997223703
577, 17.12153986124153
577.5, 17.12153986124153
578, 17.092842333492655
578.5, 17.092842333492655
579, 17.092842333492655
579.5, 16.97805222249714
580, 16.97805222249714
580.5, 16.518891778515098
581, 16.518891778515098
581.4999999999999, 16.43279919526846
582, 16.461496723017333
582.5, 16.461496723017333
583, 16.404101667519583
583.5, 16.404101667519583
584, 16.260614028775194
584.5, 16.260614028775194
585, 16.05973133453307
585.5, 15.973638751286416
586, 15.973638751286416
586.5, 15.772756057044276
587, 15.772756057044276
587.5, 15.744058529295415
588, 15.744058529295415
588.5, 15.744058529295415
589, 15.715361001546526
589.5, 15.715361001546526
590, 15.370990668560012
590.5, 15.370990668560012
591, 15.284898085313358
591.5, 15.141410446568983
592, 15.141410446568983
592.5, 15.112712918820094
593, 15.112712918820094
593.5, 15.084015391071233
594, 14.99792280782458
594.5, 14.99792280782458
595, 14.911830224577955
595.5, 14.911830224577955
596, 14.883132696829065
596.5, 14.82573764133133
597, 14.82573764133133
597.5, 14.682250002586926
598, 14.682250002586926
598.5, 14.366577197349272
599, 14.366577197349272
599.5, 14.136996975358258
600, 14.050904392111633
600.5, 14.050904392111633
601, 13.993509336613869
601.5, 13.993509336613869
602, 13.964811808864994
602.5, 13.76392911462284
603, 13.76392911462284
603.5, 13.620441475878465
604, 13.620441475878465
604.5, 13.563046420380715
605, 13.563046420380715
605.5, 13.563046420380715
606, 13.534348892631826
606.5, 13.534348892631826
607, 13.50565136488295
607.5, 13.50565136488295
608, 13.333466198389686
608.5, 13.333466198389686
609, 13.333466198389686
609.5, 13.304768670640811
610, 13.304768670640811
610.5, 13.247373615143061
611, 13.247373615143061
611.5, 13.132583504147547
612, 12.989095865403144
612.5, 12.989095865403144
613, 12.816910698909894
613.5, 12.816910698909894
614, 12.702120587914393
614.5, 12.64472553241663
615, 12.64472553241663
615.5, 12.64472553241663
616, 12.64472553241663
616.5, 12.61602800466774
617, 12.55863294916999
617.5, 12.55863294916999
618, 12.55863294916999
618.5, 12.55863294916999
619, 12.55863294916999
619.5, 12.55863294916999
620, 12.214262616183476
620.5, 12.242960143932336
621, 12.242960143932336
621.5, 12.35775025492785
622, 12.35775025492785
622.5, 12.214262616183476
623, 12.070774977439072
623.5, 12.070774977439072
623.9999999999999, 12.013379921941308
624.4999999999999, 12.013379921941308
625, 11.955984866443558
625.5, 11.955984866443558
626, 11.726404644452558
626.5, 11.611614533457043
627, 11.611614533457043
627.5, 11.640312061205904
628, 11.640312061205904
628.5, 11.669009588954793
629, 11.46812689471264
629.5, 11.46812689471264
630, 11.382034311466
630.5, 11.382034311466
631, 11.382034311466
631.5, 11.382034311466
632, 11.410731839214904
632.5, 11.29594172821939
633, 11.29594172821939
633.5, 11.008966450730597
634, 11.008966450730597
634.5, 10.607201062246304
635, 10.377620840255304
635.5, 10.377620840255304
636, 10.14804061826429
636.5, 10.14804061826429
637, 10.119343090515386
637.5, 10.061948035017636
638, 10.061948035017636
638.5, 10.033250507268761
639, 10.033250507268761
639.5, 9.918460396273247
640, 9.918460396273247
640.5, 9.774972757528872
641, 9.688880174282232
641.5, 9.688880174282232
642, 9.574090063286718
642.5, 9.574090063286718
643, 9.344509841295718
643.5, 9.315812313546814
644, 9.315812313546814
644.4999999999999, 9.287114785797954
645, 9.287114785797954
645.5, 9.0862320915558
646, 9.0862320915558
646.5, 8.9714419805603
647, 9.0862320915558
647.5, 9.0862320915558
648, 8.9714419805603
648.5, 8.9714419805603
649, 8.88534939731366
649.5, 8.799256814067036
650, 8.799256814067036
650.5, 8.827954341815897
651, 8.827954341815897
651.5, 8.91404692506255
652, 8.91404692506255
652.4999999999999, 8.94274445281141
653, 8.856651869564786
653.5, 8.856651869564786
654, 8.627071647573771
654.5, 8.627071647573771
655, 8.397491425582743
655.5, 8.225306259089464
656, 8.225306259089464
656.5, 8.167911203591714
657, 8.167911203591714
657.5, 8.139213675842853
658, 8.110516148093964
658.5, 8.110516148093964
659, 8.167911203591714
659.5, 8.167911203591714
660, 8.196608731340604
660.5, 8.196608731340604
661, 8.196608731340604
661.5, 8.0531210925962
662, 8.0531210925962
662.5, 7.967028509349575
663, 7.967028509349575
663.5, 8.110516148093964
664, 8.0531210925962
664.5, 8.0531210925962
665, 7.967028509349575
665.5, 7.967028509349575
666, 7.8235408706052
666.5, 7.8235408706052
667, 7.737448287358546
667.5, 7.708750759609686
668, 7.708750759609686
668.5, 7.708750759609686
669, 7.708750759609686
669.5, 7.680053231860796
670, 7.6513557041119356
670.5, 7.6513557041119356
671, 7.593960648614171
671.5, 7.593960648614171
671.9999999999999, 7.565263120865282
672.5, 7.565263120865282
673, 7.88093592610295
673.5, 7.708750759609686
674, 7.708750759609686
674.5, 7.680053231860796
675, 7.680053231860796
675.5, 7.852238398354061
676, 7.967028509349575
676.5, 7.967028509349575
677, 8.139213675842853
677.5, 8.139213675842853
678, 8.110516148093964
678.5, 8.0531210925962
679, 7.938330981600714
679.5, 7.938330981600714
680, 7.938330981600714
680.5, 7.995726037098464
681, 7.995726037098464
681.5, 8.139213675842853
682, 8.254003786838368
682.5, 8.254003786838368
683, 8.254003786838368
683.5, 8.254003786838368
684, 8.110516148093964
684.5, 8.08181862034509
685, 8.08181862034509
685.5, 8.08181862034509
686, 8.08181862034509
686.5, 8.225306259089464
687, 8.225306259089464
687.5, 8.282701314587229
688, 8.512281536578243
688.5, 8.512281536578243
690, 8.627071647573771
690.5, 8.512281536578243
691, 8.512281536578243
691.5, 8.340096370084979
692, 8.340096370084979
692.5, 8.196608731340604
693, 8.196608731340604
693.5, 8.139213675842853
694, 8.225306259089464
694.5, 8.225306259089464
695, 8.540979064327118
695.5, 8.540979064327118
696, 8.713164230820396
696.5, 8.799256814067036
697, 8.799256814067036
697.5, 8.799256814067036
698, 8.799256814067036
698.5, 8.512281536578243
699, 8.512281536578243
699.5, 8.454886481080493
700, 8.483584008829382
700.5, 8.483584008829382
701, 8.540979064327118
701.5, 8.540979064327118
702, 8.799256814067036
702.4999999999999, 8.94274445281141
702.9999999999999, 8.94274445281141
703.4999999999999, 8.94274445281141
704, 8.94274445281141
704.5, 8.91404692506255
705, 8.91404692506255
705.5, 8.770559286318147
706, 8.799256814067036
706.5, 8.799256814067036
707, 8.9714419805603
707.5, 8.9714419805603
708, 9.11492961930469
708.5, 9.00013950830916
709, 9.00013950830916
709.5, 8.770559286318147
710, 8.770559286318147
710.5, 8.799256814067036
711, 8.770559286318147
711.4999999999999, 8.770559286318147
712, 8.655769175322632
712.5, 8.655769175322632
713, 8.655769175322632
713.5, 8.655769175322632
714, 8.627071647573771
714.5, 8.655769175322632
715, 8.655769175322632
715.5, 8.684466703071521
716, 8.684466703071521
716.5, 8.655769175322632
717, 8.713164230820396
717.5, 8.713164230820396
718, 8.684466703071521
718.5, 8.684466703071521
719, 8.684466703071521
719.5, 8.684466703071521
720, 8.655769175322632
720.5, 8.655769175322632
721, 8.655769175322632
721.5, 8.684466703071521
722, 8.684466703071521
722.5, 8.569676592076007
722.9999999999999, 8.569676592076007
723.5, 8.569676592076007
724, 8.598374119824882
724.5, 8.598374119824882
724.9999999999999, 8.569676592076007
725.5, 8.569676592076007
726, 8.311398842336118
726.5, 8.483584008829382
727, 8.483584008829382
727.4999999999999, 8.426188953331632
728, 8.426188953331632
728.4999999999999, 8.311398842336118
728.9999999999999, 8.311398842336118
729.5, 8.311398842336118
730, 8.512281536578243
730.5, 8.512281536578243
731, 8.713164230820396
731.5, 8.684466703071521
731.9999999999999, 8.684466703071521
732.5, 8.713164230820396
733, 8.713164230820396
733.5, 8.540979064327118
734, 8.540979064327118
734.4999999999999, 8.426188953331632
735, 8.282701314587229
735.5, 8.282701314587229
736, 8.598374119824882
736.4999999999999, 8.598374119824882
737, 8.713164230820396
737.5, 8.741861758569286
738, 8.741861758569286
738.5, 8.627071647573771
738.9999999999999, 8.627071647573771
739.4999999999999, 8.254003786838368
739.9999999999999, 8.254003786838368
740.5, 8.282701314587229
741, 8.282701314587229
741.5, 8.282701314587229
742, 8.311398842336118
742.4999999999999, 8.311398842336118
743, 8.196608731340604
743.5, 8.196608731340604
744, 8.196608731340604
744.5, 8.282701314587229
745, 8.282701314587229
745.5, 8.167911203591714
746, 8.167911203591714
746.5, 8.0531210925962
746.9999999999999, 7.909633453851811
747.5, 7.909633453851811
747.9999999999999, 7.794843342856311
748.5, 7.794843342856311
749, 7.680053231860796
749.4999999999999, 7.479170537618657
750, 7.479170537618657
750.5, 7.306985371125393
751, 7.306985371125393
751.5, 7.306985371125393
752, 7.306985371125393
752.4999999999999, 7.335682898874282
753, 7.364380426623143
753.5, 7.364380426623143
754, 7.393077954372032
754.5, 7.393077954372032
755, 7.393077954372032
755.5, 7.335682898874282
755.9999999999999, 7.335682898874282
756.5, 7.278287843376518
757, 7.278287843376518
757.5, 7.192195260129878
758, 7.020010093636628
758.4999999999999, 7.020010093636628
759, 7.048707621385489
759.5, 7.048707621385489
760, 7.048707621385489
760.5, 7.048707621385489
760.9999999999999, 7.077405149134364
761.5, 6.991312565887739
762, 6.991312565887739
762.5, 6.847824927143364
763, 6.847824927143364
763.5, 6.7617323438967105
763.9999999999999, 6.7043372883989605
764.5, 6.7043372883989605
765, 6.6469422329012104
765.4999999999999, 6.6469422329012104
766, 6.302571899914682
766.5, 6.302571899914682
767, 6.245176844416932
767.5, 6.73303481614785
770, 6.245176844416932
770.5, 6.245176844416932
770.9999999999999, 5.814713928183764
771.4999999999999, 5.814713928183764
771.9999999999999, 5.527738650694971
772.5, 5.49904112294611
773, 5.412948539699471
773.5, 5.44164606744836
774, 5.44164606744836
774.4999999999999, 5.49904112294611
775, 5.49904112294611
775.4999999999999, 5.412948539699471
776, 5.326855956452846
776.5, 5.326855956452846
776.9999999999999, 5.355553484201707
777.5, 5.355553484201707
777.9999999999999, 5.298158428703957
778.5, 5.154670789959582
779, 5.154670789959582
779.5, 4.724207873726414
779.9999999999999, 4.724207873726414
780.4999999999999, 4.523325179484274
781, 4.523325179484274
781.5, 4.437232596237635
782, 4.465930123986524
782.4999999999999, 4.465930123986524
783, 4.437232596237635
783.5, 4.437232596237635
784, 4.35114001299101
784.5, 4.29374495749326
785, 4.29374495749326
785.5, 4.1215597909999815
785.9999999999999, 4.1215597909999815
786.5, 3.863282041260092
787, 3.863282041260092
787.5, 3.691096874766828
787.9999999999999, 3.691096874766828
788.5, 3.691096874766828
789, 3.6050042915201743
789.5, 3.6050042915201743
790, 3.5476092360224385
790.5, 3.404121597278035
791, 3.404121597278035
791.5, 3.26063395853366
792, 3.26063395853366
792.5, 3.1745413752870206
793, 3.0597512642915206
793.5, 3.0597512642915206
794, 2.715380931304992
794.5, 2.715380931304992
794.9999999999999, 2.4571031815650883
795.5, 2.4571031815650883
795.9999999999999, 2.342313070569574
796.4999999999999, 2.284918015071824
797, 2.284918015071824
797.5, 2.256220487322935
797.9999999999998, 2.256220487322935
798.5, 2.342313070569574
799, 2.428405653816199
799.5, 2.428405653816199
799.9999999999998, 2.715380931304992
800.4999999999998, 2.715380931304992
801, 2.6579858758072277
801.5, 2.6579858758072277
801.9999999999998, 2.6005908203094634
802.4999999999998, 2.342313070569574
803, 2.342313070569574
803.4999999999998, 1.8257575710897669
803.9999999999998, 1.8257575710897669
804.4999999999998, 1.797060043340906
804.9999999999998, 1.7683625155920168
805.5, 1.7683625155920168
805.9999999999998, 1.6535724045965026
806.4999999999998, 1.6535724045965026
806.9999999999998, 1.5100847658521133
807.5, 1.5100847658521133
807.9999999999998, 1.7109674600942526
808.5, 1.797060043340906
809, 1.797060043340906
827.4999999999998, 1.5100847658521133
828, 1.5100847658521133
836.9999999999998, 1.8257575710897669
837.5, 1.8544550988386561
838, 1.8544550988386561
838.5, 1.7683625155920168
838.9999999999998, 1.7683625155920168
839.5, 1.4239921826055024
843.4999999999998, 1.6535724045965026
843.9999999999998, 1.6535724045965026
844.5, 1.883152626587517
844.9999999999998, 1.883152626587517
845.5, 1.8544550988386561
845.9999999999998, 1.6535724045965026
846.4999999999998, 1.6535724045965026
847, 1.6248748768476275
847.5, 1.6248748768476275
848, 1.739664987843156
848.5, 1.739664987843156
849, 1.8544550988386561
849.4999999999998, 2.0840353208296847
850, 2.0840353208296847
850.4999999999998, 2.227522959574074
850.9999999999998, 2.227522959574074
851.4999999999998, 1.9405476820852812
852, 1.9979427375830312
852.5, 1.9979427375830312
852.9999999999998, 2.1414303763274205
853.4999999999998, 2.1414303763274205
853.9999999999998, 2.3997081260673383
854.4999999999998, 2.3997081260673383
854.9999999999998, 2.3997081260673383
855.4999999999998, 2.1701279040763097
855.9999999999998, 2.1701279040763097
856.4999999999998, 2.1414303763274205
857, 2.1414303763274205
857.4999999999998, 2.0553377930807954
857.9999999999998, 2.0266402653319204
858.4999999999998, 2.0266402653319204
858.9999999999998, 2.0553377930807954
859.4999999999998, 2.0553377930807954
860, 2.1127328485785455
860.5, 2.1127328485785455
860.9999999999998, 2.371010598318449
861.4999999999998, 2.5144982370628384
861.9999999999998, 2.5144982370628384
862.4999999999998, 2.8014735145516028
862.9999999999998, 2.8014735145516028
863.4999999999998, 3.0023562087937705
864, 3.0023562087937705
864.4999999999998, 3.0023562087937705
865, 2.916263625547117
865.4999999999998, 2.916263625547117
866, 2.858868570049367
866.4999999999998, 2.8014735145516028
867, 2.772775986802742
867.5, 2.8875660977982562
868, 2.8875660977982562
868.5, 2.9449611532960063
868.9999999999998, 2.9449611532960063
869.4999999999998, 3.0023562087937705
869.9999999999998, 3.1458438475381456
870.5, 3.1458438475381456
870.9999999999998, 3.432819125026924
871.5, 3.432819125026924
872, 3.4902141805246885
872.4999999999998, 3.5189117082735493
873, 3.5189117082735493
873.4999999999998, 3.5189117082735493
874, 3.5189117082735493
874.4999999999998, 3.5763067637712993
874.9999999999998, 3.5763067637712993
875.4999999999998, 3.891979569008953
875.9999999999998, 4.1502573187488565
876.4999999999998, 4.1502573187488565
876.9999999999998, 4.465930123986524
877.5, 4.465930123986524
877.9999999999998, 4.494627651735385
878.4999999999998, 4.523325179484274
878.9999999999998, 4.523325179484274
879.4999999999998, 4.552022707233135
880, 4.552022707233135
880.4999999999998, 4.552022707233135
881, 4.552022707233135
881.4999999999998, 4.58072023498201
881.9999999999998, 4.638115290479774
882.4999999999998, 4.638115290479774
882.9999999999998, 4.752905401475289
883.4999999999998, 4.752905401475289
883.9999999999998, 4.838997984721928
884.5, 4.867695512470789
884.9999999999998, 4.867695512470789
885.5, 4.867695512470789
885.9999999999998, 4.867695512470789
886.5, 5.068578206712957
888.9999999999998, 4.2076523742466065
889.4999999999998, 4.2076523742466065
890, 4.178954846497746
890.4999999999998, 4.781602929224178
890.9999999999998, 4.781602929224178
891.5, 4.609417762730899
892, 4.609417762730899
892.4999999999998, 4.523325179484274
892.9999999999998, 4.523325179484274
893.4999999999998, 4.724207873726414
893.9999999999998, 5.011183151215192
894.4999999999998, 5.011183151215192
894.9999999999998, 5.212065845457332
895.4999999999998, 5.212065845457332
896, 5.240763373206207
896.4999999999998, 5.326855956452846
897, 5.326855956452846
897.5, 5.585133706192735
898, 5.585133706192735
898.4999999999998, 5.843411455932625
899, 5.843411455932625
899.5, 5.986899094677028
899.9999999999998, 6.187781788919182
900.5, 6.187781788919182
900.9999999999998, 6.359966955412446
901.4999999999998, 6.359966955412446
901.9999999999998, 6.819127399394475
902.5, 6.991312565887739
902.9999999999998, 6.991312565887739
903.5, 7.077405149134364
904, 7.077405149134364
904.4999999999998, 7.335682898874282
905, 7.680053231860796
905.4999999999998, 7.737448287358546
905.9999999999998, 7.909633453851811
906.4999999999998, 7.909633453851811
906.9999999999998, 8.282701314587229
907.5, 8.282701314587229
907.9999999999998, 8.512281536578243
908.5, 8.799256814067036
908.9999999999998, 8.799256814067036
909.4999999999998, 9.0862320915558
909.9999999999998, 9.0862320915558
910.4999999999998, 9.258417258049064
910.9999999999998, 9.602787591035607
911.5, 9.602787591035607
912, 9.832367813026636
912.4999999999998, 9.832367813026636
913, 10.061948035017636
913.4999999999998, 10.061948035017636
914, 10.348923312506415
914.4999999999998, 10.635898589995207
915, 10.635898589995207
915.5, 10.836781284237333
916, 10.836781284237333
916.5, 11.095059033977236
916.9999999999998, 11.29594172821939
917.5, 11.29594172821939
917.9999999999998, 11.640312061205904
918.4999999999998, 11.640312061205904
918.9999999999998, 12.042077449690197
919.4999999999998, 12.042077449690197
920, 12.329052727178976
920.4999999999998, 12.67342306016549
920.9999999999998, 12.67342306016549
921.4999999999998, 12.903003282156519
921.9999999999998, 12.903003282156519
922.5, 13.189978559645311
922.9999999999998, 13.67783653137623
923.5, 13.67783653137623
924, 14.108299447609397
924.5, 14.108299447609397
925, 14.79704011358244
925.5, 14.79704011358244
926, 15.94494122353754
929.4999999999998, 16.404101667519583
930, 16.37540413977071
930.4999999999998, 16.37540413977071
931, 16.490194250766223
931.5, 16.490194250766223
931.9999999999998, 16.94935469474825
932.5, 17.293725027734794
933, 17.293725027734794
933.9999999999998, 17.638095360721337
934.5, 17.838978054963462
935, 18.183348387950005
935.4999999999998, 18.183348387950005
936, 18.47032366543877
936.4999999999998, 18.47032366543877
936.9999999999998, 18.814693998425298
937.4999999999998, 18.814693998425298
937.9999999999998, 19.04427422041634
938.4999999999998, 19.41734208115173
938.9999999999998, 19.41734208115173
939.5, 19.733014886389384
939.9999999999998, 19.733014886389384
940.4999999999998, 19.8478049973849
940.9999999999998, 20.24957038586919
941.5, 20.24957038586919
941.9999999999998, 20.73742835760011
942.4999999999998, 20.73742835760011
943, 21.081798690586638
943.4999999999998, 21.081798690586638
944, 21.196588801582138
944.4999999999998, 21.225286329331027
944.9999999999998, 21.225286329331027
945.4999999999998, 21.253983857079902
945.9999999999998, 21.253983857079902
946.4999999999998, 21.598354190066445
946.9999999999998, 21.94272452305296
947.5, 21.94272452305296
948, 22.258397328290627
948.5, 22.258397328290627
948.9999999999998, 22.63146518902603
949.5, 22.63146518902603
949.9999999999998, 23.00453304976145
950.4999999999998, 23.348903382747963
950.9999999999998, 23.348903382747963
951.4999999999998, 23.578483604738977
952, 23.578483604738977
952.4999999999998, 23.72197124348338
952.9999999999998, 24.066341576469895
953.4999999999998, 24.066341576469895
953.9999999999998, 24.38201438170755
954.4999999999998, 24.38201438170755
955, 24.668989659196328
955.5, 24.668989659196328
956, 24.869872353438467
956.5, 25.04205751993173
956.9999999999998, 25.04205751993173
957.4999999999998, 25.4725204361649
957.9999999999998, 25.4725204361649
958.5, 26.01777346339358
958.9999999999998, 26.10386604664022
959.4999999999998, 26.10386604664022
960, 26.13256357438908
960.5, 26.13256357438908
960.9999999999998, 26.218656157635735
961.4999999999998, 26.218656157635735
961.9999999999998, 26.419538851877874
962.4999999999998, 26.76390918486439
962.9999999999998, 26.76390918486439
963.5, 26.964791879106556
963.9999999999998, 26.964791879106556
964.5, 27.13697704559982
964.9999999999998, 27.452649850837474
965.4999999999998, 27.452649850837474
965.9999999999998, 27.71092760057735
966.5, 27.71092760057735
967, 27.997902878066142
967.4999999999998, 27.997902878066142
968, 28.284878155554907
968.4999999999998, 28.42836579429931
968.9999999999998, 28.42836579429931
969.4999999999998, 28.65794601629031
969.9999999999998, 28.65794601629031
970.4999999999998, 28.8014336550347
970.9999999999998, 28.94492129377909
971.5, 28.94492129377909
971.9999999999998, 29.174501515770118
972.4999999999998, 29.174501515770118
973, 29.404081737761146
973.5, 29.404081737761146
973.9999999999998, 29.80584712624541
974.4999999999998, 30.17891498698083
975, 30.17891498698083
975.4999999999998, 30.465890264469607
975.9999999999998, 30.465890264469607
976.4999999999998, 30.83895812520501
976.9999999999998, 31.039840819447164
977.4999999999998, 31.039840819447164
977.9999999999998, 31.09723587494493
978.4999999999998, 31.09723587494493
979, 31.470303735680332
979.5, 31.470303735680332
980, 31.78597654091797
980.5, 31.95816170741125
980.9999999999998, 31.95816170741125
981.4999999999998, 32.21643945715114
981.9999999999998, 32.21643945715114
982.4999999999998, 32.21643945715114
983, 32.1303468739045
983.4999999999998, 32.1303468739045
984, 32.159044401653375
984.5, 32.159044401653375
985, 32.245136984900014
985.4999999999998, 32.245136984900014
985.9999999999998, 32.76169248437981
986.5, 33.249550456110725
986.9999999999998, 33.249550456110725
987.4999999999998, 33.335643039357365
987.9999999999998, 33.335643039357365
988.4999999999998, 33.335643039357365
988.9999999999998, 33.393038094855115
989.5, 33.393038094855115
989.9999999999998, 33.593920789097254
990.4999999999998, 33.593920789097254
990.9999999999998, 33.68001337234389
991.4999999999998, 33.68001337234389
991.9999999999998, 33.70871090009277
992.4999999999998, 33.79480348333941
992.9999999999998, 33.79480348333941
993.4999999999998, 33.79480348333941
993.9999999999998, 33.79480348333941
994.4999999999998, 33.82350101108828
995, 33.966988649832686
995.5, 33.966988649832686
995.9999999999998, 34.25396392732145
996.4999999999998, 34.25396392732145
997, 34.39745156606584
997.5, 34.39745156606584
998, 34.282661455070325
998.5, 34.39745156606584
999, 34.39745156606584
999.4999999999998, 34.512241677061354
1000, 34.512241677061354
1000.4999999999998, 34.627031788056854
1000.9999999999998, 34.684426843554604
1001.4999999999998, 34.684426843554604
1002, 34.74182189905237
1002.5, 34.74182189905237
1002.9999999999998, 35.02879717654113
1003.4999999999998, 35.17228481528552
1003.9999999999998, 35.17228481528552
1004.5, 35.315772454029926
1004.9999999999998, 35.315772454029926
1005.4999999999998, 35.287074926281036
1006, 35.287074926281036
1006.4999999999998, 35.344469981778786
1007, 35.315772454029926
1007.4999999999998, 35.315772454029926
1008, 35.315772454029926
1008.4999999999998, 35.315772454029926
1009, 35.43056256502544
1009.4999999999998, 35.631445259267565
1009.9999999999998, 35.631445259267565
1010.5, 35.66014278701644
1010.9999999999998, 35.66014278701644
1011.5, 35.68884031476533
1011.9999999999998, 35.68884031476533
1012.4999999999998, 35.51665514827205
1012.9999999999998, 35.43056256502544
1013.5, 35.43056256502544
1014, 35.545352676020954
1014.5, 35.545352676020954
1014.9999999999998, 35.631445259267565
1015.4999999999998, 35.68884031476533
1016, 35.68884031476533
1016.4999999999998, 35.74623537026308
1016.9999999999998, 35.74623537026308
1017.4999999999998, 35.74623537026308
1017.9999999999998, 35.74623537026308
1018.5, 35.80363042576084
1018.9999999999998, 35.631445259267565
1019.4999999999998, 35.631445259267565
1020, 35.545352676020954
1020.5, 35.545352676020954
1020.9999999999998, 35.631445259267565
1021.4999999999998, 35.60274773151869
1021.9999999999998, 35.60274773151869
1022.4999999999998, 35.574050203769815
1023, 35.574050203769815
1023.4999999999998, 35.774932898011954
1024, 35.774932898011954
1024.4999999999998, 35.80363042576084
1024.9999999999998, 35.74623537026308
1025.5, 35.74623537026308
1026, 35.80363042576084
1026.5, 35.80363042576084
1026.9999999999998, 36.03321064775187
1027.5, 36.11930323099848
1028, 36.11930323099848
1028.4999999999998, 35.717537842514204
1028.9999999999998, 35.717537842514204
1029.5, 35.43056256502544
1029.9999999999998, 35.25837739853216
1030.4999999999998, 35.25837739853216
1031, 35.287074926281036
1031.4999999999998, 35.287074926281036
1031.9999999999998, 35.37316750952769
1032.4999999999998, 35.37316750952769
1032.9999999999998, 35.287074926281036
1033.5, 35.20098234303441
1033.9999999999998, 35.20098234303441
1034.4999999999998, 35.02879717654113
1034.9999999999998, 35.02879717654113
1035.5, 34.85661201004787
1035.9999999999998, 34.74182189905237
1036.5, 34.74182189905237
1036.9999999999998, 34.426149093814715
1037.4999999999998, 34.426149093814715
1037.9999999999998, 34.25396392732145
1038.4999999999998, 34.25396392732145
1038.9999999999998, 34.0530812330793
1039.4999999999998, 33.9382911220838
1039.9999999999998, 33.9382911220838
1040.4999999999998, 33.88089606658603
1041, 33.88089606658603
1041.4999999999998, 33.79480348333941
1041.9999999999998, 33.82350101108828
1042.4999999999998, 33.82350101108828
1042.9999999999998, 33.82350101108828
1043.4999999999998, 33.82350101108828
1043.9999999999998, 33.82350101108828
1044.4999999999998, 33.82350101108828
1044.9999999999998, 33.56522326134838
1045.4999999999998, 33.2782479838596
1046, 33.2782479838596
1046.4999999999998, 32.96257517862195
1046.9999999999998, 32.96257517862195
1047.4999999999998, 32.876482595375336
1048, 32.81908753987757
1048.4999999999998, 32.81908753987757
1048.9999999999998, 32.56080979013768
1049.4999999999998, 32.56080979013768
1049.9999999999998, 32.50341473463993
1050.4999999999998, 32.27383451264889
1050.9999999999998, 32.27383451264889
1051.5, 32.044254290657875
1051.9999999999998, 32.044254290657875
1052.5, 31.78597654091797
1053, 31.78597654091797
1053.4999999999998, 31.441606207931443
1054, 31.240723513689304
1054.4999999999998, 31.240723513689304
1054.9999999999998, 31.154630930442664
1055.4999999999998, 31.154630930442664
1055.9999999999998, 31.154630930442664
1056.4999999999998, 30.925050708451664
1056.9999999999998, 30.925050708451664
1057.4999999999998, 30.60937790321401
1057.9999999999998, 30.60937790321401
1058.4999999999998, 30.379797681222982
1058.9999999999998, 30.379797681222982
1059.5, 30.121519931483064
1059.9999999999998, 29.662359487501035
1060.5, 29.662359487501035
1061, 29.662359487501035
1061.5, 29.662359487501035
1061.9999999999998, 29.49017432100777
1062.4999999999998, 29.117106460272353
1062.9999999999998, 29.117106460272353
1063.4999999999998, 28.686643544039185
1063.9999999999998, 28.686643544039185
1064.4999999999998, 28.571853433043685
1064.9999999999998, 28.45706332204817
1065.4999999999998, 28.45706332204817
1065.9999999999998, 28.342273211052657
1066.4999999999998, 28.342273211052657
1066.9999999999998, 27.997902878066142
1067.4999999999998, 27.997902878066142
1067.9999999999998, 27.79702018382399
1068.4999999999998, 27.79702018382399
1069, 27.79702018382399
1069.5, 27.825717711572864
1070, 27.825717711572864
1070.4999999999998, 27.768322656075114
1071, 27.280464684344196
1071.5, 27.280464684344196
1071.9999999999998, 26.76390918486439
1072.4999999999998, 26.76390918486439
1073, 26.59172401837114
1073.5, 26.59172401837114
1073.9999999999998, 26.5056314351245
1074.5, 26.36214379638011
1074.9999999999998, 26.36214379638011
1075.4999999999998, 26.10386604664022
1075.9999999999998, 26.10386604664022
1076.5, 26.01777346339358
1076.9999999999998, 25.845588296900317
1077.4999999999998, 25.845588296900317
1078, 25.616008074909303
1078.4999999999998, 25.616008074909303
1078.9999999999998, 25.50121796391379
1079.4999999999998, 25.386427852918274
1079.9999999999998, 25.386427852918274
1080.4999999999998, 25.300335269671635
1080.9999999999998, 25.300335269671635
1081.5, 24.92726740893623
1081.9999999999998, 24.92726740893623
1082.5, 24.439409437205313
1082.9999999999998, 23.865458882227756
1083.4999999999998, 23.865458882227756
1083.9999999999998, 23.66457618798563
1084.4999999999998, 23.66457618798563
1085, 23.63587866023674
1085.4999999999998, 23.377600910496838
1085.9999999999998, 23.377600910496838
1086.4999999999998, 23.00453304976145
1086.9999999999998, 23.00453304976145
1087.4999999999998, 22.54537260577939
1088, 22.54537260577939
1088.4999999999998, 22.114909689546224
1088.9999999999998, 21.94272452305296
1089.5, 21.94272452305296
1089.9999999999998, 21.74184182881082
1090.4999999999998, 21.74184182881082
1090.9999999999998, 21.627051717815306
1091.5, 21.48356407907093
1091.9999999999998, 21.48356407907093
1092.4999999999998, 21.45486655132204
1092.9999999999998, 21.45486655132204
1093.4999999999998, 21.340076440326527
1094, 21.139193746084388
1094.5, 21.139193746084388
1094.9999999999998, 20.766125885348984
1095.4999999999998, 20.766125885348984
1095.9999999999998, 20.536545663357956
1096.4999999999998, 20.536545663357956
1096.9999999999998, 20.19217533037144
1097.4999999999998, 20.163477802622552
1097.9999999999998, 20.163477802622552
1098.5, 20.13478027487369
1098.9999999999998, 20.13478027487369
1099.5, 19.790409941887134
1099.9999999999998, 19.675619830891634
1100.5, 19.675619830891634
1100.9999999999998, 19.58952724764501
1101.4999999999998, 19.58952724764501
1101.9999999999998, 19.33124949790509
1102.4999999999998, 19.33124949790509
1102.9999999999998, 19.04427422041634
1103.4999999999998, 18.785996470676437
1103.9999999999998, 18.785996470676437
1104.4999999999998, 18.49902119318766
1104.9999999999998, 18.49902119318766
1105.4999999999998, 18.355533554443255
1105.9999999999998, 18.125953332452255
1106.5, 18.125953332452255
1106.9999999999998, 17.867675582712337
1107.5, 17.867675582712337
1107.9999999999998, 17.666792888470198
1108.4999999999998, 17.408515138730294
1108.9999999999998, 17.408515138730294
1109.4999999999998, 16.97805222249714
1110, 16.97805222249714
1110.4999999999998, 16.633681889510598
1110.9999999999998, 16.633681889510598
1111.4999999999998, 16.43279919526846
1111.9999999999998, 16.318009084272944
1112.4999999999998, 16.318009084272944
1113, 16.14582391777968
1113.5, 16.14582391777968
1113.9999999999998, 15.830151112542026
1114.5, 15.571873362802151
1114.9999999999998, 15.571873362802151
1115.4999999999998, 15.485780779555498
1115.9999999999998, 15.485780779555498
1116.4999999999998, 15.485780779555498
1116.9999999999998, 15.485780779555498
1117.4999999999998, 15.256200557564497
1118, 15.055317863322344
1118.4999999999998, 15.055317863322344
1118.9999999999998, 14.85443516908019
1119.4999999999998, 14.85443516908019
1119.9999999999998, 14.567459891591412
1120.4999999999998, 14.538762363842551
1120.9999999999998, 14.538762363842551
1121.5, 14.481367308344787
1121.9999999999998, 14.481367308344787
1122.4999999999998, 14.079601919860494
1122.9999999999998, 13.878719225618354
1123.4999999999998, 13.563046420380715
1124, 13.218676087394172
1124.4999999999998, 13.218676087394172
1124.9999999999998, 12.903003282156519
1125.4999999999998, 12.903003282156519
1126, 12.874305754407658
1126.4999999999998, 12.759515643412144
1127, 12.759515643412144
1127.4999999999998, 12.4151453104256
1127.9999999999998, 12.4151453104256
1128.5, 12.185565088434572
1128.9999999999998, 11.955984866443558
1129.4999999999998, 11.955984866443558
1129.9999999999998, 11.755102172201418
1130.4999999999998, 11.755102172201418
1130.9999999999998, 11.611614533457043
1131.5, 11.611614533457043
1132, 11.382034311466
1132.4999999999998, 11.123756561726125
1132.9999999999998, 11.123756561726125
1133.4999999999998, 11.037663978479472
1134, 11.037663978479472
1134.4999999999998, 11.008966450730597
1135, 10.951571395232847
1135.4999999999998, 10.951571395232847
1135.9999999999998, 10.779386228739583
1136.4999999999998, 10.779386228739583
1136.9999999999998, 10.779386228739583
1137.4999999999998, 10.779386228739583
1137.9999999999998, 10.635898589995207
1138.4999999999998, 10.2341332015109
1138.9999999999998, 10.2341332015109
1139.4999999999998, 9.631485118784468
1139.9999999999998, 9.631485118784468
1140.4999999999998, 9.401904896793468
1141, 9.11492961930469
1141.4999999999998, 9.11492961930469
1141.9999999999998, 8.88534939731366
1142.4999999999998, 8.88534939731366
1142.9999999999998, 8.684466703071521
1143.4999999999998, 8.655769175322632
1144, 8.655769175322632
1144.4999999999998, 8.598374119824882
1144.9999999999998, 8.598374119824882
1145.5, 8.340096370084979
1145.9999999999998, 8.340096370084979
1146.5, 8.196608731340604
1146.9999999999998, 8.08181862034509
1147.5, 8.08181862034509
1148, 7.88093592610295
1148.5, 7.88093592610295
1149, 7.852238398354061
1149.5, 7.622658176363046
1150, 7.622658176363046
1150.4999999999998, 7.278287843376518
1150.9999999999998, 7.278287843376518
1151.4999999999998, 7.2495903156276285
1151.9999999999998, 7.2495903156276285
1152.5, 7.192195260129878
1152.9999999999998, 7.020010093636628
1153.4999999999998, 7.020010093636628
1153.9999999999998, 6.933917510389975
1154.4999999999998, 6.933917510389975
1154.9999999999998, 6.618244705152335
1155.4999999999998, 6.589547177403446
1155.9999999999998, 6.589547177403446
1156.4999999999998, 6.53215212190571
1157, 6.53215212190571
1157.4999999999998, 6.417362010910196
1157.9999999999998, 6.245176844416932
1158.4999999999998, 6.245176844416932
1158.9999999999998, 5.929504039179278
1159.5, 5.929504039179278
1159.9999999999998, 5.6425287616904996
1160.4999999999998, 5.6425287616904996
1161, 5.585133706192735
1161.4999999999998, 5.412948539699471
1162, 5.412948539699471
1162.4999999999998, 5.326855956452846
1162.9999999999998, 5.326855956452846
1163.5, 5.298158428703957
1163.9999999999998, 5.212065845457332
1164.4999999999998, 5.212065845457332
1164.9999999999998, 5.125973262210692
1165.5, 5.125973262210692
1165.9999999999998, 5.068578206712957
1166.4999999999998, 5.068578206712957
1167, 4.810300456973039
1167.5, 4.781602929224178
1168, 4.781602929224178
1168.4999999999998, 4.752905401475289
1168.9999999999998, 4.752905401475289
1169.4999999999998, 4.666812818228664
1170, 4.465930123986524
1170.4999999999998, 4.465930123986524
1170.9999999999998, 4.178954846497746
1171.4999999999998, 4.178954846497746
1172, 4.035467207753356
1172.4999999999998, 3.9780721522556064
1172.9999999999995, 3.9780721522556064
1173.4999999999998, 3.920677096757842
1173.9999999999998, 3.920677096757842
1174.5, 3.920677096757842
1174.9999999999998, 3.920677096757842
1175.5, 4.006769680004467
1176, 3.891979569008953
1176.5, 3.891979569008953
1177, 3.5476092360224385
1177.4999999999998, 3.5476092360224385
1177.9999999999998, 3.346726541780285
1178.4999999999998, 3.1745413752870206
1178.9999999999998, 3.1745413752870206
1179.5, 3.0884487920403814
1179.9999999999998, 3.0884487920403814
1180.4999999999998, 3.0884487920403814
1180.9999999999998, 3.0884487920403814
1181.5, 2.973658681044867
1181.9999999999998, 2.916263625547117
1182.4999999999998, 2.916263625547117
1182.9999999999998, 2.9449611532960063
1183.4999999999998, 2.9449611532960063
1183.9999999999998, 2.9449611532960063
1184.4999999999998, 2.7440784590538527
1185, 2.7440784590538527
1185.4999999999998, 2.5144982370628384
1185.9999999999998, 2.5144982370628384
1186.4999999999998, 2.5144982370628384
1186.9999999999998, 2.5144982370628384
1187.4999999999998, 2.5718932925606026
1188, 2.6005908203094634
1188.5, 2.6005908203094634
1188.9999999999998, 2.6005908203094634
1189.4999999999998, 2.6005908203094634
1189.9999999999998, 2.5718932925606026
1190.4999999999998, 2.5718932925606026
1190.9999999999998, 2.5718932925606026
1191.4999999999998, 2.6005908203094634
1191.9999999999998, 2.6005908203094634
1192.4999999999998, 2.5718932925606026
1192.9999999999998, 2.5718932925606026
1193.4999999999998, 2.5718932925606026
1193.9999999999998, 2.6292883480583384
1194.4999999999998, 2.6292883480583384
1195, 1.9979427375830312
1195.5, 1.9979427375830312
1195.9999999999998, 1.9979427375830312
1196.5, 1.9692452098341704
1197, 1.9692452098341704
1197.5, 1.9979427375830312
1197.9999999999998, 1.9979427375830312
1198.5, 1.9692452098341704
1199, 2.227522959574074
1199.5, 2.227522959574074
1200, 2.1414303763274205
1200.4999999999998, 2.1414303763274205
1200.9999999999998, 2.0553377930807954
1201.4999999999998, 2.0553377930807954
1201.9999999999998, 2.0266402653319204
1202.4999999999995, 1.797060043340906
1202.9999999999998, 1.797060043340906
1203.4999999999998, 1.5387822936010025
1203.9999999999998, 1.5387822936010025
1204.5, 1.5961773490987667
1204.9999999999998, 1.6535724045965026
1205.4999999999998, 1.6535724045965026
1206, 1.739664987843156
1206.5, 1.739664987843156
1207, 1.7683625155920168
1207.4999999999998, 1.7683625155920168
1207.9999999999998, 1.797060043340906
1208.5, 1.8257575710897669
1209, 1.8257575710897669
1209.4999999999998, 1.8257575710897669
1209.9999999999998, 1.8257575710897669
1210.5, 1.8544550988386561
1211, 1.8544550988386561
1211.5, 1.8544550988386561
1211.9999999999998, 1.9118501543364204
1212.4999999999998, 1.9118501543364204
1213, 2.0840353208296847
1213.5, 2.0840353208296847
1213.9999999999998, 1.9692452098341704
1214.4999999999995, 1.9405476820852812
1214.9999999999998, 1.9405476820852812
1215.4999999999998, 2.1988254318251705
1215.9999999999998, 2.1988254318251705
1216.4999999999998, 2.1988254318251705
1216.9999999999998, 2.0266402653319204
1217.4999999999998, 2.0266402653319204
1218, 1.9692452098341704
1218.5, 1.9692452098341704
1218.9999999999998, 1.7109674600942526
1229, 1.739664987843156
1229.5, 1.739664987843156
1229.9999999999998, 1.6248748768476275
1230.4999999999998, 1.6248748768476275
1231.5, 1.5674798213498633
1232, 1.5674798213498633
1232.4999999999998, 1.5387822936010025
1232.9999999999998, 1.5387822936010025
1257.9999999999998, 1.3665971271077382
1258.4999999999998, 1.3665971271077382
1267.4999999999998, 1.4239921826055024
1267.9999999999998, 1.4239921826055024
1268.5, 1.5100847658521133
1268.9999999999998, 1.5100847658521133
1269.4999999999998, 1.4813872381032525
1325.5, 1.4526897103543632
1326, 1.4526897103543632
1326.4999999999998, 1.4813872381032525
1326.9999999999998, 1.4813872381032525
1356.4999999999998, 1.5387822936010025
1356.9999999999998, 1.5387822936010025
1375.9999999999998, 1.5387822936010025
1376.4999999999998, 1.5387822936010025
1376.9999999999995, 1.5387822936010025
1377.4999999999998, 1.5387822936010025
1378, 1.4526897103543632
1388, 1.5961773490987667
1388.5, 1.5961773490987667
1388.9999999999998, 1.6535724045965026
1389.4999999999998, 1.6535724045965026
1390, 1.8544550988386561
1390.4999999999995, 1.9405476820852812
1390.9999999999998, 1.9405476820852812
1391.5, 1.6248748768476275
1392, 1.6248748768476275
1394.9999999999998, 1.739664987843156
1395.4999999999998, 1.739664987843156
1395.9999999999998, 1.739664987843156
1396.4999999999998, 1.7683625155920168
1396.9999999999998, 1.7683625155920168
1398.4999999999998, 2.0553377930807954
1399, 2.0553377930807954
1399.4999999999998, 2.0553377930807954
1399.9999999999998, 2.0553377930807954
1301.5753309307734, 1.2518778167250986
1286.661087828611, 1.2518778167250986
1279.2039662775296, 1.2518778167250986
1314.9959092255087, 0.9514271407110755
1338.858698188969, 0.9514271407110755
1350.7915863355063, 1.1517275913870861
1368.6886780581012, 1.1517275913870861
1247.8825620981809, 1.051577366049088
1247.8825620981809, 1.051577366049088
1241.9198521869307, 1.4521782674011092
818.3516139234953, 0.9514271407110755
818.3516139234953, 0.9514271407110755
813.8788346576539, 1.1517275913870861
812.3896508446487, 1.4521782674011092
824.3188048291677, 1.1517275913870861
830.2845020700327, 1.1517275913870861
833.2695911876765, 1.4521782674011092
