300.5, 53.7682827965582
301, 53.7682827965582
301.5, 53.796980324307086
302, 53.82567785205597
302.5, 53.82567785205597
303, 53.85437537980484
303.5, 53.85437537980484
304, 53.85437537980484
304.5, 53.883072907553725
305, 53.883072907553725
305.5, 53.9117704353026
306, 53.9117704353026
306.5, 53.9117704353026
307, 53.9117704353026
307.5, 53.940467963051475
308, 53.99786301854923
308.5, 53.99786301854923
309, 54.0265605462981
309.5, 54.0265605462981
310, 54.08395560179586
310.5, 54.08395560179586
311, 54.08395560179586
311.5, 54.11265312954473
312, 54.11265312954473
312.5, 54.141350657293614
313, 54.141350657293614
313.5, 54.19874571279137
314, 54.19874571279137
314.5, 54.19874571279137
315, 54.25614076828912
315.5, 54.25614076828912
316, 54.313535823786886
316.5, 54.313535823786886
317, 54.313535823786886
317.5, 54.313535823786886
318, 54.313535823786886
318.5, 54.37093087928464
319, 54.37093087928464
319.5, 54.37093087928464
320, 54.42832593478239
320.5, 54.42832593478239
321, 54.457023462531275
321.5, 54.457023462531275
322, 54.48572099028015
322.5, 54.5431160457779
323, 54.5431160457779
323.5, 54.5431160457779
324, 54.5431160457779
324.5, 54.571813573526775
325, 54.60051110127566
325.5, 54.60051110127566
326, 54.62920862902453
326.5, 54.62920862902453
327, 54.65790615677341
327.5, 54.65790615677341
328, 54.715301212271164
328.5, 54.715301212271164
329, 54.715301212271164
329.5, 54.74399874002004
330, 54.74399874002004
330.5, 54.77269626776892
331, 54.801393795517804
331.5, 54.801393795517804
332, 54.85878885101556
332.5, 54.85878885101556
333, 54.91618390651332
333.5, 54.91618390651332
334, 54.97357896201107
334.5, 55.03097401750882
335, 55.03097401750882
335.5, 55.05967154525769
336, 55.05967154525769
336.5, 55.088369073006575
337, 55.11706660075545
337.5, 55.11706660075545
338, 55.145764128504325
338.5, 55.145764128504325
339, 55.20315918400208
339.5, 55.20315918400208
340, 55.231856711750964
340.5, 55.26055423949984
341, 55.26055423949984
341.5, 55.28925176724872
342, 55.28925176724872
342.5, 55.317949294997604
343, 55.34664682274648
343.5, 55.34664682274648
344, 55.404041878244236
344.5, 55.404041878244236
345, 55.461436933741986
345.5, 55.461436933741986
346, 55.49013446149087
346.5, 55.518831989239736
347, 55.518831989239736
347.5, 55.57622704473749
348, 55.57622704473749
348.5, 55.63362210023525
349, 55.662319627984125
349.5, 55.662319627984125
350, 55.71971468348188
350.5, 55.71971468348188
351, 55.77710973897964
351.5, 55.80580726672852
352, 55.80580726672852
352.5, 55.86320232222628
353, 55.86320232222628
353.5, 55.86320232222628
354, 55.86320232222628
354.5, 55.92059737772403
355, 55.977992433221786
355.5, 55.977992433221786
356, 56.035387488719536
356.5, 56.035387488719536
357, 56.092782544217286
357.5, 56.12148007196617
358, 56.12148007196617
358.5, 56.2075726552128
359, 56.2075726552128
359.5, 56.2075726552128
360, 56.2075726552128
360.5, 56.236270182961675
361, 56.236270182961675
361.5, 56.236270182961675
362, 56.26496771071056
362.5, 56.26496771071056
363, 56.3510602939572
363.5, 56.40845534945495
364, 56.40845534945495
364.5, 56.49454793270157
365, 56.49454793270157
365.5, 56.523245460450454
366, 56.523245460450454
366.5, 56.58064051594821
367, 56.66673309919484
367.5, 56.66673309919484
368, 56.69543062694372
368.5, 56.69543062694372
369, 56.752825682441475
369.5, 56.81022073793923
370, 56.81022073793923
370.5, 56.86761579343699
371, 56.86761579343699
371.5, 56.92501084893475
372, 56.92501084893475
372.5, 57.03980095993025
373, 57.097196015428004
373.5, 57.097196015428004
374, 57.15459107092576
374.5, 57.15459107092576
375, 57.21198612642352
375.5, 57.269381181921275
376, 57.269381181921275
376.5, 57.29807870967016
377, 57.29807870967016
377.5, 57.32677623741903
378, 57.32677623741903
378.5, 57.38417129291679
379, 57.44156634841454
379.5, 57.44156634841454
380, 57.49896140391229
380.5, 57.49896140391229
381, 57.613751514907804
381.5, 57.64244904265668
382, 57.64244904265668
382.5, 57.72854162590331
383, 57.72854162590331
383.5, 57.81463420914995
384, 57.843331736898826
384.5, 57.843331736898826
385, 57.929424320145465
385.5, 57.929424320145465
386, 57.98681937564321
386.5, 57.98681937564321
387, 58.07291195888984
387.5, 58.15900454213647
388, 58.15900454213647
388.5, 58.21639959763423
389, 58.21639959763423
389.5, 58.24509712538311
390, 58.359887236378626
390.5, 58.359887236378626
391, 58.41728229187638
391.5, 58.41728229187638
392, 58.44597981962526
392.5, 58.44597981962526
393, 58.58946745836964
393.5, 58.618164986118515
394, 58.618164986118515
394.5, 58.73295509711403
395, 58.73295509711403
395.5, 58.790350152611786
396, 58.876442735858426
396.5, 58.876442735858426
397, 58.933837791356176
397.5, 58.933837791356176
398, 59.04862790235168
398.5, 59.04862790235168
399, 59.10602295784943
399.5, 59.192115541096065
400, 59.192115541096065
400.5, 59.24951059659383
401, 59.24951059659383
401.5, 59.30690565209159
402, 59.39299823533822
402.5, 59.39299823533822
403, 59.42169576308709
403.5, 59.42169576308709
404, 59.50778834633372
404.5, 59.50778834633372
405, 59.62257845732923
405.5, 59.67997351282699
406, 59.67997351282699
406.5, 59.794763623822504
407, 59.794763623822504
407.5, 59.85215867932026
408, 59.90955373481802
408.5, 59.90955373481802
408.99999999999994, 59.93825126256689
409.5, 59.93825126256689
410, 60.02434384581352
410.5, 60.02434384581352
411, 60.053041373562394
411.5, 60.19652901230678
412, 60.19652901230678
412.5, 60.28262159555342
413, 60.28262159555342
413.5, 60.368714178800055
414, 60.48350428979556
414.5, 60.48350428979556
415, 60.569596873042194
415.5, 60.569596873042194
416, 60.6843869840377
416.5, 60.77047956728434
417, 60.77047956728434
417.5, 60.79917709503322
418, 60.79917709503322
418.5, 60.85657215053097
419, 60.85657215053097
419.5, 60.91396720602872
420, 60.97136226152648
420.5, 60.97136226152648
421, 61.05745484477311
421.5, 61.05745484477311
422, 61.17224495576862
422.5, 61.28703506676414
423, 61.28703506676414
423.5, 61.3444301222619
424, 61.3444301222619
424.5, 61.43052270550852
425, 61.43052270550852
425.5, 61.54531281650403
426, 61.60270787200179
426.5, 61.60270787200179
427, 61.7174979829973
427.5, 61.7174979829973
428, 61.80359056624393
428.49999999999994, 61.88968314949057
428.99999999999994, 61.88968314949057
429.5, 61.9757757327372
430, 61.9757757327372
430.5, 62.11926337148158
431, 62.11926337148158
431.5, 62.17665842697934
432, 62.32014606572373
432.5, 62.32014606572373
433, 62.43493617671923
433.5, 62.43493617671923
434, 62.463633704468116
434.5, 62.607121343212505
435, 62.607121343212505
435.5, 62.69321392645914
436, 62.69321392645914
436.5, 62.80800403745465
437, 62.80800403745465
437.5, 62.894096620701276
438, 62.98018920394791
438.5, 62.98018920394791
439, 63.06628178719454
439.5, 63.06628178719454
440, 63.15237437044117
440.5, 63.20976942593894
441, 63.20976942593894
441.5, 63.381954592432194
442, 63.381954592432194
442.5, 63.46804717567883
443, 63.46804717567883
443.5, 63.49674470342771
444, 63.58283728667434
444.5, 63.58283728667434
445, 63.611534814423216
445.5, 63.611534814423216
446, 63.72632492541874
446.5, 63.86981256416311
447, 63.86981256416311
447.5, 63.98460267515863
448, 63.98460267515863
448.5, 64.15678784165189
449, 64.24288042489852
449.5, 64.27157795264742
450, 64.38636806364292
450.5, 64.38636806364292
451, 64.47246064688954
451.5, 64.47246064688954
452, 64.5298557023873
452.5, 64.64464581338281
453, 64.64464581338281
453.5, 64.73073839662945
454, 64.73073839662945
454.5, 64.7881334521272
455, 64.87422603537382
455.5, 64.87422603537382
456, 64.98901614636935
456.5, 64.98901614636935
457, 65.07510872961598
457.5, 65.07510872961598
458, 65.21859636836035
458.5, 65.304688951607
459, 65.304688951607
459.5, 65.50557164584913
460, 65.50557164584913
460.5, 65.5629667013469
461, 65.64905928459353
461.5, 65.64905928459353
462, 65.76384939558903
462.5, 65.76384939558903
463, 65.93603456208231
463.5, 65.93603456208231
464, 66.02212714532894
464.5, 66.19431231182222
465, 66.19431231182222
465.5, 66.30910242281772
465.99999999999994, 66.30910242281772
466.5, 66.39519500606434
467, 66.5673801725576
467.49999999999994, 66.5673801725576
468, 66.68217028355312
468.5, 66.68217028355312
469, 66.82565792229752
469.5, 66.82565792229752
470, 66.99784308879077
470.5, 67.17002825528405
471, 67.17002825528405
471.5, 67.28481836627955
472, 67.28481836627955
472.5, 67.3422134217773
473, 67.57179364376833
473.5, 67.57179364376833
474, 67.68658375476383
474.5, 67.68658375476383
475, 67.80137386575934
475.5, 67.80137386575934
476, 68.03095408775036
476.5, 68.20313925424364
477, 68.20313925424364
477.5, 68.31792936523914
478, 68.31792936523914
478.5, 68.60490464272792
479, 68.71969475372343
479.5, 68.71969475372343
480, 68.83448486471895
480.5, 68.83448486471895
481, 69.09276261445883
481.5, 69.09276261445883
481.99999999999994, 69.20755272545435
482.5, 69.29364530870097
483, 69.29364530870097
483.5, 69.55192305844088
484, 69.55192305844088
484.5, 69.66671316943639
485, 69.8962933914274
485.5, 69.8962933914274
486, 70.01108350242292
486.5, 70.01108350242292
487, 70.09717608566956
487.5, 70.09717608566956
488, 70.18326866891618
488.5, 70.2980587799117
489, 70.2980587799117
489.5, 70.38415136315832
490, 70.38415136315832
490.5, 70.49894147415384
491, 70.6711266406471
491.5, 70.6711266406471
492, 70.75721922389374
492.5, 70.75721922389374
493, 70.929404390387
493.5, 71.04419450138252
493.99999999999994, 71.04419450138252
494.5, 71.10158955688027
495, 71.10158955688027
495.5, 71.21637966787577
496, 71.21637966787577
496.5, 71.33116977887128
497, 71.35986730662017
497.5, 71.35986730662017
498, 71.38856483436905
498.5, 71.38856483436905
499, 71.4459598898668
499.49999999999994, 71.53205247311342
500, 71.53205247311342
500.5, 71.58944752861119
501, 71.58944752861119
501.49999999999994, 71.58944752861119
502, 71.58944752861119
502.49999999999994, 71.53205247311342
503, 71.50335494536455
503.5, 71.50335494536455
504, 71.50335494536455
504.5, 71.50335494536455
505, 71.50335494536455
505.49999999999994, 71.4459598898668
505.99999999999994, 71.4459598898668
506.49999999999994, 71.38856483436905
507, 71.38856483436905
507.5, 71.33116977887128
507.99999999999994, 71.33116977887128
508.5, 71.30247225112241
509, 71.24507719562466
509.5, 71.24507719562466
509.99999999999994, 71.21637966787577
510.49999999999994, 71.21637966787577
511, 71.0728920291314
511.5, 70.90070686263812
512, 70.90070686263812
512.5, 70.78591675164262
513, 70.78591675164262
513.5, 70.58503405740046
514, 70.58503405740046
514.4999999999999, 70.49894147415384
515, 70.32675630766057
515.5, 70.32675630766057
516, 70.15457114116731
516.5, 70.15457114116731
517, 70.06847855792067
517.5, 69.92499091917628
518, 69.92499091917628
518.5, 69.7815032804319
519, 69.7815032804319
519.5, 69.60931811393863
520, 69.43713294744536
520.5, 69.43713294744536
521, 69.29364530870097
521.5, 69.29364530870097
522, 69.09276261445883
522.5, 69.09276261445883
523, 68.92057744796557
523.5, 68.77708980922118
524, 68.77708980922118
524.5, 68.69099722597456
525, 68.69099722597456
525.5, 68.60490464272792
526, 68.51881205948129
526.5, 68.51881205948129
527, 68.43271947623465
527.5, 68.43271947623465
528, 68.31792936523914
528.5, 68.31792936523914
529, 68.26053430974139
529.5, 68.117046670997
530, 68.117046670997
530.5, 68.03095408775036
531, 68.03095408775036
531.5, 67.94486150450373
532, 67.83007139350822
532.5, 67.83007139350822
533, 67.77267633801048
533.5, 67.77267633801048
534, 67.7152812825127
534.5, 67.68658375476383
535, 67.68658375476383
535.5, 67.62918869926608
536, 67.62918869926608
536.5, 67.6004911715172
537, 67.6004911715172
537.5, 67.51439858827057
538, 67.45700353277282
538.5, 67.45700353277282
539, 67.45700353277282
539.5, 67.45700353277282
540, 67.51439858827057
540.5, 67.62918869926608
541, 67.62918869926608
541.5, 67.68658375476383
542, 67.68658375476383
542.5, 67.74397881026158
543, 67.74397881026158
543.5, 67.7152812825127
544, 67.74397881026158
544.5, 67.74397881026158
545, 67.80137386575934
545.5, 67.80137386575934
546, 67.88746644900598
546.5, 67.97355903225261
547, 67.97355903225261
547.5, 68.03095408775036
548, 68.03095408775036
548.5, 68.08834914324812
549, 68.08834914324812
549.5, 68.17444172649476
550, 68.20313925424364
550.5, 68.20313925424364
551, 68.23183678199251
551.5, 68.23183678199251
552, 68.26053430974139
552.5, 68.26053430974139
553, 68.26053430974139
553.5, 68.34662689298801
554, 68.34662689298801
554.5, 68.40402194848578
555, 68.40402194848578
555.5, 68.43271947623465
556, 68.57620711497904
556.5, 68.57620711497904
557, 68.60490464272792
557.5, 68.60490464272792
558, 68.66229969822567
558.5, 68.66229969822567
559, 68.66229969822567
559.5, 68.60490464272792
560, 68.60490464272792
560.5, 68.63360217047679
561, 68.63360217047679
561.5, 68.66229969822567
562, 68.66229969822567
562.5, 68.66229969822567
563, 68.71969475372343
563.5, 68.71969475372343
564, 68.7483922814723
564.5, 68.66229969822567
565, 68.66229969822567
565.5, 68.66229969822567
566, 68.66229969822567
566.5, 68.60490464272792
567, 68.46141700398353
567.5, 68.46141700398353
568, 68.43271947623465
568.5, 68.43271947623465
569, 68.3753244207369
569.5, 68.3753244207369
570, 68.28923183749026
570.5, 68.17444172649476
571, 68.17444172649476
571.5, 68.05965161549925
572, 68.05965161549925
572.5, 67.97355903225261
573, 67.62918869926608
573.5, 67.62918869926608
574, 67.45700353277282
574.5, 67.45700353277282
575, 67.31351589402843
575.5, 67.31351589402843
576, 67.17002825528405
576.5, 66.9691455610419
577, 66.9691455610419
577.5, 66.79696039454862
578, 66.79696039454862
578.5, 66.50998511705986
579, 66.36649747831547
579.5, 66.36649747831547
580, 66.19431231182222
580.5, 66.19431231182222
581, 65.93603456208231
581.5, 65.82124445108678
582, 65.82124445108678
582.5, 65.59166422909577
583, 65.59166422909577
583.5, 65.36208400710476
584, 65.36208400710476
584.5, 65.21859636836035
584.9999999999999, 64.98901614636935
585.4999999999999, 64.98901614636935
586, 64.6733433411317
586.5, 64.6733433411317
587, 64.5298557023873
587.5, 64.24288042489852
588, 64.24288042489852
588.5, 64.0133002029075
589, 64.0133002029075
589.5, 63.86981256416311
590, 63.86981256416311
590.5, 63.6402323421721
591, 63.43934964792995
591.5, 63.43934964792995
592, 63.181071898190055
592.5, 63.181071898190055
593, 62.95149167619903
593.5, 62.86539909295241
594, 62.86539909295241
594.5, 62.607121343212505
595, 62.607121343212505
595.5, 62.37754112122149
596, 62.2340534824771
596.5, 62.2340534824771
597, 62.090565843732705
597.5, 62.090565843732705
598, 61.9757757327372
598.5, 61.9757757327372
599, 61.63140539975066
599.5, 61.40182517775964
600, 61.40182517775964
600.5, 61.315732594513015
601, 61.315732594513015
601.5, 61.143547428019744
602, 60.942664733777605
602.5, 60.942664733777605
603, 60.79917709503322
603.5, 60.79917709503322
604, 60.71308451178658
604.5, 60.71308451178658
605, 60.59829440079107
605.5, 60.368714178800055
606, 60.368714178800055
606.5, 60.28262159555342
607, 60.28262159555342
607.5, 60.16783148455791
608, 59.995646318064644
608.5, 59.995646318064644
609, 59.88085620706914
609.5, 59.88085620706914
610, 59.76606609607363
610.5, 59.76606609607363
611, 59.67997351282699
611.5, 59.59388092958036
612, 59.59388092958036
612.4999999999999, 59.479090818584844
612.9999999999999, 59.479090818584844
613.5, 59.42169576308709
614, 59.364300707589344
614.5, 59.364300707589344
615, 59.22081306884495
615.5, 59.22081306884495
616, 59.10602295784943
616.5, 59.0199303746028
617, 59.0199303746028
617.5, 58.933837791356176
618, 58.933837791356176
618.5, 58.847745208109544
619, 58.847745208109544
619.5, 58.76165262486291
620, 58.73295509711403
620.5, 58.73295509711403
621, 58.73295509711403
621.5, 58.73295509711403
622, 58.76165262486291
622.5, 58.618164986118515
623, 58.618164986118515
623.5, 58.560769930620765
624, 58.560769930620765
624.5, 58.58946745836964
625, 58.58946745836964
625.5, 58.560769930620765
626, 58.50337487512301
626.5, 58.50337487512301
627, 58.3885847641275
627.5, 58.3885847641275
628, 58.30249218088087
628.5, 58.24509712538311
629, 58.24509712538311
629.5, 58.21639959763423
630, 58.21639959763423
630.5, 58.187702069885354
631, 58.187702069885354
631.5, 58.21639959763423
632, 58.15900454213647
632.5, 58.15900454213647
633, 58.10160948663872
633.5, 58.10160948663872
634, 58.044214431140965
634.5, 57.98681937564321
635, 57.98681937564321
635.5, 57.98681937564321
636, 57.98681937564321
636.5, 58.01551690339209
637, 57.98681937564321
637.5, 57.98681937564321
638, 57.90072679239658
638.5, 57.90072679239658
639, 57.929424320145465
639.5, 57.929424320145465
640, 57.95812184789434
640.5, 57.929424320145465
641, 57.929424320145465
641.5, 57.87202926464771
642, 57.87202926464771
642.5, 57.87202926464771
643, 57.81463420914995
643.5, 57.81463420914995
644, 57.81463420914995
644.5, 57.81463420914995
645, 57.785936681401076
645.5, 57.785936681401076
646, 57.75723915365219
646.5, 57.75723915365219
647, 57.75723915365219
647.5, 57.785936681401076
648, 57.785936681401076
648.5, 57.785936681401076
649, 57.843331736898826
649.5, 57.843331736898826
650, 57.843331736898826
650.5, 57.843331736898826
650.9999999999999, 57.843331736898826
651.4999999999999, 57.843331736898826
652, 57.785936681401076
652.5, 57.785936681401076
653, 57.785936681401076
653.5, 57.785936681401076
654, 57.785936681401076
654.5, 57.90072679239658
655, 57.929424320145465
655.5, 57.929424320145465
656, 57.929424320145465
656.5, 57.929424320145465
657, 57.87202926464771
657.5, 57.87202926464771
658, 57.843331736898826
658.5, 57.81463420914995
659, 57.81463420914995
659.4999999999999, 57.843331736898826
659.9999999999999, 57.843331736898826
660.5, 57.81463420914995
661, 57.785936681401076
661.5, 57.785936681401076
662, 57.843331736898826
662.5, 57.843331736898826
663, 57.90072679239658
663.4999999999999, 57.90072679239658
663.9999999999999, 57.90072679239658
664.5, 57.843331736898826
665, 57.843331736898826
665.5, 57.843331736898826
666, 57.843331736898826
666.5, 57.843331736898826
667, 57.90072679239658
667.4999999999999, 57.90072679239658
668, 57.95812184789434
668.5, 57.95812184789434
669, 57.929424320145465
669.5, 57.87202926464771
670, 57.87202926464771
670.5, 57.72854162590331
671, 57.72854162590331
671.5, 57.699844098154436
672, 57.699844098154436
672.5, 57.671146570405554
673, 57.671146570405554
673.5, 57.671146570405554
674, 57.75723915365219
674.5, 57.75723915365219
674.9999999999999, 57.843331736898826
675.5, 57.98681937564321
676, 57.98681937564321
676.5, 58.01551690339209
677, 58.01551690339209
677.4999999999999, 58.07291195888984
677.9999999999999, 58.07291195888984
678.5, 58.10160948663872
678.9999999999999, 58.1303070143876
679.4999999999999, 58.1303070143876
679.9999999999999, 58.1303070143876
680.5, 58.1303070143876
681, 58.187702069885354
681.5, 58.24509712538311
682, 58.24509712538311
682.5, 58.27379465313199
683, 58.27379465313199
683.5, 58.359887236378626
684, 58.359887236378626
684.5, 58.41728229187638
685, 58.359887236378626
685.5, 58.359887236378626
686, 58.33118970862975
686.5, 58.33118970862975
687, 58.33118970862975
687.5, 58.41728229187638
688, 58.41728229187638
688.5, 58.474677347374126
689, 58.474677347374126
689.5, 58.50337487512301
690, 58.474677347374126
690.5, 58.474677347374126
691, 58.44597981962526
691.5, 58.44597981962526
692, 58.474677347374126
692.5, 58.474677347374126
693, 58.560769930620765
693.5, 58.58946745836964
694, 58.58946745836964
694.5, 58.618164986118515
695, 58.618164986118515
695.4999999999999, 58.67556004161627
696, 58.73295509711403
696.5, 58.73295509711403
697, 58.81904768036067
697.5, 58.81904768036067
698, 58.9051402636073
698.4999999999999, 58.9051402636073
698.9999999999999, 58.9051402636073
699.4999999999999, 58.9051402636073
700, 58.9051402636073
700.5, 58.9051402636073
701, 58.9051402636073
701.5, 58.933837791356176
702, 58.96253531910505
702.5, 58.96253531910505
703, 59.04862790235168
703.5, 59.04862790235168
704, 59.0199303746028
704.5, 59.0199303746028
705, 59.0199303746028
705.5, 59.04862790235168
706, 59.04862790235168
706.5, 59.04862790235168
707, 59.04862790235168
707.5, 59.04862790235168
708, 59.10602295784943
708.5, 59.10602295784943
709, 59.134720485598315
709.5, 59.134720485598315
710, 59.192115541096065
710.4999999999999, 59.192115541096065
716, 59.192115541096065
716.5, 59.16341801334719
717, 59.16341801334719
717.5, 59.192115541096065
717.9999999999999, 59.192115541096065
718.4999999999999, 59.192115541096065
718.9999999999999, 59.192115541096065
719.5, 59.22081306884495
720, 59.192115541096065
720.5, 59.192115541096065
721, 59.192115541096065
721.5, 59.192115541096065
721.9999999999999, 59.192115541096065
722.4999999999999, 59.192115541096065
723, 59.192115541096065
723.5, 59.24951059659383
724, 59.24951059659383
724.5, 59.22081306884495
724.9999999999999, 59.22081306884495
725.5, 59.22081306884495
726, 59.22081306884495
726.5, 59.22081306884495
727, 59.22081306884495
727.5, 59.22081306884495
728, 59.22081306884495
728.4999999999999, 59.22081306884495
729, 59.22081306884495
729.5, 59.22081306884495
730, 59.22081306884495
730.5, 59.16341801334719
731, 59.16341801334719
731.5, 59.134720485598315
731.9999999999999, 59.16341801334719
732.5, 59.16341801334719
733, 59.192115541096065
733.5, 59.192115541096065
734, 59.22081306884495
734.5, 59.22081306884495
735, 59.22081306884495
735.4999999999999, 59.10602295784943
736, 59.10602295784943
736.4999999999999, 59.04862790235168
737, 59.04862790235168
737.5, 59.0199303746028
738, 59.0199303746028
738.5, 59.0199303746028
738.9999999999999, 59.04862790235168
739.5, 59.04862790235168
739.9999999999999, 59.04862790235168
740.5, 59.04862790235168
740.9999999999999, 59.04862790235168
741.5, 59.07732543010056
742, 59.07732543010056
742.4999999999999, 59.10602295784943
743, 59.0199303746028
743.4999999999999, 59.0199303746028
744, 58.96253531910505
744.4999999999999, 58.96253531910505
745, 58.876442735858426
745.5, 58.876442735858426
746, 58.876442735858426
746.5, 58.81904768036067
747, 58.81904768036067
747.5, 58.790350152611786
747.9999999999999, 58.790350152611786
748.5, 58.73295509711403
749, 58.73295509711403
749.5, 58.73295509711403
750, 58.560769930620765
750.5, 58.560769930620765
751, 58.474677347374126
751.5, 58.474677347374126
752, 58.359887236378626
752.4999999999999, 58.30249218088087
753, 58.30249218088087
753.5, 58.21639959763423
753.9999999999999, 58.21639959763423
754.5, 58.15900454213647
754.9999999999999, 58.187702069885354
755.5, 58.187702069885354
755.9999999999999, 58.187702069885354
756.5, 58.187702069885354
757, 58.1303070143876
757.4999999999999, 58.1303070143876
758, 58.044214431140965
758.5, 57.98681937564321
759, 57.98681937564321
759.5, 57.929424320145465
760, 57.929424320145465
760.4999999999999, 57.929424320145465
761, 57.87202926464771
761.5, 57.87202926464771
762, 57.81463420914995
762.5, 57.81463420914995
762.9999999999999, 57.75723915365219
763.5, 57.671146570405554
763.9999999999999, 57.671146570405554
764.5, 57.613751514907804
765, 57.613751514907804
765.5, 57.412868820665665
766, 57.412868820665665
766.5, 57.29807870967016
767, 57.21198612642352
767.5, 57.21198612642352
768, 57.12589354317688
768.4999999999999, 57.12589354317688
768.9999999999999, 57.12589354317688
769.5, 57.097196015428004
769.9999999999999, 57.097196015428004
770.5, 56.92501084893475
770.9999999999999, 56.92501084893475
771.5, 56.838918265688115
772, 56.838918265688115
772.5, 56.752825682441475
773, 56.69543062694372
773.5, 56.69543062694372
774, 56.609338043697086
774.4999999999999, 56.609338043697086
775, 56.49454793270157
775.5, 56.37975782170607
776, 56.37975782170607
776.4999999999998, 56.29366523845944
776.9999999999999, 56.29366523845944
777.5, 56.236270182961675
778, 56.236270182961675
778.5, 56.15017759971504
779, 56.06408501646841
779.5, 56.06408501646841
780, 55.977992433221786
780.5, 55.977992433221786
781, 55.92059737772403
781.4999999999999, 55.74841221123076
782, 55.74841221123076
782.4999999999999, 55.63362210023525
783, 55.63362210023525
783.5, 55.54752951698862
784, 55.404041878244236
784.5, 55.404041878244236
785, 55.317949294997604
785.5, 55.317949294997604
785.9999999999999, 55.231856711750964
786.5, 55.231856711750964
787, 55.145764128504325
787.5, 55.05967154525769
787.9999999999999, 55.05967154525769
788.5, 54.97357896201107
789, 54.97357896201107
789.5, 54.85878885101556
790, 54.830091323266686
790.5, 54.830091323266686
791, 54.715301212271164
791.4999999999999, 54.715301212271164
791.9999999999999, 54.62920862902453
792.5, 54.62920862902453
793, 54.571813573526775
793.5, 54.51441851802903
794, 54.51441851802903
794.5, 54.42832593478239
794.9999999999999, 54.42832593478239
795.4999999999999, 54.37093087928464
795.9999999999999, 54.284838296038004
796.5, 54.284838296038004
797, 54.19874571279137
797.5, 54.19874571279137
797.9999999999998, 54.11265312954473
798.4999999999998, 54.11265312954473
799, 54.05525807404698
799.5, 54.08395560179586
799.9999999999998, 54.08395560179586
800.4999999999998, 54.08395560179586
801, 54.08395560179586
801.5, 54.05525807404698
802, 54.0265605462981
802.5, 54.0265605462981
803, 53.940467963051475
803.5, 53.940467963051475
804, 53.9117704353026
804.4999999999998, 53.883072907553725
804.9999999999998, 53.883072907553725
805.5, 53.940467963051475
806, 53.940467963051475
806.5, 53.940467963051475
807, 53.940467963051475
807.4999999999998, 53.883072907553725
807.9999999999998, 53.883072907553725
808.4999999999998, 53.883072907553725
809, 53.940467963051475
809.5, 53.940467963051475
810, 53.96916549080036
810.5, 53.940467963051475
811, 53.940467963051475
811.4999999999998, 53.9117704353026
812, 53.9117704353026
812.5, 53.940467963051475
813, 53.940467963051475
813.5, 53.9117704353026
813.9999999999998, 53.85437537980484
814.4999999999998, 53.85437537980484
814.9999999999998, 53.85437537980484
815.4999999999998, 53.85437537980484
815.9999999999998, 53.883072907553725
816.5, 53.9117704353026
817, 53.9117704353026
817.5, 53.9117704353026
818, 53.9117704353026
818.4999999999998, 53.9117704353026
819, 53.9117704353026
819.5, 53.940467963051475
820, 53.940467963051475
820.4999999999998, 53.940467963051475
821, 53.940467963051475
821.5, 53.940467963051475
821.9999999999998, 53.99786301854923
822.4999999999998, 54.11265312954473
822.9999999999998, 54.11265312954473
823.5, 54.19874571279137
823.9999999999998, 54.19874571279137
824.4999999999998, 54.17004818504249
825, 54.17004818504249
825.5, 54.141350657293614
826, 54.19874571279137
826.4999999999998, 54.19874571279137
827, 54.19874571279137
827.4999999999998, 54.19874571279137
827.9999999999998, 54.22744324054025
828.4999999999998, 54.22744324054025
828.9999999999998, 54.22744324054025
829.5, 54.19874571279137
829.9999999999998, 54.19874571279137
830.5, 54.17004818504249
830.9999999999998, 54.19874571279137
831.5, 54.19874571279137
831.9999999999998, 54.22744324054025
832.4999999999998, 54.22744324054025
833, 54.284838296038004
833.4999999999998, 54.284838296038004
834, 54.37093087928464
834.4999999999998, 54.42832593478239
834.9999999999998, 54.42832593478239
835.4999999999998, 54.457023462531275
835.9999999999998, 54.457023462531275
836.5, 54.457023462531275
837, 54.48572099028015
837.5, 54.48572099028015
837.9999999999998, 54.5431160457779
838.4999999999998, 54.5431160457779
838.9999999999998, 54.571813573526775
839.5, 54.571813573526775
839.9999999999998, 54.65790615677341
840.5, 54.715301212271164
841, 54.715301212271164
841.4999999999998, 54.77269626776892
842, 54.77269626776892
842.5, 54.830091323266686
842.9999999999998, 54.801393795517804
843.4999999999998, 54.801393795517804
844, 54.830091323266686
844.5, 54.830091323266686
844.9999999999998, 54.85878885101556
845.5, 54.85878885101556
846, 54.887486378764436
846.4999999999998, 54.91618390651332
846.9999999999998, 54.91618390651332
847.4999999999998, 55.03097401750882
847.9999999999998, 55.03097401750882
848.4999999999998, 55.11706660075545
849, 55.17446165625321
849.5, 55.17446165625321
849.9999999999998, 55.20315918400208
850.4999999999998, 55.20315918400208
850.9999999999998, 55.20315918400208
851.4999999999998, 55.20315918400208
852, 55.28925176724872
852.5, 55.404041878244236
853, 55.404041878244236
853.5, 55.404041878244236
854, 55.404041878244236
854.5, 55.54752951698862
854.9999999999998, 55.63362210023525
855.5, 55.63362210023525
855.9999999999998, 55.662319627984125
856.5, 55.662319627984125
857, 55.74841221123076
857.4999999999998, 55.77710973897964
857.9999999999998, 55.77710973897964
858.5, 55.86320232222628
859, 55.86320232222628
859.4999999999998, 55.891899849975154
859.9999999999998, 55.891899849975154
860.5, 55.891899849975154
861, 55.94929490547291
861.5, 55.94929490547291
861.9999999999998, 56.006689960970654
862.5, 56.006689960970654
862.9999999999998, 56.092782544217286
863.5, 56.2075726552128
864, 56.2075726552128
864.4999999999998, 56.26496771071056
864.9999999999998, 56.26496771071056
865.4999999999998, 56.26496771071056
865.9999999999998, 56.26496771071056
866.4999999999998, 56.322362766208315
866.9999999999998, 56.465850404952704
867.4999999999998, 56.465850404952704
867.9999999999998, 56.58064051594821
868.5, 56.58064051594821
868.9999999999998, 56.609338043697086
869.5, 56.69543062694372
869.9999999999998, 56.69543062694372
870.5, 56.86761579343699
870.9999999999998, 56.86761579343699
871.5, 56.982405904432504
872, 56.982405904432504
872.4999999999998, 57.06849848767913
873, 57.097196015428004
873.5, 57.097196015428004
873.9999999999998, 57.12589354317688
874.4999999999998, 57.12589354317688
874.9999999999998, 57.38417129291679
875.4999999999998, 57.52765893166117
875.9999999999998, 57.52765893166117
876.5, 57.72854162590331
876.9999999999998, 57.72854162590331
877.4999999999998, 57.98681937564321
877.9999999999998, 57.98681937564321
878.4999999999998, 58.10160948663872
878.9999999999998, 58.30249218088087
879.4999999999998, 58.30249218088087
880, 58.44597981962526
880.5, 58.44597981962526
881, 58.474677347374126
881.4999999999998, 58.58946745836964
882, 58.58946745836964
882.4999999999998, 58.70425756936515
883, 58.70425756936515
883.4999999999998, 58.847745208109544
883.9999999999998, 58.847745208109544
884.4999999999998, 59.04862790235168
884.9999999999998, 59.16341801334719
885.5, 59.16341801334719
885.9999999999998, 59.364300707589344
886.5, 59.364300707589344
886.9999999999998, 59.59388092958036
887.4999999999998, 59.65127598507811
888, 59.65127598507811
888.5, 59.59388092958036
889, 59.59388092958036
889.4999999999998, 59.39299823533822
890, 59.39299823533822
890.4999999999998, 59.364300707589344
891, 59.479090818584844
891.5, 59.479090818584844
892, 59.50778834633372
892.5, 59.50778834633372
892.9999999999998, 59.67997351282699
893.4999999999998, 59.995646318064644
893.9999999999998, 59.995646318064644
894.5, 60.16783148455791
894.9999999999998, 60.16783148455791
895.4999999999998, 60.426109234297805
896, 60.62699192853995
896.4999999999998, 60.62699192853995
897, 60.85657215053097
897.5, 60.85657215053097
897.9999999999998, 61.258337539015265
898.4999999999998, 61.258337539015265
898.9999999999998, 61.4592202332574
899.5, 61.54531281650403
899.9999999999998, 61.54531281650403
900.5, 61.947078204988316
900.9999999999998, 61.947078204988316
901.4999999999998, 62.17665842697934
901.9999999999998, 62.37754112122149
902.4999999999998, 62.37754112122149
902.9999999999998, 62.72191145420802
903.4999999999998, 62.72191145420802
903.9999999999998, 62.95149167619903
904.4999999999998, 62.95149167619903
905, 63.23846695368782
905.4999999999998, 63.525442231176584
905.9999999999998, 63.525442231176584
906.4999999999998, 63.86981256416311
906.9999999999998, 63.86981256416311
907.4999999999998, 64.09939278615414
907.9999999999998, 64.32897300814517
908.4999999999998, 64.32897300814517
908.9999999999998, 64.64464581338281
909.5, 64.64464581338281
909.9999999999998, 64.98901614636935
910.4999999999998, 64.98901614636935
910.9999999999998, 65.18989884061148
911.4999999999998, 65.59166422909577
912, 65.59166422909577
912.5, 66.05082467307781
913, 66.05082467307781
913.4999999999998, 66.39519500606434
913.9999999999998, 66.82565792229752
914.4999999999998, 66.82565792229752
914.9999999999998, 67.17002825528405
915.4999999999998, 67.17002825528405
915.9999999999998, 67.51439858827057
916.4999999999998, 67.51439858827057
916.9999999999998, 67.88746644900598
917.5, 68.23183678199251
917.9999999999998, 68.23183678199251
918.5, 68.40402194848578
918.9999999999998, 68.40402194848578
919.4999999999998, 68.77708980922118
919.9999999999998, 69.03536755896108
920.4999999999998, 69.03536755896108
921, 69.37973789194761
921.4999999999998, 69.37973789194761
922, 69.75280575268302
922.4999999999998, 69.75280575268302
923, 70.0397810301718
923.5, 70.41284889090721
923.9999999999998, 70.41284889090721
924.5, 70.78591675164262
924.9999999999998, 70.78591675164262
925.4999999999998, 71.21637966787577
925.9999999999998, 71.64684258410894
926.4999999999998, 71.64684258410894
927, 71.96251538934659
927.5, 71.96251538934659
928, 72.45037336107751
928.4999999999998, 72.45037336107751
929, 72.8521387495618
929.4999999999998, 73.11041649930169
930, 73.11041649930169
930.5, 73.65566952653037
931, 73.65566952653037
931.5, 74.05743491501465
931.9999999999998, 74.22962008150793
932.5, 74.22962008150793
933, 74.68878052548996
933.5, 74.68878052548996
933.9999999999998, 74.97575580297874
934.4999999999998, 74.97575580297874
935, 75.34882366371414
935.4999999999998, 75.86537916319395
936, 75.86537916319395
936.4999999999998, 76.12365691293385
936.9999999999998, 76.12365691293385
937.4999999999998, 76.58281735691588
937.9999999999998, 76.98458274540017
938.4999999999998, 77.15676791189344
938.9999999999998, 77.38634813388447
939.4999999999998, 77.38634813388447
940, 77.8455085778665
940.5, 77.8455085778665
940.9999999999998, 78.30466902184854
941.5, 78.56294677158844
941.9999999999998, 78.56294677158844
942.5, 78.99340968782161
943, 78.99340968782161
943.4999999999998, 79.30908249305926
943.9999999999998, 79.53866271505028
944.4999999999998, 79.73954540929242
944.9999999999998, 80.17000832552559
945.4999999999998, 80.17000832552559
945.9999999999998, 80.37089101976773
946.4999999999998, 80.37089101976773
947, 80.83005146374977
947.4999999999998, 81.23181685223406
947.9999999999998, 81.23181685223406
948.5, 81.60488471296946
949, 81.60488471296946
949.5, 82.06404515695151
949.9999999999998, 82.23623032344477
950.5, 83.41282896114876
951, 82.9536685171667
951.5, 82.9536685171667
952, 83.44152648889764
952.4999999999998, 83.44152648889764
952.9999999999998, 83.81459434963304
953.4999999999998, 84.33114984911283
954, 84.33114984911283
954.4999999999998, 84.73291523759713
954.9999999999998, 84.73291523759713
955.5, 85.10598309833253
955.9999999999998, 85.19207568157917
956.4999999999998, 85.73732870880784
956.9999999999998, 87.02871745750733
957.4999999999998, 87.02871745750733
957.9999999999998, 86.54085948577641
958.4999999999998, 86.54085948577641
959, 87.0574149852562
959.4999999999998, 87.28699520724723
960, 87.28699520724723
960.4999999999998, 87.74615565122927
960.9999999999998, 87.74615565122927
961.4999999999998, 88.03313092871804
961.9999999999998, 88.03313092871804
962.5, 88.23401362296019
962.9999999999998, 88.89405676118437
963.4999999999998, 88.89405676118437
963.9999999999998, 89.12363698317539
964.5, 89.12363698317539
964.9999999999998, 89.6401924826552
965.4999999999998, 90.07065539888835
965.9999999999998, 90.07065539888835
966.4999999999998, 90.15674798213499
967, 90.15674798213499
967.4999999999998, 90.75939606486142
968, 90.75939606486142
968.4999999999998, 91.18985898109457
968.9999999999998, 91.4194392030856
969.4999999999998, 91.4194392030856
969.9999999999998, 91.76380953607213
970.4999999999998, 91.76380953607213
970.9999999999998, 91.96469223031427
971.5, 92.25166750780305
972, 92.25166750780305
972.5, 92.71082795178509
972.9999999999998, 92.71082795178509
973.5, 92.94040817377612
974, 92.94040817377612
974.4999999999998, 93.22738345126488
974.9999999999998, 93.68654389524693
975.4999999999998, 93.68654389524693
975.9999999999998, 93.94482164498683
976.4999999999998, 93.94482164498683
976.9999999999998, 94.26049445022448
977.4999999999998, 94.46137714446662
977.9999999999998, 94.46137714446662
978.5, 94.60486478321101
978.9999999999998, 94.60486478321101
979.5, 95.06402522719306
979.9999999999998, 95.06402522719306
980.5, 95.32230297693295
980.9999999999998, 95.58058072667285
981.5, 95.58058072667285
981.9999999999998, 95.92495105965938
982.4999999999998, 95.92495105965938
983, 96.12583375390153
983.4999999999998, 96.2980189203948
983.9999999999998, 96.2980189203948
984.4999999999998, 96.6710867811302
984.9999999999998, 96.6710867811302
985.4999999999998, 97.01545711411673
985.9999999999998, 97.01545711411673
986.5, 97.13024722511224
986.9999999999998, 97.33112991935438
987.4999999999998, 97.33112991935438
988, 97.7041977800898
988.5, 97.7041977800898
988.9999999999998, 97.76159283558755
989.4999999999998, 97.76159283558755
990, 97.76159283558755
990.4999999999998, 97.79029036333642
990.9999999999998, 97.79029036333642
991.4999999999998, 97.99117305757856
992, 98.0772656408252
992.4999999999998, 98.16335822407183
992.9999999999998, 98.36424091831398
993.4999999999998, 98.36424091831398
993.9999999999998, 98.42163597381173
994.5, 98.42163597381173
994.9999999999998, 98.47903102930948
995.5, 98.62251866805387
995.9999999999998, 98.62251866805387
996.4999999999998, 98.93819147329152
996.9999999999998, 98.93819147329152
997.4999999999998, 98.90949394554265
998, 98.90949394554265
998.4999999999998, 98.90949394554265
999, 98.90949394554265
999.4999999999998, 98.90949394554265
999.9999999999998, 98.93819147329152
1000.4999999999998, 98.93819147329152
1000.9999999999998, 99.39735191727357
1001.4999999999998, 99.42604944502244
1002, 99.42604944502244
1002.5, 99.4834445005202
1002.9999999999998, 99.4834445005202
1003.4999999999998, 99.56953708376683
1003.9999999999998, 99.56953708376683
1004.4999999999998, 99.56953708376683
1004.9999999999998, 99.45474697277133
1005.4999999999998, 99.45474697277133
1005.9999999999998, 99.25386427852918
1006.4999999999998, 99.25386427852918
1006.9999999999998, 99.13907416753368
1007.4999999999998, 99.05298158428704
1007.9999999999998, 99.05298158428704
1008.4999999999998, 99.05298158428704
1008.9999999999998, 99.05298158428704
1009.4999999999998, 99.13907416753368
1009.9999999999998, 99.31125933402694
1010.5, 99.31125933402694
1011, 99.42604944502244
1011.5, 99.42604944502244
1011.9999999999998, 99.45474697277133
1012.4999999999998, 99.45474697277133
1012.9999999999998, 99.33995686177582
1013.4999999999998, 99.28256180627805
1014, 99.28256180627805
1014.4999999999998, 99.16777169528255
1014.9999999999998, 99.16777169528255
1015.4999999999998, 99.11037663978479
1015.9999999999998, 99.13907416753368
1016.4999999999998, 99.13907416753368
1016.9999999999998, 98.88079641779377
1017.4999999999998, 98.88079641779377
1018, 98.76600630679826
1018.5, 98.62251866805387
1018.9999999999998, 98.593821140305
1019.5, 98.27814833506734
1019.9999999999998, 98.27814833506734
1020.4999999999998, 98.04856811307633
1020.9999999999998, 98.04856811307633
1021.4999999999998, 98.01987058532745
1022, 98.04856811307633
1022.4999999999998, 98.04856811307633
1023, 98.0772656408252
1023.4999999999998, 98.0772656408252
1023.9999999999998, 97.76159283558755
1024.4999999999998, 97.50331508584765
1025, 97.50331508584765
1025.5, 97.15894475286112
1025.9999999999998, 97.15894475286112
1026.4999999999998, 96.95806205861898
1026.9999999999998, 96.95806205861898
1027.4999999999998, 96.69978430887907
1027.9999999999998, 96.55629667013469
1028.4999999999998, 96.55629667013469
1028.9999999999998, 96.38411150364142
1029.4999999999998, 96.38411150364142
1030, 96.01104364290602
1030.5, 95.78146342091499
1031, 95.78146342091499
1031.4999999999998, 95.46579061567734
1032, 95.46579061567734
1032.4999999999998, 95.20751286593745
1033, 95.09272275494193
1033.4999999999998, 94.94923511619754
1033.9999999999998, 94.71965489420653
1034.4999999999998, 94.71965489420653
1034.9999999999998, 94.4900746722155
1035.4999999999998, 94.4900746722155
1035.9999999999998, 94.23179692247561
1036.4999999999998, 93.91612411723796
1036.9999999999998, 93.91612411723796
1037.5, 93.51435872875366
1038, 93.51435872875366
1038.4999999999998, 93.3421735622604
1038.9999999999998, 93.14129086801826
1039.4999999999998, 93.14129086801826
1040, 92.71082795178509
1040.4999999999998, 92.71082795178509
1040.9999999999998, 92.53864278529183
1041.4999999999998, 92.53864278529183
1041.9999999999998, 92.13687739680753
1042.4999999999998, 91.792507063821
1042.9999999999998, 91.792507063821
1043.5, 91.36204414758785
1043.9999999999998, 91.36204414758785
1044.4999999999998, 91.13246392559682
1044.9999999999998, 90.93158123135468
1045.4999999999998, 90.93158123135468
1046, 90.50111831512152
1046.4999999999998, 90.50111831512152
1047, 90.12805045438611
1047.4999999999998, 89.92716776014396
1047.9999999999998, 89.89847023239508
1048.4999999999998, 89.6114949549063
1048.9999999999998, 89.6114949549063
1049.4999999999998, 89.15233451092428
1049.9999999999998, 89.15233451092428
1050.5, 88.83666170568662
1051, 88.40619878945346
1051.5, 88.40619878945346
1051.9999999999998, 88.03313092871804
1052.4999999999998, 88.03313092871804
1053, 87.68876059573151
1053.5, 87.37308779049386
1054, 87.37308779049386
1054.4999999999998, 87.14350756850284
1054.9999999999998, 87.14350756850284
1055.4999999999998, 86.91392734651183
1055.9999999999998, 86.91392734651183
1056.4999999999998, 86.3112792637854
1057, 86.08169904179437
1057.5, 86.08169904179437
1057.9999999999998, 85.88081634755223
1058.4999999999998, 85.88081634755223
1058.9999999999998, 85.56514354231457
1059.4999999999998, 85.04858804283478
1059.9999999999998, 85.04858804283478
1060.4999999999998, 84.70421770984825
1061, 84.70421770984825
1061.4999999999998, 84.33114984911283
1061.9999999999998, 84.01547704387518
1062.4999999999998, 84.01547704387518
1062.9999999999998, 83.55631659989314
1063.4999999999998, 83.55631659989314
1063.9999999999998, 83.15455121140886
1064.4999999999998, 83.15455121140886
1064.9999999999998, 82.89627346166895
1065.5, 82.40841548993804
1065.9999999999998, 82.40841548993804
1066.5, 82.17883526794702
1067, 82.17883526794702
1067.4999999999998, 81.8057674072116
1067.9999999999998, 81.49009460197395
1068.5, 81.49009460197395
1068.9999999999998, 81.20311932448519
1069.4999999999998, 81.20311932448519
1069.9999999999998, 81.00223663024303
1070.4999999999998, 80.68656382500538
1070.9999999999998, 80.6578662972565
1071.4999999999998, 80.51437865851211
1072, 80.51437865851211
1072.4999999999998, 80.08391574227895
1072.9999999999998, 80.08391574227895
1073.5, 79.68215035379467
1073.9999999999998, 79.13689732656599
1074.4999999999998, 79.13689732656599
1074.9999999999998, 78.96471216007274
1075.4999999999998, 78.96471216007274
1075.9999999999998, 78.73513193808171
1076.4999999999998, 78.3620640773463
1077, 78.3620640773463
1077.4999999999998, 78.16118138310415
1077.9999999999998, 78.16118138310415
1078.5, 77.8455085778665
1079, 77.8455085778665
1079.4999999999998, 77.58723082812661
1079.9999999999998, 77.3289530783867
1080.4999999999998, 77.3289530783867
1080.9999999999998, 77.15676791189344
1081.4999999999998, 77.15676791189344
1081.9999999999998, 76.9558852176513
1082.5, 76.38193466267374
1082.9999999999998, 76.38193466267374
1083.5, 76.1810519684316
1083.9999999999998, 76.1810519684316
1084.4999999999998, 76.00886680193834
1085, 75.98016927418945
1085.4999999999998, 75.6644964689518
1085.9999999999998, 75.06184838622538
1086.4999999999998, 75.06184838622538
1086.9999999999998, 74.80357063648547
1087.4999999999998, 74.80357063648547
1087.9999999999998, 74.66008299774109
1088.4999999999998, 74.28701513700568
1088.9999999999998, 74.28701513700568
1089.5, 74.0000398595169
1089.9999999999998, 74.0000398595169
1090.4999999999998, 73.85655222077251
1090.9999999999998, 73.6269719987815
1091.4999999999998, 73.6269719987815
1091.9999999999998, 73.42608930453935
1092.5, 73.42608930453935
1092.9999999999998, 73.16781155479946
1093.4999999999998, 73.16781155479946
1093.9999999999998, 72.88083627731068
1094.4999999999998, 72.5938609998219
1094.9999999999998, 72.5938609998219
1095.4999999999998, 72.01991044484436
1095.9999999999998, 72.01991044484436
1096.4999999999998, 71.79033022285333
1097, 71.61814505636006
1097.5, 71.61814505636006
1097.9999999999998, 71.1876821401269
1098.5, 71.1876821401269
1098.9999999999998, 70.95810191813588
1099.4999999999998, 70.75721922389374
1099.9999999999998, 70.75721922389374
1100.4999999999998, 70.52763900190271
1101, 70.52763900190271
1101.5, 70.26936125216281
1102, 70.26936125216281
1102.4999999999998, 69.95368844692516
1102.9999999999998, 69.66671316943639
1103.4999999999998, 69.66671316943639
1103.9999999999998, 69.35104036419874
1104.5, 69.35104036419874
1104.9999999999998, 69.17885519770547
1105.4999999999998, 68.94927497571445
1105.9999999999998, 68.94927497571445
1106.4999999999998, 68.7483922814723
1106.9999999999998, 68.7483922814723
1107.5, 68.34662689298801
1107.9999999999998, 68.34662689298801
1108.4999999999998, 68.117046670997
1108.9999999999998, 67.88746644900598
1109.4999999999998, 67.88746644900598
1110, 67.57179364376833
1110.4999999999998, 67.57179364376833
1110.9999999999998, 67.28481836627955
1111.4999999999998, 66.94044803329302
1111.9999999999998, 66.94044803329302
1112.5, 66.73956533905087
1113, 66.73956533905087
1113.5, 66.50998511705986
1113.9999999999998, 66.33779995056659
1114.4999999999998, 66.33779995056659
1114.9999999999998, 65.99342961758006
1115.4999999999998, 65.99342961758006
1116, 65.82124445108678
1116.4999999999998, 65.82124445108678
1116.9999999999998, 65.59166422909577
1117.4999999999998, 65.36208400710476
1117.9999999999998, 65.36208400710476
1118.4999999999998, 65.07510872961598
1119, 65.07510872961598
1119.4999999999998, 64.93162109087159
1119.9999999999998, 64.61594828563393
1120.4999999999998, 64.61594828563393
1120.9999999999998, 64.4150655913918
1121.4999999999998, 64.4150655913918
1121.9999999999998, 64.3002754803963
1122.4999999999998, 64.3002754803963
1122.9999999999998, 64.07069525840527
1123.4999999999998, 63.841115036414244
1123.9999999999998, 63.841115036414244
1124.5, 63.55413975892546
1125, 63.55413975892546
1125.4999999999998, 63.09497931494342
1125.9999999999998, 62.86539909295241
1126.4999999999998, 62.86539909295241
1127, 62.57842381546362
1127.4999999999998, 62.57842381546362
1127.9999999999998, 62.29144853797486
1128.4999999999998, 62.03317078823495
1128.9999999999998, 62.03317078823495
1129.4999999999998, 61.832288093992815
1129.9999999999998, 61.832288093992815
1130.4999999999998, 61.60270787200179
1130.9999999999998, 61.60270787200179
1131.4999999999998, 61.37312765001077
1132, 61.2009424835175
1132.4999999999998, 61.2009424835175
1132.9999999999998, 61.143547428019744
1133.4999999999998, 61.143547428019744
1133.9999999999998, 60.885269678279855
1134.4999999999998, 60.77047956728434
1134.9999999999998, 60.77047956728434
1135.4999999999998, 60.569596873042194
1135.9999999999998, 60.569596873042194
1136.4999999999998, 60.368714178800055
1136.9999999999998, 60.368714178800055
1137.4999999999998, 60.225226540055665
1137.9999999999998, 60.139133956809026
1138.4999999999998, 60.139133956809026
1138.9999999999998, 59.90955373481802
1139.4999999999998, 59.90955373481802
1139.9999999999998, 59.73736856832475
1140.4999999999998, 59.5364858740826
1140.9999999999998, 59.5364858740826
1141.5, 59.134720485598315
1142, 59.134720485598315
1142.4999999999998, 59.07732543010056
1142.9999999999998, 58.847745208109544
1143.4999999999998, 58.847745208109544
1143.9999999999998, 58.50337487512301
1144.4999999999998, 58.50337487512301
1145, 58.474677347374126
1145.5, 58.474677347374126
1145.9999999999998, 58.359887236378626
1146.5, 58.33118970862975
1146.9999999999998, 58.33118970862975
1147.4999999999998, 58.30249218088087
1147.9999999999998, 58.30249218088087
1148.4999999999998, 58.10160948663872
1149, 58.044214431140965
1149.4999999999998, 58.044214431140965
1149.9999999999998, 57.929424320145465
1150.4999999999998, 57.929424320145465
1150.9999999999998, 57.699844098154436
1151.4999999999998, 57.699844098154436
1151.9999999999998, 57.613751514907804
1152.4999999999998, 57.44156634841454
1152.9999999999998, 57.44156634841454
1153.4999999999998, 57.15459107092576
1153.9999999999998, 57.15459107092576
1154.5, 57.097196015428004
1154.9999999999998, 56.89631332118587
1155.4999999999998, 56.89631332118587
1155.9999999999998, 56.72412815469259
1156.4999999999998, 56.72412815469259
1156.9999999999998, 56.66673309919484
1157.4999999999998, 56.66673309919484
1157.9999999999998, 56.69543062694372
1158.4999999999998, 56.69543062694372
1158.9999999999998, 56.69543062694372
1159.4999999999998, 56.72412815469259
1159.9999999999998, 56.72412815469259
1160.5, 56.55194298819933
1160.9999999999998, 56.3510602939572
1161.4999999999998, 56.3510602939572
1161.9999999999998, 56.035387488719536
1162.4999999999998, 56.035387488719536
1163, 56.06408501646841
1163.4999999999998, 56.006689960970654
1163.9999999999998, 56.006689960970654
1164.4999999999998, 56.035387488719536
1165, 56.035387488719536
1165.5, 56.092782544217286
1165.9999999999998, 56.092782544217286
1166.4999999999998, 56.15017759971504
1167, 56.06408501646841
1167.5, 56.06408501646841
1168, 55.977992433221786
1168.4999999999998, 55.977992433221786
1168.9999999999998, 55.74841221123076
1169.5, 55.518831989239736
1170, 55.518831989239736
1170.4999999999995, 55.49013446149087
1170.9999999999995, 55.49013446149087
1171.4999999999998, 55.49013446149087
1171.9999999999998, 55.49013446149087
1172.5, 55.375344350495354
1172.9999999999998, 55.20315918400208
1173.4999999999998, 55.20315918400208
1173.9999999999998, 55.05967154525769
1174.5, 55.05967154525769
1174.9999999999998, 55.03097401750882
1175.4999999999998, 55.00227648975995
1175.9999999999998, 55.00227648975995
1176.4999999999998, 54.97357896201107
1176.9999999999998, 54.97357896201107
1177.4999999999998, 54.91618390651332
1177.9999999999998, 54.91618390651332
1178.5, 54.85878885101556
1179, 54.887486378764436
1179.5, 54.887486378764436
1179.9999999999998, 54.91618390651332
1180.4999999999998, 54.91618390651332
1180.9999999999998, 54.91618390651332
1181.5, 54.85878885101556
1181.9999999999998, 54.85878885101556
1182.4999999999998, 54.77269626776892
1182.9999999999998, 54.77269626776892
1183.4999999999998, 54.68660368452229
1184, 54.65790615677341
1184.4999999999998, 54.65790615677341
1184.9999999999998, 54.571813573526775
1185.4999999999998, 54.571813573526775
1186, 54.51441851802903
1186.4999999999998, 54.51441851802903
1186.9999999999998, 54.5431160457779
1187.4999999999998, 54.65790615677341
1187.9999999999998, 54.65790615677341
1188.4999999999998, 54.68660368452229
1188.9999999999998, 54.68660368452229
1189.4999999999998, 54.715301212271164
1190, 54.60051110127566
1190.5, 54.60051110127566
1191, 54.5431160457779
1191.4999999999998, 54.5431160457779
1191.9999999999998, 54.51441851802903
1192.5, 54.51441851802903
1193, 54.48572099028015
1193.4999999999998, 54.42832593478239
1193.9999999999998, 54.42832593478239
1194.5, 54.34223335153576
1195, 54.34223335153576
1195.4999999999998, 54.313535823786886
1195.9999999999998, 54.37093087928464
1196.5, 54.37093087928464
1196.9999999999998, 54.42832593478239
1197.4999999999998, 54.42832593478239
1197.9999999999998, 54.42832593478239
1198.4999999999998, 54.42832593478239
1198.9999999999998, 54.39962840703352
1199.5, 54.11265312954473
1200, 54.11265312954473
1200.4999999999998, 54.11265312954473
1200.9999999999998, 54.11265312954473
1201.5, 54.0265605462981
1202, 54.0265605462981
1202.4999999999998, 54.0265605462981
1202.9999999999998, 54.05525807404698
1203.4999999999998, 54.05525807404698
1203.9999999999998, 54.05525807404698
1204.5, 54.0265605462981
1204.9999999999998, 54.0265605462981
1205.4999999999998, 54.05525807404698
1205.9999999999998, 54.05525807404698
1206.4999999999998, 54.17004818504249
1207, 54.17004818504249
1207.4999999999998, 54.22744324054025
1207.9999999999998, 54.313535823786886
1208.4999999999998, 54.313535823786886
1209, 54.34223335153576
1209.4999999999998, 54.34223335153576
1209.9999999999998, 54.34223335153576
1210.4999999999998, 54.284838296038004
1211, 54.284838296038004
1211.4999999999998, 54.313535823786886
1211.9999999999998, 54.313535823786886
1212.5, 54.25614076828912
1213, 54.25614076828912
1213.5, 54.22744324054025
1213.9999999999998, 54.17004818504249
1214.4999999999998, 54.17004818504249
1214.9999999999998, 54.11265312954473
1215.5, 54.11265312954473
1216, 54.141350657293614
1216.4999999999998, 54.17004818504249
1216.9999999999998, 54.17004818504249
1217.4999999999998, 54.17004818504249
1217.9999999999998, 54.17004818504249
1218.5, 54.141350657293614
1218.9999999999998, 54.141350657293614
1219.4999999999998, 54.08395560179586
1219.9999999999998, 53.99786301854923
1220.5, 53.99786301854923
1220.9999999999998, 53.96916549080036
1221.4999999999998, 53.96916549080036
1221.9999999999998, 54.0265605462981
1222.4999999999998, 54.05525807404698
1223, 54.05525807404698
1223.4999999999998, 53.940467963051475
1223.9999999999998, 53.940467963051475
1224.4999999999998, 53.82567785205597
1224.9999999999998, 53.82567785205597
1225.4999999999998, 53.82567785205597
1225.9999999999998, 53.883072907553725
1226.4999999999998, 53.883072907553725
1227, 53.96916549080036
1227.5, 53.96916549080036
1227.9999999999998, 53.940467963051475
1228.4999999999998, 53.9117704353026
1228.9999999999998, 53.9117704353026
1229.5, 53.85437537980484
1229.9999999999998, 53.85437537980484
1230.4999999999998, 53.7682827965582
1231, 53.710887741060446
1231.5, 53.710887741060446
1232, 53.710887741060446
1232.4999999999998, 53.710887741060446
1232.9999999999998, 53.68219021331157
1233.4999999999998, 53.68219021331157
1233.9999999999998, 53.653492685562696
1234.4999999999998, 53.53870257456718
1234.9999999999998, 53.53870257456718
1235.4999999999998, 53.510005046818314
1235.9999999999998, 53.510005046818314
1236.4999999999998, 53.3952149358228
1236.9999999999995, 53.30912235257617
1237.4999999999998, 53.30912235257617
1237.9999999999998, 53.30912235257617
1238.4999999999998, 53.30912235257617
1239, 53.366517408073925
1239.4999999999998, 53.366517408073925
1240, 53.59609763006494
1240.5, 53.73958526880933
1241, 53.73958526880933
1241.4999999999998, 53.940467963051475
1241.9999999999998, 53.940467963051475
1242.4999999999998, 53.940467963051475
1242.9999999999998, 53.796980324307086
1243.5, 53.796980324307086
1243.9999999999998, 53.653492685562696
1244.4999999999998, 53.653492685562696
1244.9999999999998, 53.510005046818314
1245.4999999999998, 53.510005046818314
1246, 53.710887741060446
1246.4999999999998, 54.0265605462981
1246.9999999999998, 54.0265605462981
1247.4999999999998, 54.08395560179586
1247.9999999999998, 54.08395560179586
1248.4999999999995, 54.08395560179586
1248.9999999999998, 54.05525807404698
1249.4999999999998, 54.05525807404698
1249.9999999999998, 53.940467963051475
1250.4999999999998, 53.940467963051475
1250.9999999999998, 53.940467963051475
1251.4999999999998, 53.940467963051475
1251.9999999999998, 53.99786301854923
1252.4999999999998, 54.19874571279137
1252.9999999999998, 54.19874571279137
1253.4999999999998, 54.17004818504249
1253.9999999999998, 54.17004818504249
1254.4999999999998, 54.08395560179586
1254.9999999999998, 53.940467963051475
1255.4999999999998, 53.940467963051475
1255.9999999999998, 53.85437537980484
1256.5, 53.85437537980484
1257, 53.85437537980484
1257.4999999999998, 53.940467963051475
1257.9999999999998, 53.940467963051475
1258.4999999999998, 54.0265605462981
1259, 54.0265605462981
1259.5, 54.0265605462981
1259.9999999999998, 54.0265605462981
1260.4999999999998, 54.05525807404698
1260.9999999999998, 54.05525807404698
1261.4999999999998, 54.05525807404698
1262, 54.11265312954473
1262.4999999999998, 54.11265312954473
1262.9999999999998, 54.17004818504249
1263.5, 54.141350657293614
1264, 54.141350657293614
1264.4999999999998, 54.05525807404698
1264.9999999999998, 54.05525807404698
1265.4999999999998, 54.05525807404698
1265.9999999999998, 54.05525807404698
1266.5, 54.141350657293614
1266.9999999999998, 54.22744324054025
1267.4999999999998, 54.22744324054025
1268, 54.22744324054025
1268.5, 54.22744324054025
1268.9999999999998, 54.11265312954473
1269.4999999999998, 54.17004818504249
1269.9999999999998, 54.17004818504249
1270.5, 54.22744324054025
1271, 54.22744324054025
1271.4999999999998, 54.313535823786886
1271.9999999999998, 54.313535823786886
1272.5, 54.37093087928464
1273, 54.37093087928464
1273.4999999999998, 54.37093087928464
1273.9999999999998, 54.34223335153576
1274.4999999999998, 54.34223335153576
1274.9999999999998, 54.313535823786886
1275.5, 54.141350657293614
1275.9999999999998, 54.141350657293614
1276.4999999999998, 54.141350657293614
1277, 54.141350657293614
1277.5, 54.11265312954473
1278, 54.11265312954473
1278.4999999999998, 54.08395560179586
1278.9999999999998, 54.0265605462981
1279.5, 54.0265605462981
1280, 54.0265605462981
1280.4999999999998, 54.0265605462981
1280.9999999999998, 54.17004818504249
1281.4999999999998, 54.11265312954473
1282, 54.11265312954473
1282.5, 53.99786301854923
1282.9999999999998, 53.99786301854923
1283.4999999999998, 53.940467963051475
1284, 53.96916549080036
1284.5, 53.96916549080036
1284.9999999999995, 54.08395560179586
1285.4999999999998, 54.08395560179586
1285.9999999999998, 54.05525807404698
1286.4999999999998, 54.05525807404698
1287, 54.11265312954473
1287.4999999999998, 54.19874571279137
1287.9999999999998, 54.19874571279137
1288.4999999999998, 54.284838296038004
1289, 54.284838296038004
1289.5, 54.37093087928464
1289.9999999999998, 54.17004818504249
1290.4999999999998, 54.17004818504249
1291, 54.141350657293614
1291.5, 54.141350657293614
1291.9999999999998, 54.37093087928464
1292.5, 54.37093087928464
1292.9999999999998, 54.39962840703352
1293.5, 54.39962840703352
1294, 54.39962840703352
1294.4999999999998, 54.313535823786886
1294.9999999999998, 54.313535823786886
1295.5, 54.37093087928464
1295.9999999999998, 54.457023462531275
1296.4999999999995, 54.457023462531275
1297, 54.60051110127566
1297.5, 54.60051110127566
1297.9999999999998, 54.5431160457779
1298.4999999999998, 54.5431160457779
1298.9999999999998, 54.42832593478239
1299.4999999999998, 54.5431160457779
1299.9999999999998, 54.5431160457779
1300.5, 54.60051110127566
1300.9999999999998, 54.60051110127566
1301.5, 54.60051110127566
1301.9999999999998, 54.571813573526775
1302.4999999999998, 54.571813573526775
1302.9999999999998, 54.457023462531275
1303.4999999999995, 54.457023462531275
1303.9999999999998, 54.457023462531275
1304.4999999999998, 54.457023462531275
1304.9999999999998, 54.571813573526775
1305.5, 54.60051110127566
1306, 54.60051110127566
1306.4999999999998, 54.68660368452229
1306.9999999999998, 54.68660368452229
1307.4999999999998, 54.65790615677341
1307.9999999999998, 54.5431160457779
1308.4999999999998, 54.5431160457779
1308.9999999999998, 54.5431160457779
1309.5, 54.5431160457779
1310, 54.51441851802903
1310.5, 54.48572099028015
1311, 54.48572099028015
1311.4999999999998, 54.39962840703352
1311.9999999999998, 54.39962840703352
1312.4999999999998, 54.34223335153576
1313, 54.34223335153576
1313.4999999999998, 54.313535823786886
1314, 54.34223335153576
1314.5, 54.34223335153576
1314.9999999999998, 54.5431160457779
1315.4999999999998, 54.5431160457779
1316, 54.60051110127566
1316.5, 54.60051110127566
1317, 54.60051110127566
1317.4999999999998, 54.5431160457779
1317.9999999999998, 54.5431160457779
1318.5, 54.60051110127566
1319, 54.60051110127566
1319.4999999999998, 54.74399874002004
1319.9999999999998, 54.77269626776892
1320.5, 54.77269626776892
1320.9999999999998, 54.801393795517804
1321.5, 54.801393795517804
1321.9999999999998, 54.77269626776892
1322.4999999999998, 54.85878885101556
1323, 54.85878885101556
1323.5, 54.94488143426219
1323.9999999999998, 54.94488143426219
1324.4999999999998, 54.97357896201107
1324.9999999999998, 54.97357896201107
1325.4999999999998, 55.231856711750964
1326, 55.461436933741986
1326.4999999999998, 55.461436933741986
1326.9999999999998, 55.317949294997604
1327.4999999999998, 55.317949294997604
1328, 55.17446165625321
1328.4999999999995, 55.088369073006575
1328.9999999999998, 55.088369073006575
1329.4999999999998, 55.03097401750882
1330, 55.03097401750882
1330.5, 55.03097401750882
1330.9999999999998, 55.03097401750882
1331.4999999999998, 55.05967154525769
1331.9999999999998, 55.088369073006575
1332.4999999999998, 55.088369073006575
1332.9999999999998, 55.088369073006575
1333.4999999999995, 55.088369073006575
1333.9999999999998, 55.05967154525769
1334.5, 55.17446165625321
1335, 55.17446165625321
1335.4999999999998, 55.20315918400208
1335.9999999999998, 55.20315918400208
1336.4999999999998, 54.97357896201107
1337, 54.887486378764436
1337.5, 54.887486378764436
1338, 54.887486378764436
1338.5, 54.887486378764436
1338.9999999999998, 55.03097401750882
1339.5, 55.03097401750882
1340, 55.145764128504325
1340.4999999999998, 55.231856711750964
1340.9999999999998, 55.231856711750964
1341.5, 55.17446165625321
1342, 55.17446165625321
1342.5, 55.11706660075545
1343, 55.00227648975995
1343.5, 55.00227648975995
1344, 55.03097401750882
1344.5, 55.03097401750882
1344.9999999999998, 55.05967154525769
1345.4999999999998, 55.05967154525769
1345.9999999999998, 55.05967154525769
1346.5, 55.00227648975995
1346.9999999999998, 55.00227648975995
1347.4999999999998, 55.05967154525769
1347.9999999999998, 55.05967154525769
1348.5, 54.94488143426219
1349, 54.887486378764436
1349.5, 54.887486378764436
1349.9999999999998, 54.85878885101556
1350.5, 54.85878885101556
1351, 54.85878885101556
1351.4999999999998, 54.85878885101556
1351.9999999999998, 54.85878885101556
1352.5, 54.65790615677341
1353, 54.65790615677341
1353.5, 54.48572099028015
1354, 54.48572099028015
1354.5, 54.51441851802903
1354.9999999999998, 54.62920862902453
1355.5, 54.62920862902453
1355.9999999999998, 54.77269626776892
1356.4999999999998, 54.77269626776892
1356.9999999999998, 54.85878885101556
1357.5, 54.887486378764436
1358, 54.91618390651332
1358.4999999999998, 54.91618390651332
1359, 54.91618390651332
1359.4999999999998, 54.94488143426219
1360, 54.94488143426219
1360.5, 55.03097401750882
1360.9999999999995, 55.088369073006575
1361.4999999999998, 55.088369073006575
1361.9999999999998, 55.05967154525769
1362.4999999999998, 55.05967154525769
1362.9999999999998, 55.00227648975995
1363.4999999999998, 54.830091323266686
1363.9999999999998, 54.830091323266686
1364.4999999999998, 54.801393795517804
1365, 54.801393795517804
1365.5, 54.74399874002004
1366, 54.74399874002004
1366.4999999999998, 54.715301212271164
1367, 54.60051110127566
1367.4999999999998, 54.60051110127566
1367.9999999999998, 54.51441851802903
1368.5, 54.51441851802903
1369, 54.68660368452229
1369.5, 54.715301212271164
1369.9999999999998, 54.715301212271164
1370.4999999999998, 54.77269626776892
1371, 54.77269626776892
1371.4999999999998, 54.571813573526775
1371.9999999999998, 54.571813573526775
1372.4999999999998, 54.457023462531275
1372.9999999999998, 54.284838296038004
1373.5, 54.284838296038004
1374, 54.37093087928464
1374.4999999999998, 54.37093087928464
1375, 54.34223335153576
1375.5, 54.0265605462981
1376, 54.0265605462981
1376.5, 53.99786301854923
1377, 53.99786301854923
1377.4999999999998, 54.11265312954473
1378, 54.11265312954473
1378.5, 54.22744324054025
1378.9999999999998, 54.25614076828912
1379.5, 54.25614076828912
1379.9999999999998, 54.284838296038004
1380.5, 54.284838296038004
1381, 54.25614076828912
1381.4999999999998, 54.19874571279137
1381.9999999999998, 54.19874571279137
1382.5, 53.99786301854923
1383, 53.99786301854923
1383.4999999999998, 54.0265605462981
1384, 53.99786301854923
1384.5, 53.99786301854923
1385, 53.883072907553725
1385.5, 53.883072907553725
1385.9999999999998, 53.796980324307086
1386.4999999999998, 53.796980324307086
1387, 53.73958526880933
1387.5, 53.7682827965582
1388, 53.7682827965582
1388.4999999999998, 53.796980324307086
1388.9999999999998, 53.796980324307086
1389.5, 53.99786301854923
1390, 53.796980324307086
1390.4999999999998, 53.796980324307086
1391, 53.59609763006494
1391.5, 53.59609763006494
1391.9999999999998, 53.68219021331157
1392.4999999999998, 53.68219021331157
1392.9999999999998, 53.710887741060446
1393.4999999999998, 53.68219021331157
1393.9999999999998, 53.68219021331157
1394.5, 53.59609763006494
1394.9999999999998, 53.59609763006494
1395.5, 53.510005046818314
1396, 53.510005046818314
1396.5, 53.510005046818314
1397, 53.567400102316064
1397.4999999999998, 53.567400102316064
1398, 53.85437537980484
1398.5, 53.85437537980484
