303, 32.76169248437981
303.5, 32.79039001212868
304, 32.79039001212868
304.5, 32.79039001212868
305, 32.79039001212868
305.5, 32.84778506762645
306, 32.84778506762645
306.5, 32.876482595375336
307, 32.9051801231242
307.5, 32.9051801231242
308, 32.96257517862195
308.5, 32.96257517862195
309, 32.99127270637085
309.5, 33.01997023411971
310, 33.01997023411971
310.5, 33.106062817366336
311, 33.106062817366336
311.5, 33.1634578728641
312, 33.1634578728641
312.5, 33.192155400612975
313, 33.192155400612975
313.5, 33.192155400612975
314, 33.22085292836185
314.5, 33.22085292836185
315, 33.249550456110725
315.5, 33.2782479838596
316, 33.2782479838596
316.5, 33.335643039357365
317, 33.335643039357365
317.5, 33.393038094855115
318, 33.450433150352865
318.5, 33.450433150352865
319, 33.50782820585063
319.5, 33.50782820585063
320, 33.53652573359952
320.5, 33.53652573359952
321, 33.53652573359952
321.5, 33.56522326134838
322, 33.56522326134838
322.5, 33.68001337234389
323, 33.68001337234389
323.5, 33.70871090009277
324, 33.76610595559052
324.5, 33.76610595559052
325, 33.82350101108828
325.5, 33.82350101108828
326, 33.82350101108828
326.5, 33.82350101108828
327, 33.82350101108828
327.5, 33.88089606658603
328, 33.88089606658603
328.5, 33.90959359433492
329, 33.90959359433492
329.5, 33.966988649832686
330, 34.024383705330436
330.5, 34.024383705330436
331, 34.08177876082817
331.5, 34.08177876082817
332, 34.139173816325936
332.5, 34.139173816325936
333, 34.22526639957256
333.5, 34.25396392732145
334, 34.25396392732145
334.5, 34.282661455070325
335, 34.282661455070325
335.5, 34.34005651056809
336, 34.36875403831695
336.5, 34.36875403831695
337, 34.426149093814715
337.5, 34.426149093814715
338, 34.483544149312465
338.5, 34.483544149312465
339, 34.540939204810215
339.5, 34.540939204810215
340, 34.540939204810215
340.5, 34.59833426030798
341, 34.59833426030798
341.5, 34.65572931580573
342, 34.71312437130348
342.5, 34.71312437130348
343, 34.82791448229901
343.5, 34.82791448229901
344, 34.85661201004787
344.5, 34.85661201004787
345, 34.88530953779677
345.5, 34.91400706554563
346, 34.91400706554563
346.5, 35.00009964879227
347, 35.00009964879227
347.5, 35.00009964879227
348, 35.057494704290036
348.5, 35.057494704290036
349, 35.14358728753665
349.5, 35.14358728753665
350, 35.20098234303441
350.5, 35.315772454029926
351, 35.315772454029926
351.5, 35.40186503727655
352, 35.40186503727655
352.5, 35.43056256502544
353, 35.43056256502544
353.5, 35.43056256502544
354, 35.48795762052319
354.5, 35.48795762052319
355, 35.51665514827205
355.5, 35.51665514827205
356, 35.631445259267565
356.5, 35.68884031476533
357, 35.68884031476533
357.5, 35.774932898011954
358, 35.774932898011954
358.5, 35.80363042576084
359, 35.80363042576084
359.5, 35.832327953509704
360, 35.91842053675636
360.5, 35.91842053675636
361, 35.97581559225411
361.5, 35.97581559225411
362, 36.09060570324961
362.5, 36.11930323099848
363, 36.11930323099848
363.5, 36.11930323099848
364, 36.11930323099848
364.5, 36.14800075874736
365, 36.14800075874736
365.5, 36.26279086974287
366, 36.348883452989504
366.5, 36.348883452989504
367, 36.43497603623615
367.5, 36.43497603623615
368, 36.46367356398502
368.5, 36.52106861948278
369, 36.52106861948278
369.5, 36.60716120272941
370, 36.60716120272941
370.5, 36.66455625822716
371, 36.66455625822716
371.5, 36.808043896971554
372, 36.95153153571594
372.5, 36.95153153571594
373, 37.0089265912137
373.5, 37.0089265912137
374, 37.095019174460326
374.5, 37.18111175770696
375, 37.18111175770696
375.5, 37.23850681320472
376, 37.23850681320472
376.5, 37.26720434095359
377, 37.26720434095359
377.5, 37.324599396451354
378, 37.35329692420022
378.5, 37.35329692420022
379, 37.41069197969799
379.5, 37.41069197969799
380, 37.46808703519574
380.5, 37.611574673940126
381, 37.611574673940126
381.5, 37.69766725718676
382, 37.69766725718676
382.5, 37.78375984043339
383, 37.86985242368002
383.5, 37.86985242368002
384, 37.955945006926655
384.5, 37.955945006926655
385, 38.042037590173294
385.5, 38.042037590173294
386, 38.156827701168794
386.5, 38.21422275666656
387, 38.21422275666656
387.5, 38.30031533991319
388, 38.30031533991319
388.5, 38.38640792315982
389, 38.44380297865757
389.5, 38.44380297865757
390, 38.50119803415534
390.5, 38.50119803415534
391, 38.615988145150844
391.5, 38.615988145150844
392, 38.673383200648594
392.5, 38.78817331164411
393, 38.78817331164411
393.5, 38.84556836714186
394, 38.84556836714186
394.5, 38.93166095038849
395, 39.01775353363513
395.5, 39.01775353363513
396, 39.16124117237951
396.5, 39.16124117237951
397, 39.30472881112391
397.5, 39.30472881112391
398, 39.41951892211941
398.5, 39.5630065608638
399, 39.5630065608638
399.5, 39.73519172735706
400, 39.73519172735706
400.5, 39.821284310603694
401, 39.849981838352576
401.5, 39.849981838352576
402, 39.907376893850326
402.5, 39.907376893850326
403, 39.993469477096966
403.5, 39.993469477096966
404, 40.0795620603436
404.5, 40.16565464359023
405, 40.16565464359023
405.5, 40.25174722683686
406, 40.25174722683686
406.5, 40.337839810083494
407, 40.423932393330126
407.5, 40.423932393330126
408, 40.510024976576766
408.5, 40.510024976576766
408.99999999999994, 40.624815087572266
409.5, 40.624815087572266
410, 40.7109076708189
410.5, 40.854395309563294
411, 40.854395309563294
411.5, 40.997882948307684
412, 40.997882948307684
412.5, 41.1126730593032
413, 41.2274631702987
413.5, 41.2274631702987
414, 41.31355575354533
414.5, 41.31355575354533
415, 41.428345864540844
415.5, 41.54313597553636
416, 41.54313597553636
416.5, 41.600531031034116
417, 41.600531031034116
417.5, 41.657926086531866
418, 41.657926086531866
418.5, 41.7440186697785
419, 41.858808780774005
419.5, 41.858808780774005
420, 41.97359889176952
420.5, 41.97359889176952
421, 42.088389002765034
421.5, 42.14578405826279
422, 42.14578405826279
422.5, 42.289271697007166
422.99999999999994, 42.289271697007166
423.5, 42.40406180800268
424, 42.40406180800268
424.49999999999994, 42.54754944674708
425, 42.719734613240334
425.5, 42.719734613240334
426, 42.86322225198472
426.5, 42.86322225198472
427, 42.92061730748248
427.5, 43.035407418477995
428, 43.035407418477995
428.5, 43.09280247397575
429, 43.09280247397575
429.5, 43.23629011272013
430, 43.23629011272013
430.5, 43.379777751464516
431, 43.52326539020891
431.5, 43.52326539020891
432, 43.724148084451045
432.5, 43.724148084451045
433, 43.810240667697684
433.5, 43.896333250944316
434, 43.896333250944316
434.5, 43.95372830644207
435, 43.95372830644207
435.5, 44.01112336193983
436, 44.01112336193983
436.5, 44.125913472935345
437, 44.32679616717748
437.5, 44.32679616717748
438, 44.441586278173
438.5, 44.441586278173
439, 44.52767886141963
439.5, 44.58507391691738
440, 44.58507391691738
440.5, 44.671166500164006
441, 44.671166500164006
441.5, 44.814654138908395
442, 44.814654138908395
442.5, 44.95814177765279
443, 45.0729318886483
443.5, 45.0729318886483
444, 45.187721999643806
444.5, 45.187721999643806
445, 45.331209638388195
445.5, 45.50339480488147
446, 45.50339480488147
446.5, 45.5894873881281
447, 45.5894873881281
447.5, 45.618184915876974
448, 45.618184915876974
448.5, 45.646882443625856
449, 45.761672554621356
449.5, 45.761672554621356
450, 45.84776513786799
450.5, 45.84776513786799
451, 45.991252776612384
451.5, 46.1060428876079
452, 46.1060428876079
452.5, 46.249530526352274
453, 46.249530526352274
453.5, 46.36432063734779
454, 46.45041322059443
454.5, 46.45041322059443
455, 46.59390085933882
455.5, 46.59390085933882
456, 46.70869097033432
456.49999999999994, 46.70869097033432
457, 46.82348108132983
457.5, 46.938271192325345
458, 46.938271192325345
458.5, 47.02436377557198
459, 47.02436377557198
459.5, 47.16785141431636
460, 47.196548942065235
460.5, 47.196548942065235
461, 47.22524646981412
461.5, 47.22524646981412
462, 47.340036580809624
462.5, 47.340036580809624
463, 47.454826691805145
463.5, 47.62701185829841
464, 47.62701185829841
464.5, 47.79919702479167
465, 47.79919702479167
465.5, 47.91398713578718
466, 48.028777246782695
466.5, 48.028777246782695
467, 48.17226488552708
467.5, 48.17226488552708
468, 48.287054996522585
468.5, 48.287054996522585
469, 48.43054263526698
469.5, 48.48793769076474
470, 48.48793769076474
470.5, 48.63142532950911
471, 48.63142532950911
471.5, 48.803610496002385
472, 48.9184006069979
472.5, 48.9184006069979
473, 49.06188824574229
473.5, 49.06188824574229
474, 49.34886352323106
474.5, 49.34886352323106
475, 49.549746217473206
475.5, 49.66453632846871
476, 49.66453632846871
476.5, 49.75062891171534
477, 49.75062891171534
477.5, 49.83672149496198
478, 50.00890666145525
478.5, 50.00890666145525
479, 50.18109182794851
479.5, 50.18109182794851
480, 50.35327699444178
480.5, 50.35327699444178
481, 50.49676463318617
481.5, 50.64025227193055
482, 50.64025227193055
482.5, 50.812437438423814
483, 50.812437438423814
483.5, 50.89853002167045
484, 50.984622604917085
484.5, 50.984622604917085
485, 51.185505299159225
485.5, 51.185505299159225
486, 51.357690465652496
486.5, 51.357690465652496
487, 51.472480576648
487.5, 51.52987563214576
487.99999999999994, 51.52987563214576
488.5, 51.58727068764351
489, 51.58727068764351
489.5, 51.70206079863902
489.99999999999994, 51.845548437383414
490.5, 51.845548437383414
491, 51.90294349288117
491.5, 51.90294349288117
492, 52.01773360387668
492.5, 52.13252371487218
493, 52.189918770369935
493.5, 52.33340640911433
494, 52.33340640911433
494.5, 52.419498992360964
495, 52.419498992360964
495.5, 52.419498992360964
496, 52.419498992360964
496.5, 52.419498992360964
497, 52.44819652010984
497.5, 52.44819652010984
498, 52.47689404785872
498.5, 52.53428910335648
499, 52.53428910335648
499.5, 52.562986631105346
500, 52.562986631105346
500.5, 52.562986631105346
501, 52.562986631105346
501.5, 52.505591575607596
502, 52.505591575607596
502.5, 52.505591575607596
503, 52.47689404785872
503.5, 52.47689404785872
504, 52.419498992360964
504.5, 52.39080146461209
505, 52.39080146461209
505.5, 52.24731382586769
506, 52.24731382586769
506.49999999999994, 52.13252371487218
507, 52.13252371487218
507.5, 51.96033854837892
508, 51.78815338188565
508.49999999999994, 51.78815338188565
509, 51.67336327089014
509.5, 51.67336327089014
509.99999999999994, 51.55857315989463
510.49999999999994, 51.472480576648
511, 51.472480576648
511.5, 51.357690465652496
512, 51.357690465652496
512.5, 51.2142028269081
513, 51.2142028269081
513.5, 50.95592507716821
514, 50.812437438423814
514.5, 50.812437438423814
515, 50.61155474418167
515.5, 50.61155474418167
516, 50.410672049939535
516.5, 50.09499924470188
517, 50.09499924470188
517.5, 50.00890666145525
518, 50.00890666145525
518.4999999999999, 49.83672149496198
519, 49.75062891171534
519.5, 49.75062891171534
520, 49.549746217473206
520.5, 49.549746217473206
521, 49.37756105097994
521.5, 49.37756105097994
522, 49.234073412235546
522.4999999999999, 49.00449319024453
523, 49.00449319024453
523.5, 48.803610496002385
524, 48.803610496002385
524.5, 48.63142532950911
525, 48.48793769076474
525.5, 48.48793769076474
526, 48.43054263526698
526.5, 48.43054263526698
527, 48.34445005202034
527.5, 48.34445005202034
528, 48.22965994102483
528.5, 48.17226488552708
529, 48.17226488552708
529.5, 48.086172302280445
530, 48.086172302280445
530.5, 48.00007971903381
531, 47.91398713578718
531.5, 47.91398713578718
532, 47.770499497042785
532.5, 47.770499497042785
533, 47.74180196929391
533.5, 47.713104441545035
534, 47.713104441545035
534.5, 47.770499497042785
535, 47.770499497042785
535.5, 47.79919702479167
536, 47.79919702479167
536.5, 47.713104441545035
537, 47.62701185829841
537.5, 47.62701185829841
538, 47.56961680280065
538.5, 47.56961680280065
539, 47.62701185829841
539.5, 47.62701185829841
540, 47.62701185829841
540.5, 47.59831433054953
541, 47.59831433054953
541.5, 47.62701185829841
542, 47.62701185829841
542.5, 47.68440691379615
543, 47.82789455254054
543.5, 47.82789455254054
544, 47.856592080289424
544.5, 47.856592080289424
545, 47.885289608038306
545.5, 47.94268466353606
546, 47.94268466353606
546.5, 48.00007971903381
547, 48.00007971903381
547.5, 48.086172302280445
548, 48.086172302280445
548.5, 48.143567357778196
549, 48.20096241327595
549.5, 48.20096241327595
550, 48.287054996522585
550.5, 48.287054996522585
551, 48.34445005202034
551.5, 48.4018451075181
552, 48.4018451075181
552.5, 48.43054263526698
552.9999999999999, 48.43054263526698
553.5, 48.459240163015856
554, 48.459240163015856
554.5, 48.51663521851361
555, 48.68882038500687
555.5, 48.68882038500687
556, 48.803610496002385
556.5, 48.803610496002385
557, 48.889703079249024
557.5, 48.86100555150014
558, 48.86100555150014
558.5, 48.86100555150014
559, 48.86100555150014
559.5, 48.947098134746774
560, 48.975795662495656
560.5, 49.00449319024453
561, 49.11928330124003
561.5, 49.11928330124003
562, 49.14798082898891
562.5, 49.14798082898891
563, 49.11928330124003
563.5, 49.06188824574229
564, 49.06188824574229
564.5, 49.14798082898891
565, 49.14798082898891
565.5, 49.17667835673779
566, 49.17667835673779
566.5, 49.17667835673779
567, 49.11928330124003
567.5, 49.11928330124003
568, 49.09058577349116
568.5, 49.09058577349116
569, 49.00449319024453
569.5, 48.889703079249024
570, 48.889703079249024
570.5, 48.68882038500687
571, 48.68882038500687
571.5, 48.57403027401137
572, 48.373147579769224
572.5, 48.373147579769224
573, 48.20096241327595
573.4999999999999, 48.20096241327595
574, 48.028777246782695
574.5, 48.028777246782695
575, 47.91398713578718
575.5, 47.74180196929391
576, 47.74180196929391
576.5, 47.56961680280065
577, 47.56961680280065
577.5, 47.368734108558506
578, 47.13915388656749
578.5, 47.13915388656749
579, 46.9956662478231
579.5, 46.9956662478231
580, 46.79478355358095
580.5, 46.53650580384106
581, 46.53650580384106
581.5, 46.335623109598906
582, 46.335623109598906
582.5, 46.1060428876079
583, 46.1060428876079
583.5, 45.90516019336575
584, 45.73297502687248
584.5, 45.73297502687248
585, 45.44599974938371
585.5, 45.44599974938371
586, 45.27381458289044
586.5, 45.0729318886483
587, 45.0729318886483
587.5, 44.814654138908395
588, 44.814654138908395
588.5, 44.556376389168506
589, 44.556376389168506
589.5, 44.35549369492635
590, 44.125913472935345
590.5, 44.125913472935345
591, 43.9250307786932
591.5, 43.9250307786932
592, 43.63805550120442
592.5, 43.35108022371564
593, 43.35108022371564
593.5, 43.1501975294735
594, 43.1501975294735
594.5, 42.94931483523136
595, 42.83452472423584
595.5, 42.83452472423584
596, 42.57624697449595
596.5, 42.57624697449595
597, 42.26057416925829
597.5, 42.26057416925829
598, 42.11708653051391
598.5, 41.97359889176952
599, 41.97359889176952
599.5, 41.858808780774005
600, 41.858808780774005
600.5, 41.715321142029616
601, 41.45704339228973
601.5, 41.45704339228973
602, 41.25616069804758
602.5, 41.25616069804758
603, 41.1126730593032
603.5, 41.1126730593032
604, 40.911790365061044
604.4999999999999, 40.7109076708189
604.9999999999999, 40.7109076708189
605.5, 40.538722504325634
606, 40.538722504325634
606.5, 40.337839810083494
607, 40.19435217133911
607.5, 40.19435217133911
608, 40.0795620603436
608.5, 40.0795620603436
609, 39.93607442159921
609.5, 39.93607442159921
610, 39.821284310603694
610.5, 39.67779667185931
611, 39.67779667185931
611.5, 39.53430903311493
612, 39.53430903311493
612.5, 39.47691397761717
613, 39.47691397761717
613.5, 39.47691397761717
614, 39.41951892211941
614.5, 39.41951892211941
615, 39.30472881112391
615.5, 39.189938700128394
616, 39.189938700128394
616.5, 39.07514858913288
617, 39.07514858913288
617.5, 38.93166095038849
618, 38.93166095038849
618.5, 38.87426589489074
619, 38.81687083939299
619.5, 38.81687083939299
620, 38.673383200648594
620.5, 38.673383200648594
621, 38.58729061740196
621.5, 38.415105450908705
622, 38.415105450908705
622.5, 38.35771039541094
623, 38.35771039541094
623.5, 38.32901286766206
624, 38.32901286766206
624.4999999999999, 38.27161781216431
625, 38.21422275666656
625.5, 38.21422275666656
626, 38.156827701168794
626.5, 38.156827701168794
627, 38.099432645671044
627.5, 38.07073511792216
628, 38.07073511792216
628.5, 38.07073511792216
629, 38.07073511792216
629.5, 38.07073511792216
630, 38.07073511792216
630.5, 38.07073511792216
631, 37.98464253467554
631.5, 37.98464253467554
632, 37.86985242368002
632.5, 37.86985242368002
633, 37.72636478493564
633.5, 37.668969729437876
634, 37.668969729437876
634.5, 37.64027220168901
635, 37.64027220168901
635.5, 37.582877146191244
636, 37.49678456294462
636.5, 37.49678456294462
637, 37.439389507446855
637.5, 37.439389507446855
638, 37.35329692420022
638.5, 37.35329692420022
639, 37.29590186870247
639.5, 37.26720434095359
640, 37.26720434095359
640.5, 37.26720434095359
641, 37.26720434095359
641.5, 37.26720434095359
642, 37.23850681320472
642.5, 37.23850681320472
643, 37.23850681320472
643.5, 37.23850681320472
644, 37.23850681320472
644.5, 37.23850681320472
645, 37.20980928545584
645.5, 37.18111175770696
646, 37.18111175770696
646.5, 37.15241422995809
647, 37.15241422995809
647.5, 37.64027220168901
648, 37.554179618442376
648.5, 37.554179618442376
649, 37.41069197969799
649.5, 37.41069197969799
650, 37.06632164671146
650.5, 37.06632164671146
651, 37.037624118962576
651.5, 37.095019174460326
652, 37.095019174460326
652.5, 37.06632164671146
653, 37.06632164671146
653.5, 37.06632164671146
654, 37.095019174460326
654.5, 37.095019174460326
655, 37.037624118962576
655.5, 37.037624118962576
656, 37.0089265912137
656.5, 36.98022906346482
657, 36.98022906346482
657.5, 36.98022906346482
658, 36.98022906346482
658.5, 36.98022906346482
659, 36.98022906346482
659.5, 37.0089265912137
660, 37.037624118962576
660.5, 37.037624118962576
661, 37.037624118962576
661.5, 37.037624118962576
662, 37.037624118962576
662.5, 37.0089265912137
663, 37.0089265912137
663.5, 36.92283400796707
664, 36.92283400796707
664.5, 36.92283400796707
665, 36.92283400796707
665.5, 36.92283400796707
666, 36.865438952469304
666.5, 36.865438952469304
667, 36.89413648021819
667.5, 36.89413648021819
668, 36.98022906346482
668.5, 36.98022906346482
669, 36.98022906346482
669.5, 36.95153153571594
670, 36.95153153571594
670.5, 36.89413648021819
671, 36.89413648021819
671.5, 36.77934636922267
672, 36.750648841473804
672.5, 36.750648841473804
673, 36.77934636922267
673.5, 36.77934636922267
674, 36.83674142472044
674.5, 36.95153153571594
675, 36.95153153571594
675.5, 37.06632164671146
676, 37.06632164671146
676.5, 37.12371670220921
677, 37.12371670220921
677.5, 37.18111175770696
678, 37.23850681320472
678.5, 37.23850681320472
679, 37.324599396451354
679.5, 37.324599396451354
680, 37.439389507446855
680.5, 37.49678456294462
681, 37.49678456294462
681.5, 37.525482090693494
682, 37.525482090693494
682.5, 37.525482090693494
683, 37.49678456294462
683.5, 37.49678456294462
683.9999999999999, 37.46808703519574
684.5, 37.46808703519574
685, 37.46808703519574
685.5, 37.46808703519574
686, 37.49678456294462
686.5, 37.611574673940126
687, 37.611574673940126
687.5, 37.611574673940126
688, 37.611574673940126
688.5, 37.64027220168901
689, 37.69766725718676
689.5, 37.69766725718676
690, 37.69766725718676
690.5, 37.69766725718676
691, 37.72636478493564
691.5, 37.72636478493564
692, 37.69766725718676
692.5, 37.72636478493564
693, 37.72636478493564
693.5, 37.78375984043339
694, 37.78375984043339
694.5, 37.84115489593114
695, 37.955945006926655
695.5, 37.955945006926655
696, 38.01334006242441
696.5, 38.01334006242441
697, 38.128130173419926
697.5, 38.128130173419926
698, 38.156827701168794
698.5, 38.156827701168794
699, 38.156827701168794
699.5, 38.185525228917676
700, 38.185525228917676
700.5, 38.156827701168794
701, 38.185525228917676
701.5, 38.185525228917676
702, 38.242920284415426
702.5, 38.242920284415426
702.9999999999999, 38.27161781216431
703.4999999999999, 38.27161781216431
704, 38.30031533991319
704.5, 38.35771039541094
705, 38.35771039541094
705.5, 38.415105450908705
706, 38.415105450908705
706.5, 38.44380297865757
707, 38.44380297865757
707.5, 38.44380297865757
708, 38.472500506406455
708.5, 38.472500506406455
709, 38.50119803415534
709.5, 38.472500506406455
710, 38.472500506406455
710.4999999999999, 38.50119803415534
710.9999999999999, 38.50119803415534
711.4999999999999, 38.50119803415534
712, 38.50119803415534
712.5, 38.415105450908705
713, 38.415105450908705
713.5, 38.415105450908705
714, 38.415105450908705
714.5, 38.415105450908705
714.9999999999999, 38.50119803415534
715.5, 38.52989556190421
716, 38.52989556190421
716.5, 38.55859308965308
717, 38.55859308965308
717.5, 38.55859308965308
717.9999999999999, 38.55859308965308
718.4999999999999, 38.55859308965308
718.9999999999999, 38.472500506406455
719.4999999999999, 38.472500506406455
720, 38.415105450908705
720.5, 38.415105450908705
721, 38.415105450908705
721.5, 38.472500506406455
722, 38.472500506406455
722.5, 38.472500506406455
722.9999999999999, 38.472500506406455
723.5, 38.472500506406455
723.9999999999999, 38.472500506406455
724.5, 38.52989556190421
725, 38.55859308965308
725.5, 38.55859308965308
726, 38.615988145150844
726.4999999999999, 38.615988145150844
726.9999999999999, 38.615988145150844
727.5, 38.64468567289971
728, 38.64468567289971
728.4999999999998, 38.673383200648594
728.9999999999999, 38.673383200648594
729.5, 38.759475783895226
730, 38.759475783895226
730.5, 38.81687083939299
730.9999999999999, 38.78817331164411
731.5, 38.78817331164411
732, 38.64468567289971
732.5, 38.64468567289971
732.9999999999998, 38.615988145150844
733.4999999999999, 38.615988145150844
734, 38.615988145150844
734.5, 38.58729061740196
735, 38.58729061740196
735.4999999999999, 38.52989556190421
736, 38.50119803415534
736.5, 38.50119803415534
737, 38.472500506406455
737.5, 38.472500506406455
738, 38.50119803415534
738.5, 38.50119803415534
739, 38.50119803415534
739.5, 38.50119803415534
740, 38.50119803415534
740.5, 38.472500506406455
740.9999999999999, 38.472500506406455
741.5, 38.52989556190421
742, 38.58729061740196
742.5, 38.58729061740196
743, 38.58729061740196
743.5, 38.58729061740196
744, 38.58729061740196
744.4999999999999, 38.58729061740196
745, 38.55859308965308
745.5, 38.50119803415534
746, 38.50119803415534
746.5, 38.35771039541094
746.9999999999999, 38.35771039541094
747.5, 38.30031533991319
748, 38.30031533991319
748.5, 38.30031533991319
748.9999999999999, 38.27161781216431
749.4999999999999, 38.27161781216431
750, 38.27161781216431
750.4999999999999, 38.27161781216431
751, 38.242920284415426
751.5, 38.042037590173294
752, 38.042037590173294
752.4999999999999, 37.78375984043339
752.9999999999999, 37.78375984043339
753.5, 37.72636478493564
754, 37.668969729437876
754.5, 37.668969729437876
754.9999999999999, 37.64027220168901
755.5, 37.64027220168901
755.9999999999999, 37.582877146191244
756.4999999999999, 37.582877146191244
757, 37.668969729437876
757.5, 37.72636478493564
758, 37.72636478493564
758.5, 37.72636478493564
759, 37.72636478493564
759.5, 37.668969729437876
759.9999999999999, 37.582877146191244
760.4999999999998, 37.582877146191244
761, 37.554179618442376
761.5, 37.554179618442376
762, 37.49678456294462
762.5, 37.35329692420022
763, 37.35329692420022
763.5, 37.26720434095359
763.9999999999999, 37.26720434095359
764.5, 37.18111175770696
765, 37.18111175770696
765.4999999999999, 37.12371670220921
766, 37.095019174460326
766.5, 37.095019174460326
767, 37.037624118962576
767.5, 37.037624118962576
768, 36.92283400796707
768.5, 36.92283400796707
769, 36.92283400796707
769.5, 36.89413648021819
770, 36.89413648021819
770.5, 36.750648841473804
770.9999999999999, 36.750648841473804
771.5, 36.60716120272941
771.9999999999999, 36.43497603623615
772.4999999999999, 36.43497603623615
773, 36.29148839749176
773.4999999999999, 36.29148839749176
774, 36.20539581424512
774.5, 36.11930323099848
775, 36.11930323099848
775.4999999999999, 36.00451312000298
776, 36.00451312000298
776.4999999999999, 35.88972300900747
777, 35.80363042576084
777.5, 35.68884031476533
777.9999999999999, 35.66014278701644
778.5, 35.66014278701644
778.9999999999998, 35.60274773151869
779.4999999999999, 35.60274773151869
779.9999999999999, 35.574050203769815
780.5, 35.51665514827205
781, 35.51665514827205
781.5, 35.43056256502544
782, 35.43056256502544
782.4999999999999, 35.20098234303441
783, 35.11488975978777
783.5, 35.11488975978777
784, 34.97140212104338
784.5, 34.97140212104338
785, 34.85661201004787
785.5, 34.85661201004787
786, 34.71312437130348
786.5, 34.684426843554604
786.9999999999999, 34.684426843554604
787.5, 34.627031788056854
787.9999999999999, 34.627031788056854
788.5, 34.483544149312465
789, 34.36875403831695
789.5, 34.36875403831695
790, 34.25396392732145
790.4999999999999, 34.25396392732145
791, 34.11047628857706
791.4999999999999, 34.11047628857706
791.9999999999999, 33.9382911220838
792.5, 33.88089606658603
793, 33.88089606658603
793.5, 33.79480348333941
793.9999999999999, 33.79480348333941
794.5, 33.79480348333941
795, 33.76610595559052
795.5, 33.76610595559052
795.9999999999998, 33.68001337234389
796.4999999999999, 33.68001337234389
797, 33.56522326134838
797.5, 33.450433150352865
797.9999999999998, 33.450433150352865
798.4999999999998, 33.421735622604004
798.9999999999998, 33.421735622604004
799.4999999999998, 33.364340567106254
799.9999999999998, 33.364340567106254
800.5, 33.30694551160849
801, 33.22085292836185
801.4999999999998, 33.22085292836185
801.9999999999998, 33.13476034511521
802.4999999999998, 33.13476034511521
803, 33.0486677618686
803.4999999999998, 32.99127270637085
804, 32.99127270637085
804.4999999999998, 32.96257517862195
804.9999999999998, 32.96257517862195
805.5, 32.96257517862195
805.9999999999998, 32.96257517862195
806.5, 32.933877650873086
806.9999999999998, 32.84778506762645
807.4999999999998, 32.84778506762645
808, 32.81908753987757
808.5, 32.81908753987757
809, 32.81908753987757
809.4999999999998, 32.84778506762645
810, 32.84778506762645
810.5, 32.81908753987757
811, 32.81908753987757
811.4999999999998, 32.76169248437981
811.9999999999998, 32.76169248437981
812.4999999999998, 32.67559990113318
813, 32.70429742888206
813.5, 32.70429742888206
814, 32.73299495663093
814.5, 32.73299495663093
814.9999999999998, 32.70429742888206
815.5, 32.70429742888206
815.9999999999998, 32.70429742888206
816.5, 32.70429742888206
817, 32.70429742888206
817.4999999999998, 32.76169248437981
818, 32.76169248437981
818.4999999999998, 32.76169248437981
819, 32.73299495663093
819.5, 32.73299495663093
819.9999999999998, 32.76169248437981
820.4999999999998, 32.76169248437981
820.9999999999998, 32.76169248437981
821.5, 32.73299495663093
822, 32.73299495663093
822.5, 32.73299495663093
823, 32.73299495663093
823.5, 32.81908753987757
823.9999999999998, 32.84778506762645
824.4999999999998, 32.84778506762645
825, 32.933877650873086
825.5, 32.933877650873086
826, 33.07736528961746
826.4999999999998, 33.07736528961746
826.9999999999998, 33.106062817366336
827.4999999999998, 33.07736528961746
828, 33.07736528961746
828.5, 32.99127270637085
829, 32.99127270637085
829.5, 32.99127270637085
829.9999999999998, 32.96257517862195
830.5, 32.96257517862195
830.9999999999998, 32.99127270637085
831.5, 32.99127270637085
831.9999999999998, 33.07736528961746
832.5, 33.07736528961746
832.9999999999998, 33.13476034511521
833.4999999999998, 33.13476034511521
833.9999999999998, 33.13476034511521
834.4999999999998, 33.1634578728641
835, 33.1634578728641
835.4999999999998, 33.13476034511521
835.9999999999998, 33.106062817366336
836.4999999999998, 33.106062817366336
836.9999999999998, 33.13476034511521
837.4999999999998, 33.13476034511521
837.9999999999998, 33.13476034511521
838.4999999999998, 33.13476034511521
838.9999999999998, 33.1634578728641
839.4999999999998, 33.13476034511521
839.9999999999998, 33.13476034511521
840.4999999999998, 33.1634578728641
841, 33.1634578728641
841.4999999999998, 33.249550456110725
842, 33.364340567106254
842.4999999999998, 33.364340567106254
843, 33.450433150352865
843.4999999999998, 33.450433150352865
844, 33.50782820585063
844.5, 33.50782820585063
844.9999999999998, 33.47913067810177
845.5, 33.50782820585063
846, 33.50782820585063
846.5, 33.53652573359952
846.9999999999998, 33.53652573359952
847.5, 33.62261831684614
847.9999999999998, 33.73740842784164
848.4999999999998, 33.73740842784164
848.9999999999998, 33.79480348333941
849.4999999999998, 33.79480348333941
849.9999999999998, 33.79480348333941
850.4999999999998, 33.76610595559052
851, 33.76610595559052
851.4999999999998, 33.79480348333941
851.9999999999998, 33.79480348333941
852.5, 33.85219853883717
853, 33.85219853883717
853.5, 33.88089606658603
853.9999999999998, 33.90959359433492
854.4999999999998, 33.90959359433492
854.9999999999998, 33.99568617758155
855.4999999999998, 33.99568617758155
856, 34.08177876082817
856.5, 34.16787134407481
857, 34.16787134407481
857.4999999999998, 34.25396392732145
857.9999999999998, 34.25396392732145
858.4999999999998, 34.34005651056809
859, 34.34005651056809
859.4999999999998, 34.426149093814715
859.9999999999998, 34.483544149312465
860.5, 34.483544149312465
861, 34.540939204810215
861.5, 34.540939204810215
861.9999999999998, 34.59833426030798
862.5, 34.627031788056854
862.9999999999998, 34.627031788056854
863.4999999999998, 34.684426843554604
864, 34.684426843554604
864.4999999999998, 34.71312437130348
865, 34.71312437130348
865.4999999999998, 34.79921695455012
866, 34.97140212104338
866.5, 34.97140212104338
867, 35.0861922320389
867.4999999999998, 35.0861922320389
868, 35.11488975978777
868.4999999999998, 35.14358728753665
868.9999999999998, 35.14358728753665
869.4999999999998, 35.14358728753665
869.9999999999998, 35.14358728753665
870.5, 35.20098234303441
870.9999999999998, 35.20098234303441
871.4999999999998, 35.37316750952769
872, 35.48795762052319
872.4999999999998, 35.48795762052319
873, 35.545352676020954
873.5, 35.545352676020954
873.9999999999998, 35.631445259267565
874.4999999999998, 35.86102548125861
874.9999999999998, 35.86102548125861
875.4999999999998, 36.09060570324961
875.9999999999998, 36.09060570324961
876.4999999999998, 36.17669828649623
876.9999999999998, 36.17669828649623
877.5, 36.348883452989504
877.9999999999998, 36.4923710917339
878.4999999999998, 36.4923710917339
879, 36.66455625822716
879.5, 36.66455625822716
880, 36.77934636922267
880.5, 37.037624118962576
881, 37.037624118962576
881.5, 37.23850681320472
882, 37.23850681320472
882.4999999999998, 37.525482090693494
882.9999999999998, 37.554179618442376
883.4999999999998, 37.554179618442376
883.9999999999998, 37.64027220168901
884.4999999999998, 37.64027220168901
884.9999999999998, 37.668969729437876
885.5, 37.668969729437876
885.9999999999998, 37.898549951428905
886.4999999999998, 38.01334006242441
886.9999999999998, 38.01334006242441
887.5, 38.042037590173294
888, 38.042037590173294
888.4999999999998, 38.156827701168794
889, 38.07073511792216
889.4999999999998, 38.07073511792216
889.9999999999998, 38.01334006242441
890.4999999999998, 38.01334006242441
891, 38.156827701168794
891.5, 38.156827701168794
891.9999999999998, 38.21422275666656
892.5, 38.32901286766206
892.9999999999998, 38.32901286766206
893.5, 38.50119803415534
894, 38.50119803415534
894.4999999999998, 38.702080728397476
894.9999999999998, 38.81687083939299
895.4999999999998, 38.81687083939299
896, 39.132543644630644
896.4999999999998, 39.132543644630644
897, 39.276031283375026
897.5, 39.276031283375026
898, 39.62040161636156
898.4999999999998, 39.821284310603694
898.9999999999998, 39.821284310603694
899.4999999999998, 39.93607442159921
899.9999999999998, 39.93607442159921
900.4999999999998, 40.280444754585744
900.9999999999998, 40.45262992107901
901.5, 40.45262992107901
902, 40.797000254065544
902.5, 40.797000254065544
902.9999999999998, 41.02658047605655
903.4999999999998, 41.02658047605655
903.9999999999998, 41.370950809043094
904.5, 41.657926086531866
905, 41.657926086531866
905.5, 41.88750630852288
906, 41.88750630852288
906.4999999999998, 42.05969147501615
907, 42.40406180800268
907.5, 42.40406180800268
908, 42.719734613240334
908.5, 42.719734613240334
908.9999999999998, 43.06410494622687
909.5, 43.06410494622687
909.9999999999998, 43.4084752792134
910.4999999999998, 43.69545055670217
910.9999999999998, 43.69545055670217
911.5, 43.95372830644207
912, 43.95372830644207
912.4999999999998, 44.21200605618197
913, 44.412888750424116
913.4999999999998, 44.412888750424116
914, 44.72856155566176
914.4999999999998, 44.72856155566176
914.9999999999998, 45.044234360899424
915.5, 45.044234360899424
916, 45.417302221634834
916.4999999999998, 45.90516019336575
916.9999999999998, 45.90516019336575
917.5, 46.2208329986034
917.9999999999998, 46.2208329986034
918.5, 46.565203331589935
918.9999999999998, 46.938271192325345
919.4999999999998, 46.938271192325345
920, 47.16785141431636
920.4999999999998, 47.16785141431636
921, 47.59831433054953
921.4999999999998, 47.59831433054953
922, 47.79919702479167
922.4999999999998, 47.97138219128494
923, 47.97138219128494
923.5, 48.48793769076474
924, 48.48793769076474
924.4999999999998, 48.975795662495656
924.9999999999998, 49.43495610647769
925.4999999999998, 49.43495610647769
926, 49.83672149496198
926.5, 49.83672149496198
926.9999999999998, 50.00890666145525
927.4999999999998, 50.00890666145525
928, 50.35327699444178
928.5, 50.668949799679424
929, 50.668949799679424
929.5, 50.86983249392158
930, 50.86983249392158
930.4999999999998, 51.242900354656975
930.9999999999998, 51.615968215392385
931.4999999999998, 51.615968215392385
931.9999999999998, 52.046431131625546
932.4999999999998, 52.046431131625546
932.9999999999998, 52.39080146461209
933.5, 52.39080146461209
933.9999999999998, 52.64907921435198
934.5, 52.79256685309637
935, 52.79256685309637
935.4999999999998, 53.10823965833402
935.9999999999998, 53.10823965833402
936.5, 53.48130751906943
937, 53.940467963051475
937.4999999999998, 53.940467963051475
937.9999999999998, 54.42832593478239
938.4999999999998, 54.42832593478239
938.9999999999998, 54.74399874002004
939.5, 54.74399874002004
939.9999999999998, 55.20315918400208
940.4999999999998, 55.57622704473749
940.9999999999998, 55.57622704473749
941.4999999999998, 55.8345047944774
941.9999999999998, 55.8345047944774
942.5, 56.236270182961675
943, 56.523245460450454
943.5, 56.523245460450454
944, 56.78152321019036
944.4999999999998, 56.78152321019036
945, 56.982405904432504
945.4999999999998, 56.982405904432504
945.9999999999998, 57.15459107092576
946.4999999999998, 57.38417129291679
946.9999999999998, 57.38417129291679
947.4999999999998, 57.613751514907804
947.9999999999998, 57.613751514907804
948.5, 57.90072679239658
948.9999999999998, 58.3885847641275
949.4999999999998, 58.3885847641275
949.9999999999998, 58.73295509711403
950.5, 58.73295509711403
951, 59.192115541096065
951.4999999999998, 59.192115541096065
952, 59.65127598507811
952.4999999999998, 59.93825126256689
953, 59.93825126256689
953.5, 60.28262159555342
954, 60.28262159555342
954.4999999999998, 60.569596873042194
954.9999999999998, 60.79917709503322
955.5, 60.79917709503322
955.9999999999998, 61.2009424835175
956.5, 61.2009424835175
956.9999999999998, 61.516615288755155
957.5, 61.516615288755155
957.9999999999998, 61.91838067723944
958.4999999999998, 62.37754112122149
958.9999999999998, 62.37754112122149
959.4999999999998, 62.607121343212505
959.9999999999998, 62.607121343212505
960.4999999999998, 62.86539909295241
961, 63.1236768426923
961.4999999999998, 63.1236768426923
961.9999999999998, 63.410652120181076
962.5, 63.410652120181076
963, 63.81241750866537
963.5, 63.81241750866537
963.9999999999998, 63.98460267515863
964.4999999999998, 64.09939278615414
964.9999999999998, 64.09939278615414
965.5, 64.27157795264742
965.9999999999998, 64.27157795264742
966.5, 64.70204086888057
967, 65.07510872961598
967.5, 65.07510872961598
967.9999999999998, 65.44817659035138
968.4999999999998, 65.44817659035138
969, 65.64905928459353
969.4999999999998, 65.64905928459353
969.9999999999998, 66.02212714532894
970.4999999999998, 66.22300983957109
970.9999999999998, 66.22300983957109
971.4999999999998, 66.53868264480873
971.9999999999998, 66.53868264480873
972.5, 66.88305297779526
972.9999999999998, 67.17002825528405
973.4999999999998, 67.17002825528405
973.9999999999998, 67.42830600502393
974.4999999999998, 67.42830600502393
974.9999999999998, 67.48570106052169
975.4999999999998, 67.48570106052169
976, 67.7152812825127
976.4999999999998, 68.03095408775036
977, 68.03095408775036
977.4999999999998, 68.26053430974139
977.9999999999998, 68.26053430974139
978.5, 68.54750958723017
978.9999999999998, 68.8918799202167
979.5, 68.8918799202167
979.9999999999998, 68.97797250346332
980.4999999999998, 68.97797250346332
980.9999999999998, 69.29364530870097
981.4999999999998, 69.29364530870097
981.9999999999998, 69.69541069718527
982.4999999999998, 69.92499091917628
983, 69.92499091917628
983.4999999999998, 70.12587361341843
983.9999999999998, 70.12587361341843
984.4999999999998, 70.35545383540945
985, 70.47024394640496
985.5, 70.47024394640496
985.9999999999998, 70.6711266406471
986.4999999999998, 70.6711266406471
987, 70.84331180714037
987.5, 70.84331180714037
988, 70.929404390387
988.5, 71.04419450138252
989, 71.04419450138252
989.4999999999998, 71.27377472337353
990, 71.27377472337353
990.4999999999998, 71.56075000086231
991, 71.61814505636006
991.5, 71.61814505636006
992, 71.67554011185783
992.4999999999998, 71.67554011185783
992.9999999999998, 71.7042376396067
993.4999999999998, 71.7042376396067
994, 71.73293516735558
994.4999999999998, 71.79033022285333
994.9999999999998, 71.79033022285333
995.5, 72.0773055003421
995.9999999999998, 72.0773055003421
996.4999999999998, 72.13470055583986
996.9999999999998, 72.13470055583986
997.4999999999998, 72.13470055583986
998, 72.42167583332864
998.4999999999998, 72.42167583332864
998.9999999999998, 72.47907088882639
999.4999999999998, 72.47907088882639
1000, 72.45037336107751
1000.4999999999998, 72.39297830557976
1000.9999999999998, 72.39297830557976
1001.4999999999998, 72.33558325008201
1001.9999999999998, 72.33558325008201
1002.4999999999998, 72.27818819458425
1002.9999999999998, 72.30688572233313
1003.4999999999998, 72.30688572233313
1003.9999999999998, 72.33558325008201
1004.5, 72.33558325008201
1004.9999999999998, 72.42167583332864
1005.4999999999998, 72.33558325008201
1006, 72.33558325008201
1006.4999999999998, 72.10600302809098
1006.9999999999998, 72.10600302809098
1007.4999999999998, 72.24949066683537
1008, 72.24949066683537
1008.4999999999998, 72.27818819458425
1008.9999999999998, 72.33558325008201
1009.4999999999998, 72.33558325008201
1009.9999999999998, 72.30688572233313
1010.5, 72.30688572233313
1010.9999999999998, 72.2207931390865
1011.4999999999998, 72.2207931390865
1011.9999999999998, 72.2207931390865
1012.4999999999998, 72.27818819458425
1012.9999999999998, 72.27818819458425
1013.4999999999998, 72.27818819458425
1013.9999999999998, 72.27818819458425
1014.4999999999998, 72.10600302809098
1014.9999999999998, 72.04860797259323
1015.4999999999998, 72.04860797259323
1015.9999999999998, 72.01991044484436
1016.4999999999998, 72.01991044484436
1017, 71.99121291709548
1017.4999999999998, 71.87642280609997
1018, 71.87642280609997
1018.5, 71.76163269510445
1018.9999999999998, 71.76163269510445
1019.4999999999998, 71.7042376396067
1019.9999999999998, 71.7042376396067
1020.4999999999998, 71.7042376396067
1020.9999999999998, 71.50335494536455
1021.5, 71.50335494536455
1021.9999999999998, 71.33116977887128
1022.4999999999998, 71.33116977887128
1023, 71.15898461237802
1023.5, 71.15898461237802
1024, 71.15898461237802
1024.4999999999998, 71.10158955688027
1025, 71.10158955688027
1025.5, 70.90070686263812
1025.9999999999998, 70.75721922389374
1026.4999999999998, 70.75721922389374
1026.9999999999998, 70.6711266406471
1027.4999999999998, 70.6711266406471
1028, 70.58503405740046
1028.5, 70.58503405740046
1028.9999999999998, 70.38415136315832
1029.4999999999998, 70.18326866891618
1029.9999999999998, 70.18326866891618
1030.5, 69.69541069718527
1031, 69.69541069718527
1031.4999999999998, 69.523225530692
1032, 69.46583047519425
1032.4999999999998, 69.46583047519425
1032.9999999999998, 69.40843541969649
1033.4999999999998, 69.40843541969649
1033.9999999999998, 69.17885519770547
1034.5, 69.17885519770547
1035, 68.92057744796557
1035.5, 68.66229969822567
1036, 68.66229969822567
1036.4999999999998, 68.4901145317324
1036.9999999999998, 68.4901145317324
1037.4999999999998, 68.20313925424364
1037.9999999999998, 68.17444172649476
1038.4999999999998, 68.17444172649476
1039, 68.117046670997
1039.4999999999998, 68.117046670997
1039.9999999999998, 67.94486150450373
1040.4999999999998, 67.68658375476383
1040.9999999999998, 67.68658375476383
1041.5, 67.19872578303293
1042, 67.19872578303293
1042.4999999999998, 66.91175050554415
1042.9999999999998, 66.91175050554415
1043.5, 66.62477522805537
1043.9999999999998, 66.25170736731997
1044.4999999999998, 66.25170736731997
1045, 66.16561478407331
1045.5, 66.16561478407331
1046, 66.16561478407331
1046.4999999999998, 65.79254692333791
1046.9999999999998, 65.79254692333791
1047.4999999999998, 65.62036175684466
1048, 65.62036175684466
1048.4999999999998, 65.44817659035138
1048.9999999999998, 65.44817659035138
1049.5, 65.304688951607
1049.9999999999998, 65.01771367411823
1050.4999999999998, 65.01771367411823
1050.9999999999998, 64.58725075788506
1051.5, 64.58725075788506
1051.9999999999998, 64.21418289714964
1052.5, 63.92720761966087
1053, 63.92720761966087
1053.4999999999998, 63.46804717567883
1053.9999999999998, 63.46804717567883
1054.4999999999998, 63.20976942593894
1055, 63.15237437044117
1055.4999999999998, 63.15237437044117
1055.9999999999998, 62.98018920394791
1056.4999999999998, 62.98018920394791
1057, 62.894096620701276
1057.5, 62.894096620701276
1057.9999999999998, 62.80800403745465
1058.5, 62.57842381546362
1058.9999999999998, 62.57842381546362
1059.5, 62.20535595472822
1059.9999999999998, 62.20535595472822
1060.4999999999998, 61.54531281650403
1060.9999999999998, 61.258337539015265
1061.4999999999998, 61.258337539015265
1061.9999999999998, 61.08615237252199
1062.4999999999998, 61.08615237252199
1062.9999999999998, 60.77047956728434
1063.4999999999998, 60.77047956728434
1063.9999999999998, 60.48350428979556
1064.4999999999998, 59.90955373481802
1064.9999999999998, 59.90955373481802
1065.5, 59.30690565209159
1065.9999999999998, 59.30690565209159
1066.5, 59.134720485598315
1066.9999999999998, 58.847745208109544
1067.4999999999998, 58.847745208109544
1067.9999999999998, 58.50337487512301
1068.4999999999998, 58.50337487512301
1069, 58.30249218088087
1069.4999999999998, 58.21639959763423
1069.9999999999998, 58.21639959763423
1070.4999999999998, 58.10160948663872
1070.9999999999998, 58.10160948663872
1071.4999999999998, 57.87202926464771
1071.9999999999998, 57.87202926464771
1072.4999999999998, 57.52765893166117
1072.9999999999998, 57.38417129291679
1073.4999999999998, 57.38417129291679
1073.9999999999998, 57.183288598674636
1074.4999999999998, 57.183288598674636
1074.9999999999998, 56.982405904432504
1075.4999999999998, 56.69543062694372
1075.9999999999998, 56.69543062694372
1076.4999999999998, 56.322362766208315
1077, 56.322362766208315
1077.4999999999998, 56.035387488719536
1077.9999999999998, 56.035387488719536
1078.4999999999998, 55.80580726672852
1078.9999999999998, 55.57622704473749
1079.4999999999998, 55.57622704473749
1080, 55.404041878244236
1080.4999999999998, 55.404041878244236
1080.9999999999998, 55.231856711750964
1081.5, 55.05967154525769
1081.9999999999998, 55.05967154525769
1082.5, 54.77269626776892
1082.9999999999998, 54.77269626776892
1083.4999999999998, 54.34223335153576
1083.9999999999998, 54.17004818504249
1084.4999999999998, 54.17004818504249
1085, 54.141350657293614
1085.5, 54.141350657293614
1086, 53.940467963051475
1086.4999999999998, 53.940467963051475
1087, 53.73958526880933
1087.4999999999998, 53.45260999132056
1087.9999999999998, 53.45260999132056
1088.4999999999998, 53.07954213058514
1088.9999999999998, 53.07954213058514
1089.4999999999998, 52.82126438084525
1089.9999999999998, 52.44819652010984
1090.4999999999998, 52.44819652010984
1090.9999999999998, 52.046431131625546
1091.4999999999998, 52.046431131625546
1091.9999999999998, 51.87424596513229
1092.4999999999998, 51.87424596513229
1093, 51.55857315989463
1093.4999999999998, 51.472480576648
1093.9999999999998, 51.472480576648
1094.4999999999998, 51.415085521150246
1095, 51.415085521150246
1095.4999999999998, 51.15680777141034
1095.9999999999998, 50.92722754941933
1096.5, 50.92722754941933
1096.9999999999998, 50.89853002167045
1097.4999999999998, 50.89853002167045
1097.9999999999998, 50.554159688683924
1098.5, 50.554159688683924
1098.9999999999998, 50.554159688683924
1099.4999999999998, 50.46806710543729
1099.9999999999998, 50.46806710543729
1100.4999999999998, 50.26718441119514
1100.9999999999998, 50.26718441119514
1101.4999999999998, 50.037604189204124
1101.9999999999998, 49.75062891171534
1102.4999999999998, 49.75062891171534
1102.9999999999998, 49.463653634226574
1103.4999999999998, 49.463653634226574
1104, 49.033190717993406
1104.4999999999998, 48.660122857257996
1104.9999999999998, 48.660122857257996
1105.5, 48.54533274626249
1105.9999999999998, 48.54533274626249
1106.4999999999998, 48.34445005202034
1106.9999999999998, 48.34445005202034
1107.5, 48.25835746877371
1107.9999999999998, 48.20096241327595
1108.4999999999998, 48.20096241327595
1109, 47.79919702479167
1109.4999999999998, 47.79919702479167
1109.9999999999998, 47.54091927505178
1110.4999999999998, 47.25394399756299
1110.9999999999998, 47.25394399756299
1111.4999999999998, 46.9956662478231
1111.9999999999998, 46.9956662478231
1112.4999999999998, 46.73738849808319
1113, 46.565203331589935
1113.5, 46.565203331589935
1113.9999999999998, 46.249530526352274
1114.5, 46.249530526352274
1114.9999999999998, 46.134740415356774
1115.4999999999998, 46.134740415356774
1115.9999999999998, 45.81906761011911
1116.4999999999998, 45.7042774991236
1116.9999999999998, 45.7042774991236
1117.5, 45.417302221634834
1118, 45.417302221634834
1118.4999999999998, 45.30251211063931
1119, 45.187721999643806
1119.4999999999998, 45.187721999643806
1119.9999999999998, 45.01553683315055
1120.4999999999998, 45.01553683315055
1120.9999999999998, 44.69986402791289
1121.4999999999998, 44.69986402791289
1121.9999999999998, 44.61377144466626
1122.4999999999998, 44.18330852843309
1122.9999999999998, 44.18330852843309
1123.4999999999998, 43.896333250944316
1123.9999999999998, 43.896333250944316
1124.4999999999998, 43.75284561219993
1124.9999999999998, 43.58066044570667
1125.4999999999998, 43.58066044570667
1125.9999999999998, 43.09280247397575
1126.4999999999998, 43.09280247397575
1126.9999999999998, 42.86322225198472
1127.4999999999998, 42.662339557742584
1127.9999999999998, 42.662339557742584
1128.4999999999998, 42.54754944674708
1128.9999999999998, 42.54754944674708
1129.4999999999998, 42.174481586011666
1129.9999999999998, 42.174481586011666
1130.4999999999998, 41.97359889176952
1130.9999999999998, 41.858808780774005
1131.4999999999998, 41.858808780774005
1132, 41.80141372527625
1132.4999999999998, 41.80141372527625
1133, 41.54313597553636
1133.4999999999998, 41.370950809043094
1133.9999999999998, 41.370950809043094
1134.4999999999998, 41.055278003805434
1134.9999999999998, 41.055278003805434
1135.4999999999998, 40.94048789280993
1135.9999999999998, 40.94048789280993
1136.5, 40.797000254065544
1136.9999999999998, 40.7109076708189
1137.4999999999998, 40.7109076708189
1137.9999999999998, 40.567420032074516
1138.4999999999998, 40.567420032074516
1138.9999999999998, 40.25174722683686
1139.4999999999998, 39.93607442159921
1139.9999999999998, 39.93607442159921
1140.4999999999998, 39.73519172735706
1141, 39.73519172735706
1141.4999999999998, 39.53430903311493
1141.9999999999998, 39.41951892211941
1142.4999999999998, 39.41951892211941
1142.9999999999998, 39.247333755626144
1143.4999999999998, 39.247333755626144
1144, 39.16124117237951
1144.5, 39.16124117237951
1144.9999999999998, 39.10384611688176
1145.5, 38.84556836714186
1145.9999999999998, 38.84556836714186
1146.4999999999998, 38.615988145150844
1146.9999999999998, 38.615988145150844
1147.4999999999998, 38.35771039541094
1147.9999999999998, 38.21422275666656
1148.4999999999998, 38.21422275666656
1148.9999999999998, 38.156827701168794
1149.4999999999998, 38.156827701168794
1150, 38.042037590173294
1150.5, 38.042037590173294
1151, 37.92724747917777
1151.4999999999998, 37.898549951428905
1151.9999999999998, 37.898549951428905
1152.4999999999998, 37.84115489593114
1152.9999999999998, 37.84115489593114
1153.4999999999998, 37.64027220168901
1153.9999999999998, 37.41069197969799
1154.4999999999998, 37.41069197969799
1154.9999999999998, 37.12371670220921
1155.4999999999998, 37.12371670220921
1156, 37.0089265912137
1156.4999999999998, 37.0089265912137
1156.9999999999998, 37.0089265912137
1157.4999999999998, 36.72195131372492
1157.9999999999998, 36.72195131372492
1158.4999999999998, 36.4923710917339
1158.9999999999998, 36.4923710917339
1159.4999999999998, 36.43497603623615
1159.9999999999998, 36.4923710917339
1160.4999999999998, 36.4923710917339
1161, 36.46367356398502
1161.4999999999998, 36.46367356398502
1161.9999999999998, 36.32018592524064
1162.4999999999998, 36.32018592524064
1162.9999999999998, 36.32018592524064
1163.4999999999998, 36.26279086974287
1163.9999999999998, 36.26279086974287
1164.5, 36.03321064775187
1165, 36.03321064775187
1165.4999999999998, 35.60274773151869
1165.9999999999998, 35.48795762052319
1166.4999999999998, 35.48795762052319
1166.9999999999998, 35.832327953509704
1167.4999999999998, 35.832327953509704
1167.9999999999998, 35.86102548125861
1168.5, 35.774932898011954
1169, 35.774932898011954
1169.4999999999998, 35.60274773151869
1169.9999999999998, 35.60274773151869
1170.4999999999998, 35.43056256502544
1170.9999999999998, 35.43056256502544
1171.5, 35.25837739853216
1172, 35.14358728753665
1172.5, 35.14358728753665
1172.9999999999998, 35.0861922320389
1173.4999999999998, 35.0861922320389
1173.9999999999998, 35.0861922320389
1174.5, 34.97140212104338
1174.9999999999998, 34.97140212104338
1175.4999999999998, 34.71312437130348
1175.9999999999998, 34.71312437130348
1176.5, 34.627031788056854
1177, 34.627031788056854
1177.4999999999995, 34.59833426030798
1177.9999999999998, 34.483544149312465
1178.4999999999998, 34.483544149312465
1179, 34.282661455070325
1179.5, 34.282661455070325
1179.9999999999998, 34.22526639957256
1180.4999999999998, 34.22526639957256
1180.9999999999998, 34.22526639957256
1181.4999999999998, 34.22526639957256
1181.9999999999998, 34.22526639957256
1182.4999999999998, 34.25396392732145
1182.9999999999998, 34.3113589828192
1183.4999999999998, 34.3113589828192
1184, 34.3113589828192
1184.4999999999998, 34.3113589828192
1184.9999999999998, 34.196568871823686
1185.4999999999998, 34.196568871823686
1185.9999999999998, 34.08177876082817
1186.4999999999998, 34.08177876082817
1186.9999999999998, 34.08177876082817
1187.4999999999998, 34.024383705330436
1187.9999999999998, 34.024383705330436
1188.4999999999998, 33.966988649832686
1188.9999999999998, 33.90959359433492
1189.4999999999998, 33.90959359433492
1190, 33.85219853883717
1190.5, 33.85219853883717
1191, 33.85219853883717
1191.5, 33.85219853883717
1192, 33.85219853883717
1192.5, 33.88089606658603
1193, 33.88089606658603
1193.4999999999998, 33.85219853883717
1194, 33.85219853883717
1194.4999999999998, 33.79480348333941
1194.9999999999998, 33.70871090009277
1195.4999999999998, 33.70871090009277
1195.9999999999998, 33.65131584459502
1196.4999999999998, 33.65131584459502
1196.9999999999998, 33.68001337234389
1197.4999999999998, 33.68001337234389
1197.9999999999995, 33.70871090009277
1198.4999999999995, 33.70871090009277
1198.9999999999998, 33.70871090009277
1199.4999999999998, 33.450433150352865
1199.9999999999998, 33.450433150352865
1200.4999999999998, 33.393038094855115
1200.9999999999998, 33.393038094855115
1201.5, 33.393038094855115
1202, 33.393038094855115
1202.4999999999998, 33.393038094855115
1202.9999999999998, 33.421735622604004
1203.4999999999998, 33.450433150352865
1203.9999999999998, 33.450433150352865
1204.5, 33.364340567106254
1204.9999999999998, 33.364340567106254
1205.4999999999998, 33.2782479838596
1205.9999999999998, 33.2782479838596
1206.5, 33.106062817366336
1207, 33.07736528961746
1207.4999999999998, 33.07736528961746
1207.9999999999998, 33.22085292836185
1208.5, 33.22085292836185
1209, 33.2782479838596
1209.4999999999998, 33.249550456110725
1209.9999999999998, 33.249550456110725
1210.4999999999998, 33.106062817366336
1211, 33.106062817366336
1211.5, 33.393038094855115
1211.9999999999998, 33.393038094855115
1212.4999999999998, 33.421735622604004
1212.9999999999998, 33.30694551160849
1213.4999999999998, 33.30694551160849
1213.9999999999998, 33.22085292836185
1214.4999999999998, 33.22085292836185
1214.9999999999998, 33.13476034511521
1215.4999999999998, 33.192155400612975
1215.9999999999998, 33.192155400612975
1216.4999999999998, 33.1634578728641
1216.9999999999998, 33.1634578728641
1217.4999999999998, 33.1634578728641
1218, 33.1634578728641
1218.5, 33.07736528961746
1218.9999999999998, 33.0486677618686
1219.4999999999998, 33.0486677618686
1219.9999999999998, 32.99127270637085
1220.5, 32.99127270637085
1220.9999999999998, 32.84778506762645
1221.4999999999998, 32.79039001212868
1221.9999999999998, 32.79039001212868
1222.4999999999998, 32.79039001212868
1222.9999999999998, 32.79039001212868
1223.4999999999998, 32.876482595375336
1223.9999999999998, 32.933877650873086
1224.4999999999998, 32.933877650873086
1224.9999999999998, 32.933877650873086
1225.4999999999998, 32.933877650873086
1225.9999999999998, 32.9051801231242
1226.4999999999998, 32.9051801231242
1226.9999999999998, 32.81908753987757
1227.5, 32.76169248437981
1227.9999999999998, 32.76169248437981
1228.4999999999998, 32.76169248437981
1228.9999999999998, 32.76169248437981
1229.5, 32.84778506762645
1229.9999999999998, 32.9051801231242
1230.4999999999998, 32.9051801231242
1230.9999999999998, 32.9051801231242
1231.4999999999998, 32.9051801231242
1232, 32.876482595375336
1232.4999999999998, 32.876482595375336
1232.9999999999998, 32.876482595375336
1233.5, 32.84778506762645
1234, 32.84778506762645
1234.5, 32.58950731788654
1234.9999999999998, 32.58950731788654
1235.4999999999998, 32.35992709589553
1235.9999999999998, 32.159044401653375
1236.4999999999998, 32.159044401653375
1236.9999999999998, 32.1303468739045
1237.4999999999998, 32.1303468739045
1237.9999999999998, 32.1303468739045
1238.5, 32.1303468739045
1239, 32.331229568146654
1239.4999999999998, 32.47471720689103
1240, 32.47471720689103
1240.5, 32.58950731788654
1241, 32.58950731788654
1241.4999999999998, 32.76169248437981
1241.9999999999998, 32.79039001212868
1242.4999999999998, 32.79039001212868
1243, 32.73299495663093
1243.5, 32.73299495663093
1243.9999999999998, 32.64690237338429
1244.4999999999998, 32.64690237338429
1245, 32.58950731788654
1245.4999999999998, 32.67559990113318
1245.9999999999998, 32.67559990113318
1246.4999999999998, 32.64690237338429
1246.9999999999998, 32.64690237338429
1247.4999999999998, 32.64690237338429
1248, 32.47471720689103
1248.4999999999998, 32.47471720689103
1248.9999999999998, 32.47471720689103
1249.5, 32.47471720689103
1250, 32.47471720689103
1250.5, 32.44601967914217
1250.9999999999998, 32.44601967914217
1251.4999999999998, 32.44601967914217
1252, 32.44601967914217
1252.4999999999998, 32.64690237338429
1252.9999999999998, 32.64690237338429
1253.4999999999998, 32.76169248437981
1253.9999999999998, 32.81908753987757
1254.4999999999998, 32.81908753987757
1254.9999999999998, 32.81908753987757
1255.4999999999998, 32.81908753987757
1255.9999999999998, 32.79039001212868
1256.5, 32.70429742888206
1257, 32.70429742888206
1257.4999999999998, 32.58950731788654
1257.9999999999998, 32.58950731788654
1258.4999999999998, 32.56080979013768
1258.9999999999998, 32.56080979013768
1259.4999999999998, 32.67559990113318
1259.9999999999998, 32.64690237338429
1260.4999999999998, 32.64690237338429
1260.9999999999998, 32.64690237338429
1261.4999999999998, 32.64690237338429
1261.9999999999998, 32.67559990113318
1262.4999999999998, 32.81908753987757
1262.9999999999998, 32.81908753987757
1263.4999999999998, 32.9051801231242
1263.9999999999998, 32.9051801231242
1264.4999999999998, 32.73299495663093
1264.9999999999998, 32.73299495663093
1265.4999999999998, 32.64690237338429
1265.9999999999998, 32.56080979013768
1266.4999999999998, 32.56080979013768
1266.9999999999995, 32.67559990113318
1267.4999999999998, 32.67559990113318
1268, 32.73299495663093
1268.4999999999998, 32.67559990113318
1268.9999999999995, 32.67559990113318
1269.4999999999998, 32.61820484563542
1269.9999999999998, 32.61820484563542
1270.5, 32.58950731788654
1271, 32.58950731788654
1271.4999999999998, 32.73299495663093
1271.9999999999998, 32.84778506762645
1272.5, 32.84778506762645
1273, 32.84778506762645
1273.4999999999998, 32.84778506762645
1273.9999999999998, 32.79039001212868
1274.4999999999998, 32.79039001212868
1274.9999999999998, 32.79039001212868
1275.4999999999998, 32.79039001212868
1275.9999999999995, 32.79039001212868
1276.4999999999998, 32.79039001212868
1277, 32.70429742888206
1277.5, 32.70429742888206
1277.9999999999998, 32.64690237338429
1278.4999999999998, 32.64690237338429
1278.9999999999998, 32.67559990113318
1279.4999999999998, 32.67559990113318
1279.9999999999998, 32.67559990113318
1280.4999999999998, 32.70429742888206
1281, 32.70429742888206
1281.4999999999998, 32.73299495663093
1282, 32.73299495663093
1282.4999999999998, 32.933877650873086
1282.9999999999998, 32.81908753987757
1283.4999999999998, 32.81908753987757
1283.9999999999998, 32.81908753987757
1284.4999999999998, 32.81908753987757
1284.9999999999998, 32.64690237338429
1285.4999999999998, 32.64690237338429
1285.9999999999998, 32.61820484563542
1286.4999999999998, 32.67559990113318
1286.9999999999998, 32.67559990113318
1287.4999999999998, 32.9051801231242
1287.9999999999998, 32.9051801231242
1288.5, 32.96257517862195
1289, 32.96257517862195
1289.5, 32.96257517862195
1289.9999999999998, 33.01997023411971
1290.4999999999998, 33.01997023411971
1291, 33.393038094855115
1291.5, 33.393038094855115
1291.9999999999998, 33.335643039357365
1292.4999999999998, 33.2782479838596
1292.9999999999998, 33.2782479838596
1293.4999999999998, 33.249550456110725
1294, 33.249550456110725
1294.4999999999998, 33.249550456110725
1294.9999999999998, 33.249550456110725
1295.4999999999998, 33.249550456110725
1296, 33.2782479838596
1296.4999999999998, 33.2782479838596
1296.9999999999998, 33.421735622604004
1297.4999999999998, 33.421735622604004
1297.9999999999998, 33.249550456110725
1298.5, 33.106062817366336
1298.9999999999998, 33.106062817366336
1299.4999999999998, 33.192155400612975
1299.9999999999998, 33.192155400612975
1300.4999999999998, 33.192155400612975
1300.9999999999998, 32.96257517862195
1301.4999999999998, 32.96257517862195
1301.9999999999998, 32.9051801231242
1302.4999999999998, 32.9051801231242
1302.9999999999998, 32.933877650873086
1303.4999999999998, 33.0486677618686
1303.9999999999998, 33.0486677618686
1304.4999999999998, 32.99127270637085
1305, 32.99127270637085
1305.4999999999998, 32.933877650873086
1305.9999999999998, 32.933877650873086
1306.5, 33.07736528961746
1306.9999999999998, 33.106062817366336
1307.5, 33.106062817366336
1307.9999999999998, 32.84778506762645
1308.4999999999998, 32.84778506762645
1308.9999999999998, 32.84778506762645
1313, 33.106062817366336
1313.5, 33.106062817366336
1314, 33.1634578728641
1314.5, 33.1634578728641
1314.9999999999995, 33.30694551160849
1315.5, 33.22085292836185
1316, 33.22085292836185
1316.5, 33.1634578728641
1317, 33.1634578728641
1317.4999999999998, 33.07736528961746
1317.9999999999998, 33.07736528961746
1318.5, 33.335643039357365
1319, 33.106062817366336
1319.5, 33.106062817366336
1319.9999999999998, 33.249550456110725
1320.4999999999998, 33.249550456110725
1321, 33.421735622604004
1322, 33.62261831684614
1322.9999999999998, 33.70871090009277
1323.4999999999998, 33.70871090009277
1324.4999999999998, 33.56522326134838
1324.9999999999998, 33.450433150352865
1325.4999999999998, 33.450433150352865
1326, 33.393038094855115
1326.4999999999998, 33.393038094855115
1326.9999999999998, 33.192155400612975
1327.5, 32.9051801231242
1328, 32.9051801231242
1328.4999999999998, 32.84778506762645
1328.9999999999998, 32.84778506762645
1329.4999999999998, 33.01997023411971
1329.9999999999998, 33.01997023411971
1330.5, 33.01997023411971
1331, 32.96257517862195
1331.5, 32.96257517862195
1332, 32.876482595375336
1332.5, 32.876482595375336
1333, 32.876482595375336
1333.5, 32.96257517862195
1334, 32.96257517862195
1334.5, 32.99127270637085
1335, 32.99127270637085
1335.4999999999998, 33.01997023411971
1335.9999999999998, 33.07736528961746
1336.4999999999998, 33.07736528961746
1337, 33.1634578728641
1337.5, 33.1634578728641
1338, 33.335643039357365
1338.5, 33.335643039357365
1338.9999999999998, 33.249550456110725
1339.5, 32.933877650873086
1339.9999999999998, 32.933877650873086
1340.4999999999998, 32.67559990113318
1340.9999999999998, 32.67559990113318
1341.5, 32.58950731788654
1342, 32.58950731788654
1342.4999999999998, 32.58950731788654
1342.9999999999998, 32.58950731788654
1343.4999999999998, 32.58950731788654
1344, 32.76169248437981
1344.5, 32.76169248437981
1345, 32.876482595375336
1345.5, 33.106062817366336
1346, 33.106062817366336
1346.5, 33.07736528961746
1346.9999999999998, 33.07736528961746
1347.4999999999998, 32.933877650873086
1347.9999999999998, 32.933877650873086
1348.5, 32.933877650873086
1349, 32.9051801231242
1349.4999999999998, 32.9051801231242
1350, 32.9051801231242
1350.5, 32.876482595375336
1351, 32.876482595375336
1351.4999999999995, 32.81908753987757
1351.9999999999998, 32.81908753987757
1352.4999999999998, 32.61820484563542
1352.9999999999998, 32.61820484563542
1353.5, 32.64690237338429
1354, 32.70429742888206
1354.5, 32.70429742888206
1354.9999999999998, 32.76169248437981
1355.5, 32.76169248437981
1355.9999999999998, 32.76169248437981
1356.4999999999998, 32.73299495663093
1357, 32.73299495663093
1357.4999999999998, 32.933877650873086
1358, 32.933877650873086
1358.4999999999998, 33.07736528961746
1358.9999999999998, 33.07736528961746
1359.4999999999998, 32.84778506762645
1359.9999999999998, 32.81908753987757
1360.4999999999998, 32.81908753987757
1360.9999999999998, 32.76169248437981
1361.4999999999998, 32.76169248437981
1362, 32.67559990113318
1362.5, 32.73299495663093
1362.9999999999998, 32.73299495663093
1363.4999999999998, 32.79039001212868
1363.9999999999998, 32.79039001212868
1364.4999999999998, 32.81908753987757
1364.9999999999998, 32.81908753987757
1365.4999999999998, 32.84778506762645
1366, 32.96257517862195
1366.5, 32.96257517862195
1366.9999999999998, 32.81908753987757
1367.4999999999995, 32.81908753987757
1368, 32.70429742888206
1368.5, 32.331229568146654
1369, 32.331229568146654
1369.5, 32.27383451264889
1369.9999999999998, 32.27383451264889
1370.4999999999998, 32.302532040397764
1370.9999999999998, 32.302532040397764
1371.4999999999998, 32.61820484563542
1372, 32.64690237338429
1372.5, 32.64690237338429
1373, 32.73299495663093
1373.5, 32.73299495663093
1373.9999999999998, 32.79039001212868
1374.4999999999998, 32.73299495663093
1375, 32.73299495663093
1375.5, 32.47471720689103
1376, 32.47471720689103
1376.5, 32.47471720689103
1377, 32.44601967914217
1377.5, 32.44601967914217
1378, 32.41732215139328
1378.5, 32.41732215139328
1379, 32.44601967914217
1379.5, 32.44601967914217
1380, 32.50341473463993
1380.5, 32.47471720689103
1381, 32.47471720689103
1381.5, 32.47471720689103
1382, 32.47471720689103
1382.4999999999998, 32.53211226238879
1382.9999999999998, 32.53211226238879
1383.4999999999998, 32.53211226238879
1383.9999999999998, 32.50341473463993
1384.4999999999998, 32.50341473463993
1384.9999999999998, 32.56080979013768
1385.4999999999998, 32.56080979013768
1385.9999999999998, 33.01997023411971
1386.4999999999998, 33.0486677618686
1386.9999999999998, 33.0486677618686
