306, 11.783799699950308
306.5, 11.783799699950308
307, 11.812497227699168
307.5, 11.812497227699168
310.5, 11.927287338694683
311, 11.927287338694683
313, 12.042077449690197
313.5, 12.042077449690197
314, 12.099472505187961
317, 12.271657671681226
317.5, 12.271657671681226
319, 12.38644778267674
319.5, 12.38644778267674
320, 12.38644778267674
324, 12.58733047691888
324.5, 12.58733047691888
325, 12.58733047691888
325.5, 12.58733047691888
327.5, 12.702120587914393
328, 12.702120587914393
329, 12.989095865403144
329.5, 12.989095865403144
330, 12.960398337654269
330.5, 12.960398337654269
331, 12.931700809905394
331.5, 12.931700809905394
333.5, 13.017793393152033
334, 13.017793393152033
334.5, 13.017793393152033
338, 13.189978559645311
338.5, 13.189978559645311
339, 13.189978559645311
341, 13.362163726138576
341.5, 13.362163726138576
343, 13.534348892631826
343.5, 13.591743948129576
344, 13.591743948129576
344.5, 13.64913900362734
345, 13.64913900362734
345.5, 13.67783653137623
346, 13.67783653137623
346.5, 13.70653405912509
348, 13.821324170120604
348.5, 13.821324170120604
349.5, 13.936114281116105
350, 13.936114281116105
350.5, 13.993509336613869
351, 13.993509336613869
351.5, 14.108299447609397
352, 14.108299447609397
352.5, 14.108299447609397
354, 14.280484614102662
354.5, 14.280484614102662
355, 14.280484614102662
356.5, 14.452669780595912
357, 14.452669780595912
359, 14.567459891591412
359.5, 14.567459891591412
360, 14.567459891591412
360.5, 14.567459891591412
361.5, 14.710947530335815
362, 14.710947530335815
364.5, 14.911830224577955
367, 15.141410446568983
367.5, 15.198805502066733
368, 15.198805502066733
368.5, 15.256200557564497
369, 15.256200557564497
371, 15.629268418299901
371.5, 15.629268418299901
372, 15.657965946048762
372.5, 15.657965946048762
373.5, 15.801453584793165
374, 15.801453584793165
375.5, 15.973638751286416
376, 15.973638751286416
376.5, 15.973638751286416
378, 16.11712639003082
378.5, 16.11712639003082
379, 16.11712639003082
380.5, 16.289311556524083
381, 16.289311556524083
385, 16.777169528255
387.5, 17.12153986124153
390, 17.37981761098142
390.5, 17.37981761098142
391.5, 17.552002777474684
392, 17.552002777474684
394, 17.8102805272146
394.5, 17.8102805272146
397, 18.125953332452255
399.5, 18.47032366543877
403.5, 18.900786581671937
404, 18.900786581671937
408, 19.35994702565398
410.5, 19.675619830891634
411, 19.675619830891634
413, 20.019990163878177
413.5, 20.019990163878177
414.5, 20.45045308011133
415, 20.45045308011133
415.5, 20.479150607860205
416, 20.479150607860205
417.5, 20.70873082985122
418, 20.73742835760011
418.49999999999994, 20.73742835760011
418.99999999999994, 20.766125885348984
419.5, 20.766125885348984
420, 20.85221846859561
421.5, 21.167891273833277
422, 21.167891273833277
422.5, 21.225286329331027
423, 21.225286329331027
424, 21.54095913456868
424.5, 21.54095913456868
426.5, 21.79923688430857
427, 21.79923688430857
429.5, 22.229699800541738
431, 22.57407013352828
431.5, 22.57407013352828
432, 22.66016271677489
433.5, 22.918440466514795
434, 22.918440466514795
436, 23.205415744003574
436.5, 23.205415744003574
438, 23.463693493743477
438.5, 23.578483604738977
439, 23.578483604738977
440.5, 23.72197124348338
441, 23.72197124348338
443, 24.12373663196766
443.5, 24.12373663196766
444, 24.18113168746541
445.5, 24.439409437205313
446, 24.439409437205313
446.5, 24.525502020451952
447, 24.554199548200813
447.5, 24.554199548200813
448, 24.668989659196328
448.5, 24.668989659196328
450, 24.98466246443398
451.5, 25.185545158676135
452, 25.185545158676135
452.5, 25.27163774192276
454, 25.4725204361649
454.49999999999994, 25.4725204361649
455, 25.50121796391379
455.5, 25.50121796391379
456.5, 25.816890769151428
457, 25.816890769151428
457.5, 25.874285824649192
458, 25.874285824649192
458.5, 25.989075935644706
459, 26.04647099114247
459.5, 26.04647099114247
460, 26.07516851889133
460.5, 26.07516851889133
462, 26.333446268631235
463.5, 26.59172401837114
464, 26.59172401837114
464.5, 26.62042154612
466, 26.907396823608792
466.5, 26.907396823608792
468.5, 27.337859739841946
469, 27.337859739841946
471.99999999999994, 27.79702018382399
472.5, 27.79702018382399
473, 27.883112767070628
473.5, 27.883112767070628
474.5, 28.055297933563892
474.99999999999994, 28.055297933563892
475.5, 28.141390516810517
476, 28.141390516810517
478, 28.629248488541435
478.5, 28.629248488541435
480, 28.916223766030228
480.5, 29.031013877025742
481, 29.031013877025742
482.5, 29.289291626765618
484, 29.51887184875666
484.5, 29.51887184875666
485, 29.51887184875666
485.5, 29.57626690425441
485.99999999999994, 29.57626690425441
486.5, 29.662359487501035
487, 29.662359487501035
487.5, 29.69105701524991
488, 29.69105701524991
489, 29.949334764989814
489.5, 29.949334764989814
490, 30.06412487598533
490.5, 30.06412487598533
491.49999999999994, 30.265007570227453
491.99999999999994, 30.265007570227453
493.49999999999994, 30.465890264469607
493.99999999999994, 30.465890264469607
494.5, 30.60937790321401
495, 30.60937790321401
495.5, 30.60937790321401
496, 30.60937790321401
496.5, 30.60937790321401
497, 30.580680375465107
497.5, 30.523285319967357
498, 30.523285319967357
498.5, 30.551982847716246
499, 30.551982847716246
499.5, 30.580680375465107
500, 30.580680375465107
500.5, 30.580680375465107
501, 30.523285319967357
501.5, 30.523285319967357
502, 30.437192736720732
502.5, 30.437192736720732
502.99999999999994, 30.408495208971843
505.49999999999994, 30.293705097976343
505.99999999999994, 30.293705097976343
508, 29.949334764989814
508.49999999999994, 29.949334764989814
509, 29.8345446539943
510.5, 29.54756937650552
511, 29.54756937650552
512, 29.088408932523492
512.5, 29.088408932523492
513, 29.031013877025742
513.5, 29.031013877025742
515, 28.629248488541435
517.5, 28.284878155554907
518, 28.198785572308267
518.5, 28.198785572308267
520, 27.79702018382399
520.5, 27.79702018382399
521.5, 27.452649850837474
521.9999999999999, 27.452649850837474
524, 27.050884462353167
524.5, 27.050884462353167
526, 26.850001768111028
526.5, 26.850001768111028
527, 26.850001768111028
528.5, 26.677816601617764
529, 26.677816601617764
529.5, 26.56302649062225
532, 26.27605121313347
533.5, 26.218656157635735
534, 26.218656157635735
535.5, 26.04647099114247
536, 25.989075935644706
536.5, 25.989075935644706
537, 25.989075935644706
537.5, 25.989075935644706
538.5, 26.04647099114247
539, 26.04647099114247
539.5, 26.07516851889133
540, 26.07516851889133
540.5, 26.07516851889133
541, 26.07516851889133
542, 26.218656157635735
542.5, 26.218656157635735
543, 26.189958629886846
543.5, 26.189958629886846
544, 26.27605121313347
544.5, 26.36214379638011
545, 26.36214379638011
545.5, 26.333446268631235
546, 26.333446268631235
547.5, 26.53432896287339
550, 26.850001768111028
550.5, 26.907396823608792
551, 26.907396823608792
551.5, 26.964791879106556
552, 26.964791879106556
552.5, 26.993489406855417
553, 27.022186934604306
553.5, 27.022186934604306
554, 27.050884462353167
554.5, 27.050884462353167
556.5, 27.42395232308857
557, 27.42395232308857
561, 27.969205350317253
561.5, 27.969205350317253
562, 27.969205350317253
562.5, 27.969205350317253
563, 27.969205350317253
563.5, 27.997902878066142
564, 27.997902878066142
564.5, 28.055297933563892
565, 28.141390516810517
565.5, 28.141390516810517
566, 28.170088044559407
566.5, 28.170088044559407
567, 28.170088044559407
567.5, 28.170088044559407
568, 28.112692989061657
568.5, 28.083995461312767
569, 28.083995461312767
569.5, 28.083995461312767
570, 28.083995461312767
570.5, 28.083995461312767
571, 27.997902878066142
571.5, 27.997902878066142
573, 27.68223007282849
573.5, 27.68223007282849
574.5, 27.42395232308857
575, 27.42395232308857
575.5, 27.337859739841946
576, 27.337859739841946
576.5, 27.280464684344196
577, 27.022186934604306
577.5, 27.022186934604306
578, 26.936094351357653
578.5, 26.936094351357653
579, 26.850001768111028
579.5, 26.62042154612
580, 26.62042154612
580.5, 26.419538851877874
581, 26.419538851877874
582.5, 26.247353685384596
585, 25.816890769151428
586.5, 25.357730325169385
587, 25.357730325169385
589, 24.869872353438467
589.5, 24.869872353438467
590, 24.841174825689592
590.5, 24.841174825689592
591.5, 24.353316853958674
592, 24.353316853958674
592.5, 24.2098292152143
592.9999999999999, 24.2098292152143
593.5, 24.095039104218785
594, 24.095039104218785
596, 23.578483604738977
596.4999999999999, 23.578483604738977
598.5, 23.0619281052592
599, 23.0619281052592
600, 22.717557772272656
600.5, 22.717557772272656
601, 22.66016271677489
601.5, 22.66016271677489
603, 22.487977550281627
605.5, 22.00011957855071
608, 21.713144301061945
608.4999999999999, 21.713144301061945
609.5, 21.397471495824277
610, 21.397471495824277
610.5, 21.368773968075402
611, 21.368773968075402
612, 21.110496218335527
612.5, 21.110496218335527
612.9999999999999, 21.081798690586638
613.5, 21.081798690586638
614.5, 20.90961352409336
615, 20.90961352409336
615.5, 20.85221846859561
616, 20.85221846859561
616.5, 20.823520940846734
617, 20.823520940846734
617.5, 20.766125885348984
618, 20.593940718855706
618.5, 20.593940718855706
619, 20.507848135609095
619.5, 20.507848135609095
620, 20.479150607860205
620.5, 20.393058024613566
621, 20.393058024613566
621.5, 20.393058024613566
622, 20.393058024613566
622.5, 20.36436049686469
623, 20.36436049686469
623.5, 20.306965441366955
626, 19.962595108380413
626.5, 19.8478049973849
627, 19.8478049973849
628.5, 19.58952724764501
629, 19.58952724764501
631, 19.35994702565398
631.5, 19.35994702565398
632, 19.302551970156216
633.5, 19.04427422041634
634, 19.04427422041634
635, 18.757298942927548
635.5, 18.757298942927548
637, 18.49902119318766
637.5, 18.49902119318766
638, 18.49902119318766
640.5, 18.125953332452255
641, 18.01116322145674
641.5, 18.01116322145674
642, 17.98246569370785
642.5, 17.98246569370785
643, 17.98246569370785
643.5, 17.98246569370785
644.4999999999999, 17.781582999465712
645, 17.781582999465712
645.5, 17.724187943967948
646, 17.724187943967948
646.5, 17.609397832972448
647, 17.523305249725823
647.5, 17.523305249725823
649, 17.23632997223703
649.5, 17.23632997223703
650, 17.17893491673928
650.5, 17.17893491673928
651, 17.17893491673928
651.5, 17.17893491673928
652, 17.17893491673928
653, 17.035447277994905
653.5, 17.035447277994905
655, 16.97805222249714
657.5, 16.805867056003876
658, 16.805867056003876
658.5, 16.805867056003876
661.5, 16.805867056003876
662, 16.805867056003876
662.5, 16.691076945008362
663, 16.691076945008362
664.5, 16.633681889510598
665, 16.576286834012848
665.5, 16.576286834012848
666, 16.604984361761737
666.5, 16.604984361761737
667, 16.576286834012848
667.5, 16.518891778515098
668, 16.518891778515098
668.5, 16.490194250766223
669, 16.490194250766223
669.5, 16.43279919526846
670, 16.43279919526846
670.5, 16.43279919526846
671.9999999999999, 16.203218973277444
672.5, 16.203218973277444
673, 16.231916501026333
673.5, 16.289311556524083
674, 16.289311556524083
677, 16.691076945008362
677.5, 16.691076945008362
678, 16.691076945008362
678.5, 16.691076945008362
679, 16.691076945008362
679.5, 16.748472000506112
680, 16.748472000506112
682, 16.920657166999376
682.5, 16.920657166999376
682.9999999999999, 16.94935469474825
683.4999999999999, 16.94935469474825
684, 16.97805222249714
684.5, 16.97805222249714
685, 16.920657166999376
685.5, 16.8919596392505
686, 16.8919596392505
686.5, 16.8919596392505
687, 16.8919596392505
687.5, 16.920657166999376
688, 17.064144805743766
688.5, 17.064144805743766
689, 17.092842333492655
689.5, 17.092842333492655
690, 17.15023738899042
690.5, 17.15023738899042
691, 17.17893491673928
691.5, 17.20763244448817
692, 17.20763244448817
692.5, 17.20763244448817
693, 17.20763244448817
693.5, 17.23632997223703
695, 17.322422555483683
695.5, 17.322422555483683
696, 17.351120083232544
696.5, 17.351120083232544
697, 17.351120083232544
697.5, 17.552002777474684
698, 17.552002777474684
698.5, 17.552002777474684
699, 17.552002777474684
699.5, 17.609397832972448
700, 17.609397832972448
700.5, 17.609397832972448
701, 17.580700305223573
701.5, 17.580700305223573
702, 17.580700305223573
702.5, 17.580700305223573
703, 17.666792888470198
704.5, 17.8102805272146
705, 17.8102805272146
705.5, 17.8102805272146
707, 17.724187943967948
707.5, 17.724187943967948
708, 17.695490416219087
708.5, 17.75288547171685
709, 17.75288547171685
709.5, 17.8102805272146
710, 17.8102805272146
710.5, 17.867675582712337
711, 17.867675582712337
711.5, 17.867675582712337
712, 17.8102805272146
712.5, 17.8102805272146
713, 17.838978054963462
713.5, 17.838978054963462
714, 18.01116322145674
714.5, 17.98246569370785
715, 17.98246569370785
715.5, 17.98246569370785
716, 17.98246569370785
716.5, 17.98246569370785
717, 17.98246569370785
717.5, 18.0398607492056
717.9999999999999, 18.068558276954505
718.4999999999999, 18.068558276954505
718.9999999999999, 18.125953332452255
719.4999999999999, 18.125953332452255
720, 18.068558276954505
720.5, 17.838978054963462
721, 17.838978054963462
721.5, 17.8102805272146
722, 17.8102805272146
723.5, 17.638095360721337
724, 17.695490416219087
724.5, 17.695490416219087
724.9999999999999, 17.724187943967948
725.4999999999999, 17.724187943967948
726, 17.8102805272146
726.5, 17.838978054963462
727, 17.838978054963462
727.4999999999999, 17.9250706382101
728, 17.9250706382101
728.4999999999999, 17.781582999465712
729, 17.781582999465712
729.5, 17.867675582712337
730, 17.9250706382101
730.5, 17.9250706382101
731, 17.8102805272146
731.5, 17.8102805272146
731.9999999999999, 17.838978054963462
732.5, 17.838978054963462
732.9999999999999, 17.838978054963462
733.5, 17.867675582712337
734, 17.867675582712337
734.4999999999999, 17.838978054963462
735, 17.695490416219087
735.5, 17.695490416219087
736, 17.724187943967948
736.4999999999999, 17.724187943967948
737, 17.8102805272146
737.5, 17.8102805272146
738, 17.867675582712337
738.5, 17.867675582712337
739, 17.867675582712337
739.5, 17.75288547171685
740, 17.75288547171685
740.5, 17.695490416219087
741, 17.695490416219087
741.5, 17.695490416219087
742, 17.75288547171685
742.5, 17.75288547171685
743, 17.724187943967948
743.4999999999999, 17.724187943967948
744, 17.724187943967948
744.5, 17.695490416219087
745, 17.695490416219087
745.5, 17.695490416219087
746, 17.695490416219087
746.5, 17.838978054963462
747, 18.01116322145674
747.5, 18.01116322145674
747.9999999999999, 17.781582999465712
748.5, 17.781582999465712
749, 17.638095360721337
749.5, 17.638095360721337
750, 17.26502749998592
751.5, 16.920657166999376
752, 16.920657166999376
752.4999999999998, 16.8919596392505
752.9999999999999, 16.8919596392505
753.5, 16.8919596392505
753.9999999999999, 16.8919596392505
754.5, 16.8919596392505
755, 16.863262111501626
755.5, 16.863262111501626
756, 16.863262111501626
756.5, 16.920657166999376
757, 16.920657166999376
757.4999999999999, 16.94935469474825
758, 16.94935469474825
758.5, 16.97805222249714
760, 16.691076945008362
760.4999999999999, 16.691076945008362
761, 16.691076945008362
761.5, 16.71977447275725
762, 16.71977447275725
762.5, 16.748472000506112
763, 16.748472000506112
763.5, 16.576286834012848
763.9999999999999, 16.576286834012848
764.5, 16.490194250766223
765, 16.43279919526846
765.4999999999999, 16.43279919526846
767, 16.174521445528583
767.5, 16.203218973277444
768, 16.203218973277444
770.5, 15.830151112542026
770.9999999999999, 15.744058529295415
771.4999999999999, 15.744058529295415
772, 15.686663473797651
772.5, 15.686663473797651
773, 15.657965946048762
774.4999999999999, 15.428385724057748
775, 15.428385724057748
777, 14.969225280075705
777.5, 14.969225280075705
778, 14.94052775232683
778.5, 14.94052775232683
779, 14.94052775232683
779.5, 14.85443516908019
780, 14.85443516908019
781.5, 14.538762363842551
784, 14.079601919860494
784.5, 14.079601919860494
785.5, 13.993509336613869
785.9999999999999, 13.993509336613869
786.5, 13.936114281116105
786.9999999999999, 13.936114281116105
787.4999999999999, 13.821324170120604
787.9999999999999, 13.67783653137623
788.5, 13.67783653137623
789, 13.591743948129576
789.5, 13.591743948129576
790, 13.50565136488295
790.4999999999999, 13.50565136488295
791, 13.362163726138576
792.5, 13.046490920900908
793, 13.046490920900908
793.5, 13.017793393152033
795, 12.702120587914393
795.5, 12.702120587914393
797.5, 12.64472553241663
798, 12.64472553241663
799.4999999999998, 12.156867560685711
800, 12.185565088434572
800.5, 12.185565088434572
801, 12.099472505187961
801.5, 12.099472505187961
801.9999999999998, 12.013379921941308
802.4999999999998, 11.927287338694683
802.9999999999998, 11.927287338694683
803.4999999999998, 11.841194755448058
803.9999999999998, 11.841194755448058
804.4999999999998, 11.841194755448058
804.9999999999998, 11.841194755448058
805.4999999999998, 11.812497227699168
805.9999999999998, 11.841194755448058
806.5, 11.841194755448058
806.9999999999998, 11.898589810945822
807.4999999999998, 11.898589810945822
809.5, 11.611614533457043
810, 11.611614533457043
810.5, 11.611614533457043
811, 11.611614533457043
811.4999999999998, 11.582917005708154
812, 11.496824422461515
812.4999999999998, 11.496824422461515
812.9999999999998, 11.46812689471264
813.5, 11.46812689471264
813.9999999999998, 11.46812689471264
814.5, 11.46812689471264
814.9999999999998, 11.46812689471264
815.5, 11.496824422461515
815.9999999999998, 11.496824422461515
816.5, 11.496824422461515
817, 11.46812689471264
817.4999999999998, 11.46812689471264
817.9999999999998, 11.439429366963765
818.4999999999998, 11.439429366963765
819, 11.410731839214904
819.4999999999998, 11.410731839214904
819.9999999999998, 11.46812689471264
820.4999999999998, 11.554219477959279
820.9999999999998, 11.554219477959279
821.5, 11.640312061205904
821.9999999999998, 11.640312061205904
822.9999999999998, 11.841194755448058
823.4999999999998, 11.841194755448058
823.9999999999998, 11.783799699950308
824.5, 11.783799699950308
825, 11.726404644452558
825.5, 11.726404644452558
826, 11.669009588954793
826.4999999999998, 11.669009588954793
827, 11.669009588954793
827.4999999999998, 11.755102172201418
827.9999999999998, 11.755102172201418
828.4999999999998, 11.812497227699168
829.9999999999998, 11.955984866443558
830.5, 11.955984866443558
830.9999999999998, 12.042077449690197
831.4999999999998, 12.042077449690197
832.5, 12.501237893672226
833, 12.501237893672226
833.5, 12.55863294916999
834, 12.55863294916999
834.4999999999998, 12.730818115663254
835, 12.931700809905394
835.4999999999998, 12.931700809905394
836.9999999999998, 13.73523158687398
837.4999999999998, 13.73523158687398
837.9999999999998, 13.936114281116105
838.5, 13.993509336613869
838.9999999999998, 13.993509336613869
839.4999999999998, 14.050904392111633
839.9999999999998, 14.050904392111633
840.4999999999998, 13.936114281116105
842, 13.419558781636312
842.4999999999998, 13.419558781636312
843, 13.419558781636312
843.4999999999998, 13.419558781636312
843.9999999999998, 13.362163726138576
844.5, 13.276071142891922
844.9999999999998, 13.276071142891922
846.5, 13.390861253887437
847, 13.448256309385187
847.5, 13.448256309385187
848, 13.448256309385187
848.5, 13.448256309385187
849, 13.390861253887437
850.4999999999998, 13.218676087394172
851, 13.218676087394172
851.4999999999998, 13.161281031896422
851.9999999999998, 13.161281031896422
852.5, 13.132583504147547
852.9999999999998, 13.017793393152033
853.5, 13.017793393152033
854, 13.075188448649797
854.5, 13.075188448649797
854.9999999999998, 13.017793393152033
855.5, 12.931700809905394
855.9999999999998, 12.931700809905394
856.4999999999998, 12.989095865403144
857, 12.989095865403144
857.4999999999998, 12.989095865403144
857.9999999999998, 12.989095865403144
858.4999999999998, 13.017793393152033
859, 13.017793393152033
859.4999999999998, 13.017793393152033
859.9999999999998, 13.017793393152033
860.5, 13.017793393152033
860.9999999999998, 13.103885976398658
862.5, 13.448256309385187
863, 13.448256309385187
863.5, 13.419558781636312
864, 13.419558781636312
864.5, 13.448256309385187
864.9999999999998, 13.50565136488295
865.4999999999998, 13.50565136488295
865.9999999999998, 13.50565136488295
866.4999999999998, 13.50565136488295
867.5, 13.64913900362734
868, 13.64913900362734
869.5, 13.792626642371744
869.9999999999998, 13.792626642371744
871, 14.022206864362744
871.5, 14.022206864362744
872, 14.136996975358258
872.4999999999998, 14.136996975358258
872.9999999999998, 14.194392030856008
873.4999999999998, 14.251787086353758
874, 14.251787086353758
874.4999999999998, 14.309182141851522
874.9999999999998, 14.309182141851522
875.9999999999998, 14.538762363842551
876.5, 14.538762363842551
878.9999999999998, 15.284898085313358
880.4999999999998, 16.6623794172595
881, 16.6623794172595
881.4999999999998, 16.834564583752766
882, 16.490194250766223
882.4999999999998, 16.490194250766223
882.9999999999998, 15.973638751286416
883.4999999999998, 15.973638751286416
884, 15.94494122353754
884.5, 15.94494122353754
885, 16.03103380678418
885.5, 16.08842886228193
885.9999999999998, 16.08842886228193
886.4999999999998, 16.231916501026333
886.9999999999998, 16.231916501026333
887.4999999999998, 16.260614028775194
887.9999999999998, 16.576286834012848
888.4999999999998, 16.576286834012848
888.9999999999998, 16.576286834012848
889.4999999999998, 16.576286834012848
889.9999999999998, 15.88754616803979
890.4999999999998, 15.88754616803979
891, 15.94494122353754
891.4999999999998, 16.231916501026333
891.9999999999998, 16.231916501026333
892.5, 16.37540413977071
892.9999999999998, 16.37540413977071
893.5, 16.461496723017333
894.9999999999998, 16.97805222249714
895.5, 16.97805222249714
895.9999999999998, 17.092842333492655
896.4999999999998, 17.092842333492655
896.9999999999998, 17.20763244448817
897.4999999999998, 17.351120083232544
898, 17.351120083232544
899.5, 17.896373110461212
900, 17.953768165958977
900.5, 17.953768165958977
902, 18.441626137689894
902.5, 18.441626137689894
904.4999999999998, 19.35994702565398
905, 19.35994702565398
906, 20.019990163878177
906.4999999999998, 20.019990163878177
907, 20.220872858120302
907.5, 20.220872858120302
908.9999999999998, 21.053101162837763
911.4999999999998, 21.914026995304084
913.9999999999998, 23.148020688505824
914.4999999999998, 23.148020688505824
915.4999999999998, 24.008946520972145
915.9999999999998, 24.008946520972145
916.5, 24.2098292152143
917, 24.2098292152143
917.9999999999998, 24.668989659196328
918.5, 24.668989659196328
920.9999999999998, 25.4725204361649
922.4999999999998, 26.10386604664022
922.9999999999998, 26.10386604664022
923.5, 26.333446268631235
924.9999999999998, 27.108279517850917
925.4999999999998, 27.108279517850917
927.4999999999998, 27.969205350317253
928, 27.969205350317253
929.4999999999998, 28.571853433043685
929.9999999999998, 28.8014336550347
930.4999999999998, 28.8014336550347
930.9999999999998, 29.289291626765618
931.4999999999998, 29.289291626765618
931.9999999999998, 29.346686682263382
932.5, 29.346686682263382
932.9999999999998, 29.60496443200327
934.5, 30.494587792218496
935, 30.494587792218496
935.5, 30.69547048646062
936.9999999999998, 31.412908680182582
937.4999999999998, 31.412908680182582
939, 32.35992709589553
941.5, 33.0486677618686
943.9999999999998, 33.9382911220838
944.4999999999998, 33.9382911220838
945.4999999999998, 34.483544149312465
945.9999999999998, 34.483544149312465
946.4999999999998, 34.77051942680124
946.9999999999998, 34.77051942680124
947.9999999999998, 35.631445259267565
948.4999999999998, 35.631445259267565
948.9999999999998, 35.774932898011954
949.5, 35.774932898011954
949.9999999999998, 36.06190817550073
950.4999999999998, 36.06190817550073
950.9999999999998, 36.29148839749176
953.4999999999998, 37.439389507446855
953.9999999999998, 37.84115489593114
954.4999999999998, 37.84115489593114
954.9999999999998, 37.98464253467554
955.5, 37.98464253467554
956, 38.042037590173294
956.5, 38.042037590173294
957.4999999999998, 38.81687083939299
957.9999999999998, 38.81687083939299
958.4999999999998, 39.132543644630644
959, 39.132543644630644
959.9999999999998, 39.763889255105944
960.4999999999998, 39.763889255105944
961, 39.96477194934809
961.5, 39.96477194934809
961.9999999999998, 40.16565464359023
962.5, 40.16565464359023
963, 40.22304969908798
964.5, 40.68221014307003
964.9999999999998, 40.68221014307003
965.4999999999998, 40.96918542055881
967, 41.600531031034116
967.4999999999998, 41.600531031034116
967.9999999999998, 41.858808780774005
968.4999999999998, 41.858808780774005
968.9999999999998, 42.05969147501615
969.4999999999998, 42.43275933575156
969.9999999999998, 42.43275933575156
970.5, 42.74843214098921
970.9999999999998, 42.74843214098921
971.5, 42.86322225198472
971.9999999999998, 43.035407418477995
972.4999999999998, 43.035407418477995
972.9999999999998, 43.69545055670217
973.4999999999998, 43.69545055670217
973.9999999999998, 43.75284561219993
974.4999999999998, 43.7815431399488
975, 43.810240667697684
976.4999999999998, 44.556376389168506
976.9999999999998, 44.556376389168506
978, 45.187721999643806
978.5, 45.187721999643806
979, 45.417302221634834
979.5, 45.417302221634834
979.9999999999998, 45.7042774991236
980.5, 45.761672554621356
980.9999999999998, 45.761672554621356
981.4999999999998, 45.84776513786799
981.9999999999998, 45.84776513786799
983.4999999999998, 46.4791107483433
983.9999999999998, 46.62259838708769
984.4999999999998, 46.62259838708769
985, 46.70869097033432
985.4999999999998, 46.70869097033432
986, 46.88087613682759
986.4999999999998, 46.852178609078706
986.9999999999998, 46.852178609078706
987.5, 46.90957366457647
987.9999999999998, 46.90957366457647
988.4999999999998, 47.081758831069735
988.9999999999998, 47.081758831069735
989.9999999999998, 47.770499497042785
990.4999999999998, 47.770499497042785
990.9999999999998, 47.82789455254054
991.4999999999998, 47.82789455254054
991.9999999999998, 47.885289608038306
992.4999999999998, 47.94268466353606
992.9999999999998, 47.94268466353606
993.4999999999998, 47.97138219128494
993.9999999999998, 47.97138219128494
994.5, 48.05747477453157
994.9999999999998, 48.05747477453157
995.5, 48.25835746877371
995.9999999999998, 48.4018451075181
996.4999999999998, 48.4018451075181
997, 48.48793769076474
997.5, 48.48793769076474
998, 48.54533274626249
998.4999999999998, 48.54533274626249
999, 48.54533274626249
999.4999999999998, 48.602727801760246
999.9999999999998, 48.602727801760246
1000.4999999999998, 48.54533274626249
1001, 48.54533274626249
1001.4999999999998, 48.4018451075181
1001.9999999999998, 48.34445005202034
1002.4999999999998, 48.34445005202034
1002.9999999999998, 48.459240163015856
1003.4999999999998, 48.459240163015856
1003.9999999999998, 48.74621544050463
1004.5, 48.803610496002385
1005, 48.803610496002385
1005.5, 48.947098134746774
1006, 48.947098134746774
1006.4999999999998, 48.975795662495656
1006.9999999999998, 48.975795662495656
1007.4999999999998, 48.975795662495656
1008, 48.9184006069979
1008.4999999999998, 48.9184006069979
1008.9999999999998, 48.889703079249024
1009.4999999999998, 48.889703079249024
1009.9999999999998, 48.9184006069979
1010.5, 49.033190717993406
1010.9999999999998, 49.033190717993406
1011.5, 49.033190717993406
1011.9999999999998, 49.033190717993406
1012.5, 49.06188824574229
1012.9999999999998, 49.06188824574229
1013.4999999999998, 49.20537588448667
1013.9999999999998, 49.234073412235546
1014.4999999999998, 49.234073412235546
1016, 48.9184006069979
1016.4999999999998, 48.9184006069979
1017, 48.9184006069979
1017.4999999999998, 48.9184006069979
1017.9999999999998, 48.9184006069979
1018.5, 48.9184006069979
1018.9999999999998, 49.033190717993406
1019.5, 49.033190717993406
1019.9999999999998, 49.09058577349116
1020.4999999999998, 49.09058577349116
1020.9999999999998, 49.033190717993406
1021.5, 49.033190717993406
1022, 48.9184006069979
1022.5, 48.68882038500687
1023, 48.68882038500687
1023.4999999999998, 48.74621544050463
1024, 48.74621544050463
1024.4999999999998, 48.660122857257996
1025, 48.48793769076474
1025.5, 48.48793769076474
1025.9999999999998, 48.4018451075181
1026.4999999999998, 48.4018451075181
1026.9999999999998, 48.34445005202034
1027.4999999999998, 48.34445005202034
1027.9999999999998, 48.459240163015856
1028.4999999999998, 48.31575252427146
1028.9999999999998, 48.31575252427146
1029.4999999999998, 48.11486983002933
1029.9999999999998, 48.11486983002933
1030.4999999999998, 48.17226488552708
1031, 48.143567357778196
1031.4999999999998, 48.143567357778196
1031.9999999999998, 48.086172302280445
1032.4999999999998, 48.086172302280445
1033.9999999999998, 47.54091927505178
1034.4999999999998, 47.42612916405626
1034.9999999999998, 47.42612916405626
1035.4999999999998, 47.368734108558506
1035.9999999999998, 47.368734108558506
1036.5, 47.340036580809624
1036.9999999999998, 47.22524646981412
1037.5, 47.22524646981412
1039, 45.761672554621356
1039.4999999999998, 45.79037008237024
1039.9999999999998, 45.79037008237024
1040.4999999999998, 45.81906761011911
1040.9999999999998, 45.81906761011911
1041.5, 45.87646266561687
1042, 45.87646266561687
1042.9999999999998, 45.50339480488147
1043.4999999999998, 45.50339480488147
1043.9999999999998, 45.47469727713259
1044.5, 45.47469727713259
1044.9999999999998, 45.44599974938371
1045.4999999999998, 45.44599974938371
1046, 45.44599974938371
1046.4999999999998, 45.331209638388195
1046.9999999999998, 45.331209638388195
1047.4999999999998, 44.35549369492635
1047.9999999999998, 44.35549369492635
1048.5, 44.26940111167972
1049.9999999999998, 43.35108022371564
1050.4999999999998, 43.35108022371564
1050.9999999999998, 43.20759258497125
1051.4999999999998, 43.20759258497125
1051.9999999999998, 43.20759258497125
1052.4999999999998, 43.12150000172463
1052.9999999999998, 43.12150000172463
1053.5, 42.92061730748248
1054.9999999999998, 42.203179113760534
1055.4999999999998, 42.203179113760534
1056, 42.11708653051391
1056.4999999999998, 42.11708653051391
1057, 42.11708653051391
1057.5, 41.91620383627176
1057.9999999999998, 41.91620383627176
1059.4999999999998, 40.911790365061044
1059.9999999999998, 40.88309283731218
1060.5, 40.88309283731218
1061.9999999999998, 40.25174722683686
1062.4999999999998, 40.25174722683686
1064.4999999999998, 39.36212386662166
1064.9999999999998, 39.36212386662166
1065.5, 39.16124117237951
1065.9999999999998, 38.989056005886255
1066.4999999999998, 38.989056005886255
1066.9999999999998, 38.81687083939299
1067.4999999999998, 38.81687083939299
1068.4999999999998, 38.32901286766206
1068.9999999999998, 38.32901286766206
1069.4999999999998, 38.21422275666656
1069.9999999999998, 38.21422275666656
1071.4999999999998, 37.582877146191244
1072, 37.12371670220921
1072.4999999999998, 37.12371670220921
1072.9999999999998, 37.0089265912137
1073.5, 37.0089265912137
1073.9999999999998, 36.750648841473804
1074.5, 36.578463674980526
1074.9999999999998, 36.578463674980526
1075.4999999999998, 36.29148839749176
1075.9999999999998, 36.29148839749176
1076.4999999999998, 36.234093341994
1077, 36.234093341994
1077.5, 36.11930323099848
1077.9999999999998, 35.631445259267565
1078.4999999999998, 35.631445259267565
1080.4999999999998, 34.91400706554563
1080.9999999999998, 34.91400706554563
1081.4999999999998, 34.88530953779677
1081.9999999999998, 34.88530953779677
1082.5, 34.85661201004787
1082.9999999999998, 34.56963673255912
1083.4999999999998, 34.56963673255912
1084.9999999999998, 33.421735622604004
1085.4999999999998, 33.421735622604004
1086, 33.192155400612975
1086.4999999999998, 33.07736528961746
1086.9999999999998, 33.07736528961746
1087.4999999999998, 32.99127270637085
1087.9999999999998, 32.99127270637085
1089.9999999999998, 32.1303468739045
1090.5, 32.1303468739045
1091.9999999999998, 31.556396318926957
1092.5, 31.470303735680332
1093, 31.470303735680332
1093.4999999999998, 31.154630930442664
1093.9999999999998, 31.154630930442664
1094.4999999999998, 31.011143291698275
1094.9999999999998, 30.925050708451664
1095.4999999999998, 30.925050708451664
1096.9999999999998, 30.379797681222982
1097.5, 30.23631004247858
1097.9999999999998, 30.23631004247858
1099.5, 29.461476793258896
1099.9999999999998, 29.461476793258896
1100.5, 29.404081737761146
1100.9999999999998, 29.375384210012257
1101.4999999999998, 29.375384210012257
1101.9999999999998, 29.260594099016743
1102.4999999999998, 29.260594099016743
1103.4999999999998, 28.686643544039185
1103.9999999999998, 28.686643544039185
1104.4999999999998, 28.543155905294824
1104.9999999999998, 28.543155905294824
1106.4999999999998, 27.997902878066142
1107.9999999999998, 27.13697704559982
1108.4999999999998, 27.13697704559982
1109, 26.907396823608792
1110.4999999999998, 26.53432896287339
1110.9999999999998, 26.53432896287339
1111.4999999999998, 26.247353685384596
1112.9999999999998, 25.788193241402553
1113.5, 25.788193241402553
1113.9999999999998, 25.673403130407053
1114.4999999999998, 25.673403130407053
1114.9999999999998, 25.529915491662663
1115.4999999999998, 25.4725204361649
1115.9999999999998, 25.4725204361649
1117.4999999999998, 24.640292131447467
1117.9999999999998, 24.410711909456438
1118.4999999999998, 24.410711909456438
1118.9999999999998, 24.353316853958674
1119.4999999999998, 24.353316853958674
1119.9999999999998, 24.23852674296316
1120.5, 24.23852674296316
1122.4999999999998, 23.434995965994602
1122.9999999999998, 23.434995965994602
1123.4999999999998, 23.205415744003574
1124, 23.00453304976145
1124.4999999999998, 23.00453304976145
1124.9999999999998, 22.88974293876592
1125.4999999999998, 22.88974293876592
1126.4999999999998, 22.229699800541738
1126.9999999999998, 22.229699800541738
1127.4999999999998, 21.914026995304084
1127.9999999999998, 21.914026995304084
1128.4999999999998, 21.77053935655971
1128.9999999999998, 21.77053935655971
1129.4999999999998, 21.627051717815306
1129.9999999999998, 21.340076440326527
1130.4999999999998, 21.340076440326527
1130.9999999999998, 21.196588801582138
1131.4999999999998, 21.196588801582138
1131.9999999999998, 20.880915996344484
1132.4999999999998, 20.68003330210236
1132.9999999999998, 20.68003330210236
1133.4999999999998, 20.65133577435347
1133.9999999999998, 20.65133577435347
1135.9999999999998, 19.933897580631523
1136.5, 19.933897580631523
1136.9999999999998, 19.90520005288265
1137.4999999999998, 19.90520005288265
1137.9999999999998, 19.90520005288265
1138.4999999999998, 19.8478049973849
1138.9999999999998, 19.8478049973849
1140.5, 19.216459386909605
1140.9999999999998, 19.0729717481652
1141.4999999999998, 19.0729717481652
1141.9999999999998, 18.47032366543877
1142.4999999999998, 18.47032366543877
1143, 18.41292860994102
1143.4999999999998, 18.41292860994102
1143.9999999999998, 18.32683602669438
1144.5, 17.867675582712337
1145, 17.867675582712337
1145.5, 17.724187943967948
1145.9999999999998, 17.724187943967948
1146.4999999999998, 17.724187943967948
1146.9999999999998, 17.724187943967948
1147.4999999999998, 17.724187943967948
1147.9999999999998, 17.666792888470198
1148.4999999999998, 17.666792888470198
1149.9999999999998, 17.092842333492655
1150.4999999999998, 17.064144805743766
1150.9999999999998, 17.064144805743766
1151.4999999999998, 16.691076945008362
1151.9999999999998, 16.691076945008362
1152.5, 16.604984361761737
1152.9999999999998, 16.604984361761737
1153.5, 16.604984361761737
1154.9999999999998, 16.03103380678418
1155.4999999999998, 15.916243695788665
1156, 15.916243695788665
1156.4999999999998, 15.916243695788665
1157, 15.916243695788665
1157.4999999999998, 15.916243695788665
1158, 15.916243695788665
1158.9999999999998, 15.284898085313358
1159.4999999999998, 15.284898085313358
1159.9999999999998, 15.256200557564497
1160.4999999999998, 15.256200557564497
1161, 15.399688196308873
1161.4999999999998, 15.428385724057748
1161.9999999999998, 15.428385724057748
1162.5, 15.342293140811108
1163, 15.342293140811108
1163.5, 15.170107974317844
1163.9999999999998, 15.170107974317844
1164.4999999999998, 15.112712918820094
1165.9999999999998, 14.682250002586926
1166.4999999999998, 14.682250002586926
1166.9999999999998, 14.567459891591412
1167.4999999999998, 14.079601919860494
1167.9999999999998, 14.079601919860494
1168.4999999999998, 14.079601919860494
1168.9999999999998, 14.079601919860494
1169.4999999999998, 14.050904392111633
1169.9999999999998, 14.050904392111633
1170.4999999999998, 13.993509336613869
1170.9999999999998, 13.936114281116105
1171.4999999999998, 13.936114281116105
1172, 13.878719225618354
1172.5, 13.878719225618354
1172.9999999999998, 13.67783653137623
1173.4999999999998, 13.591743948129576
1173.9999999999998, 13.591743948129576
1174.5, 13.362163726138576
1174.9999999999998, 13.362163726138576
1175.4999999999998, 13.161281031896422
1176, 13.103885976398658
1176.5, 13.103885976398658
1176.9999999999998, 13.161281031896422
1177.4999999999998, 13.161281031896422
1177.9999999999998, 13.218676087394172
1178.4999999999998, 13.218676087394172
1179, 13.132583504147547
1180.4999999999998, 12.788213171161004
1180.9999999999998, 12.788213171161004
1181.4999999999998, 12.788213171161004
1181.9999999999998, 12.788213171161004
1182.4999999999998, 12.788213171161004
1183, 12.730818115663254
1183.5, 12.730818115663254
1183.9999999999998, 12.443842838174476
1184.4999999999998, 12.443842838174476
1185, 12.329052727178976
1185.4999999999998, 12.35775025492785
1186, 12.35775025492785
1186.4999999999998, 12.4151453104256
1186.9999999999998, 12.4151453104256
1187.4999999999998, 12.64472553241663
1188, 12.38644778267674
1188.5, 12.38644778267674
1188.9999999999998, 12.185565088434572
1189.4999999999998, 12.185565088434572
1189.9999999999998, 12.156867560685711
1190.4999999999998, 12.156867560685711
1190.9999999999998, 12.156867560685711
1191.4999999999998, 12.214262616183476
1192, 12.214262616183476
1192.4999999999998, 12.271657671681226
1192.9999999999998, 12.271657671681226
1193.4999999999998, 12.329052727178976
1193.9999999999998, 12.271657671681226
1194.4999999999998, 12.271657671681226
1194.9999999999998, 12.271657671681226
1195.4999999999998, 12.271657671681226
1195.9999999999998, 12.185565088434572
1196.4999999999998, 12.156867560685711
1196.9999999999998, 12.156867560685711
1197.4999999999998, 12.128170032936822
1197.9999999999998, 12.128170032936822
1198.4999999999998, 12.099472505187961
1198.9999999999998, 12.099472505187961
1199.5, 12.099472505187961
1199.9999999999998, 11.927287338694683
1200.4999999999995, 11.927287338694683
1200.9999999999998, 11.898589810945822
1201.4999999999998, 11.898589810945822
1201.9999999999998, 11.898589810945822
1202.4999999999998, 11.869892283196918
1202.9999999999998, 11.869892283196918
1203.4999999999998, 11.697707116703654
1204, 11.697707116703654
1204.4999999999998, 11.783799699950308
1204.9999999999998, 11.783799699950308
1205.4999999999998, 11.669009588954793
1206, 11.611614533457043
1206.5, 11.611614533457043
1207, 11.640312061205904
1207.4999999999998, 11.640312061205904
1207.9999999999998, 11.640312061205904
1208.4999999999998, 11.669009588954793
1208.9999999999998, 11.669009588954793
1209.4999999999998, 11.697707116703654
1209.9999999999998, 11.697707116703654
1210.5, 11.726404644452558
1211, 11.726404644452558
1211.9999999999998, 11.955984866443558
1212.5, 11.955984866443558
1212.9999999999998, 12.013379921941308
1213.4999999999998, 12.013379921941308
1213.9999999999998, 12.099472505187961
1214.4999999999998, 11.984682394192433
1214.9999999999998, 11.984682394192433
1215.4999999999998, 11.755102172201418
1216, 11.755102172201418
1216.4999999999998, 11.697707116703654
1216.9999999999998, 11.697707116703654
1217.4999999999998, 11.640312061205904
1218, 11.697707116703654
1218.5, 11.697707116703654
1218.9999999999998, 11.783799699950308
1219.4999999999998, 11.783799699950308
1219.9999999999998, 11.783799699950308
1220.4999999999998, 11.783799699950308
1220.9999999999998, 11.783799699950308
1221.4999999999998, 11.869892283196918
1221.9999999999998, 11.869892283196918
1222.4999999999998, 11.755102172201418
1223, 11.755102172201418
1223.4999999999998, 11.755102172201418
1223.9999999999998, 11.869892283196918
1224.4999999999998, 11.869892283196918
1225, 11.841194755448058
1225.4999999999998, 11.841194755448058
1225.9999999999998, 11.640312061205904
1226.4999999999998, 11.52552195021039
1226.9999999999998, 11.52552195021039
1227.5, 11.554219477959279
1227.9999999999998, 11.554219477959279
1228.4999999999998, 11.669009588954793
1228.9999999999998, 11.755102172201418
1229.4999999999998, 11.755102172201418
1229.9999999999998, 11.697707116703654
1230.4999999999998, 11.697707116703654
1230.9999999999998, 11.697707116703654
1231.5, 11.697707116703654
1231.9999999999998, 11.783799699950308
1232.4999999999998, 11.755102172201418
1232.9999999999998, 11.755102172201418
1233.4999999999998, 11.640312061205904
1233.9999999999998, 11.640312061205904
1234.9999999999998, 11.238546672721625
1235.4999999999998, 11.238546672721625
1236, 11.181151617223875
1236.5, 11.181151617223875
1236.9999999999998, 11.35333678371714
1237.4999999999998, 11.35333678371714
1237.9999999999998, 11.46812689471264
1238.5, 11.496824422461515
1239, 11.496824422461515
1239.4999999999998, 11.496824422461515
1239.9999999999998, 11.496824422461515
1240.4999999999998, 11.496824422461515
1241, 11.582917005708154
1241.4999999999998, 11.582917005708154
1241.9999999999998, 11.640312061205904
1242.4999999999998, 11.640312061205904
1242.9999999999998, 11.783799699950308
1243.5, 11.812497227699168
1243.9999999999998, 11.812497227699168
1244.4999999999998, 11.812497227699168
1245, 11.812497227699168
1245.5, 11.869892283196918
1246, 11.869892283196918
1246.4999999999998, 11.841194755448058
1246.9999999999998, 11.726404644452558
1247.5, 11.726404644452558
1248, 11.755102172201418
1248.4999999999998, 11.755102172201418
1248.9999999999998, 11.812497227699168
1249.4999999999998, 11.783799699950308
1249.9999999999998, 11.783799699950308
1250.5, 11.812497227699168
1250.9999999999998, 11.812497227699168
1251.4999999999998, 11.783799699950308
1251.9999999999998, 11.783799699950308
1252.4999999999998, 11.898589810945822
1252.9999999999998, 11.812497227699168
1253.4999999999998, 11.812497227699168
1253.9999999999998, 11.812497227699168
1254.5, 11.812497227699168
1255, 11.841194755448058
1255.4999999999998, 11.783799699950308
1255.9999999999998, 11.783799699950308
1256.4999999999998, 11.640312061205904
1256.9999999999998, 11.640312061205904
1257.4999999999998, 11.841194755448058
1257.9999999999998, 11.841194755448058
1258.4999999999998, 11.927287338694683
1258.9999999999998, 11.898589810945822
1259.4999999999998, 11.898589810945822
1259.9999999999998, 11.869892283196918
1260.4999999999998, 11.869892283196918
1260.9999999999998, 11.755102172201418
1261.4999999999998, 11.755102172201418
1262, 11.755102172201418
1262.4999999999998, 11.611614533457043
1262.9999999999998, 11.611614533457043
1263.5, 11.611614533457043
1264, 11.611614533457043
1264.4999999999998, 11.611614533457043
1264.9999999999998, 11.669009588954793
1265.4999999999998, 11.669009588954793
1266, 11.697707116703654
1266.5, 11.697707116703654
1266.9999999999998, 11.755102172201418
1267.4999999999998, 11.669009588954793
1267.9999999999998, 11.669009588954793
1268.5, 11.611614533457043
1268.9999999999998, 11.611614533457043
1269.4999999999998, 11.611614533457043
1271.9999999999998, 11.841194755448058
1272.5, 11.841194755448058
1273, 11.869892283196918
1273.4999999999995, 11.783799699950308
1273.9999999999998, 11.783799699950308
1274.4999999999998, 11.726404644452558
1275, 11.726404644452558
1275.4999999999998, 11.669009588954793
1275.9999999999998, 11.898589810945822
1276.4999999999998, 11.898589810945822
1276.9999999999998, 11.927287338694683
1277.4999999999998, 11.927287338694683
1278, 11.984682394192433
1278.4999999999998, 11.984682394192433
1278.9999999999998, 11.984682394192433
1279.4999999999998, 11.984682394192433
1280, 11.984682394192433
1280.4999999999995, 12.042077449690197
1280.9999999999998, 12.042077449690197
1311, 11.812497227699168
1311.5, 11.697707116703654
1311.9999999999998, 11.496824422461515
1312.4999999999998, 11.496824422461515
1312.9999999999998, 11.640312061205904
1313.4999999999998, 11.640312061205904
1313.9999999999998, 11.927287338694683
1314.5, 11.955984866443558
1314.9999999999998, 11.955984866443558
1315.4999999999998, 11.984682394192433
1315.9999999999998, 11.984682394192433
1316.5, 12.099472505187961
1317, 12.099472505187961
1317.4999999999998, 12.128170032936822
1317.9999999999998, 12.128170032936822
1318.5, 12.128170032936822
1319, 12.128170032936822
1319.4999999999998, 12.128170032936822
1319.9999999999998, 12.042077449690197
1320.5, 12.070774977439072
1321, 12.070774977439072
1321.5, 12.242960143932336
1322, 12.242960143932336
1322.5, 12.329052727178976
1323.9999999999998, 12.58733047691888
1324.5, 12.58733047691888
1324.9999999999998, 12.61602800466774
1325.5, 12.61602800466774
1326, 12.61602800466774
1326.4999999999998, 12.61602800466774
1326.9999999999998, 12.61602800466774
1327.5, 12.759515643412144
1328, 12.759515643412144
1328.5, 12.730818115663254
1329, 12.67342306016549
1329.5, 12.67342306016549
1329.9999999999998, 12.64472553241663
1330.4999999999998, 12.64472553241663
1330.9999999999998, 12.67342306016549
1331.5, 12.67342306016549
1331.9999999999998, 12.64472553241663
1332.4999999999998, 12.64472553241663
1332.9999999999998, 12.64472553241663
1333.4999999999998, 12.67342306016549
1334, 12.67342306016549
1334.4999999999998, 12.61602800466774
1335, 12.47254036592335
1335.5, 12.47254036592335
1335.9999999999998, 12.4151453104256
1336.4999999999998, 12.4151453104256
1336.9999999999998, 12.38644778267674
1337.5, 12.38644778267674
1337.9999999999998, 12.529935421421115
1338.5, 12.501237893672226
1339, 12.501237893672226
1339.5, 12.443842838174476
1339.9999999999998, 12.443842838174476
1340.4999999999998, 12.38644778267674
1341, 12.58733047691888
1341.5, 12.58733047691888
1342, 12.55863294916999
1342.4999999999998, 12.55863294916999
1343, 12.47254036592335
1343.5, 12.47254036592335
1344, 12.443842838174476
1344.5000000000002, 12.47254036592335
1345, 12.47254036592335
1345.4999999999998, 12.35775025492785
1346, 12.35775025492785
1346.5, 12.271657671681226
1346.9999999999998, 12.300355199430086
1347.4999999999998, 12.300355199430086
1347.9999999999998, 12.38644778267674
1348.4999999999998, 12.38644778267674
1349, 12.329052727178976
1349.5, 12.242960143932336
1350, 12.242960143932336
1350.4999999999998, 12.128170032936822
1351, 12.128170032936822
1351.4999999999998, 12.042077449690197
1351.9999999999998, 12.042077449690197
1352.4999999999998, 12.128170032936822
1353, 12.128170032936822
1353.5, 12.128170032936822
1353.9999999999998, 12.099472505187961
1354.5, 12.099472505187961
1355, 12.013379921941308
1355.4999999999998, 11.984682394192433
1355.9999999999998, 11.984682394192433
1356.4999999999998, 12.214262616183476
1356.9999999999998, 12.214262616183476
1357.4999999999998, 11.984682394192433
1357.9999999999998, 11.984682394192433
1358.4999999999998, 11.755102172201418
1358.9999999999998, 11.726404644452558
1359.4999999999998, 11.726404644452558
1359.9999999999998, 11.755102172201418
1360.4999999999998, 11.755102172201418
1360.9999999999998, 11.783799699950308
1361.5, 11.812497227699168
1362, 11.812497227699168
1362.4999999999998, 11.927287338694683
1362.9999999999998, 11.927287338694683
1363.4999999999998, 11.755102172201418
1363.9999999999998, 11.755102172201418
1364.5, 11.46812689471264
1365, 11.35333678371714
1365.5, 11.35333678371714
1365.9999999999995, 11.29594172821939
1366.4999999999998, 11.29594172821939
1367, 11.46812689471264
1367.5, 11.554219477959279
1368, 11.554219477959279
1368.4999999999998, 11.52552195021039
1368.9999999999998, 11.52552195021039
1369.5, 11.439429366963765
1369.9999999999998, 11.238546672721625
1370.4999999999998, 11.238546672721625
1370.9999999999998, 11.238546672721625
1371.4999999999998, 11.238546672721625
1372, 11.152454089474986
1372.4999999999998, 11.152454089474986
1373, 11.123756561726125
1373.5, 11.095059033977236
1374, 11.095059033977236
1374.4999999999998, 11.008966450730597
1374.9999999999998, 11.008966450730597
1375.5, 11.095059033977236
1375.9999999999998, 11.037663978479472
1376.4999999999998, 11.037663978479472
1376.9999999999998, 11.008966450730597
1377.4999999999998, 11.008966450730597
1377.9999999999998, 10.750688700990708
1378.4999999999998, 10.750688700990708
1378.9999999999998, 10.808083756488472
1379.4999999999998, 10.836781284237333
1379.9999999999998, 10.836781284237333
1380.5, 10.865478811986222
1381, 10.865478811986222
1381.4999999999998, 10.865478811986222
1381.9999999999998, 10.750688700990708
1382.4999999999998, 10.750688700990708
1383, 10.664596117744068
1383.5, 10.664596117744068
