301, 43.20759258497125
301.5, 43.20759258497125
302, 43.20759258497125
302.5, 43.20759258497125
303, 43.20759258497125
303.5, 43.20759258497125
304, 43.23629011272013
304.5, 43.23629011272013
305, 43.23629011272013
305.5, 43.293685168217884
306, 43.293685168217884
306.5, 43.35108022371564
307, 43.379777751464516
307.5, 43.379777751464516
308, 43.4084752792134
308.5, 43.4084752792134
309, 43.465870334711155
309.5, 43.465870334711155
310, 43.52326539020891
310.5, 43.55196291795779
311, 43.55196291795779
311.5, 43.55196291795779
312, 43.55196291795779
312.5, 43.58066044570667
313, 43.609357973455545
313.5, 43.609357973455545
314, 43.6667530289533
314.5, 43.6667530289533
315, 43.6667530289533
315.5, 43.6667530289533
316, 43.69545055670217
316.5, 43.75284561219993
317, 43.75284561219993
317.5, 43.810240667697684
318, 43.810240667697684
318.5, 43.83893819544656
319, 43.9250307786932
319.5, 43.9250307786932
320, 43.95372830644207
320.5, 43.95372830644207
321, 43.982425834190956
321.5, 43.982425834190956
322, 43.982425834190956
322.5, 44.01112336193983
323, 44.01112336193983
323.5, 44.01112336193983
324, 44.01112336193983
324.5, 44.06851841743759
325, 44.09721594518646
325.5, 44.09721594518646
326, 44.15461100068422
326.5, 44.15461100068422
327, 44.15461100068422
327.5, 44.18330852843309
328, 44.18330852843309
328.5, 44.240703583930845
329, 44.240703583930845
329.5, 44.2980986394286
330, 44.2980986394286
330.5, 44.32679616717748
331, 44.384191222675234
331.5, 44.384191222675234
332, 44.412888750424116
332.5, 44.412888750424116
333, 44.441586278173
333.5, 44.47028380592187
334, 44.47028380592187
334.5, 44.49898133367075
335, 44.49898133367075
335.5, 44.556376389168506
336, 44.556376389168506
336.5, 44.58507391691738
337, 44.64246897241514
337.5, 44.64246897241514
338, 44.69986402791289
338.5, 44.69986402791289
339, 44.757259083410645
339.5, 44.757259083410645
340, 44.757259083410645
340.5, 44.814654138908395
341, 44.814654138908395
341.5, 44.900746722155034
342, 44.900746722155034
342.5, 44.929444249903916
343, 44.986839305401666
343.5, 44.986839305401666
344, 44.986839305401666
344.5, 44.986839305401666
345, 45.01553683315055
345.5, 45.10162941639718
346, 45.10162941639718
346.5, 45.130326944146056
347, 45.130326944146056
347.5, 45.15902447189494
348, 45.15902447189494
348.5, 45.187721999643806
349, 45.27381458289044
349.5, 45.27381458289044
350, 45.331209638388195
350.5, 45.331209638388195
351, 45.38860469388595
351.5, 45.417302221634834
352, 45.417302221634834
352.5, 45.44599974938371
353, 45.44599974938371
353.5, 45.50339480488147
354, 45.53209233263034
354.5, 45.53209233263034
355, 45.618184915876974
355.5, 45.618184915876974
356, 45.675579971374724
356.5, 45.675579971374724
357, 45.73297502687248
357.5, 45.81906761011911
358, 45.81906761011911
358.5, 45.87646266561687
359, 45.87646266561687
359.5, 45.93385772111463
360, 45.96255524886351
360.5, 45.96255524886351
361, 45.991252776612384
361.5, 45.991252776612384
362, 46.04864783211014
362.5, 46.04864783211014
363, 46.1060428876079
363.5, 46.134740415356774
364, 46.134740415356774
364.5, 46.192135470854524
365, 46.192135470854524
365.5, 46.249530526352274
366, 46.30692558185003
366.5, 46.30692558185003
367, 46.421715692845545
367.5, 46.421715692845545
368, 46.4791107483433
368.5, 46.4791107483433
369, 46.565203331589935
369.5, 46.65129591483656
370, 46.65129591483656
370.5, 46.73738849808319
371, 46.73738849808319
371.5, 46.766086025832074
372, 46.79478355358095
372.5, 46.79478355358095
373, 46.852178609078706
373.5, 46.852178609078706
374, 46.938271192325345
374.5, 46.938271192325345
375, 46.9956662478231
375.5, 47.05306130332085
376, 47.05306130332085
376.5, 47.11045635881861
377, 47.11045635881861
377.5, 47.196548942065235
378, 47.25394399756299
378.5, 47.25394399756299
379, 47.340036580809624
379.5, 47.340036580809624
380, 47.368734108558506
380.5, 47.454826691805145
381, 47.454826691805145
381.5, 47.512221747302895
382, 47.512221747302895
382.5, 47.56961680280065
383, 47.56961680280065
383.5, 47.68440691379615
384, 47.74180196929391
384.5, 47.74180196929391
385, 47.82789455254054
385.5, 47.82789455254054
386, 47.885289608038306
386.5, 48.00007971903381
387, 48.00007971903381
387.5, 48.11486983002933
388, 48.11486983002933
388.5, 48.17226488552708
389, 48.17226488552708
389.5, 48.25835746877371
390, 48.34445005202034
390.5, 48.34445005202034
391, 48.459240163015856
391.5, 48.459240163015856
392, 48.51663521851361
392.5, 48.602727801760246
393, 48.602727801760246
393.5, 48.68882038500687
394, 48.68882038500687
394.5, 48.74621544050463
395, 48.74621544050463
395.5, 48.803610496002385
396, 48.889703079249024
396.5, 48.889703079249024
397, 48.975795662495656
397.5, 48.975795662495656
398, 49.09058577349116
398.5, 49.17667835673779
398.99999999999994, 49.17667835673779
399.5, 49.26277093998442
400, 49.26277093998442
400.5, 49.34886352323106
401, 49.34886352323106
401.5, 49.37756105097994
402, 49.463653634226574
402.5, 49.463653634226574
403, 49.549746217473206
403.5, 49.549746217473206
404, 49.63583880071983
404.5, 49.721931383966464
405, 49.721931383966464
405.5, 49.83672149496198
406, 49.83672149496198
406.5, 49.95151160595749
407, 49.95151160595749
407.5, 50.00890666145525
408, 50.09499924470188
408.5, 50.09499924470188
409, 50.18109182794851
409.5, 50.18109182794851
410, 50.20978935569738
410.5, 50.324579466692896
411, 50.324579466692896
411.5, 50.46806710543729
412, 50.46806710543729
412.5, 50.52546216093504
413, 50.64025227193055
413.5, 50.668949799679424
414, 50.812437438423814
414.5, 50.812437438423814
415, 50.841134966172696
415.5, 50.841134966172696
416, 50.95592507716821
416.5, 51.01332013266596
417, 51.01332013266596
417.5, 51.099412715912585
418, 51.099412715912585
418.5, 51.2142028269081
419, 51.30029541015473
419.5, 51.30029541015473
420, 51.38638799340137
420.5, 51.38638799340137
421, 51.472480576648
421.5, 51.472480576648
422, 51.55857315989463
422.5, 51.67336327089014
423, 51.67336327089014
423.5, 51.73075832638789
424, 51.73075832638789
424.5, 51.845548437383414
424.99999999999994, 51.96033854837892
425.5, 51.96033854837892
426, 52.07512865937443
426.49999999999994, 52.07512865937443
427, 52.16122124262106
427.5, 52.16122124262106
428, 52.27601135361657
428.5, 52.39080146461209
429, 52.39080146461209
429.5, 52.47689404785872
430, 52.47689404785872
430.5, 52.6203816866031
431, 52.73517179759861
431.5, 52.73517179759861
432, 52.90735696409188
432.5, 52.90735696409188
433, 52.993449547338514
433.5, 52.993449547338514
434, 53.16563471383178
434.5, 53.25172729707841
435, 53.25172729707841
435.5, 53.30912235257617
436, 53.30912235257617
436.5, 53.45260999132056
437, 53.510005046818314
437.5, 53.510005046818314
438, 53.59609763006494
438.5, 53.59609763006494
439, 53.710887741060446
439.5, 53.710887741060446
440, 53.7682827965582
440.5, 53.85437537980484
441, 53.85437537980484
441.5, 54.0265605462981
442, 54.0265605462981
442.5, 54.11265312954473
443, 54.19874571279137
443.5, 54.19874571279137
444, 54.284838296038004
444.49999999999994, 54.284838296038004
445, 54.42832593478239
445.5, 54.42832593478239
446, 54.51441851802903
446.5, 54.62920862902453
447, 54.62920862902453
447.5, 54.77269626776892
448, 54.77269626776892
448.5, 54.85878885101556
449, 54.94488143426219
449.5, 54.94488143426219
450, 55.03097401750882
450.5, 55.03097401750882
451, 55.11706660075545
451.5, 55.20315918400208
452, 55.20315918400208
452.5, 55.34664682274648
453, 55.34664682274648
453.5, 55.461436933741986
454, 55.461436933741986
454.5, 55.54752951698862
455, 55.691017155733
455.5, 55.691017155733
456, 55.80580726672852
456.5, 55.80580726672852
457, 55.891899849975154
457.5, 56.006689960970654
458, 56.006689960970654
458.5, 56.178875127463925
459, 56.178875127463925
459.5, 56.236270182961675
460, 56.236270182961675
460.5, 56.322362766208315
461, 56.40845534945495
461.5, 56.40845534945495
462, 56.55194298819933
462.5, 56.55194298819933
463, 56.752825682441475
463.5, 56.89631332118587
464, 56.89631332118587
464.5, 57.06849848767913
465, 57.06849848767913
465.5, 57.183288598674636
466, 57.183288598674636
466.5, 57.24068365417239
467, 57.38417129291679
467.5, 57.38417129291679
468, 57.44156634841454
468.5, 57.44156634841454
469, 57.58505398715892
469.5, 57.81463420914995
470, 57.81463420914995
470.5, 57.95812184789434
471, 57.95812184789434
471.5, 58.15900454213647
472, 58.15900454213647
472.5, 58.33118970862975
473, 58.474677347374126
473.5, 58.474677347374126
474, 58.6468625138674
474.5, 58.6468625138674
475, 58.73295509711403
475.5, 58.847745208109544
475.99999999999994, 58.847745208109544
476.5, 59.07732543010056
477, 59.07732543010056
477.5, 59.16341801334719
478, 59.16341801334719
478.5, 59.364300707589344
479, 59.5364858740826
479.49999999999994, 59.5364858740826
480, 59.708671040575865
480.5, 59.708671040575865
481, 59.88085620706914
481.5, 60.02434384581352
482, 60.02434384581352
482.5, 60.16783148455791
483, 60.16783148455791
483.5, 60.311319123302304
484, 60.311319123302304
484.5, 60.45480676204668
485, 60.59829440079107
485.5, 60.59829440079107
486, 60.741782039535465
486.5, 60.741782039535465
487, 60.85657215053097
487.5, 61.143547428019744
488, 61.143547428019744
488.5, 61.22964001126638
489, 61.22964001126638
489.5, 61.40182517775964
490, 61.40182517775964
490.5, 61.48791776100627
491, 61.63140539975066
491.49999999999994, 61.63140539975066
491.99999999999994, 61.77489303849506
492.5, 61.77489303849506
493, 61.91838067723944
493.5, 62.03317078823495
494, 62.03317078823495
494.5, 62.11926337148158
495, 62.11926337148158
495.5, 62.2340534824771
496, 62.32014606572373
496.5, 62.32014606572373
497, 62.32014606572373
497.5, 62.32014606572373
498, 62.40623864897036
498.5, 62.40623864897036
499, 62.463633704468116
499.5, 62.43493617671923
500, 62.43493617671923
500.5, 62.463633704468116
501, 62.463633704468116
501.5, 62.57842381546362
502, 62.521028759965866
502.5, 62.521028759965866
503, 62.463633704468116
503.5, 62.463633704468116
504, 62.43493617671923
504.5, 62.43493617671923
505, 62.49233123221699
505.49999999999994, 62.521028759965866
505.99999999999994, 62.521028759965866
506.49999999999994, 62.29144853797486
507, 62.29144853797486
507.5, 62.17665842697934
507.99999999999994, 61.947078204988316
508.49999999999994, 61.947078204988316
509, 61.80359056624393
509.49999999999994, 61.80359056624393
509.99999999999994, 61.74619551074618
510.49999999999994, 61.74619551074618
511, 61.660102927499544
511.5, 61.40182517775964
511.99999999999994, 61.40182517775964
512.5, 61.22964001126638
513, 61.22964001126638
513.5, 61.11484990027087
514, 61.02875731702424
514.5, 61.02875731702424
515, 60.942664733777605
515.5, 60.942664733777605
516, 60.655689456288826
516.5, 60.569596873042194
517, 60.569596873042194
517.5, 60.426109234297805
518, 60.426109234297805
518.5, 60.225226540055665
519, 60.225226540055665
519.5, 60.11043642906015
520, 59.85215867932026
520.5, 59.85215867932026
521, 59.708671040575865
521.5, 59.708671040575865
522, 59.565183401831476
522.5, 59.27820812434271
523, 59.27820812434271
523.5, 59.22081306884495
524, 59.22081306884495
524.5, 59.07732543010056
525, 59.07732543010056
525.5, 58.876442735858426
526, 58.790350152611786
526.5, 58.790350152611786
527, 58.70425756936515
527.5, 58.70425756936515
528, 58.6468625138674
528.5, 58.58946745836964
529, 58.58946745836964
529.5, 58.41728229187638
530, 58.41728229187638
530.5, 58.27379465313199
531, 58.27379465313199
531.5, 58.15900454213647
532, 57.95812184789434
532.5, 57.95812184789434
533, 57.87202926464771
533.5, 57.87202926464771
534, 57.81463420914995
534.5, 57.81463420914995
535, 57.81463420914995
535.5, 57.81463420914995
536, 57.81463420914995
536.5, 57.72854162590331
537, 57.75723915365219
537.5, 57.75723915365219
538, 57.843331736898826
538.5, 57.843331736898826
539, 57.81463420914995
539.5, 57.81463420914995
540, 57.75723915365219
540.5, 57.699844098154436
541, 57.699844098154436
541.5, 57.75723915365219
542, 57.75723915365219
542.5, 57.87202926464771
543, 57.98681937564321
543.5, 57.98681937564321
544, 57.95812184789434
544.5, 57.95812184789434
545, 57.929424320145465
545.5, 57.929424320145465
546, 58.044214431140965
546.5, 58.10160948663872
547, 58.10160948663872
547.5, 58.24509712538311
548, 58.24509712538311
548.5, 58.27379465313199
549, 58.41728229187638
549.5, 58.41728229187638
550, 58.44597981962526
550.5, 58.44597981962526
551, 58.474677347374126
551.5, 58.474677347374126
552, 58.474677347374126
552.5, 58.474677347374126
553, 58.474677347374126
553.5, 58.6468625138674
554, 58.6468625138674
554.5, 58.70425756936515
555, 58.81904768036067
555.5, 58.81904768036067
556, 58.9051402636073
556.5, 58.9051402636073
557, 58.96253531910505
557.5, 58.96253531910505
558, 58.96253531910505
558.5, 58.933837791356176
559, 58.933837791356176
559.5, 58.933837791356176
560, 58.933837791356176
560.5, 58.96253531910505
561, 58.991232846853926
561.5, 58.991232846853926
562, 59.04862790235168
562.5, 59.04862790235168
563, 59.04862790235168
563.5, 59.04862790235168
564, 59.04862790235168
564.5, 59.04862790235168
565, 59.04862790235168
565.5, 59.07732543010056
566, 59.07732543010056
566.5, 59.10602295784943
567, 58.96253531910505
567.5, 58.96253531910505
568, 58.933837791356176
568.5, 58.933837791356176
569, 58.73295509711403
569.5, 58.560769930620765
570, 58.560769930620765
570.5, 58.41728229187638
571, 58.41728229187638
571.5, 58.187702069885354
572, 58.187702069885354
572.5, 58.1303070143876
573, 57.929424320145465
573.5, 57.929424320145465
574, 57.72854162590331
574.5, 57.72854162590331
575, 57.613751514907804
575.5, 57.35547376516791
576, 57.35547376516791
576.5, 57.24068365417239
577, 57.24068365417239
577.5, 57.03980095993025
578, 57.03980095993025
578.5, 56.63803557144596
579, 56.49454793270157
579.5, 56.49454793270157
580, 56.322362766208315
580.5, 56.322362766208315
581, 56.035387488719536
581.4999999999999, 55.86320232222628
582, 55.86320232222628
582.5, 55.691017155733
583, 55.691017155733
583.5, 55.49013446149087
584, 55.34664682274648
584.5, 55.34664682274648
585, 55.00227648975995
585.5, 55.00227648975995
586, 54.77269626776892
586.5, 54.77269626776892
587, 54.60051110127566
587.5, 54.25614076828912
588, 54.25614076828912
588.5, 54.05525807404698
589, 54.05525807404698
589.5, 53.7682827965582
590, 53.53870257456718
590.5, 53.53870257456718
591, 53.3952149358228
591.5, 53.3952149358228
592, 53.136937186082896
592.4999999999999, 53.136937186082896
593, 52.82126438084525
593.5, 52.706474269849735
594, 52.706474269849735
594.5, 52.44819652010984
595, 52.44819652010984
595.5, 52.21861629811882
596, 52.01773360387668
596.5, 52.01773360387668
597, 51.73075832638789
597.5, 51.73075832638789
598, 51.615968215392385
598.5, 51.357690465652496
599, 51.357690465652496
599.5, 51.04201766041484
600, 51.04201766041484
600.4999999999999, 50.92722754941933
600.9999999999999, 50.92722754941933
601.5, 50.75504238292606
602, 50.49676463318617
602.5, 50.49676463318617
603, 50.324579466692896
603.5, 50.324579466692896
604, 50.15239430019963
604.4999999999999, 50.066301716953
604.9999999999999, 50.066301716953
605.5, 49.77932643946422
606, 49.77932643946422
606.5, 49.57844374522208
607, 49.57844374522208
607.5, 49.463653634226574
608, 49.32016599548218
608.5, 49.32016599548218
609, 49.14798082898891
609.5, 49.14798082898891
610, 49.033190717993406
610.5, 48.947098134746774
611, 48.947098134746774
611.5, 48.889703079249024
612, 48.889703079249024
612.5, 48.7749129682535
613, 48.660122857257996
613.5, 48.660122857257996
614, 48.602727801760246
614.5, 48.602727801760246
615, 48.43054263526698
615.4999999999999, 48.43054263526698
616, 48.31575252427146
616.5, 48.22965994102483
617, 48.22965994102483
617.5, 48.143567357778196
618, 48.143567357778196
618.5, 48.086172302280445
619, 48.028777246782695
619.5, 48.028777246782695
620, 47.91398713578718
620.4999999999999, 47.91398713578718
621, 47.885289608038306
621.5, 47.885289608038306
622, 47.82789455254054
622.5, 47.74180196929391
623, 47.74180196929391
623.5, 47.713104441545035
624, 47.713104441545035
624.5, 47.68440691379615
625, 47.56961680280065
625.5, 47.56961680280065
626, 47.48352421955402
626.5, 47.48352421955402
627, 47.39743163630739
627.5, 47.39743163630739
628, 47.368734108558506
628.4999999999999, 47.340036580809624
629, 47.340036580809624
629.5, 47.31133905306075
630, 47.31133905306075
630.5, 47.25394399756299
631, 47.13915388656749
631.5, 47.13915388656749
632, 47.081758831069735
632.5, 47.081758831069735
633, 47.02436377557198
633.5, 46.88087613682759
634, 46.88087613682759
634.5, 46.852178609078706
635, 46.852178609078706
635.5, 46.88087613682759
636, 46.88087613682759
636.5, 46.9956662478231
637, 46.96696872007422
637.5, 46.96696872007422
638, 46.88087613682759
638.5, 46.88087613682759
639, 46.88087613682759
639.5, 46.88087613682759
640, 46.88087613682759
640.5, 46.96696872007422
641, 46.96696872007422
641.5, 46.96696872007422
642, 46.96696872007422
642.5, 46.90957366457647
643, 46.82348108132983
643.5, 46.82348108132983
644, 46.79478355358095
644.5, 46.79478355358095
645, 46.70869097033432
645.5, 46.766086025832074
646, 46.766086025832074
646.5, 46.79478355358095
647, 46.79478355358095
647.5, 46.88087613682759
648, 46.88087613682759
648.5, 46.90957366457647
649, 46.88087613682759
649.5, 46.88087613682759
650, 46.82348108132983
650.5, 46.82348108132983
651, 46.766086025832074
651.5, 46.70869097033432
652, 46.70869097033432
652.4999999999999, 46.766086025832074
653, 46.766086025832074
653.5, 46.766086025832074
654, 46.766086025832074
654.5, 46.70869097033432
655, 46.73738849808319
655.5, 46.73738849808319
656, 46.73738849808319
656.5, 46.73738849808319
657, 46.79478355358095
657.5, 46.766086025832074
658, 46.766086025832074
658.5, 46.73738849808319
659, 46.73738849808319
659.5, 46.852178609078706
660, 46.90957366457647
660.5, 46.90957366457647
661, 46.90957366457647
661.5, 46.90957366457647
662, 46.852178609078706
662.5, 46.852178609078706
663, 46.852178609078706
663.5, 46.852178609078706
664, 46.852178609078706
664.5, 46.88087613682759
665, 46.88087613682759
665.5, 46.90957366457647
666, 47.081758831069735
666.5, 47.081758831069735
667, 46.9956662478231
667.5, 46.9956662478231
668, 46.90957366457647
668.5, 46.90957366457647
669, 46.88087613682759
669.5, 46.88087613682759
670, 46.88087613682759
670.5, 46.852178609078706
671, 46.852178609078706
671.5, 46.79478355358095
672, 46.79478355358095
672.5, 46.79478355358095
673, 46.82348108132983
673.5, 46.82348108132983
674, 46.90957366457647
674.5, 46.90957366457647
675, 46.96696872007422
675.5, 47.11045635881861
675.9999999999999, 47.11045635881861
676.5, 47.13915388656749
677, 47.13915388656749
677.5, 47.22524646981412
678, 47.22524646981412
678.5, 47.22524646981412
679, 47.22524646981412
679.5, 47.22524646981412
680, 47.22524646981412
680.5, 47.22524646981412
681, 47.31133905306075
681.5, 47.368734108558506
682, 47.368734108558506
682.5, 47.340036580809624
682.9999999999999, 47.340036580809624
683.5, 47.368734108558506
683.9999999999999, 47.39743163630739
684.5, 47.39743163630739
685, 47.42612916405626
685.5, 47.42612916405626
686, 47.48352421955402
686.5, 47.54091927505178
687, 47.54091927505178
687.5, 47.59831433054953
688, 47.59831433054953
688.5, 47.65570938604728
689, 47.65570938604728
689.5, 47.68440691379615
690, 47.68440691379615
690.5, 47.68440691379615
691, 47.713104441545035
691.5, 47.713104441545035
692, 47.79919702479167
692.5, 47.82789455254054
693, 47.82789455254054
693.5, 47.885289608038306
694, 47.885289608038306
694.5, 47.885289608038306
695, 47.885289608038306
695.5, 47.94268466353606
696, 47.97138219128494
696.5, 47.97138219128494
697, 48.028777246782695
697.5, 48.028777246782695
698, 48.086172302280445
698.5, 48.17226488552708
699, 48.17226488552708
699.5, 48.17226488552708
700, 48.17226488552708
700.5, 48.17226488552708
701, 48.17226488552708
701.5, 48.22965994102483
702, 48.287054996522585
702.5, 48.287054996522585
703, 48.34445005202034
703.5, 48.34445005202034
704, 48.34445005202034
704.5, 48.373147579769224
705, 48.373147579769224
705.5, 48.34445005202034
706, 48.34445005202034
706.5, 48.4018451075181
707, 48.4018451075181
707.4999999999999, 48.48793769076474
708, 48.48793769076474
708.5, 48.48793769076474
709, 48.48793769076474
709.5, 48.48793769076474
710, 48.51663521851361
710.4999999999999, 48.48793769076474
710.9999999999999, 48.48793769076474
711.4999999999999, 48.43054263526698
712, 48.43054263526698
712.5, 48.43054263526698
713, 48.51663521851361
713.5, 48.51663521851361
714, 48.51663521851361
714.5, 48.51663521851361
715, 48.51663521851361
715.5, 48.51663521851361
716, 48.54533274626249
716.5, 48.63142532950911
717, 48.63142532950911
717.5, 48.57403027401137
718, 48.57403027401137
718.5, 48.57403027401137
719, 48.57403027401137
719.5, 48.57403027401137
720, 48.602727801760246
720.5, 48.602727801760246
721, 48.660122857257996
721.5, 48.660122857257996
722, 48.660122857257996
722.4999999999999, 48.63142532950911
723, 48.63142532950911
723.5, 48.63142532950911
724, 48.63142532950911
724.5, 48.57403027401137
724.9999999999999, 48.57403027401137
725.5, 48.57403027401137
726, 48.602727801760246
726.4999999999999, 48.602727801760246
727, 48.63142532950911
727.5, 48.63142532950911
727.9999999999999, 48.602727801760246
728.4999999999998, 48.602727801760246
728.9999999999999, 48.602727801760246
729.5, 48.63142532950911
730, 48.63142532950911
730.5, 48.68882038500687
731, 48.63142532950911
731.5, 48.63142532950911
732, 48.63142532950911
732.5, 48.63142532950911
733, 48.63142532950911
733.5, 48.63142532950911
734, 48.602727801760246
734.5, 48.57403027401137
735, 48.57403027401137
735.4999999999998, 48.602727801760246
735.9999999999999, 48.602727801760246
736.5, 48.54533274626249
737, 48.459240163015856
737.5, 48.459240163015856
738, 48.43054263526698
738.5, 48.43054263526698
739, 48.48793769076474
739.5, 48.51663521851361
739.9999999999999, 48.51663521851361
740.4999999999999, 48.602727801760246
740.9999999999998, 48.602727801760246
741.4999999999999, 48.602727801760246
742, 48.602727801760246
742.4999999999999, 48.602727801760246
743, 48.51663521851361
743.5, 48.51663521851361
744, 48.459240163015856
744.4999999999999, 48.459240163015856
745, 48.43054263526698
745.5, 48.459240163015856
746, 48.459240163015856
746.5, 48.48793769076474
747, 48.48793769076474
747.5, 48.459240163015856
747.9999999999999, 48.459240163015856
748.5, 48.373147579769224
748.9999999999998, 48.287054996522585
749.4999999999999, 48.287054996522585
750, 48.143567357778196
750.4999999999999, 48.143567357778196
751, 48.086172302280445
751.5, 48.00007971903381
752, 48.00007971903381
752.4999999999999, 47.94268466353606
753, 47.94268466353606
753.5, 47.856592080289424
754, 47.856592080289424
754.5, 47.79919702479167
754.9999999999999, 47.770499497042785
755.5, 47.770499497042785
756, 47.713104441545035
756.5, 47.713104441545035
757, 47.68440691379615
757.5, 47.59831433054953
758, 47.59831433054953
758.5, 47.54091927505178
759, 47.54091927505178
759.5, 47.54091927505178
760, 47.54091927505178
760.5, 47.54091927505178
761, 47.48352421955402
761.5, 47.48352421955402
762, 47.42612916405626
762.5, 47.42612916405626
762.9999999999999, 47.31133905306075
763.5, 47.196548942065235
763.9999999999999, 47.196548942065235
764.5, 47.13915388656749
765, 47.13915388656749
765.4999999999999, 47.05306130332085
766, 46.9956662478231
766.4999999999999, 46.9956662478231
767, 46.90957366457647
767.5, 46.90957366457647
768, 46.82348108132983
768.5, 46.82348108132983
769, 46.766086025832074
769.5, 46.67999344258544
770, 46.67999344258544
770.5, 46.53650580384106
770.9999999999999, 46.53650580384106
771.5, 46.45041322059443
771.9999999999999, 46.421715692845545
772.4999999999999, 46.421715692845545
773, 46.30692558185003
773.5, 46.30692558185003
774, 46.2208329986034
774.4999999999999, 46.2208329986034
774.9999999999999, 46.1060428876079
775.4999999999999, 46.07734535985902
776, 46.07734535985902
776.4999999999999, 45.96255524886351
777, 45.96255524886351
777.5, 45.81906761011911
778, 45.675579971374724
778.5, 45.675579971374724
779, 45.47469727713259
779.5, 45.47469727713259
779.9999999999999, 45.331209638388195
780.5, 45.30251211063931
781, 45.30251211063931
781.5, 45.24511705514156
782, 45.24511705514156
782.5, 45.21641952739268
783, 45.21641952739268
783.5, 45.15902447189494
783.9999999999999, 45.01553683315055
784.5, 45.01553683315055
785, 44.929444249903916
785.5, 44.929444249903916
786, 44.78595661115952
786.5, 44.671166500164006
786.9999999999999, 44.671166500164006
787.5, 44.58507391691738
788, 44.58507391691738
788.5, 44.52767886141963
789, 44.52767886141963
789.5, 44.32679616717748
790, 44.26940111167972
790.5, 44.26940111167972
791, 44.15461100068422
791.4999999999999, 44.15461100068422
792, 44.06851841743759
792.5, 43.982425834190956
792.9999999999999, 43.982425834190956
793.5, 43.7815431399488
793.9999999999999, 43.7815431399488
794.5, 43.75284561219993
795, 43.75284561219993
795.5, 43.69545055670217
795.9999999999998, 43.724148084451045
796.4999999999999, 43.724148084451045
797, 43.6667530289533
797.4999999999998, 43.6667530289533
797.9999999999998, 43.58066044570667
798.5, 43.43717280696228
798.9999999999998, 43.43717280696228
799.4999999999998, 43.4084752792134
799.9999999999998, 43.4084752792134
800.5, 43.43717280696228
800.9999999999998, 43.465870334711155
801.4999999999998, 43.465870334711155
802, 43.43717280696228
802.4999999999998, 43.43717280696228
803, 43.43717280696228
803.4999999999998, 43.43717280696228
803.9999999999998, 43.465870334711155
804.4999999999998, 43.465870334711155
804.9999999999998, 43.465870334711155
805.5, 43.43717280696228
805.9999999999998, 43.43717280696228
806.5, 43.4084752792134
807, 43.379777751464516
807.5, 43.379777751464516
807.9999999999998, 43.4084752792134
808.4999999999998, 43.4084752792134
809, 43.379777751464516
809.5, 43.379777751464516
810, 43.26498764046901
810.5, 43.26498764046901
811, 43.26498764046901
811.4999999999998, 43.20759258497125
811.9999999999998, 43.20759258497125
812.4999999999998, 43.20759258497125
812.9999999999998, 43.20759258497125
813.4999999999998, 43.20759258497125
813.9999999999998, 43.23629011272013
814.5, 43.23629011272013
815, 43.293685168217884
815.5, 43.293685168217884
815.9999999999998, 43.32238269596676
816.4999999999998, 43.32238269596676
817, 43.32238269596676
817.4999999999998, 43.35108022371564
817.9999999999998, 43.35108022371564
818.4999999999998, 43.4084752792134
819, 43.43717280696228
819.4999999999998, 43.43717280696228
820, 43.43717280696228
820.4999999999998, 43.43717280696228
820.9999999999998, 43.43717280696228
821.5, 43.43717280696228
821.9999999999998, 43.465870334711155
822.5, 43.49456786246004
823, 43.49456786246004
823.5, 43.63805550120442
823.9999999999998, 43.63805550120442
824.4999999999998, 43.609357973455545
824.9999999999998, 43.58066044570667
825.4999999999998, 43.58066044570667
826, 43.609357973455545
826.4999999999998, 43.609357973455545
827, 43.63805550120442
827.4999999999998, 43.69545055670217
827.9999999999998, 43.69545055670217
828.5, 43.7815431399488
828.9999999999998, 43.7815431399488
829.5, 43.83893819544656
830, 43.83893819544656
830.5, 43.95372830644207
830.9999999999998, 44.01112336193983
831.5, 44.01112336193983
831.9999999999998, 44.039820889688706
832.5, 44.039820889688706
833, 44.06851841743759
856.5, 45.10162941639718
857, 45.15902447189494
857.5, 45.187721999643806
858, 45.187721999643806
858.4999999999998, 45.24511705514156
858.9999999999998, 45.24511705514156
859.4999999999998, 45.331209638388195
859.9999999999998, 45.38860469388595
860.4999999999998, 45.38860469388595
860.9999999999998, 45.44599974938371
861.5, 45.44599974938371
861.9999999999998, 45.47469727713259
862.5, 45.47469727713259
862.9999999999998, 45.50339480488147
863.5, 45.560789860379224
864, 45.560789860379224
864.4999999999998, 45.5894873881281
864.9999999999998, 45.5894873881281
865.5, 45.675579971374724
866, 45.761672554621356
866.4999999999998, 45.761672554621356
866.9999999999998, 45.84776513786799
867.4999999999998, 45.84776513786799
867.9999999999998, 45.96255524886351
868.4999999999998, 45.96255524886351
868.9999999999998, 46.04864783211014
869.5, 46.134740415356774
869.9999999999998, 46.134740415356774
870.5, 46.249530526352274
870.9999999999998, 46.249530526352274
871.5, 46.335623109598906
872, 46.53650580384106
872.5, 46.53650580384106
873, 46.67999344258544
873.4999999999998, 46.67999344258544
874, 46.766086025832074
874.5, 46.766086025832074
875, 47.02436377557198
875.4999999999998, 47.02436377557198
876, 47.02436377557198
876.5, 47.02436377557198
877, 47.02436377557198
877.4999999999998, 47.196548942065235
877.9999999999998, 47.28264152531187
878.5, 47.28264152531187
878.9999999999998, 47.54091927505178
879.4999999999998, 47.54091927505178
880, 47.713104441545035
880.5, 47.713104441545035
881, 47.82789455254054
881.4999999999998, 47.94268466353606
882, 47.94268466353606
882.4999999999998, 48.143567357778196
883, 48.143567357778196
883.4999999999998, 48.25835746877371
883.9999999999998, 48.43054263526698
884.5, 48.43054263526698
884.9999999999998, 48.51663521851361
885.5, 48.51663521851361
885.9999999999998, 48.660122857257996
886.4999999999998, 48.7749129682535
886.9999999999998, 48.889703079249024
887.5, 49.033190717993406
888, 49.033190717993406
888.4999999999998, 49.11928330124003
888.9999999999998, 49.11928330124003
889.4999999999998, 49.09058577349116
889.9999999999998, 49.09058577349116
890.4999999999998, 49.09058577349116
891, 48.83230802375126
891.5, 48.83230802375126
892, 48.947098134746774
892.5, 49.17667835673779
892.9999999999998, 49.17667835673779
893.4999999999998, 49.463653634226574
893.9999999999998, 49.463653634226574
894.5, 49.63583880071983
895, 49.63583880071983
895.4999999999998, 49.95151160595749
895.9999999999998, 50.20978935569738
896.4999999999998, 50.20978935569738
897, 50.295881938944014
897.5, 50.295881938944014
897.9999999999998, 50.61155474418167
898.4999999999998, 50.78373991067493
898.9999999999998, 50.78373991067493
899.4999999999998, 51.04201766041484
899.9999999999998, 51.04201766041484
900.5, 51.415085521150246
900.9999999999998, 51.415085521150246
901.5, 51.52987563214576
901.9999999999998, 51.81685090963453
902.5, 51.81685090963453
902.9999999999998, 52.1038261871233
903.5, 52.1038261871233
904, 52.27601135361657
904.5, 52.67777674210085
905, 52.67777674210085
905.4999999999998, 53.07954213058514
905.9999999999998, 53.07954213058514
906.4999999999998, 53.30912235257617
906.9999999999998, 53.30912235257617
907.5, 53.73958526880933
907.9999999999998, 54.08395560179586
908.5, 54.08395560179586
908.9999999999998, 54.42832593478239
909.4999999999998, 54.42832593478239
909.9999999999998, 54.68660368452229
910.4999999999998, 55.00227648975995
910.9999999999998, 55.00227648975995
911.4999999999998, 55.34664682274648
912, 55.34664682274648
912.4999999999998, 55.77710973897964
912.9999999999998, 55.77710973897964
913.4999999999998, 56.12148007196617
913.9999999999998, 56.58064051594821
914.4999999999998, 56.58064051594821
915, 56.982405904432504
915.5, 56.982405904432504
915.9999999999998, 57.35547376516791
916.5, 57.785936681401076
917, 57.785936681401076
917.4999999999998, 58.07291195888984
917.9999999999998, 58.07291195888984
918.4999999999998, 58.41728229187638
918.9999999999998, 58.41728229187638
919.5, 58.81904768036067
920, 59.07732543010056
920.4999999999998, 59.07732543010056
920.9999999999998, 59.33560317984046
921.4999999999998, 59.33560317984046
922, 59.82346115157138
922.4999999999998, 60.081738901311276
923, 60.081738901311276
923.4999999999998, 60.45480676204668
923.9999999999998, 60.45480676204668
924.5, 60.741782039535465
924.9999999999998, 60.741782039535465
925.4999999999998, 61.258337539015265
925.9999999999998, 61.54531281650403
926.4999999999998, 61.54531281650403
927, 61.660102927499544
927.4999999999998, 61.660102927499544
928, 62.34884359347261
928.5, 62.664516398710255
929, 62.664516398710255
929.4999999999998, 62.86539909295241
929.9999999999998, 62.86539909295241
930.4999999999998, 63.267164481436694
930.9999999999998, 63.267164481436694
931.4999999999998, 63.6402323421721
931.9999999999998, 63.841115036414244
932.4999999999998, 63.841115036414244
932.9999999999998, 64.18548536940077
933.5, 64.18548536940077
933.9999999999998, 64.50115817463842
934.4999999999998, 64.6733433411317
934.9999999999998, 64.6733433411317
935.4999999999998, 65.13250378511373
935.9999999999998, 65.13250378511373
936.4999999999998, 65.47687411810026
936.9999999999998, 65.47687411810026
937.4999999999998, 66.02212714532894
938, 66.50998511705986
938.4999999999998, 66.50998511705986
938.9999999999998, 66.82565792229752
939.4999999999998, 66.82565792229752
939.9999999999998, 67.28481836627955
940.5, 67.65788622701496
940.9999999999998, 67.65788622701496
941.5, 67.91616397675486
941.9999999999998, 67.91616397675486
942.5, 68.34662689298801
943, 68.34662689298801
943.5, 68.66229969822567
944, 69.06406508670996
944.4999999999998, 69.06406508670996
945, 69.46583047519425
945.4999999999998, 69.46583047519425
946, 69.83889833592966
946.4999999999998, 70.21196619666506
946.9999999999998, 70.21196619666506
947.4999999999998, 70.55633652965159
947.9999999999998, 70.55633652965159
948.5, 70.929404390387
949, 70.929404390387
949.4999999999998, 71.35986730662017
949.9999999999998, 71.7042376396067
950.4999999999998, 71.7042376396067
950.9999999999998, 72.16339808358873
951.4999999999998, 72.16339808358873
952, 72.65125605531966
952.4999999999998, 72.93823133280844
952.9999999999998, 72.93823133280844
953.5, 73.54087941553486
954, 73.54087941553486
954.4999999999998, 74.02873738726578
954.9999999999998, 74.02873738726578
955.4999999999998, 74.28701513700568
955.9999999999998, 74.91836074748099
956.5, 74.91836074748099
956.9999999999998, 75.23403355271864
957.4999999999998, 75.23403355271864
957.9999999999998, 75.52100883020742
958.4999999999998, 75.75058905219844
958.9999999999998, 75.89407669094282
959.4999999999998, 76.15235444068273
960, 76.15235444068273
960.4999999999998, 76.554119829167
961, 76.554119829167
961.4999999999998, 76.92718768990241
961.9999999999998, 77.15676791189344
962.4999999999998, 77.15676791189344
962.9999999999998, 77.87420610561537
963.5, 77.87420610561537
963.9999999999998, 78.13248385535528
964.5, 78.27597149409966
964.9999999999998, 78.59164429933732
965.4999999999998, 79.13689732656599
965.9999999999998, 79.13689732656599
966.4999999999998, 79.2516874375615
967, 79.2516874375615
967.4999999999998, 79.71084788154354
968, 80.11261327002784
968.4999999999998, 80.11261327002784
968.9999999999998, 80.31349596426998
969.4999999999998, 80.31349596426998
970, 80.60047124175875
970.5, 80.8013539360009
970.9999999999998, 81.00223663024303
971.5, 81.37530449097844
971.9999999999998, 81.37530449097844
972.4999999999998, 81.69097729621609
972.9999999999998, 81.69097729621609
973.4999999999998, 81.89185999045824
973.9999999999998, 82.15013774019815
974.4999999999998, 82.15013774019815
975, 82.40841548993804
975.4999999999998, 82.40841548993804
976, 82.69539076742682
976.4999999999998, 82.86757593392008
977, 82.89627346166895
977.4999999999998, 83.38413143339987
977.9999999999998, 83.38413143339987
978.5, 83.78589682188417
979, 83.78589682188417
979.5, 83.9867795161263
979.9999999999998, 84.24505726586621
980.5, 84.24505726586621
980.9999999999998, 84.87640287634152
981.4999999999998, 84.87640287634152
982, 85.24947073707692
982.4999999999998, 85.30686579257467
983, 85.2781682648258
983.4999999999998, 85.36426084807243
983.9999999999998, 85.36426084807243
984.5, 85.45035343131906
985, 85.45035343131906
985.4999999999998, 85.79472376430559
985.9999999999998, 85.99560645854774
986.4999999999998, 85.99560645854774
987, 86.02430398629662
987.5, 86.02430398629662
987.9999999999998, 86.08169904179437
988.4999999999998, 86.4260693747809
988.9999999999998, 86.4260693747809
989.4999999999998, 86.4260693747809
990, 86.4260693747809
990.4999999999998, 86.39737184703202
990.9999999999998, 86.39737184703202
991.4999999999998, 86.51216195802753
992, 86.74174218001855
992.4999999999998, 86.74174218001855
992.9999999999998, 86.77043970776744
993.4999999999998, 86.77043970776744
994, 87.0574149852562
994.4999999999998, 87.25829767949836
994.9999999999998, 87.25829767949836
995.5, 87.43048284599162
995.9999999999998, 87.43048284599162
996.5, 87.63136554023376
996.9999999999998, 87.63136554023376
997.4999999999998, 87.77485317897815
997.9999999999998, 87.91834081772254
998.4999999999998, 87.91834081772254
999, 87.86094576222479
999.4999999999998, 87.86094576222479
999.9999999999998, 87.80355070672702
1000.4999999999998, 87.7174581234804
1001, 87.7174581234804
1001.4999999999998, 87.68876059573151
1001.9999999999998, 87.68876059573151
1002.4999999999998, 87.66006306798263
1002.9999999999998, 87.66006306798263
1003.5, 87.68876059573151
1003.9999999999998, 87.68876059573151
1004.4999999999998, 87.68876059573151
1004.9999999999998, 87.57397048473601
1005.4999999999998, 87.57397048473601
1006, 87.60266801248488
1006.5, 87.63136554023376
1007, 87.63136554023376
1007.4999999999998, 87.4591803737405
1007.9999999999998, 87.4591803737405
1008.4999999999998, 87.34439026274498
1008.9999999999998, 87.34439026274498
1009.4999999999998, 87.25829767949836
1009.9999999999998, 87.25829767949836
1010.4999999999998, 87.25829767949836
1010.9999999999998, 87.3156927349961
1011.5, 87.3156927349961
1011.9999999999998, 87.51657542923824
1012.4999999999998, 87.4591803737405
1012.9999999999998, 87.4591803737405
1013.4999999999998, 87.34439026274498
1013.9999999999998, 87.34439026274498
1014.4999999999998, 87.02871745750733
1014.9999999999998, 87.02871745750733
1015.4999999999998, 87.02871745750733
1015.9999999999998, 87.08611251300509
1016.4999999999998, 87.08611251300509
1017, 86.9426248742607
1017.4999999999998, 86.9426248742607
1017.9999999999998, 86.82783476326519
1018.4999999999998, 86.65564959677192
1018.9999999999998, 86.65564959677192
1019.4999999999998, 86.4260693747809
1019.9999999999998, 86.4260693747809
1020.5, 86.25388420828763
1020.9999999999998, 86.167791625041
1021.5, 86.167791625041
1022, 86.02430398629662
1022.5, 86.02430398629662
1022.9999999999998, 85.85211881980335
1023.4999999999998, 85.85211881980335
1023.9999999999998, 85.65123612556121
1024.4999999999998, 85.36426084807243
1024.9999999999998, 85.36426084807243
1025.4999999999998, 84.87640287634152
1025.9999999999998, 84.87640287634152
1026.5, 84.79031029309488
1026.9999999999998, 84.64682265435049
1027.4999999999998, 84.64682265435049
1027.9999999999998, 84.58942759885274
1028.4999999999998, 84.58942759885274
1028.9999999999998, 84.27375479361508
1029.4999999999998, 84.15896468261957
1029.9999999999998, 84.07287209937294
1030.4999999999998, 83.92938446062855
1030.9999999999998, 83.92938446062855
1031.4999999999998, 83.49892154439539
1031.9999999999998, 83.49892154439539
1032.4999999999998, 83.15455121140886
1032.9999999999998, 82.89627346166895
1033.5, 82.89627346166895
1033.9999999999998, 82.66669323967794
1034.4999999999998, 82.66669323967794
1034.9999999999998, 82.52320560093355
1035.4999999999998, 82.29362537894252
1035.9999999999998, 82.29362537894252
1036.5, 82.9536685171667
1037, 82.9536685171667
1037.5, 81.60488471296946
1038, 81.60488471296946
1038.4999999999998, 81.28921190773181
1039, 80.8013539360009
1039.4999999999998, 80.8013539360009
1040, 80.71526135275425
1040.4999999999998, 80.71526135275425
1040.9999999999998, 80.48568113076324
1041.5, 80.3995885475166
1041.9999999999998, 80.3995885475166
1042.5, 80.0265206867812
1042.9999999999998, 80.0265206867812
1043.5, 79.73954540929242
1043.9999999999998, 79.59605777054803
1044.4999999999998, 79.42387260405476
1044.9999999999998, 79.10819979881711
1045.5, 79.10819979881711
1045.9999999999998, 78.70643441033283
1046.4999999999998, 78.70643441033283
1047, 78.21857643860191
1047.4999999999998, 78.13248385535528
1047.9999999999998, 78.13248385535528
1048.4999999999998, 78.04639127210865
1048.9999999999998, 78.04639127210865
1049.4999999999998, 77.55853330037772
1049.9999999999998, 77.44374318938222
1050.5, 77.44374318938222
1050.9999999999998, 76.92718768990241
1051.4999999999998, 76.92718768990241
1051.9999999999998, 76.38193466267374
1052.5, 76.38193466267374
1052.9999999999998, 76.23844702392935
1053.4999999999998, 75.77928657994731
1054, 75.77928657994731
1054.4999999999998, 75.43491624696078
1054.9999999999998, 75.43491624696078
1055.5, 75.26273108046752
1055.9999999999998, 75.06184838622538
1056.4999999999998, 75.06184838622538
1056.9999999999998, 74.83226816423435
1057.5, 74.83226816423435
1057.9999999999998, 74.31571266475456
1058.4999999999998, 73.97134233176803
1058.9999999999998, 73.97134233176803
1059.4999999999998, 73.82785469302364
1059.9999999999998, 73.82785469302364
1060.5, 73.08171897155282
1061, 73.08171897155282
1061.4999999999998, 72.70865111081741
1061.9999999999998, 72.47907088882639
1062.4999999999998, 72.47907088882639
1062.9999999999998, 71.93381786159772
1063.4999999999998, 71.93381786159772
1063.9999999999998, 71.58944752861119
1064.4999999999998, 71.0728920291314
1064.9999999999998, 71.0728920291314
1065.5, 70.90070686263812
1065.9999999999998, 70.90070686263812
1066.5, 70.69982416839598
1066.9999999999998, 70.69982416839598
1067.4999999999998, 70.41284889090721
1067.9999999999998, 70.18326866891618
1068.4999999999998, 70.18326866891618
1069, 70.0397810301718
1069.4999999999998, 70.0397810301718
1069.9999999999998, 69.60931811393863
1070.4999999999998, 69.37973789194761
1071, 69.37973789194761
1071.4999999999998, 69.20755272545435
1071.9999999999998, 69.20755272545435
1072.4999999999998, 68.97797250346332
1072.9999999999998, 68.7483922814723
1073.4999999999998, 68.7483922814723
1073.9999999999998, 68.31792936523914
1074.5, 68.31792936523914
1075, 68.08834914324812
1075.5, 68.08834914324812
1075.9999999999998, 67.91616397675486
1076.4999999999998, 67.54309611601946
1077, 67.54309611601946
1077.4999999999998, 67.14133072753516
1077.9999999999998, 67.14133072753516
1078.4999999999998, 66.88305297779526
1078.9999999999998, 66.76826286679974
1079.4999999999998, 66.76826286679974
1079.9999999999998, 66.48128758931097
1080.4999999999998, 66.48128758931097
1080.9999999999998, 65.99342961758006
1081.5, 65.99342961758006
1081.9999999999998, 65.82124445108678
1082.4999999999998, 65.5629667013469
1082.9999999999998, 65.5629667013469
1083.5, 65.0464112018671
1083.9999999999998, 65.0464112018671
1084.4999999999998, 64.9029235631227
1085, 64.81683097987607
1085.5, 64.81683097987607
1086, 64.47246064688954
1086.4999999999998, 64.47246064688954
1087, 64.24288042489852
1087.4999999999998, 63.95590514740975
1087.9999999999998, 63.95590514740975
1088.5, 63.410652120181076
1088.9999999999998, 63.410652120181076
1089.5, 63.20976942593894
1089.9999999999998, 63.20976942593894
1090.5, 63.037584259445666
1090.9999999999998, 62.80800403745465
1091.4999999999998, 62.80800403745465
1091.9999999999998, 62.63581887096138
1092.4999999999998, 62.63581887096138
1093, 62.463633704468116
1093.4999999999998, 62.14796089923046
1093.9999999999998, 62.14796089923046
1094.4999999999998, 61.77489303849506
1094.9999999999998, 61.77489303849506
1095.4999999999998, 61.43052270550852
1095.9999999999998, 61.258337539015265
1096.5, 61.22964001126638
1096.9999999999998, 60.77047956728434
1097.4999999999998, 60.77047956728434
1097.9999999999998, 60.741782039535465
1098.5, 60.741782039535465
1098.9999999999998, 60.71308451178658
1099.4999999999998, 60.34001665105118
1099.9999999999998, 60.34001665105118
1100.4999999999998, 60.225226540055665
1100.9999999999998, 60.225226540055665
1101.4999999999998, 60.11043642906015
1102, 59.76606609607363
1102.4999999999998, 59.76606609607363
1103, 59.50778834633372
1103.4999999999998, 59.50778834633372
1103.9999999999998, 59.33560317984046
1104.4999999999998, 59.33560317984046
1104.9999999999998, 59.0199303746028
1105.5, 58.9051402636073
1105.9999999999998, 58.9051402636073
1106.4999999999998, 58.50337487512301
1106.9999999999998, 58.50337487512301
1107.4999999999998, 58.21639959763423
1107.9999999999998, 57.95812184789434
1108.4999999999998, 57.95812184789434
1108.9999999999998, 57.29807870967016
1109.4999999999998, 57.29807870967016
1109.9999999999998, 57.15459107092576
1110.4999999999998, 57.097196015428004
1111, 57.01110343218137
1111.4999999999998, 56.465850404952704
1111.9999999999998, 56.465850404952704
1112.5, 56.178875127463925
1113, 56.178875127463925
1113.4999999999998, 56.092782544217286
1113.9999999999998, 55.86320232222628
1114.5, 55.86320232222628
1114.9999999999998, 55.60492457248637
1115.4999999999998, 55.60492457248637
1115.9999999999998, 55.60492457248637
1116.5, 55.404041878244236
1117, 55.404041878244236
1117.4999999999998, 55.20315918400208
1117.9999999999998, 55.20315918400208
1118.4999999999998, 54.91618390651332
1118.9999999999998, 54.91618390651332
1119.4999999999998, 54.74399874002004
1119.9999999999998, 54.65790615677341
1120.4999999999998, 54.65790615677341
1120.9999999999998, 54.34223335153576
1121.4999999999998, 54.34223335153576
1121.9999999999998, 54.19874571279137
1122.4999999999998, 53.85437537980484
1122.9999999999998, 53.85437537980484
1123.4999999999998, 53.53870257456718
1123.9999999999998, 53.53870257456718
1124.4999999999998, 53.25172729707841
1124.9999999999998, 53.22302976932953
1125.4999999999998, 52.84996190859413
1126, 52.562986631105346
1126.4999999999998, 52.562986631105346
1126.9999999999998, 52.30470888136545
1127.4999999999998, 52.30470888136545
1127.9999999999998, 51.90294349288117
1128.5, 51.759455854136775
1129, 51.759455854136775
1129.4999999999998, 51.357690465652496
1129.9999999999998, 51.357690465652496
1130.4999999999998, 51.15680777141034
1130.9999999999998, 51.099412715912585
1131.4999999999998, 51.099412715912585
1131.9999999999998, 50.95592507716821
1132.4999999999998, 50.95592507716821
1132.9999999999998, 50.78373991067493
1133.4999999999998, 50.78373991067493
1134, 50.668949799679424
1134.4999999999998, 50.46806710543729
1134.9999999999998, 50.46806710543729
1135.4999999999998, 50.295881938944014
1136, 50.295881938944014
1136.5, 50.066301716953
1136.9999999999998, 49.60714127297096
1137.5, 49.60714127297096
1137.9999999999998, 49.52104868972433
1138.5, 49.52104868972433
1138.9999999999998, 49.40625857872882
1139.4999999999998, 49.32016599548218
1140, 49.32016599548218
1140.4999999999998, 49.234073412235546
1140.9999999999998, 49.234073412235546
1141.4999999999998, 49.09058577349116
1141.9999999999998, 49.09058577349116
1142.4999999999998, 48.9184006069979
1143, 48.803610496002385
1143.5, 48.803610496002385
1143.9999999999998, 48.57403027401137
1144.4999999999998, 48.57403027401137
1144.9999999999998, 48.43054263526698
1145.5, 48.25835746877371
1145.9999999999998, 48.25835746877371
1146.4999999999998, 48.143567357778196
1146.9999999999998, 48.143567357778196
1147.4999999999998, 48.028777246782695
1147.9999999999998, 48.028777246782695
1148.4999999999998, 47.56961680280065
1148.9999999999998, 47.42612916405626
1149.4999999999998, 47.42612916405626
1150, 47.340036580809624
1150.4999999999998, 47.340036580809624
1151, 47.22524646981412
1151.4999999999998, 47.196548942065235
1151.9999999999998, 47.196548942065235
1152.4999999999998, 47.196548942065235
1152.9999999999998, 47.196548942065235
1153.5, 46.90957366457647
1153.9999999999998, 46.90957366457647
1154.4999999999998, 46.82348108132983
1154.9999999999998, 46.59390085933882
1155.4999999999998, 46.59390085933882
1155.9999999999998, 46.59390085933882
1156.4999999999998, 46.59390085933882
1157, 46.65129591483656
1157.4999999999998, 46.53650580384106
1158, 46.53650580384106
1158.4999999999998, 46.421715692845545
1158.9999999999998, 46.421715692845545
1159.4999999999998, 46.278228054101156
1159.9999999999998, 45.93385772111463
1160.4999999999998, 45.93385772111463
1160.9999999999998, 45.84776513786799
1161.4999999999998, 45.84776513786799
1161.9999999999998, 45.675579971374724
1162.5, 45.675579971374724
1162.9999999999998, 45.5894873881281
1163.5, 45.50339480488147
1163.9999999999998, 45.50339480488147
1164.4999999999998, 45.331209638388195
1164.9999999999998, 45.331209638388195
1165.5, 45.187721999643806
1165.9999999999998, 45.130326944146056
1166.4999999999998, 45.130326944146056
1166.9999999999998, 45.15902447189494
1167.4999999999998, 45.15902447189494
1168, 45.15902447189494
1168.4999999999998, 45.15902447189494
1168.9999999999998, 45.130326944146056
1169.4999999999998, 45.10162941639718
1169.9999999999998, 45.10162941639718
1170.4999999999998, 45.044234360899424
1170.9999999999998, 45.044234360899424
1171.4999999999998, 45.10162941639718
1172, 44.87204919440615
1172.5, 44.87204919440615
1172.9999999999998, 44.757259083410645
1173.5, 44.757259083410645
1173.9999999999998, 44.556376389168506
1174.4999999999998, 44.556376389168506
1174.9999999999998, 44.556376389168506
1175.4999999999998, 44.556376389168506
1175.9999999999998, 44.556376389168506
1176.5, 44.384191222675234
1177, 44.384191222675234
1177.4999999999998, 44.2980986394286
1177.9999999999998, 44.21200605618197
1178.4999999999998, 44.21200605618197
1179, 44.26940111167972
1179.5, 44.26940111167972
1179.9999999999998, 44.2980986394286
1180.4999999999998, 44.125913472935345
1180.9999999999998, 44.125913472935345
1181.5, 44.09721594518646
1181.9999999999998, 44.09721594518646
1182.4999999999998, 44.125913472935345
1182.9999999999998, 44.125913472935345
1183.5, 44.125913472935345
1184, 44.09721594518646
1184.4999999999998, 44.09721594518646
1184.9999999999998, 43.982425834190956
1185.5, 43.982425834190956
1186, 43.9250307786932
1186.4999999999995, 43.810240667697684
1186.9999999999998, 43.810240667697684
1187.4999999999998, 43.69545055670217
1187.9999999999998, 43.69545055670217
1188.5, 43.724148084451045
1188.9999999999998, 43.724148084451045
1189.5, 43.724148084451045
1190, 43.83893819544656
1190.5, 43.83893819544656
1191, 43.7815431399488
1191.4999999999998, 43.7815431399488
1192, 43.724148084451045
1192.4999999999998, 43.6667530289533
1192.9999999999998, 43.6667530289533
1193.4999999999998, 43.63805550120442
1193.9999999999998, 43.63805550120442
1194.4999999999998, 43.75284561219993
1195, 43.75284561219993
1195.4999999999998, 43.69545055670217
1195.9999999999998, 43.609357973455545
1196.5, 43.609357973455545
1196.9999999999998, 43.465870334711155
1197.5, 43.465870334711155
1197.9999999999998, 43.293685168217884
1198.4999999999998, 43.23629011272013
1198.9999999999998, 43.23629011272013
1199.5, 43.26498764046901
1200, 43.26498764046901
1200.4999999999998, 43.23629011272013
1200.9999999999998, 43.178895057222384
1201.4999999999998, 43.178895057222384
1202, 43.20759258497125
1202.4999999999998, 43.20759258497125
1202.9999999999998, 43.23629011272013
1203.4999999999998, 43.23629011272013
1204, 43.379777751464516
1204.4999999999998, 43.43717280696228
1204.9999999999998, 43.43717280696228
1205.4999999999998, 43.43717280696228
1205.9999999999998, 43.43717280696228
1206.5, 43.379777751464516
1207, 43.4084752792134
1207.4999999999998, 43.4084752792134
1207.9999999999998, 43.43717280696228
1208.4999999999998, 43.43717280696228
1209, 43.465870334711155
1209.4999999999998, 43.465870334711155
1209.9999999999998, 43.465870334711155
1210.5, 43.609357973455545
1211, 43.609357973455545
1211.5, 43.49456786246004
1211.9999999999998, 43.49456786246004
1212.4999999999998, 43.43717280696228
1212.9999999999998, 43.26498764046901
1213.5, 43.26498764046901
1213.9999999999995, 43.32238269596676
1214.4999999999998, 43.32238269596676
1214.9999999999998, 43.4084752792134
1215.4999999999998, 43.4084752792134
1216, 43.379777751464516
1216.4999999999998, 43.293685168217884
1216.9999999999998, 43.293685168217884
1217.4999999999998, 43.1501975294735
1218, 43.1501975294735
1218.5, 43.1501975294735
1218.9999999999998, 43.12150000172463
1219.4999999999998, 43.12150000172463
1220, 43.26498764046901
1220.5, 43.26498764046901
1220.9999999999998, 43.1501975294735
1221.4999999999998, 43.1501975294735
1221.9999999999998, 43.06410494622687
1222.4999999999998, 43.00670989072911
1222.9999999999998, 43.00670989072911
1223.4999999999998, 43.035407418477995
1223.9999999999998, 43.035407418477995
1224.5, 43.09280247397575
1225, 43.1501975294735
1225.4999999999998, 43.1501975294735
1225.9999999999998, 43.178895057222384
1226.4999999999998, 43.178895057222384
1226.9999999999998, 43.178895057222384
1227.5, 43.09280247397575
1227.9999999999998, 43.09280247397575
1228.4999999999998, 43.09280247397575
1229, 43.09280247397575
1229.4999999999998, 43.293685168217884
1229.9999999999998, 43.293685168217884
1230.4999999999998, 43.20759258497125
1230.9999999999998, 43.09280247397575
1231.5, 43.09280247397575
1232, 42.83452472423584
1232.4999999999998, 42.83452472423584
1232.9999999999998, 42.83452472423584
1233.4999999999998, 42.86322225198472
1234, 42.86322225198472
1234.4999999999998, 42.8919197797336
1234.9999999999998, 42.8919197797336
1235.4999999999998, 42.8919197797336
1235.9999999999998, 42.8919197797336
1236.4999999999998, 42.74843214098921
1236.9999999999998, 42.77712966873809
1237.4999999999998, 42.77712966873809
1237.9999999999998, 42.77712966873809
1238.4999999999998, 42.77712966873809
1239, 42.719734613240334
1239.4999999999998, 42.74843214098921
1239.9999999999998, 42.74843214098921
1240.4999999999998, 42.805827196486966
1240.9999999999998, 42.805827196486966
1241.4999999999998, 42.92061730748248
1241.9999999999998, 42.92061730748248
1242.5, 42.94931483523136
1242.9999999999998, 42.92061730748248
1243.4999999999998, 42.92061730748248
1243.9999999999998, 42.97801236298024
1244.4999999999998, 42.97801236298024
1244.9999999999998, 43.00670989072911
1245.4999999999998, 43.12150000172463
1246, 43.12150000172463
1246.4999999999998, 43.06410494622687
1246.9999999999998, 43.06410494622687
1247.4999999999998, 43.035407418477995
1248, 43.035407418477995
1248.4999999999998, 43.035407418477995
1248.9999999999998, 43.06410494622687
1249.4999999999998, 43.06410494622687
1249.9999999999998, 43.178895057222384
1250.4999999999998, 43.178895057222384
1250.9999999999998, 43.293685168217884
1251.4999999999998, 43.293685168217884
1251.9999999999998, 43.293685168217884
1252.5, 43.20759258497125
1252.9999999999998, 43.20759258497125
1253.4999999999998, 43.1501975294735
1253.9999999999998, 43.09280247397575
1254.5, 43.09280247397575
1254.9999999999998, 43.06410494622687
1255.4999999999998, 43.06410494622687
1255.9999999999998, 43.178895057222384
1256.4999999999998, 43.178895057222384
1256.9999999999998, 43.23629011272013
1257.4999999999998, 43.35108022371564
1257.9999999999998, 43.35108022371564
1258.4999999999998, 43.52326539020891
1258.9999999999998, 43.52326539020891
1259.4999999999998, 43.58066044570667
1259.9999999999995, 43.58066044570667
1260.4999999999995, 43.58066044570667
1261, 43.609357973455545
1261.5, 43.609357973455545
1262, 43.49456786246004
1262.4999999999998, 43.49456786246004
1262.9999999999998, 43.4084752792134
1263.5, 43.379777751464516
1264, 43.379777751464516
1264.4999999999998, 43.379777751464516
1264.9999999999998, 43.379777751464516
1265.4999999999998, 43.379777751464516
1265.9999999999998, 43.35108022371564
1266.5, 43.35108022371564
1266.9999999999998, 43.293685168217884
1267.4999999999998, 43.293685168217884
1267.9999999999998, 43.23629011272013
1268.4999999999998, 43.23629011272013
1268.9999999999998, 43.178895057222384
1269.4999999999998, 43.178895057222384
1269.9999999999998, 43.178895057222384
1270.5, 43.20759258497125
1271, 43.20759258497125
1271.4999999999998, 43.06410494622687
1271.9999999999998, 42.97801236298024
1272.4999999999998, 42.97801236298024
1272.9999999999998, 42.92061730748248
1273.4999999999998, 42.92061730748248
1273.9999999999998, 43.12150000172463
1274.4999999999998, 43.12150000172463
1274.9999999999998, 43.178895057222384
1275.4999999999998, 43.4084752792134
1275.9999999999998, 43.4084752792134
1276.4999999999998, 43.32238269596676
1276.9999999999998, 43.32238269596676
1277.5, 43.1501975294735
1277.9999999999998, 43.00670989072911
1278.4999999999998, 43.00670989072911
1278.9999999999998, 43.09280247397575
1279.5, 43.09280247397575
1280, 43.1501975294735
1280.4999999999998, 43.20759258497125
1280.9999999999998, 43.20759258497125
1281.4999999999998, 43.43717280696228
1281.9999999999998, 43.43717280696228
1282.4999999999998, 43.58066044570667
1282.9999999999995, 43.58066044570667
1283.4999999999998, 43.6667530289533
1283.9999999999998, 43.7815431399488
1284.4999999999998, 43.7815431399488
1284.9999999999995, 43.810240667697684
1285.4999999999998, 43.810240667697684
1285.9999999999998, 43.7815431399488
1286.4999999999998, 43.7815431399488
1286.9999999999998, 43.7815431399488
1287.4999999999998, 43.867635723195434
1287.9999999999998, 43.867635723195434
1288.4999999999998, 43.9250307786932
1289, 43.9250307786932
1289.5, 44.039820889688706
1290, 43.83893819544656
1290.5, 43.83893819544656
1291, 43.83893819544656
1291.5, 43.83893819544656
1291.9999999999998, 43.9250307786932
1292.4999999999998, 43.95372830644207
1292.9999999999998, 43.95372830644207
1293.4999999999998, 43.95372830644207
1293.9999999999998, 43.95372830644207
1294.4999999999998, 43.95372830644207
1294.9999999999998, 43.95372830644207
1295.4999999999998, 44.039820889688706
1296, 44.125913472935345
1296.4999999999998, 44.125913472935345
1296.9999999999998, 44.06851841743759
1297.4999999999998, 44.06851841743759
1297.9999999999998, 44.01112336193983
1298.5, 43.982425834190956
1298.9999999999998, 43.982425834190956
1299.4999999999998, 43.95372830644207
1299.9999999999998, 43.95372830644207
1300.4999999999998, 43.896333250944316
1300.9999999999998, 43.896333250944316
1301.4999999999998, 43.867635723195434
1301.9999999999998, 43.896333250944316
1302.4999999999998, 43.896333250944316
1302.9999999999998, 43.896333250944316
1303.4999999999998, 43.896333250944316
1303.9999999999998, 43.75284561219993
1304.5, 43.724148084451045
1305, 43.724148084451045
1305.5, 43.724148084451045
1305.9999999999998, 43.724148084451045
1306.5, 43.609357973455545
1306.9999999999998, 43.58066044570667
1307.4999999999998, 43.58066044570667
1307.9999999999995, 43.58066044570667
1308.4999999999995, 43.58066044570667
1308.9999999999998, 43.52326539020891
1309.4999999999998, 43.52326539020891
1310, 43.35108022371564
1310.4999999999998, 43.23629011272013
1310.9999999999998, 43.23629011272013
1311.5, 43.12150000172463
1312, 43.12150000172463
1312.4999999999998, 42.97801236298024
1313, 43.12150000172463
1313.5, 43.12150000172463
1313.9999999999998, 43.06410494622687
1314.4999999999998, 43.06410494622687
1315, 42.94931483523136
1315.5, 42.94931483523136
1315.9999999999998, 43.00670989072911
1316.5, 43.12150000172463
1317, 43.12150000172463
1317.4999999999998, 43.293685168217884
1317.9999999999998, 43.293685168217884
1318.5, 43.32238269596676
1318.9999999999998, 43.43717280696228
1319.4999999999998, 43.43717280696228
1320, 43.609357973455545
1320.5, 43.609357973455545
1321, 43.58066044570667
1321.5, 43.58066044570667
1322, 43.35108022371564
1322.4999999999998, 43.465870334711155
1323, 43.465870334711155
1323.5, 43.49456786246004
1323.9999999999998, 43.49456786246004
1324.4999999999998, 43.55196291795779
1324.9999999999998, 43.58066044570667
1325.4999999999998, 43.58066044570667
1326, 43.609357973455545
1326.5, 43.609357973455545
1326.9999999999998, 43.69545055670217
1327.4999999999998, 43.52326539020891
1328, 43.55196291795779
1328.4999999999998, 43.43717280696228
1328.9999999999998, 43.43717280696228
1329.5, 43.609357973455545
1330, 43.609357973455545
1330.5, 43.63805550120442
1330.9999999999998, 43.63805550120442
1331.4999999999998, 43.63805550120442
1331.9999999999998, 43.69545055670217
1332.4999999999998, 43.69545055670217
1333, 43.7815431399488
1333.4999999999995, 43.95372830644207
1333.9999999999998, 43.95372830644207
1334.5, 43.982425834190956
1335.0000000000002, 43.982425834190956
1335.5, 44.01112336193983
1336, 44.01112336193983
1336.5, 43.83893819544656
1337, 43.724148084451045
1337.5, 43.724148084451045
1337.9999999999998, 43.69545055670217
1338.4999999999998, 43.69545055670217
1338.9999999999998, 43.6667530289533
1339.4999999999998, 43.69545055670217
1339.9999999999995, 43.69545055670217
1340.4999999999998, 43.69545055670217
1340.9999999999998, 43.69545055670217
1341.5, 43.609357973455545
1342, 43.609357973455545
1342.4999999999998, 43.4084752792134
1342.9999999999998, 43.49456786246004
1343.4999999999998, 43.49456786246004
1344, 43.58066044570667
1344.5, 43.58066044570667
1344.9999999999998, 43.6667530289533
1345.4999999999998, 43.724148084451045
1346, 43.724148084451045
1346.4999999999998, 43.69545055670217
1346.9999999999998, 43.69545055670217
1347.4999999999998, 43.58066044570667
1347.9999999999998, 43.58066044570667
1348.5, 43.609357973455545
1349, 43.609357973455545
1349.5, 43.609357973455545
1350, 43.55196291795779
1350.5, 43.55196291795779
1351, 43.465870334711155
1351.4999999999998, 43.32238269596676
1351.9999999999998, 43.32238269596676
1352.4999999999998, 43.178895057222384
1352.9999999999998, 43.178895057222384
1353.5, 43.178895057222384
1353.9999999999998, 43.178895057222384
1354.4999999999998, 43.178895057222384
1354.9999999999998, 43.26498764046901
1355.4999999999998, 43.26498764046901
1355.9999999999995, 43.293685168217884
1356.4999999999998, 43.293685168217884
1356.9999999999998, 43.49456786246004
1357.4999999999998, 43.4084752792134
1358, 43.4084752792134
1358.4999999999998, 43.379777751464516
1359, 43.379777751464516
1359.5, 43.35108022371564
1360, 43.4084752792134
1360.5, 43.4084752792134
1360.9999999999998, 43.465870334711155
1361.4999999999998, 43.465870334711155
1361.9999999999998, 43.293685168217884
1362.4999999999998, 43.293685168217884
1362.9999999999998, 43.1501975294735
1363.4999999999998, 43.00670989072911
1363.9999999999998, 43.00670989072911
1364.4999999999998, 43.06410494622687
1364.9999999999998, 43.06410494622687
1365.5, 43.12150000172463
1365.9999999999998, 43.1501975294735
1366.5, 43.1501975294735
1367, 42.94931483523136
1367.4999999999998, 42.94931483523136
1367.9999999999998, 42.719734613240334
1368.5, 42.719734613240334
1369, 42.57624697449595
1369.4999999999998, 42.54754944674708
1369.9999999999998, 42.54754944674708
1370.4999999999998, 42.518851918998195
1370.9999999999998, 42.518851918998195
1371.5, 42.74843214098921
1372, 42.83452472423584
1372.4999999999998, 42.83452472423584
1372.9999999999998, 42.662339557742584
1373.5, 42.662339557742584
1374, 42.57624697449595
1374.4999999999998, 42.57624697449595
1374.9999999999998, 42.54754944674708
1375.4999999999998, 42.54754944674708
1375.9999999999998, 42.54754944674708
1376.4999999999998, 42.54754944674708
1376.9999999999998, 42.54754944674708
1377.5, 42.719734613240334
1377.9999999999998, 42.518851918998195
1378.5, 42.518851918998195
1378.9999999999998, 42.40406180800268
1379.4999999999998, 42.40406180800268
1379.9999999999998, 42.34666675250492
1380.4999999999998, 42.3753642802538
1380.9999999999998, 42.3753642802538
1381.4999999999998, 42.40406180800268
1382, 42.40406180800268
1382.4999999999998, 42.3753642802538
1382.9999999999998, 42.3753642802538
1383.4999999999998, 42.3753642802538
1383.9999999999998, 42.3753642802538
1384.4999999999998, 42.3753642802538
1385, 42.40406180800268
1385.5, 42.40406180800268
1385.9999999999998, 42.54754944674708
1386.5, 42.719734613240334
1387, 42.719734613240334
1387.5, 42.719734613240334
1388, 42.719734613240334
1388.4999999999998, 42.60494450224483
1388.9999999999998, 42.60494450224483
1389.5, 42.40406180800268
1390, 42.203179113760534
1390.5, 42.203179113760534
1390.9999999999998, 42.088389002765034
1391.4999999999998, 42.088389002765034
1392, 42.088389002765034
1392.5, 42.05969147501615
1392.9999999999998, 42.05969147501615
1393.4999999999998, 42.03099394726728
1393.9999999999998, 42.03099394726728
1394.4999999999998, 42.03099394726728
1394.9999999999998, 42.03099394726728
