301, 22.201002272792877
301.5, 22.201002272792877
302, 22.229699800541738
302.5, 22.229699800541738
303, 22.258397328290627
303.5, 22.287094856039488
304, 22.287094856039488
304.5, 22.315792383788363
305, 22.315792383788363
305.5, 22.373187439286127
306, 22.430582494783877
306.5, 22.430582494783877
307, 22.459280022532766
307.5, 22.459280022532766
308, 22.51667507803053
308.5, 22.51667507803053
309, 22.57407013352828
309.5, 22.60276766127714
310, 22.60276766127714
310.5, 22.66016271677489
311, 22.66016271677489
311.5, 22.717557772272656
312, 22.688860244523795
312.5, 22.688860244523795
313, 22.688860244523795
313.5, 22.688860244523795
314, 22.746255300021545
314.5, 22.774952827770406
315, 22.80365035551928
315.5, 22.83234788326817
316, 22.83234788326817
316.5, 22.918440466514795
317, 22.918440466514795
317.5, 22.975835522012545
318, 23.03323057751031
318.5, 23.03323057751031
319, 23.0619281052592
319.5, 23.0619281052592
320, 23.09062563300806
320.5, 23.176718216254713
321, 23.176718216254713
321.5, 23.205415744003574
322, 23.205415744003574
322.5, 23.2915083272502
323, 23.2915083272502
323.5, 23.2915083272502
324, 23.348903382747963
324.5, 23.348903382747963
325, 23.348903382747963
325.5, 23.348903382747963
326, 23.406298438245713
326.5, 23.434995965994602
327, 23.434995965994602
327.5, 23.434995965994602
328, 23.434995965994602
328.5, 23.492391021492367
329, 23.492391021492367
329.5, 23.521088549241227
330, 23.578483604738977
330.5, 23.578483604738977
331, 23.607181132487867
331.5, 23.607181132487867
332, 23.66457618798563
332.5, 23.72197124348338
333, 23.72197124348338
333.5, 23.779366298981145
334, 23.779366298981145
334.5, 23.865458882227756
335, 23.865458882227756
335.5, 23.89415640997663
336, 23.951551465474395
336.5, 23.951551465474395
337, 24.008946520972145
337.5, 24.008946520972145
338, 24.037644048721035
338.5, 24.095039104218785
339, 24.095039104218785
339.5, 24.15243415971655
340, 24.15243415971655
340.5, 24.18113168746541
341, 24.18113168746541
341.5, 24.23852674296316
342, 24.295921798460924
342.5, 24.295921798460924
343, 24.353316853958674
343.5, 24.353316853958674
344, 24.410711909456438
344.5, 24.468106964954202
345, 24.468106964954202
345.5, 24.468106964954202
346, 24.468106964954202
346.5, 24.582897075949717
347, 24.611594603698578
347.5, 24.611594603698578
348, 24.640292131447467
348.5, 24.640292131447467
349, 24.697687186945217
349.5, 24.697687186945217
350, 24.75508224244298
350.5, 24.898569881187356
351, 24.898569881187356
351.5, 24.95596493668512
352, 24.95596493668512
352.5, 25.070755047680635
353, 25.070755047680635
353.5, 25.070755047680635
354, 25.099452575429495
354.5, 25.099452575429495
355, 25.185545158676135
355.5, 25.185545158676135
356, 25.27163774192276
356.5, 25.300335269671635
357, 25.300335269671635
357.5, 25.357730325169385
358, 25.357730325169385
358.5, 25.41512538066715
359, 25.4725204361649
359.5, 25.4725204361649
360, 25.529915491662663
360.5, 25.529915491662663
361, 25.558613019411553
361.5, 25.558613019411553
362, 25.558613019411553
362.5, 25.644705602658163
363, 25.644705602658163
363.5, 25.702100658155928
364, 25.702100658155928
364.5, 25.788193241402553
365, 25.874285824649192
365.5, 25.874285824649192
366, 25.931680880146956
366.5, 25.931680880146956
367, 26.01777346339358
367.5, 26.01777346339358
368, 26.07516851889133
368.5, 26.13256357438908
369, 26.13256357438908
369.5, 26.218656157635735
370, 26.218656157635735
370.5, 26.27605121313347
371, 26.390841324128985
371.5, 26.390841324128985
372, 26.419538851877874
372.5, 26.419538851877874
373, 26.53432896287339
373.5, 26.53432896287339
374, 26.649119073868903
374.5, 26.76390918486439
375, 26.76390918486439
375.5, 26.821304240362153
376, 26.821304240362153
376.5, 26.878699295859903
377, 26.936094351357653
377.5, 26.936094351357653
378, 27.022186934604306
378.5, 27.022186934604306
379, 27.079581990102056
379.5, 27.13697704559982
380, 27.13697704559982
380.5, 27.280464684344196
381, 27.280464684344196
381.5, 27.337859739841946
382, 27.337859739841946
382.5, 27.42395232308857
383, 27.452649850837474
383.5, 27.452649850837474
384, 27.510044906335224
384.5, 27.510044906335224
385, 27.567439961832974
385.5, 27.6535325450796
386, 27.6535325450796
386.5, 27.71092760057735
387, 27.71092760057735
387.5, 27.883112767070628
388, 27.883112767070628
388.5, 27.997902878066142
389, 28.083995461312767
389.5, 28.083995461312767
390, 28.198785572308267
390.5, 28.198785572308267
391, 28.31357568330378
391.5, 28.42836579429931
392, 28.42836579429931
392.5, 28.48576084979706
393, 28.48576084979706
393.5, 28.571853433043685
394, 28.571853433043685
394.5, 28.715341071788075
395, 28.74403859953695
395.5, 28.74403859953695
396, 28.858828710532464
396.5, 28.858828710532464
397, 28.973618821527978
397.5, 29.088408932523492
398, 29.088408932523492
398.5, 29.174501515770118
399, 29.174501515770118
399.5, 29.346686682263382
400, 29.346686682263382
400.5, 29.432779265510007
401, 29.49017432100777
401.5, 29.49017432100777
402, 29.60496443200327
402.5, 29.60496443200327
403, 29.69105701524991
403.5, 29.80584712624541
404, 29.80584712624541
404.5, 29.949334764989814
405, 29.949334764989814
405.5, 30.00672982048758
406, 30.00672982048758
406.5, 30.09282240373419
407, 30.121519931483064
407.5, 30.121519931483064
408, 30.17891498698083
408.5, 30.17891498698083
409, 30.293705097976343
409.5, 30.379797681222982
410, 30.379797681222982
410.5, 30.494587792218496
411, 30.494587792218496
411.5, 30.63807543096287
412, 30.69547048646062
412.5, 30.69547048646062
412.99999999999994, 30.83895812520501
413.5, 30.83895812520501
414, 31.011143291698275
414.5, 31.011143291698275
415, 31.068538347196025
415.5, 31.212025985940414
416, 31.212025985940414
416.5, 31.26942104143818
417, 31.26942104143818
417.5, 31.355513624684818
418, 31.499001263429193
418.5, 31.499001263429193
419, 31.585093846675846
419.5, 31.585093846675846
420, 31.699883957671332
420.5, 31.699883957671332
421, 31.814674068666847
421.5, 31.92946417966236
422, 31.92946417966236
422.5, 32.044254290657875
423, 32.044254290657875
423.5, 32.1303468739045
424, 32.245136984900014
424.5, 32.245136984900014
425, 32.35992709589553
425.5, 32.35992709589553
426, 32.41732215139328
426.5, 32.41732215139328
427, 32.56080979013768
427.5, 32.64690237338429
428, 32.64690237338429
428.5, 32.79039001212868
428.99999999999994, 32.79039001212868
429.5, 32.99127270637085
430, 33.07736528961746
430.5, 33.07736528961746
431, 33.22085292836185
431.5, 33.22085292836185
432, 33.393038094855115
432.5, 33.393038094855115
433, 33.50782820585063
433.5, 33.65131584459502
434, 33.65131584459502
434.5, 33.73740842784164
435, 33.73740842784164
435.5, 33.79480348333941
436, 33.90959359433492
436.5, 33.90959359433492
437, 33.99568617758155
437.5, 33.99568617758155
438, 34.11047628857706
438.5, 34.11047628857706
439, 34.22526639957256
439.5, 34.282661455070325
440, 34.282661455070325
440.5, 34.39745156606584
441, 34.39745156606584
441.5, 34.483544149312465
442, 34.627031788056854
442.5, 34.627031788056854
443, 34.74182189905237
443.5, 34.74182189905237
444, 34.94270459329452
444.5, 34.94270459329452
445, 35.02879717654113
445.5, 35.11488975978777
446, 35.11488975978777
446.49999999999994, 35.229679870783286
447, 35.229679870783286
447.5, 35.315772454029926
448, 35.43056256502544
448.5, 35.43056256502544
449, 35.545352676020954
449.5, 35.545352676020954
450, 35.60274773151869
450.5, 35.774932898011954
451, 35.774932898011954
451.5, 35.832327953509704
452, 35.832327953509704
452.5, 36.00451312000298
453, 36.00451312000298
453.5, 36.14800075874736
454, 36.20539581424512
454.5, 36.20539581424512
455, 36.17669828649623
455.5, 36.17669828649623
456, 36.234093341994
456.5, 36.32018592524064
457, 36.32018592524064
457.5, 36.52106861948278
458, 36.52106861948278
458.5, 36.63585873047829
459, 36.63585873047829
459.5, 36.77934636922267
460, 36.865438952469304
460.5, 36.865438952469304
461, 36.92283400796707
461.5, 36.92283400796707
462, 37.037624118962576
462.5, 37.15241422995809
463, 37.15241422995809
463.5, 37.29590186870247
464, 37.29590186870247
464.5, 37.41069197969799
465, 37.41069197969799
465.5, 37.49678456294462
465.99999999999994, 37.611574673940126
466.5, 37.611574673940126
467, 37.75506231268451
467.5, 37.75506231268451
468, 37.84115489593114
468.5, 38.042037590173294
469, 38.042037590173294
469.5, 38.156827701168794
470, 38.156827701168794
470.5, 38.242920284415426
471, 38.242920284415426
471.5, 38.38640792315982
472, 38.472500506406455
472.5, 38.472500506406455
473, 38.615988145150844
473.5, 38.615988145150844
474, 38.759475783895226
474.5, 38.87426589489074
475, 38.87426589489074
475.5, 38.96035847813737
476, 38.96035847813737
476.5, 39.04645106138401
477, 39.04645106138401
477.5, 39.132543644630644
477.99999999999994, 39.39082139437054
478.5, 39.39082139437054
479, 39.59170408861268
479.5, 39.59170408861268
480, 39.763889255105944
480.5, 39.87867936610146
481, 39.87867936610146
481.49999999999994, 39.93607442159921
481.99999999999994, 39.93607442159921
482.5, 40.02216700484585
483, 40.02216700484585
483.5, 40.16565464359023
484, 40.280444754585744
484.5, 40.280444754585744
485, 40.423932393330126
485.5, 40.423932393330126
486, 40.45262992107901
486.5, 40.48132744882789
487, 40.48132744882789
487.5, 40.538722504325634
488, 40.538722504325634
488.5, 40.65351261532115
489, 40.76830272631666
489.5, 40.76830272631666
490, 40.94048789280993
490.5, 40.94048789280993
491, 41.055278003805434
491.5, 41.055278003805434
492, 41.19876564254983
492.5, 41.370950809043094
493, 41.370950809043094
493.5, 41.428345864540844
494, 41.428345864540844
494.5, 41.34225328129421
495, 41.370950809043094
495.5, 41.370950809043094
496, 41.45704339228973
496.5, 41.45704339228973
497, 41.571833503285234
497.5, 41.571833503285234
498, 41.571833503285234
498.5, 41.514438447787484
499, 41.514438447787484
499.5, 41.45704339228973
500, 41.45704339228973
500.5, 41.45704339228973
501, 41.45704339228973
501.5, 41.45704339228973
502, 41.39964833679196
502.5, 41.39964833679196
503, 41.34225328129421
503.5, 41.34225328129421
504, 41.34225328129421
504.5, 41.31355575354533
505, 41.31355575354533
505.49999999999994, 41.28485822579646
505.99999999999994, 41.28485822579646
506.5, 41.19876564254983
507, 41.141370587052066
507.5, 41.141370587052066
508, 41.055278003805434
508.5, 41.055278003805434
509, 40.911790365061044
509.5, 40.911790365061044
510, 40.797000254065544
510.5, 40.538722504325634
511, 40.538722504325634
511.5, 40.30914228233461
512, 40.30914228233461
512.5, 40.13695711584135
513, 39.96477194934809
513.5, 39.96477194934809
514, 39.792586782854826
514.5, 39.792586782854826
515, 39.706494199608194
515.5, 39.47691397761717
516, 39.47691397761717
516.5, 39.39082139437054
517, 39.39082139437054
517.5, 39.247333755626144
518, 39.247333755626144
518.5, 39.04645106138401
519, 38.989056005886255
519.5, 38.989056005886255
520, 38.84556836714186
520.5, 38.84556836714186
521, 38.73077825614636
521.5, 38.58729061740196
522, 38.58729061740196
522.5, 38.35771039541094
523, 38.35771039541094
523.5, 38.27161781216431
524, 38.27161781216431
524.5, 38.07073511792216
525, 37.98464253467554
525.5, 37.98464253467554
526, 37.92724747917777
526.5, 37.92724747917777
527, 37.75506231268451
527.5, 37.69766725718676
528, 37.69766725718676
528.5, 37.582877146191244
529, 37.582877146191244
529.5, 37.46808703519574
530, 37.46808703519574
530.5, 37.439389507446855
531, 37.41069197969799
531.5, 37.41069197969799
532, 37.439389507446855
532.5, 37.439389507446855
533, 37.41069197969799
533.5, 37.35329692420022
534, 37.35329692420022
534.5, 37.35329692420022
535, 37.35329692420022
535.5, 37.324599396451354
536, 37.26720434095359
536.5, 37.26720434095359
537, 37.18111175770696
537.5, 37.18111175770696
537.9999999999999, 37.12371670220921
538.5, 37.12371670220921
539, 37.12371670220921
539.5, 37.15241422995809
540, 37.15241422995809
540.5, 37.26720434095359
541, 37.26720434095359
541.5, 37.35329692420022
542, 37.439389507446855
542.5, 37.439389507446855
543, 37.525482090693494
543.5, 37.525482090693494
544, 37.46808703519574
544.5, 37.46808703519574
545, 37.439389507446855
545.5, 37.582877146191244
546, 37.582877146191244
546.5, 37.69766725718676
547, 37.69766725718676
547.5, 37.81245736818227
548, 37.92724747917777
548.5, 37.92724747917777
549, 38.042037590173294
549.5, 38.042037590173294
550, 38.07073511792216
550.5, 38.07073511792216
551, 38.042037590173294
551.5, 38.01334006242441
552, 38.01334006242441
552.5, 38.21422275666656
553, 38.21422275666656
553.5, 38.30031533991319
554, 38.35771039541094
554.5, 38.35771039541094
555, 38.44380297865757
555.5, 38.44380297865757
556, 38.50119803415534
556.5, 38.50119803415534
557, 38.55859308965308
557.5, 38.615988145150844
558, 38.615988145150844
558.5, 38.673383200648594
559, 38.673383200648594
559.5, 38.759475783895226
560, 38.81687083939299
560.5, 38.81687083939299
561, 38.87426589489074
561.5, 38.87426589489074
562, 38.90296342263962
562.5, 38.96035847813737
563, 38.96035847813737
563.5, 38.989056005886255
564, 38.989056005886255
564.5, 38.96035847813737
565, 38.96035847813737
565.5, 38.96035847813737
566, 38.96035847813737
566.5, 38.96035847813737
567, 38.93166095038849
567.5, 38.93166095038849
568, 38.93166095038849
568.5, 38.81687083939299
569, 38.81687083939299
569.5, 38.702080728397476
570, 38.702080728397476
570.5, 38.615988145150844
571, 38.615988145150844
571.5, 38.415105450908705
572, 38.38640792315982
572.5, 38.38640792315982
573, 38.30031533991319
573.5, 38.30031533991319
574, 38.156827701168794
574.5, 38.042037590173294
575, 38.042037590173294
575.5, 37.84115489593114
576, 37.84115489593114
576.5, 37.64027220168901
577, 37.64027220168901
577.5, 37.49678456294462
578, 37.26720434095359
578.5, 37.26720434095359
579, 37.095019174460326
579.5, 37.095019174460326
580, 36.92283400796707
580.5, 36.750648841473804
581, 36.750648841473804
581.5, 36.63585873047829
582, 36.63585873047829
582.5, 36.40627850848727
583, 36.20539581424512
583.5, 36.20539581424512
584, 36.06190817550073
584.5, 36.06190817550073
585, 35.832327953509704
585.5, 35.832327953509704
586, 35.631445259267565
586.5, 35.4592600927743
587, 35.4592600927743
587.5, 35.20098234303441
588, 35.20098234303441
588.5, 34.97140212104338
589, 34.77051942680124
589.5, 34.77051942680124
590, 34.512241677061354
590.5, 34.512241677061354
591, 34.426149093814715
591.5, 34.426149093814715
592, 34.196568871823686
592.5, 33.966988649832686
593, 33.966988649832686
593.5, 33.82350101108828
594, 33.82350101108828
594.5, 33.65131584459502
595, 33.50782820585063
595.5, 33.50782820585063
596, 33.364340567106254
596.5, 33.364340567106254
597, 33.106062817366336
597.5, 32.96257517862195
598, 32.96257517862195
598.5, 32.70429742888206
599, 32.70429742888206
599.5, 32.47471720689103
600, 32.47471720689103
600.5, 32.331229568146654
601, 32.245136984900014
601.5, 32.245136984900014
602, 32.187741929402264
602.5, 32.187741929402264
603, 32.072951818406764
603.5, 31.87206912416461
604, 31.87206912416461
604.5, 31.78597654091797
605, 31.78597654091797
605.5, 31.585093846675846
606, 31.585093846675846
606.5, 31.441606207931443
607, 31.38421115243368
607.5, 31.38421115243368
608, 31.212025985940414
608.5, 31.212025985940414
608.9999999999999, 31.12593340269379
609.5, 30.953748236200525
610, 30.953748236200525
610.5, 30.89635318070276
611, 30.89635318070276
611.5, 30.89635318070276
612, 30.89635318070276
612.5, 30.810260597456136
613, 30.60937790321401
613.5, 30.60937790321401
614, 30.551982847716246
614.5, 30.551982847716246
615, 30.379797681222982
615.5, 30.265007570227453
616, 30.265007570227453
616.5, 30.17891498698083
617, 30.17891498698083
617.5, 30.09282240373419
618, 30.00672982048758
618.5, 30.00672982048758
619, 29.891939709492064
619.5, 29.891939709492064
620, 29.80584712624541
620.5, 29.80584712624541
621, 29.719754542998785
621.5, 29.633661959752146
622, 29.633661959752146
622.5, 29.60496443200327
623, 29.60496443200327
623.5, 29.60496443200327
624, 29.60496443200327
624.5, 29.60496443200327
625, 29.51887184875666
625.5, 29.51887184875666
626, 29.346686682263382
626.5, 29.346686682263382
627, 29.260594099016743
627.5, 29.231896571267868
628, 29.231896571267868
628.4999999999999, 29.14580398802123
629, 29.14580398802123
629.5, 29.031013877025742
630, 28.88752623828134
630.5, 28.88752623828134
631, 28.772736127285825
631.5, 28.772736127285825
632, 28.74403859953695
632.5, 28.65794601629031
633, 28.629248488541435
633.5, 28.51445837754592
634, 28.51445837754592
634.5, 28.45706332204817
635, 28.45706332204817
635.5, 28.39966826655042
636, 28.25618062780603
636.5, 28.25618062780603
637, 28.198785572308267
637.5, 28.198785572308267
638, 28.141390516810517
638.5, 28.112692989061657
639, 28.112692989061657
639.5, 28.083995461312767
640, 28.083995461312767
640.5, 27.969205350317253
641, 27.969205350317253
641.5, 27.883112767070628
642, 27.825717711572864
642.5, 27.825717711572864
643, 27.71092760057735
643.5, 27.71092760057735
644, 27.6535325450796
644.5, 27.567439961832974
645, 27.567439961832974
645.5, 27.538742434084085
646, 27.538742434084085
646.5, 27.510044906335224
647, 27.510044906335224
647.5, 27.42395232308857
648, 27.36655726759082
648.5, 27.36655726759082
649, 27.337859739841946
649.5, 27.337859739841946
650, 27.30916221209307
650.5, 27.19437210109757
651, 27.19437210109757
651.5, 27.19437210109757
652, 27.19437210109757
652.5, 27.16567457334868
653, 27.16567457334868
653.5, 27.13697704559982
654, 27.079581990102056
654.5, 27.079581990102056
655, 27.050884462353167
655.5, 27.050884462353167
656, 27.050884462353167
656.5, 27.050884462353167
657, 27.050884462353167
657.5, 27.022186934604306
658, 27.022186934604306
658.5, 27.022186934604306
659, 26.993489406855417
659.5, 26.993489406855417
660, 26.993489406855417
660.5, 26.993489406855417
661, 26.993489406855417
661.5, 26.993489406855417
662, 26.993489406855417
662.5, 26.993489406855417
663, 26.993489406855417
663.5, 26.993489406855417
664, 26.993489406855417
664.5, 26.964791879106556
665, 26.964791879106556
665.5, 26.964791879106556
666, 26.993489406855417
666.5, 26.993489406855417
667, 26.964791879106556
667.5, 26.964791879106556
667.9999999999999, 26.878699295859903
668.5, 26.821304240362153
669, 26.821304240362153
669.5, 26.821304240362153
670, 26.821304240362153
670.5, 26.735211657115514
671, 26.677816601617764
671.5, 26.677816601617764
672, 26.62042154612
672.5, 26.62042154612
673, 26.59172401837114
673.5, 26.59172401837114
674, 26.677816601617764
674.5, 26.76390918486439
675, 26.76390918486439
675.5, 26.936094351357653
676, 26.936094351357653
676.5, 26.993489406855417
677, 27.022186934604306
677.5, 27.022186934604306
678, 27.050884462353167
678.5, 27.050884462353167
679, 27.050884462353167
679.5, 27.108279517850917
680, 27.108279517850917
680.5, 27.16567457334868
681, 27.16567457334868
681.5, 27.16567457334868
682, 27.16567457334868
682.5, 27.22306962884643
683, 27.22306962884643
683.5, 27.22306962884643
684, 27.16567457334868
684.5, 27.16567457334868
685, 27.13697704559982
685.5, 27.13697704559982
686, 27.13697704559982
686.5, 27.251767156595307
687, 27.251767156595307
687.5, 27.30916221209307
688, 27.30916221209307
688.5, 27.39525479533971
689, 27.36655726759082
689.5, 27.36655726759082
690, 27.42395232308857
690.5, 27.42395232308857
691, 27.481347378586335
691.5, 27.59613748958185
692, 27.59613748958185
692.5, 27.59613748958185
693, 27.59613748958185
693.5, 27.510044906335224
694, 27.510044906335224
694.5, 27.59613748958185
695, 27.6535325450796
695.5, 27.6535325450796
696, 27.768322656075114
696.5, 27.768322656075114
697, 27.79702018382399
697.5, 27.79702018382399
698, 27.79702018382399
698.5, 27.79702018382399
699, 27.79702018382399
699.5, 27.825717711572864
700, 27.825717711572864
700.5, 27.911810294819503
701, 27.911810294819503
701.5, 27.911810294819503
702, 27.940507822568392
702.5, 27.940507822568392
702.9999999999999, 27.997902878066142
703.5, 28.112692989061657
704, 28.112692989061657
704.5, 28.141390516810517
705, 28.141390516810517
705.5, 28.141390516810517
706, 28.141390516810517
706.5, 28.112692989061657
706.9999999999999, 28.055297933563892
707.4999999999999, 28.055297933563892
708, 28.112692989061657
708.5, 28.112692989061657
709, 28.112692989061657
709.5, 28.083995461312767
710, 28.083995461312767
710.5, 28.083995461312767
711, 28.083995461312767
711.5, 28.141390516810517
712, 28.198785572308267
712.5, 28.198785572308267
713, 28.198785572308267
713.5, 28.198785572308267
714, 28.198785572308267
714.5, 28.198785572308267
715, 28.25618062780603
715.5, 28.22748310005717
716, 28.22748310005717
716.5, 28.170088044559407
717, 28.170088044559407
717.5, 28.141390516810517
718, 28.170088044559407
718.5, 28.170088044559407
719, 28.198785572308267
719.5, 28.198785572308267
720, 28.284878155554907
720.5, 28.284878155554907
721, 28.284878155554907
721.5, 28.198785572308267
722, 28.198785572308267
722.5, 28.112692989061657
723, 28.112692989061657
723.5, 28.026600405815003
724, 28.112692989061657
724.5, 28.112692989061657
724.9999999999998, 28.170088044559407
725.4999999999999, 28.170088044559407
726, 28.198785572308267
726.5, 28.198785572308267
727, 28.25618062780603
727.5, 28.25618062780603
728, 28.25618062780603
728.5, 28.198785572308267
729, 28.198785572308267
729.5, 28.198785572308267
729.9999999999999, 28.284878155554907
730.5, 28.284878155554907
730.9999999999999, 28.284878155554907
731.5, 28.284878155554907
732, 28.198785572308267
732.5, 28.112692989061657
733, 28.112692989061657
733.5, 28.055297933563892
734, 28.055297933563892
734.5, 28.055297933563892
735, 28.055297933563892
735.5, 28.083995461312767
736, 28.141390516810517
736.5, 28.141390516810517
736.9999999999999, 28.170088044559407
737.5, 28.170088044559407
738, 28.198785572308267
738.5, 28.170088044559407
738.9999999999999, 28.170088044559407
739.5, 28.112692989061657
740, 28.112692989061657
740.5, 27.997902878066142
741, 27.997902878066142
741.5, 27.969205350317253
742, 27.969205350317253
742.5, 27.969205350317253
743, 28.026600405815003
743.5, 28.026600405815003
744, 28.083995461312767
744.4999999999999, 28.22748310005717
744.9999999999999, 28.22748310005717
745.5, 28.198785572308267
746, 28.198785572308267
746.5, 28.112692989061657
747, 28.112692989061657
747.5, 28.083995461312767
748, 28.083995461312767
748.5, 28.083995461312767
748.9999999999999, 27.997902878066142
749.5, 27.997902878066142
750, 27.79702018382399
750.4999999999999, 27.71092760057735
751, 27.71092760057735
751.5, 27.510044906335224
752, 27.510044906335224
752.4999999999999, 27.39525479533971
753, 27.39525479533971
753.5, 27.337859739841946
753.9999999999999, 27.19437210109757
754.5, 27.19437210109757
754.9999999999999, 27.19437210109757
755.5, 27.19437210109757
755.9999999999999, 27.251767156595307
756.5, 27.251767156595307
757, 27.251767156595307
757.5, 27.19437210109757
758, 27.19437210109757
758.4999999999999, 27.13697704559982
759, 27.13697704559982
759.4999999999999, 27.13697704559982
760, 27.16567457334868
760.5, 27.16567457334868
761, 27.108279517850917
761.5, 27.108279517850917
762, 26.993489406855417
762.5, 26.850001768111028
763, 26.850001768111028
763.5, 26.735211657115514
763.9999999999999, 26.735211657115514
764.5, 26.735211657115514
765, 26.821304240362153
765.4999999999999, 26.821304240362153
766, 26.53432896287339
766.4999999999999, 26.53432896287339
767, 26.448236379626735
767.5, 26.448236379626735
768, 26.390841324128985
768.4999999999999, 26.36214379638011
768.9999999999999, 26.36214379638011
769.5, 26.333446268631235
770, 26.333446268631235
770.5, 26.218656157635735
770.9999999999998, 26.189958629886846
771.4999999999999, 26.189958629886846
772, 26.13256357438908
772.5, 26.13256357438908
773, 25.989075935644706
773.4999999999999, 25.989075935644706
774, 25.845588296900317
774.5, 25.702100658155928
775, 25.702100658155928
775.5, 25.644705602658163
776, 25.644705602658163
776.5, 25.558613019411553
777, 25.41512538066715
777.5, 25.41512538066715
778, 25.300335269671635
778.5, 25.300335269671635
779, 25.185545158676135
779.5, 25.01335999218287
779.9999999999999, 25.01335999218287
780.5, 24.898569881187356
781, 24.898569881187356
781.5, 24.783779770191842
782, 24.783779770191842
782.4999999999999, 24.640292131447467
783, 24.554199548200813
783.5, 24.554199548200813
783.9999999999999, 24.439409437205313
784.5, 24.439409437205313
785, 24.295921798460924
785.5, 24.12373663196766
785.9999999999999, 24.12373663196766
786.5, 24.066341576469895
786.9999999999999, 24.066341576469895
787.5, 24.037644048721035
787.9999999999999, 24.037644048721035
788.5, 23.951551465474395
789, 23.779366298981145
789.5, 23.779366298981145
790, 23.72197124348338
790.5, 23.72197124348338
791, 23.521088549241227
791.4999999999999, 23.434995965994602
791.9999999999999, 23.434995965994602
792.5, 23.377600910496838
793, 23.377600910496838
793.5, 23.234113271752463
793.9999999999999, 23.176718216254713
794.5, 23.148020688505824
795, 23.0619281052592
795.5, 23.0619281052592
795.9999999999999, 22.947137994263684
796.5, 22.947137994263684
797, 22.861045411017045
797.5, 22.746255300021545
798, 22.746255300021545
798.5, 22.746255300021545
799, 22.746255300021545
799.4999999999998, 22.774952827770406
800, 22.83234788326817
800.5, 22.83234788326817
801, 22.746255300021545
801.5, 22.746255300021545
802, 22.63146518902603
802.5, 22.63146518902603
803, 22.54537260577939
803.5, 22.487977550281627
804, 22.487977550281627
804.4999999999998, 22.430582494783877
805, 22.430582494783877
805.5, 22.373187439286127
806, 22.373187439286127
806.5, 22.373187439286127
807, 22.373187439286127
807.5, 22.373187439286127
807.9999999999998, 22.401884967035002
808.4999999999998, 22.401884967035002
809, 22.373187439286127
809.4999999999998, 22.201002272792877
810, 22.201002272792877
810.4999999999998, 22.229699800541738
811, 22.229699800541738
811.5, 22.258397328290627
811.9999999999998, 22.0288171062996
812.4999999999998, 22.0288171062996
813, 21.97142205080185
813.5, 21.97142205080185
813.9999999999998, 22.0288171062996
814.5, 22.0288171062996
814.9999999999998, 22.086212161797363
815.5, 22.143607217295113
815.9999999999998, 22.143607217295113
816.5, 22.172304745043974
817, 22.172304745043974
817.4999999999998, 22.114909689546224
818, 22.114909689546224
818.4999999999998, 22.114909689546224
818.9999999999998, 22.201002272792877
819.4999999999998, 22.201002272792877
820, 22.258397328290627
820.5, 22.287094856039488
821, 22.287094856039488
821.5, 22.258397328290627
822, 22.258397328290627
822.5, 22.258397328290627
823, 22.258397328290627
823.5, 22.287094856039488
823.9999999999998, 22.258397328290627
824.5, 22.258397328290627
825, 22.258397328290627
825.5, 22.258397328290627
826, 22.373187439286127
826.5, 22.54537260577939
827, 22.54537260577939
827.4999999999998, 22.60276766127714
828, 22.60276766127714
828.5, 22.57407013352828
828.9999999999998, 22.57407013352828
829.5, 22.60276766127714
829.9999999999998, 22.66016271677489
830.4999999999998, 22.66016271677489
853.9999999999998, 23.549786076990117
854.4999999999998, 23.549786076990117
854.9999999999998, 23.578483604738977
855.5, 23.578483604738977
855.9999999999998, 23.69327371573449
856.5, 23.63587866023674
857, 23.63587866023674
857.5, 23.63587866023674
858, 23.63587866023674
858.4999999999998, 23.72197124348338
859, 23.69327371573449
859.4999999999998, 23.69327371573449
859.9999999999998, 23.75066877123224
860.5, 23.75066877123224
860.9999999999998, 23.865458882227756
861.5, 23.865458882227756
861.9999999999998, 23.865458882227756
862.5, 23.865458882227756
862.9999999999998, 23.865458882227756
863.4999999999998, 23.83676135447888
864, 23.83676135447888
864.4999999999998, 23.83676135447888
864.9999999999998, 23.92285393772552
865.4999999999998, 23.92285393772552
866, 24.095039104218785
866.5, 24.095039104218785
867, 24.15243415971655
867.4999999999998, 24.15243415971655
868, 24.2098292152143
868.5, 24.23852674296316
868.9999999999998, 24.23852674296316
869.4999999999998, 24.295921798460924
869.9999999999998, 24.295921798460924
870.5, 24.439409437205313
870.9999999999998, 24.554199548200813
871.5, 24.554199548200813
872, 24.697687186945217
872.4999999999998, 24.697687186945217
873, 24.75508224244298
873.5, 24.75508224244298
874, 24.75508224244298
874.5, 24.783779770191842
875, 24.783779770191842
875.4999999999998, 24.898569881187356
875.9999999999998, 24.898569881187356
876.4999999999998, 24.95596493668512
876.9999999999998, 25.156847630927246
877.4999999999998, 25.156847630927246
877.9999999999998, 25.21424268642501
878.5, 25.21424268642501
878.9999999999998, 25.2429402141739
879.4999999999998, 25.386427852918274
880, 25.386427852918274
880.4999999999998, 25.50121796391379
881, 25.50121796391379
881.4999999999998, 25.730798185904817
881.9999999999998, 25.730798185904817
882.5, 26.13256357438908
882.9999999999998, 26.247353685384596
883.4999999999998, 26.247353685384596
884, 26.47693390737564
884.5, 26.47693390737564
884.9999999999998, 26.5056314351245
885.4999999999998, 26.62042154612
885.9999999999998, 26.62042154612
886.9999999999998, 26.792606712613278
888, 26.850001768111028
888.4999999999998, 26.850001768111028
891, 26.36214379638011
891.4999999999998, 26.677816601617764
891.9999999999998, 26.677816601617764
892.4999999999998, 26.878699295859903
892.9999999999998, 26.878699295859903
893.5, 27.050884462353167
893.9999999999998, 27.050884462353167
894.4999999999998, 27.108279517850917
894.9999999999998, 27.22306962884643
895.4999999999998, 27.22306962884643
896.9999999999998, 27.768322656075114
897.4999999999998, 28.170088044559407
898, 28.170088044559407
898.4999999999998, 28.45706332204817
898.9999999999998, 28.45706332204817
899.4999999999998, 28.600550960792575
899.9999999999998, 28.600550960792575
900.5, 28.629248488541435
900.9999999999998, 28.8014336550347
901.4999999999998, 28.8014336550347
901.9999999999998, 29.260594099016743
902.4999999999998, 29.260594099016743
902.9999999999998, 29.54756937650552
903.4999999999998, 29.80584712624541
904, 29.80584712624541
904.4999999999998, 30.06412487598533
904.9999999999998, 30.06412487598533
905.4999999999998, 30.351100153474093
905.9999999999998, 30.351100153474093
906.5, 30.551982847716246
906.9999999999998, 30.953748236200525
907.5, 30.953748236200525
908, 31.26942104143818
908.5, 31.26942104143818
909, 31.585093846675846
909.4999999999998, 32.072951818406764
909.9999999999998, 32.072951818406764
910.4999999999998, 32.331229568146654
910.9999999999998, 32.331229568146654
911.4999999999998, 32.64690237338429
911.9999999999998, 32.64690237338429
912.4999999999998, 32.96257517862195
913, 34.39745156606584
913.5, 34.39745156606584
914, 35.315772454029926
913.9999999999998, 33.421735622604004
914.4999999999998, 35.315772454029926
914.4999999999998, 33.421735622604004
914.9999999999998, 34.56963673255912
915.5, 35.17228481528552
915.9999999999998, 35.17228481528552
916.5, 35.20098234303441
916.9999999999998, 35.20098234303441
917.5, 35.315772454029926
917.9999999999998, 35.315772454029926
918.4999999999998, 35.51665514827205
918.9999999999998, 35.774932898011954
919.5, 35.774932898011954
920, 35.94711806450522
920.4999999999998, 35.94711806450522
921, 36.37758098073839
921.4999999999998, 36.63585873047829
922, 36.63585873047829
922.4999999999998, 36.83674142472044
923, 36.83674142472044
923.4999999999998, 37.439389507446855
923.9999999999998, 37.439389507446855
924.4999999999998, 37.75506231268451
924.9999999999998, 37.98464253467554
925.5, 37.98464253467554
925.9999999999998, 38.472500506406455
926.4999999999998, 38.472500506406455
926.9999999999998, 38.702080728397476
927.5, 39.07514858913288
928, 39.07514858913288
928.4999999999998, 39.47691397761717
928.9999999999998, 39.47691397761717
929.5, 39.73519172735706
930, 39.73519172735706
930.4999999999998, 40.13695711584135
930.9999999999998, 40.337839810083494
931.5, 40.337839810083494
931.9999999999998, 40.567420032074516
932.5, 40.567420032074516
933, 40.88309283731218
933.5, 41.141370587052066
933.9999999999998, 41.141370587052066
934.5, 41.571833503285234
935, 41.571833503285234
935.4999999999998, 42.088389002765034
936, 42.088389002765034
936.4999999999998, 42.3753642802538
937, 42.69103708549145
937.4999999999998, 42.69103708549145
938, 43.1501975294735
938.4999999999998, 43.1501975294735
938.9999999999998, 43.32238269596676
939.4999999999998, 43.6667530289533
939.9999999999998, 43.6667530289533
940.5, 44.01112336193983
940.9999999999998, 44.01112336193983
941.5, 44.32679616717748
941.9999999999998, 44.32679616717748
942.5, 44.64246897241514
942.9999999999998, 44.929444249903916
943.4999999999998, 44.929444249903916
944, 45.30251211063931
944.5, 45.30251211063931
945, 45.675579971374724
945.4999999999998, 45.84776513786799
945.9999999999998, 45.84776513786799
946.4999999999998, 46.07734535985902
946.9999999999998, 46.07734535985902
947.5, 46.565203331589935
948, 46.565203331589935
948.5, 46.82348108132983
948.9999999999998, 47.31133905306075
949.4999999999998, 47.31133905306075
949.9999999999998, 47.68440691379615
950.5, 47.68440691379615
950.9999999999998, 47.885289608038306
951.4999999999998, 48.22965994102483
952, 48.22965994102483
952.4999999999998, 48.54533274626249
953, 48.54533274626249
953.5, 48.803610496002385
954, 48.803610496002385
954.4999999999998, 49.234073412235546
954.9999999999998, 49.57844374522208
955.5, 49.57844374522208
955.9999999999998, 49.69323385621759
956.4999999999998, 49.69323385621759
956.9999999999998, 50.037604189204124
957.4999999999998, 50.35327699444178
957.9999999999998, 50.35327699444178
958.4999999999998, 51.01332013266596
959, 51.01332013266596
959.4999999999998, 51.12811024366147
960, 51.12811024366147
960.4999999999998, 51.2142028269081
960.9999999999998, 51.38638799340137
961.4999999999998, 51.38638799340137
962, 51.64466574314126
962.5, 51.64466574314126
962.9999999999998, 51.78815338188565
963.4999999999998, 52.189918770369935
963.9999999999998, 52.189918770369935
964.4999999999998, 52.64907921435198
964.9999999999998, 52.64907921435198
965.5, 52.90735696409188
966, 52.90735696409188
966.4999999999998, 53.050844602836264
967, 53.48130751906943
967.5, 53.48130751906943
968, 53.73958526880933
968.4999999999998, 53.73958526880933
968.9999999999998, 53.883072907553725
969.4999999999998, 54.457023462531275
969.9999999999998, 54.457023462531275
970.5, 54.715301212271164
971, 54.715301212271164
971.4999999999998, 55.03097401750882
971.9999999999998, 55.03097401750882
972.4999999999998, 55.231856711750964
972.9999999999998, 55.49013446149087
973.4999999999998, 55.49013446149087
973.9999999999998, 55.60492457248637
974.4999999999998, 55.60492457248637
975, 55.977992433221786
975.4999999999998, 56.12148007196617
976, 56.12148007196617
976.4999999999998, 56.43715287720383
977, 56.43715287720383
977.4999999999998, 56.838918265688115
977.9999999999998, 56.838918265688115
978.5, 57.01110343218137
978.9999999999998, 57.44156634841454
979.5, 57.44156634841454
979.9999999999998, 57.55635645941005
980.5, 57.55635645941005
980.9999999999998, 57.87202926464771
981.4999999999998, 58.01551690339209
981.9999999999998, 58.01551690339209
982.5, 58.15900454213647
983, 58.15900454213647
983.4999999999998, 58.3885847641275
983.9999999999998, 58.3885847641275
984.5, 58.474677347374126
984.9999999999998, 58.6468625138674
985.4999999999998, 58.6468625138674
986, 58.73295509711403
986.5, 58.73295509711403
986.9999999999998, 59.04862790235168
987.5, 59.07732543010056
987.9999999999998, 59.07732543010056
988.5, 59.30690565209159
988.9999999999998, 59.30690565209159
989.4999999999998, 59.364300707589344
990, 59.45039329083597
990.4999999999998, 59.45039329083597
991, 59.479090818584844
991.4999999999998, 59.479090818584844
992, 59.50778834633372
992.4999999999998, 59.50778834633372
993, 59.50778834633372
993.4999999999998, 59.65127598507811
993.9999999999998, 59.65127598507811
994.5, 59.82346115157138
995, 59.82346115157138
995.5, 59.93825126256689
995.9999999999998, 60.139133956809026
996.4999999999998, 60.139133956809026
996.9999999999998, 60.16783148455791
997.5, 60.16783148455791
997.9999999999998, 60.368714178800055
998.4999999999998, 60.368714178800055
998.9999999999998, 60.48350428979556
999.4999999999998, 60.62699192853995
1000, 60.62699192853995
1000.4999999999998, 60.59829440079107
1000.9999999999998, 60.59829440079107
1001.4999999999998, 60.54089934529332
1001.9999999999998, 60.51220181754444
1002.5, 60.51220181754444
1002.9999999999998, 60.62699192853995
1003.5, 60.62699192853995
1003.9999999999998, 60.6843869840377
1004.4999999999998, 60.6843869840377
1004.9999999999998, 60.6843869840377
1005.5, 60.655689456288826
1006, 60.655689456288826
1006.4999999999998, 60.59829440079107
1006.9999999999998, 60.59829440079107
1007.4999999999998, 60.62699192853995
1007.9999999999998, 60.6843869840377
1008.4999999999998, 60.6843869840377
1009, 60.85657215053097
1009.4999999999998, 60.85657215053097
1009.9999999999998, 60.91396720602872
1010.5, 60.91396720602872
1011, 60.942664733777605
1011.5, 60.741782039535465
1011.9999999999998, 60.741782039535465
1012.4999999999998, 60.569596873042194
1012.9999999999998, 60.569596873042194
1013.4999999999998, 60.48350428979556
1013.9999999999998, 60.48350428979556
1014.4999999999998, 60.48350428979556
1014.9999999999998, 60.45480676204668
1015.4999999999998, 60.45480676204668
1016, 60.39741170654894
1016.5, 60.39741170654894
1017, 60.39741170654894
1017.4999999999998, 60.34001665105118
1017.9999999999998, 60.34001665105118
1018.4999999999998, 60.25392406780455
1018.9999999999998, 60.25392406780455
1019.5, 60.053041373562394
1019.9999999999998, 59.85215867932026
1020.4999999999998, 59.85215867932026
1020.9999999999998, 59.67997351282699
1021.4999999999998, 59.67997351282699
1021.9999999999998, 59.62257845732923
1022.5, 59.50778834633372
1023, 59.50778834633372
1023.4999999999998, 59.364300707589344
1023.9999999999998, 59.364300707589344
1024.4999999999998, 59.30690565209159
1025, 59.30690565209159
1025.5, 59.192115541096065
1025.9999999999998, 59.04862790235168
1026.4999999999998, 59.04862790235168
1026.9999999999998, 59.07732543010056
1027.4999999999998, 59.07732543010056
1027.9999999999998, 59.10602295784943
1028.5, 58.933837791356176
1028.9999999999998, 58.933837791356176
1029.5, 58.81904768036067
1030, 58.81904768036067
1030.4999999999998, 58.53207240287188
1030.9999999999998, 58.53207240287188
1031.5, 58.474677347374126
1031.9999999999998, 58.187702069885354
1032.4999999999998, 58.187702069885354
1032.9999999999998, 58.07291195888984
1033.4999999999998, 58.07291195888984
1034, 57.785936681401076
1034.5, 57.58505398715892
1034.9999999999998, 57.58505398715892
1035.5, 57.671146570405554
1035.9999999999998, 57.671146570405554
1036.4999999999998, 57.64244904265668
1037, 57.32677623741903
1037.4999999999998, 57.15459107092576
1038, 56.982405904432504
1038.4999999999998, 56.982405904432504
1039, 56.40845534945495
1039.4999999999998, 56.40845534945495
1039.9999999999998, 56.29366523845944
1040.4999999999998, 56.15017759971504
1040.9999999999998, 56.15017759971504
1041.4999999999998, 56.035387488719536
1041.9999999999998, 56.035387488719536
1042.5, 56.06408501646841
1042.9999999999998, 55.74841221123076
1043.5, 55.74841221123076
1043.9999999999998, 55.54752951698862
1044.4999999999998, 55.54752951698862
1044.9999999999998, 54.887486378764436
1045.4999999999998, 54.887486378764436
1046, 54.715301212271164
1046.4999999999998, 54.313535823786886
1047, 54.313535823786886
1047.4999999999998, 54.17004818504249
1047.9999999999998, 54.17004818504249
1048.4999999999998, 53.940467963051475
1048.9999999999998, 53.796980324307086
1049.5, 53.796980324307086
1049.9999999999998, 53.710887741060446
1050.5, 53.710887741060446
1051, 53.567400102316064
1051.4999999999998, 53.280424824827286
1051.9999999999998, 53.022147075087396
1052.4999999999998, 52.763869325347486
1052.9999999999998, 52.763869325347486
1053.5, 52.13252371487218
1054, 52.13252371487218
1054.4999999999998, 52.07512865937443
1055, 51.9890360761278
1055.4999999999998, 51.9890360761278
1055.9999999999998, 51.501178104396885
1056.4999999999998, 51.501178104396885
1057, 51.242900354656975
1057.5, 51.099412715912585
1057.9999999999998, 51.099412715912585
1058.5, 50.668949799679424
1058.9999999999998, 50.668949799679424
1059.4999999999998, 50.64025227193055
1059.9999999999998, 50.64025227193055
1060.4999999999998, 50.238486883446264
1060.9999999999998, 50.037604189204124
1061.4999999999998, 50.037604189204124
1062, 49.52104868972433
1062.4999999999998, 49.52104868972433
1062.9999999999998, 49.2914684677333
1063.4999999999998, 49.20537588448667
1063.9999999999998, 49.20537588448667
1064.4999999999998, 48.86100555150014
1064.9999999999998, 48.86100555150014
1065.5, 48.68882038500687
1065.9999999999998, 48.51663521851361
1066.4999999999998, 48.51663521851361
1066.9999999999998, 48.22965994102483
1067.4999999999998, 48.22965994102483
1067.9999999999998, 47.94268466353606
1068.4999999999998, 47.94268466353606
1069, 47.68440691379615
1069.4999999999998, 47.368734108558506
1070, 47.368734108558506
1070.4999999999998, 46.96696872007422
1070.9999999999998, 46.96696872007422
1071.4999999999998, 46.39301816509667
1071.9999999999998, 46.36432063734779
1072.4999999999998, 46.36432063734779
1073, 46.30692558185003
1073.5, 46.30692558185003
1073.9999999999998, 46.16343794310564
1074.4999999999998, 46.16343794310564
1074.9999999999998, 45.87646266561687
1075.4999999999998, 45.618184915876974
1075.9999999999998, 45.618184915876974
1076.5, 45.417302221634834
1077, 45.417302221634834
1077.4999999999998, 45.15902447189494
1078, 44.986839305401666
1078.4999999999998, 44.986839305401666
1079, 44.64246897241514
1079.4999999999998, 44.64246897241514
1079.9999999999998, 44.47028380592187
1080.4999999999998, 44.35549369492635
1080.9999999999998, 44.35549369492635
1081.5, 44.06851841743759
1082, 44.06851841743759
1082.4999999999998, 43.69545055670217
1082.9999999999998, 43.69545055670217
1083.4999999999998, 43.4084752792134
1083.9999999999998, 42.92061730748248
1084.5, 42.92061730748248
1085, 42.719734613240334
1085.5, 42.719734613240334
1086, 42.60494450224483
1086.4999999999998, 42.49015439124932
1087, 42.49015439124932
1087.4999999999998, 42.174481586011666
1087.9999999999998, 42.174481586011666
1088.4999999999998, 41.944901364020645
1088.9999999999998, 41.944901364020645
1089.5, 41.80141372527625
1089.9999999999998, 41.31355575354533
1090.4999999999998, 41.31355575354533
1090.9999999999998, 41.19876564254983
1091.4999999999998, 41.19876564254983
1091.9999999999998, 41.083975531554316
1092.4999999999998, 40.7109076708189
1092.9999999999998, 40.7109076708189
1093.4999999999998, 40.510024976576766
1093.9999999999998, 40.510024976576766
1094.4999999999998, 40.25174722683686
1095, 40.19435217133911
1095.4999999999998, 40.19435217133911
1095.9999999999998, 39.993469477096966
1096.5, 39.993469477096966
1096.9999999999998, 39.763889255105944
1097.4999999999998, 39.763889255105944
1097.9999999999998, 39.333426338872776
1098.4999999999998, 39.218636227877276
1098.9999999999998, 39.218636227877276
1099.4999999999998, 39.218636227877276
1099.9999999999998, 39.218636227877276
1100.5, 39.07514858913288
1100.9999999999998, 38.81687083939299
1101.4999999999998, 38.81687083939299
1101.9999999999998, 38.702080728397476
1102.4999999999998, 38.702080728397476
1102.9999999999998, 38.242920284415426
1103.4999999999998, 38.242920284415426
1104, 38.042037590173294
1104.5, 37.86985242368002
1104.9999999999998, 37.86985242368002
1105.4999999999998, 37.554179618442376
1105.9999999999998, 37.554179618442376
1106.5, 37.12371670220921
1106.9999999999998, 37.06632164671146
1107.4999999999998, 37.06632164671146
1108, 36.89413648021819
1108.5, 36.89413648021819
1108.9999999999998, 36.69325378597604
1109.4999999999998, 36.54976614723166
1109.9999999999998, 36.54976614723166
1110.4999999999998, 36.20539581424512
1110.9999999999998, 36.20539581424512
1111.4999999999998, 36.14800075874736
1111.9999999999998, 36.14800075874736
1112.5, 36.00451312000298
1112.9999999999998, 35.91842053675636
1113.4999999999998, 35.91842053675636
1113.9999999999998, 35.48795762052319
1114.4999999999998, 35.48795762052319
1114.9999999999998, 35.25837739853216
1115.4999999999998, 34.94270459329452
1115.9999999999998, 34.94270459329452
1116.5, 34.74182189905237
1117, 34.74182189905237
1117.4999999999998, 34.426149093814715
1118, 34.426149093814715
1118.4999999999998, 34.25396392732145
1118.9999999999998, 34.196568871823686
1119.4999999999998, 34.196568871823686
1119.9999999999998, 34.11047628857706
1120.4999999999998, 34.11047628857706
1120.9999999999998, 33.82350101108828
1121.4999999999998, 33.65131584459502
1121.9999999999998, 33.65131584459502
1122.5, 33.30694551160849
1122.9999999999998, 33.30694551160849
1123.4999999999998, 33.07736528961746
1123.9999999999998, 32.9051801231242
1124.4999999999998, 32.9051801231242
1124.9999999999998, 32.64690237338429
1125.4999999999998, 32.64690237338429
1126, 32.35992709589553
1126.4999999999998, 32.35992709589553
1126.9999999999998, 32.072951818406764
1127.4999999999998, 31.671186429922457
1127.9999999999998, 31.671186429922457
1128.4999999999998, 31.556396318926957
1128.9999999999998, 31.556396318926957
1129.4999999999998, 31.499001263429193
1129.9999999999998, 31.38421115243368
1130.5, 31.38421115243368
1130.9999999999998, 31.240723513689304
1131.4999999999998, 31.240723513689304
1131.9999999999998, 30.925050708451664
1132.4999999999998, 30.925050708451664
1133, 30.551982847716246
1133.4999999999998, 30.351100153474093
1133.9999999999998, 30.351100153474093
1134.4999999999998, 30.09282240373419
1134.9999999999998, 30.09282240373419
1135.4999999999998, 30.09282240373419
1135.9999999999998, 29.949334764989814
1136.4999999999998, 29.949334764989814
1136.9999999999998, 29.60496443200327
1137.4999999999998, 29.60496443200327
1137.9999999999998, 29.54756937650552
1138.4999999999998, 29.51887184875666
1138.9999999999998, 29.49017432100777
1139.5, 29.461476793258896
1140, 29.461476793258896
1140.4999999999998, 29.54756937650552
1141, 29.54756937650552
1141.4999999999998, 29.031013877025742
1141.9999999999998, 28.8014336550347
1142.4999999999998, 28.8014336550347
1143, 28.39966826655042
1143.4999999999998, 28.39966826655042
1143.9999999999998, 28.112692989061657
1144.5, 28.055297933563892
1145, 28.055297933563892
1145.4999999999998, 27.911810294819503
1145.9999999999998, 27.911810294819503
1146.4999999999998, 27.71092760057735
1146.9999999999998, 27.71092760057735
1147.4999999999998, 27.510044906335224
1148, 27.42395232308857
1148.4999999999998, 27.42395232308857
1149, 27.36655726759082
1149.4999999999998, 27.36655726759082
1150, 27.251767156595307
1150.4999999999998, 27.13697704559982
1150.9999999999998, 27.13697704559982
1151.5, 27.050884462353167
1151.9999999999998, 27.050884462353167
1152.5, 26.936094351357653
1152.9999999999998, 26.936094351357653
1153.4999999999998, 26.649119073868903
1153.9999999999998, 26.53432896287339
1154.4999999999998, 26.53432896287339
1154.9999999999998, 26.419538851877874
1155.4999999999998, 26.419538851877874
1156, 26.36214379638011
1156.4999999999998, 26.333446268631235
1156.9999999999998, 26.333446268631235
1157.4999999999998, 26.218656157635735
1157.9999999999998, 26.218656157635735
1158.4999999999998, 26.07516851889133
1158.9999999999998, 25.960378407895817
1159.4999999999998, 25.960378407895817
1159.9999999999998, 25.845588296900317
1160.4999999999998, 25.845588296900317
1161, 25.587310547160413
1161.4999999999998, 25.587310547160413
1161.9999999999998, 25.156847630927246
1162.4999999999998, 24.95596493668512
1162.9999999999998, 24.95596493668512
1163.5, 24.697687186945217
1163.9999999999998, 24.697687186945217
1164.4999999999998, 24.697687186945217
1165, 24.75508224244298
1165.5, 24.75508224244298
1165.9999999999998, 24.783779770191842
1166.4999999999998, 24.783779770191842
1167, 24.783779770191842
1167.5, 24.783779770191842
1168, 24.783779770191842
1168.5, 24.640292131447467
1169, 24.640292131447467
1169.4999999999998, 24.468106964954202
1169.9999999999998, 24.468106964954202
1170.4999999999998, 24.410711909456438
1170.9999999999998, 24.410711909456438
1171.4999999999998, 24.410711909456438
1171.9999999999998, 24.3246193262098
1172.5, 24.3246193262098
1172.9999999999998, 24.23852674296316
1173.5, 24.23852674296316
1173.9999999999998, 23.951551465474395
1174.5, 23.865458882227756
1174.9999999999998, 23.865458882227756
1175.4999999999998, 23.75066877123224
1176, 23.75066877123224
1176.4999999999998, 23.66457618798563
1177, 23.521088549241227
1177.4999999999998, 23.521088549241227
1177.9999999999998, 23.320205854999088
1178.4999999999998, 23.320205854999088
1179, 23.2915083272502
1179.5, 23.2915083272502
1179.9999999999998, 23.2915083272502
1180.4999999999998, 23.2915083272502
1180.9999999999998, 23.2915083272502
1181.5, 23.234113271752463
1181.9999999999998, 23.234113271752463
1182.4999999999998, 23.00453304976145
1182.9999999999998, 23.148020688505824
1183.4999999999998, 23.148020688505824
1184, 23.176718216254713
1184.4999999999998, 23.176718216254713
1184.9999999999998, 23.176718216254713
1185.4999999999998, 23.03323057751031
1185.9999999999998, 23.03323057751031
1186.4999999999998, 23.0619281052592
1186.9999999999998, 23.0619281052592
1187.4999999999998, 23.320205854999088
1187.9999999999998, 23.320205854999088
1188.5, 23.2915083272502
1188.9999999999998, 23.262810799501324
1189.4999999999998, 23.262810799501324
1189.9999999999998, 23.03323057751031
1190.4999999999998, 23.03323057751031
1190.9999999999998, 22.918440466514795
1191.4999999999998, 22.88974293876592
1191.9999999999998, 22.88974293876592
1192.4999999999998, 22.88974293876592
1193, 22.88974293876592
1193.5, 22.83234788326817
1194, 22.83234788326817
1194.5, 22.60276766127714
1195, 22.60276766127714
1195.5, 22.60276766127714
1195.9999999999998, 22.63146518902603
1196.4999999999998, 22.63146518902603
1196.9999999999998, 22.688860244523795
1197.5, 22.717557772272656
1197.9999999999998, 22.717557772272656
1198.5, 22.717557772272656
1199, 22.717557772272656
1199.5, 22.57407013352828
1200, 22.57407013352828
1200.4999999999998, 22.57407013352828
1200.9999999999998, 22.430582494783877
1201.4999999999998, 22.430582494783877
1202, 22.487977550281627
1202.4999999999998, 22.487977550281627
1202.9999999999998, 22.487977550281627
1203.4999999999998, 22.51667507803053
1203.9999999999998, 22.51667507803053
1204.5, 22.487977550281627
1204.9999999999998, 22.487977550281627
1205.4999999999998, 22.487977550281627
1205.9999999999998, 22.430582494783877
1206.4999999999998, 22.430582494783877
1206.9999999999998, 22.430582494783877
1207.4999999999998, 22.430582494783877
1207.9999999999998, 22.430582494783877
1208.4999999999998, 22.430582494783877
1209, 22.344489911537238
1209.4999999999998, 22.344489911537238
1209.9999999999998, 22.344489911537238
1210.4999999999998, 22.430582494783877
1210.9999999999998, 22.430582494783877
1211.5, 22.51667507803053
1211.9999999999998, 22.51667507803053
1212.4999999999998, 22.51667507803053
1212.9999999999998, 22.344489911537238
1213.5, 22.344489911537238
1213.9999999999998, 22.258397328290627
1214.4999999999998, 22.258397328290627
1214.9999999999998, 22.258397328290627
1215.4999999999998, 22.229699800541738
1216, 22.229699800541738
1216.4999999999998, 22.229699800541738
1216.9999999999998, 22.229699800541738
1217.4999999999998, 22.229699800541738
1218, 22.201002272792877
1218.5, 22.201002272792877
1218.9999999999998, 22.229699800541738
1219.4999999999998, 22.229699800541738
1220, 22.373187439286127
1220.5, 22.373187439286127
1220.9999999999998, 22.344489911537238
1221.4999999999998, 22.287094856039488
1221.9999999999998, 22.287094856039488
1222.5, 22.258397328290627
1223, 22.258397328290627
1223.4999999999998, 22.229699800541738
1223.9999999999998, 22.172304745043974
1224.4999999999998, 22.172304745043974
1224.9999999999998, 22.172304745043974
1225.4999999999998, 22.172304745043974
1225.9999999999998, 22.229699800541738
1226.4999999999998, 22.287094856039488
1226.9999999999998, 22.287094856039488
1227.5, 22.201002272792877
1227.9999999999998, 22.201002272792877
1228.4999999999998, 22.229699800541738
1228.9999999999998, 22.229699800541738
1229.4999999999998, 22.287094856039488
1229.9999999999998, 22.201002272792877
1230.4999999999998, 22.201002272792877
1230.9999999999998, 22.057514634048474
1231.4999999999998, 22.057514634048474
1232, 21.97142205080185
1232.4999999999995, 22.0288171062996
1232.9999999999998, 22.0288171062996
1233.4999999999998, 22.143607217295113
1234, 22.143607217295113
1234.4999999999998, 21.79923688430857
1234.9999999999995, 21.79923688430857
1235.4999999999998, 21.684446773313056
1235.9999999999998, 21.51226160681979
1236.4999999999998, 21.51226160681979
1236.9999999999995, 21.54095913456868
1237.4999999999998, 21.54095913456868
1238, 21.713144301061945
1238.4999999999998, 21.79923688430857
1238.9999999999998, 21.79923688430857
1239.4999999999998, 21.97142205080185
1239.9999999999998, 21.97142205080185
1240.5, 22.086212161797363
1241, 22.086212161797363
1241.4999999999998, 22.401884967035002
1241.9999999999998, 22.401884967035002
1242.4999999999998, 22.401884967035002
1243, 22.344489911537238
1243.5, 22.344489911537238
1243.9999999999998, 22.373187439286127
1244.4999999999998, 22.459280022532766
1244.9999999999998, 22.459280022532766
1245.4999999999998, 22.54537260577939
1245.9999999999998, 22.54537260577939
1246.4999999999998, 22.51667507803053
1246.9999999999998, 22.401884967035002
1247.4999999999998, 22.401884967035002
1248, 22.201002272792877
1248.4999999999998, 22.201002272792877
1248.9999999999998, 22.172304745043974
1249.4999999999998, 22.172304745043974
1249.9999999999998, 22.229699800541738
1250.5, 22.459280022532766
1250.9999999999998, 22.459280022532766
1251.4999999999998, 22.51667507803053
1251.9999999999998, 22.51667507803053
1252.5, 22.51667507803053
1252.9999999999998, 22.487977550281627
1253.4999999999998, 22.487977550281627
1253.9999999999998, 22.459280022532766
1254.5, 22.459280022532766
1255, 22.315792383788363
1255.4999999999998, 22.315792383788363
1255.9999999999998, 22.201002272792877
1256.4999999999998, 22.114909689546224
1256.9999999999998, 22.114909689546224
1257.4999999999998, 22.373187439286127
1257.9999999999998, 22.373187439286127
1258.4999999999998, 22.51667507803053
1258.9999999999998, 22.54537260577939
1259.4999999999998, 22.54537260577939
1259.9999999999998, 22.487977550281627
1260.4999999999998, 22.487977550281627
1260.9999999999998, 22.430582494783877
1261.4999999999998, 22.430582494783877
1262, 22.401884967035002
1262.4999999999998, 22.344489911537238
1262.9999999999998, 22.344489911537238
1263.5, 22.201002272792877
1264, 22.201002272792877
1264.4999999999998, 22.201002272792877
1264.9999999999998, 22.229699800541738
1265.4999999999998, 22.229699800541738
1266, 22.315792383788363
1266.5, 22.315792383788363
1266.9999999999998, 22.229699800541738
1267.4999999999998, 22.229699800541738
1267.9999999999998, 22.172304745043974
1268.4999999999998, 22.057514634048474
1268.9999999999998, 22.057514634048474
1269.4999999999998, 21.97142205080185
1269.9999999999998, 21.97142205080185
1270.5, 21.94272452305296
1271, 22.086212161797363
1271.4999999999998, 22.086212161797363
1271.9999999999998, 22.143607217295113
1272.4999999999998, 22.143607217295113
1272.9999999999998, 22.172304745043974
1273.4999999999998, 22.143607217295113
1273.9999999999998, 22.143607217295113
1274.5, 22.201002272792877
1275, 22.201002272792877
1275.5, 22.401884967035002
1275.9999999999998, 22.401884967035002
1276.4999999999998, 22.401884967035002
1276.9999999999998, 22.430582494783877
1277.4999999999998, 22.430582494783877
1278, 22.401884967035002
1278.4999999999998, 22.401884967035002
1278.9999999999998, 22.57407013352828
1279.4999999999998, 22.66016271677489
1279.9999999999998, 22.66016271677489
1280.4999999999995, 22.688860244523795
1280.9999999999998, 22.688860244523795
1281.5, 22.717557772272656
1282, 22.717557772272656
1282.5, 22.774952827770406
1282.9999999999998, 22.66016271677489
1283.4999999999998, 22.66016271677489
1283.9999999999998, 22.66016271677489
1284.4999999999998, 22.66016271677489
1284.9999999999998, 22.774952827770406
1285.4999999999998, 22.88974293876592
1285.9999999999998, 22.88974293876592
1286.4999999999998, 22.918440466514795
1286.9999999999998, 22.918440466514795
1287.4999999999998, 22.947137994263684
1287.9999999999998, 22.947137994263684
1288.4999999999998, 22.947137994263684
1288.9999999999998, 22.947137994263684
1289.4999999999998, 22.947137994263684
1293.5, 23.11932316075695
1294, 23.11932316075695
1294.4999999999998, 23.00453304976145
1294.9999999999998, 23.03323057751031
1295.4999999999998, 23.03323057751031
1295.9999999999998, 23.03323057751031
1296.4999999999998, 23.03323057751031
1296.9999999999998, 22.861045411017045
1297.5, 22.861045411017045
1298, 22.861045411017045
1298.5, 22.975835522012545
1298.9999999999998, 22.975835522012545
1299.4999999999998, 23.00453304976145
1299.9999999999998, 23.03323057751031
1300.4999999999998, 23.03323057751031
1300.9999999999998, 23.00453304976145
1301.4999999999998, 23.00453304976145
1302, 22.83234788326817
1302.5, 22.83234788326817
1302.9999999999998, 22.688860244523795
1303.4999999999998, 22.57407013352828
1303.9999999999998, 22.57407013352828
1304.4999999999998, 22.63146518902603
1305, 22.63146518902603
1305.4999999999998, 22.66016271677489
1306, 22.83234788326817
1306.5, 22.83234788326817
1307, 22.861045411017045
1307.5, 22.861045411017045
1307.9999999999995, 22.688860244523795
1308.4999999999998, 22.688860244523795
1309, 22.487977550281627
1309.5, 22.344489911537238
1310, 22.344489911537238
1310.4999999999998, 22.258397328290627
1311, 22.258397328290627
1311.4999999999998, 22.057514634048474
1312, 21.94272452305296
1312.4999999999998, 21.94272452305296
1313, 22.229699800541738
1313.5, 22.229699800541738
1314, 22.315792383788363
1314.5, 22.315792383788363
1314.9999999999998, 22.401884967035002
1315.4999999999998, 22.287094856039488
1315.9999999999998, 22.287094856039488
1316.5, 22.287094856039488
1317, 22.287094856039488
1317.4999999999998, 22.258397328290627
1318, 22.201002272792877
1318.5, 22.201002272792877
1319, 22.114909689546224
1319.4999999999998, 22.114909689546224
1320, 22.229699800541738
1320.4999999999998, 22.287094856039488
1320.9999999999998, 22.373187439286127
1321.5, 22.66016271677489
1322, 22.66016271677489
1322.5, 22.717557772272656
1323, 22.717557772272656
1323.5, 22.688860244523795
1323.9999999999998, 22.57407013352828
1324.5, 22.57407013352828
1324.9999999999998, 22.60276766127714
1325.5, 22.60276766127714
1326, 22.57407013352828
1326.5, 22.459280022532766
1327, 22.459280022532766
1327.5, 22.430582494783877
1328, 22.430582494783877
1328.4999999999998, 22.51667507803053
1328.9999999999998, 22.51667507803053
1329.5, 22.66016271677489
1330, 22.88974293876592
1330.5, 22.88974293876592
1330.9999999999998, 22.918440466514795
1331.4999999999998, 22.918440466514795
1331.9999999999998, 22.688860244523795
1332.4999999999998, 22.63146518902603
1332.9999999999998, 22.63146518902603
1333.4999999999998, 22.60276766127714
1333.9999999999998, 22.60276766127714
1334.5, 22.57407013352828
1335, 22.57407013352828
1335.4999999999998, 22.51667507803053
1335.9999999999998, 22.373187439286127
1336.4999999999998, 22.373187439286127
1337, 22.344489911537238
1337.5, 22.344489911537238
1338, 22.229699800541738
1338.4999999999998, 22.143607217295113
1338.9999999999998, 22.143607217295113
1339.5000000000002, 22.201002272792877
1340, 22.201002272792877
1340.4999999999998, 22.344489911537238
1341, 22.344489911537238
1341.5, 22.315792383788363
1342, 22.344489911537238
1342.4999999999998, 22.344489911537238
1342.9999999999998, 22.373187439286127
1343.4999999999998, 22.373187439286127
1344, 22.287094856039488
1344.4999999999998, 22.143607217295113
1344.9999999999998, 22.143607217295113
1345.5, 22.258397328290627
1346, 22.258397328290627
1346.5, 22.258397328290627
1346.9999999999998, 22.258397328290627
1347.4999999999998, 22.258397328290627
1347.9999999999998, 22.057514634048474
1348.4999999999998, 22.057514634048474
1349, 22.00011957855071
1349.5, 22.00011957855071
1349.9999999999998, 21.94272452305296
1350.4999999999998, 21.97142205080185
1350.9999999999998, 21.97142205080185
1351.4999999999998, 21.97142205080185
1351.9999999999998, 21.97142205080185
1352.5, 22.086212161797363
1352.9999999999998, 22.057514634048474
1353.5, 22.057514634048474
1353.9999999999998, 22.057514634048474
1354.4999999999998, 22.057514634048474
1355, 22.086212161797363
1355.5, 22.086212161797363
1355.9999999999998, 22.143607217295113
1356.5, 22.201002272792877
1357, 22.201002272792877
1357.4999999999998, 22.143607217295113
1357.9999999999998, 22.143607217295113
1358.4999999999998, 22.114909689546224
1359, 22.086212161797363
1359.5, 22.086212161797363
1359.9999999999998, 22.057514634048474
1360.5, 22.057514634048474
1360.9999999999998, 22.057514634048474
1361.4999999999998, 22.057514634048474
1362, 22.459280022532766
1362.5, 22.459280022532766
1363, 22.459280022532766
1363.4999999999998, 22.373187439286127
1363.9999999999998, 22.373187439286127
1364.5, 22.229699800541738
1364.9999999999998, 22.172304745043974
1365.4999999999995, 22.172304745043974
1366, 22.086212161797363
1366.5, 22.086212161797363
1367, 22.0288171062996
1367.4999999999998, 22.0288171062996
1367.9999999999998, 21.97142205080185
1368.4999999999998, 22.057514634048474
1368.9999999999998, 22.057514634048474
1369.5, 22.287094856039488
1369.9999999999998, 22.287094856039488
1370.5, 22.487977550281627
1371, 22.430582494783877
1371.5, 22.430582494783877
1372, 22.373187439286127
1372.4999999999998, 22.373187439286127
1373, 22.00011957855071
1373.4999999999998, 21.97142205080185
1373.9999999999998, 21.97142205080185
1374.4999999999998, 22.00011957855071
1375, 22.00011957855071
1375.5, 22.459280022532766
1376, 22.459280022532766
1376.5000000000002, 22.459280022532766
1377, 22.487977550281627
1377.5, 22.487977550281627
1378, 22.459280022532766
1378.5, 22.459280022532766
1378.9999999999998, 22.344489911537238
1379.5, 22.315792383788363
1380, 22.315792383788363
1380.4999999999998, 22.057514634048474
1381, 22.057514634048474
1381.4999999999998, 21.94272452305296
1381.9999999999998, 21.94272452305296
1382.4999999999998, 21.79923688430857
1382.9999999999998, 21.914026995304084
1383.4999999999995, 21.914026995304084
1383.9999999999998, 22.143607217295113
1384.4999999999998, 22.143607217295113
1385, 22.487977550281627
1385.5, 22.51667507803053
1385.9999999999998, 22.51667507803053
1386.4999999999998, 22.430582494783877
1387, 22.430582494783877
1387.5, 22.344489911537238
1388, 22.344489911537238
1388.5, 22.315792383788363
1388.9999999999998, 21.94272452305296
1389.5, 21.94272452305296
1389.9999999999998, 21.97142205080185
1390.4999999999998, 21.97142205080185
1390.9999999999998, 22.0288171062996
1391.4999999999998, 22.114909689546224
1392, 22.114909689546224
1392.5, 22.114909689546224
1392.9999999999998, 22.114909689546224
1393.4999999999998, 22.143607217295113
1393.9999999999998, 22.143607217295113
1397.4999999999998, 21.627051717815306
1397.9999999999998, 21.627051717815306
