300, 10.049584468189124
300.5, 10.078267636407176
301, 10.078267636407176
301.5, 10.078267636407176
302, 10.078267636407176
302.5, 10.078267636407176
303, 10.078267636407176
303.5, 10.106950804625228
304, 10.106950804625228
304.5, 10.106950804625228
305, 10.106950804625228
305.5, 10.106950804625228
306, 10.164317141061332
306.5, 10.193000309279384
307, 10.193000309279384
307.5, 10.250366645715488
308, 10.250366645715488
308.5, 10.27904981393354
309, 10.27904981393354
309.5, 10.307732982151592
310, 10.336416150369644
310.5, 10.336416150369644
311, 10.365099318587696
311.5, 10.365099318587696
312, 10.393782486805748
312.5, 10.393782486805748
313, 10.393782486805748
313.5, 10.451148823241851
314, 10.451148823241851
314.5, 10.479831991459903
315, 10.479831991459903
315.5, 10.479831991459903
316, 10.508515159677955
316.5, 10.508515159677955
317, 10.537198327896007
317.5, 10.537198327896007
318, 10.537198327896007
318.5, 10.594564664332111
319, 10.594564664332111
319.5, 10.651931000768215
320, 10.651931000768215
320.5, 10.709297337204319
321, 10.737980505422371
321.5, 10.737980505422371
322, 10.824030010076527
322.5, 10.824030010076527
323, 10.824030010076527
323.5, 10.824030010076527
324, 10.824030010076527
324.5, 10.88139634651263
325, 10.88139634651263
325.5, 10.88139634651263
326, 10.88139634651263
326.5, 10.938762682948735
327, 10.967445851166786
327.5, 10.967445851166786
328, 10.996129019384838
328.5, 10.996129019384838
329, 11.053495355820942
329.5, 11.053495355820942
330, 11.082178524038994
330.5, 11.139544860475098
331, 11.139544860475098
331.5, 11.196911196911202
332, 11.196911196911202
332.5, 11.254277533347306
333, 11.31164386978341
333.5, 11.31164386978341
334, 11.369010206219514
334.5, 11.369010206219514
335, 11.369010206219514
335.5, 11.369010206219514
336, 11.369010206219514
336.5, 11.426376542655618
337, 11.426376542655618
337.5, 11.45505971087367
338, 11.45505971087367
338.5, 11.512426047309773
339, 11.541109215527825
339.5, 11.541109215527825
340, 11.59847555196393
340.5, 11.59847555196393
341, 11.655841888400033
341.5, 11.684525056618085
342, 11.684525056618085
342.5, 11.741891393054189
343, 11.741891393054189
343.5, 11.770574561272241
344, 11.770574561272241
344.5, 11.827940897708345
345, 11.885307234144449
345.5, 11.885307234144449
346, 11.913990402362487
346.5, 11.913990402362487
347, 12.000039907016642
347.5, 12.057406243452746
348, 12.057406243452746
348.5, 12.086089411670798
349, 12.086089411670798
349.5, 12.11477257988885
350, 12.11477257988885
350.5, 12.200822084543006
351, 12.229505252761058
351.5, 12.229505252761058
352, 12.25818842097911
352.5, 12.25818842097911
353, 12.315554757415214
353.5, 12.344237925633266
354, 12.344237925633266
354.5, 12.372921093851318
355, 12.372921093851318
355.5, 12.430287430287422
356, 12.430287430287422
356.5, 12.487653766723525
357, 12.602386439595733
357.5, 12.602386439595733
358, 12.631069607813785
358.5, 12.631069607813785
359, 12.717119112467941
359.5, 12.717119112467941
360, 12.717119112467941
360.5, 12.745802280685993
361, 12.745802280685993
361.5, 12.803168617122097
362, 12.8605349535582
362.5, 12.8605349535582
363, 12.917901289994305
363.5, 12.917901289994305
364, 12.975267626430409
364.5, 12.975267626430409
365, 13.00395079464846
365.5, 13.061317131084564
366, 13.061317131084564
366.5, 13.14736663573872
367, 13.14736663573872
367.5, 13.204732972174824
368, 13.29078247682898
368.5, 13.29078247682898
369, 13.348148813265084
369.5, 13.348148813265084
370, 13.43419831791924
370.5, 13.43419831791924
371, 13.491564654355344
371.5, 13.520247822573396
372, 13.520247822573396
372.5, 13.606297327227551
373, 13.606297327227551
373.5, 13.663663663663655
374, 13.749713168317811
374.5, 13.749713168317811
375, 13.835762672971967
375.5, 13.835762672971967
376, 13.921812177626123
376.5, 13.921812177626123
377, 13.950495345844175
377.5, 13.950495345844175
378, 13.950495345844175
378.5, 14.065228018716383
379, 14.065228018716383
379.5, 14.093911186934434
380, 14.122594355152486
380.5, 14.122594355152486
381, 14.17996069158859
381.5, 14.17996069158859
382, 14.266010196242746
382.5, 14.266010196242746
383, 14.380742869114954
383.5, 14.438109205551058
384, 14.438109205551058
384.5, 14.581525046641318
385, 14.581525046641318
385.5, 14.581525046641318
386, 14.667574551295473
386.5, 14.667574551295473
387, 14.782307224167681
387.5, 14.782307224167681
388, 14.868356728821837
388.5, 14.954406233475993
389, 14.954406233475993
389.5, 15.011772569912097
390, 15.011772569912097
390.5, 15.126505242784305
391, 15.126505242784305
391.5, 15.21255474743846
392, 15.327287420310668
392.5, 15.327287420310668
393, 15.35597058852872
393.5, 15.35597058852872
394, 15.413336924964824
394.5, 15.528069597837032
395, 15.528069597837032
395.5, 15.585435934273136
396, 15.585435934273136
396.5, 15.671485438927292
397, 15.671485438927292
397.5, 15.7862181117995
398, 15.900950784671707
398.5, 15.900950784671707
399, 15.987000289325863
399.5, 15.987000289325863
400, 16.044366625761967
400.5, 16.130416130416123
401, 16.130416130416123
401.5, 16.24514880328833
402, 16.24514880328833
402.5, 16.331198307942486
403, 16.331198307942486
403.5, 16.417247812596642
404, 16.474614149032746
404.5, 16.474614149032746
405, 16.53198048546885
405.5, 16.53198048546885
406, 16.560663653686902
406.5, 16.646713158341058
407, 16.646713158341058
407.5, 16.70407949477716
408, 16.70407949477716
408.5, 16.84749533586742
409, 16.84749533586742
409.5, 16.933544840521577
410, 17.019594345175733
410.5, 17.019594345175733
411, 17.076960681611837
411.5, 17.076960681611837
412, 17.13432701804794
412.5, 17.24905969092015
413, 17.24905969092015
413.5, 17.363792363792356
414, 17.363792363792356
414.5, 17.507208204882616
415, 17.679307214190928
415.5, 17.679307214190928
416, 17.794039887063136
416.5, 17.794039887063136
417, 17.88008939171729
417.5, 17.88008939171729
418, 17.966138896371447
418.5, 18.02350523280755
419, 18.02350523280755
419.5, 18.052188401025603
420, 18.052188401025603
420.5, 18.16692107389781
421, 18.224287410333915
421.5, 18.224287410333915
422, 18.45375275607833
422.5, 18.45375275607833
423, 18.539802260732486
423.5, 18.539802260732486
424, 18.683218101822746
424.5, 18.654534933604694
425, 18.654534933604694
425.5, 18.683218101822746
426, 18.683218101822746
426.5, 18.826633942913006
427, 18.998732952221317
427.5, 18.998732952221317
428, 19.142148793311577
428.5, 19.142148793311577
429, 19.371614139055993
429.5, 19.371614139055993
430, 19.45766364371015
430.5, 19.601079484800408
431, 19.601079484800408
431.5, 19.744495325890668
432, 19.744495325890668
432.5, 19.859227998762876
433, 20.002643839853135
433.5, 20.002643839853135
434, 20.08869334450729
434.5, 20.08869334450729
435, 20.174742849161447
435.5, 20.23210918559755
436, 20.23210918559755
436.5, 20.289475522033655
437, 20.289475522033655
437.5, 20.34684185846976
438, 20.34684185846976
438.5, 20.461574531341967
439, 20.576307204214174
439.5, 20.576307204214174
440, 20.691039877086382
440.5, 20.691039877086382
441, 20.863138886394694
441.5, 20.9778715592669
442, 20.9778715592669
442.5, 21.09260423213911
443, 21.09260423213911
443.5, 21.178653736793265
444, 21.178653736793265
444.5, 21.26470324144742
445, 21.40811908253768
445.5, 21.40811908253768
446, 21.52285175540989
446.5, 21.52285175540989
447, 21.608901260064044
447.5, 21.752317101154304
448, 21.752317101154304
448.5, 21.809683437590408
449, 21.809683437590408
449.5, 21.953099278680668
450, 21.953099278680668
450.5, 22.039148783334824
451, 22.12519828798898
451.5, 22.12519828798898
452, 22.26861412907924
452.5, 22.26861412907924
453, 22.383346801951447
453.5, 22.498079474823655
454, 22.498079474823655
454.5, 22.55544581125976
455, 22.55544581125976
455.5, 22.670178484131966
456, 22.670178484131966
456.5, 22.784911157004174
457, 23.01437650274859
457.5, 23.01437650274859
458, 23.30120818492911
458.5, 23.30120818492911
459, 23.501990362455473
459.5, 23.47330719423742
460, 23.47330719423742
460.5, 23.415940857801317
461, 23.415940857801317
461.5, 23.358574521365213
462, 23.415940857801317
462.5, 23.415940857801317
463, 23.47330719423742
463.5, 23.47330719423742
464, 23.58803986710963
464.5, 23.58803986710963
465, 23.702772539981837
465.5, 23.788822044635992
466, 23.788822044635992
466.5, 23.874871549290148
467, 23.874871549290148
467.5, 24.018287390380408
468, 24.19038639968872
468.5, 24.19038639968872
469, 24.161703231470668
469.5, 24.161703231470668
470, 24.133020063252616
470.5, 24.133020063252616
471, 24.21906956790677
471.5, 24.33380224077898
472, 24.33380224077898
472.5, 24.419851745433135
473, 24.419851745433135
473.5, 24.591950754741447
474, 24.6206339229595
474.5, 24.6206339229595
475, 24.64931709117755
475.5, 24.64931709117755
476, 24.735366595831707
476.5, 24.735366595831707
477, 24.850099268703914
477.5, 24.93614877335807
478, 24.93614877335807
478.5, 25.022198278012226
479, 25.022198278012226
479.5, 25.108247782666382
480, 25.194297287320538
480.5, 25.194297287320538
481, 25.309029960192746
481.5, 25.309029960192746
482, 25.3950794648469
482.5, 25.3950794648469
483, 25.3950794648469
483.5, 25.452445801283005
484, 25.452445801283005
484.5, 25.481128969501057
485, 25.481128969501057
485.5, 25.567178474155213
486, 25.624544810591317
486.5, 25.624544810591317
487, 25.624544810591317
487.5, 25.624544810591317
488, 25.65322797880937
488.5, 25.68191114702742
489, 25.68191114702742
489.5, 25.882693324553784
490, 25.882693324553784
490.5, 25.96874282920794
491, 25.96874282920794
491.5, 26.083475502080148
492, 26.083475502080148
492.5, 26.083475502080148
493, 26.083475502080148
493.5, 26.083475502080148
494, 26.198208174952356
494.5, 26.226891343170408
495, 26.226891343170408
495.5, 26.25557451138846
496, 26.25557451138846
496.5, 26.169525006734304
497, 26.169525006734304
497.5, 26.1121586702982
498, 26.054792333862096
498.5, 26.054792333862096
499, 26.026109165644044
499.5, 26.026109165644044
500, 26.026109165644044
500.5, 26.083475502080148
501, 26.083475502080148
501.5, 26.054792333862096
502, 26.054792333862096
502.5, 26.054792333862096
503, 26.054792333862096
503.5, 25.94005966098989
504, 25.94005966098989
504.5, 25.94005966098989
505, 25.94005966098989
505.5, 25.94005966098989
506, 25.739277483463525
506.5, 25.68191114702742
507, 25.68191114702742
507.5, 25.53849530593716
508, 25.53849530593716
508.5, 25.53849530593716
509, 25.53849530593716
509.5, 25.53849530593716
510, 25.423762633064953
510.5, 25.423762633064953
511, 25.22298045553859
511.5, 25.22298045553859
512, 25.07956461444833
512.5, 24.850099268703914
513, 24.850099268703914
513.5, 24.64931709117755
514, 24.64931709117755
514.5, 24.50590125008729
515, 24.33380224077898
515.5, 24.33380224077898
516, 24.19038639968872
516.5, 24.19038639968872
517, 24.04697055859846
517.5, 24.04697055859846
518, 23.989604222162356
518.5, 23.9035547175082
519, 23.9035547175082
519.5, 23.788822044635992
520, 23.788822044635992
520.5, 23.674089371763785
521, 23.47330719423742
521.5, 23.47330719423742
522, 23.358574521365213
522.5, 23.358574521365213
523, 23.32989135314716
523.5, 23.32989135314716
524, 23.1864755120569
524.5, 23.129109175620798
525, 23.129109175620798
525.5, 23.04305967096664
526, 23.04305967096664
526.5, 22.87096066165833
527, 22.784911157004174
527.5, 22.784911157004174
528, 22.69886165235002
528.5, 22.69886165235002
529, 22.58412897947781
529.5, 22.58412897947781
530, 22.55544581125976
530.5, 22.498079474823655
531, 22.498079474823655
531.5, 22.383346801951447
532, 22.383346801951447
532.5, 22.29729729729729
533, 22.15388145620703
533.5, 22.15388145620703
534, 22.067831951552876
534.5, 22.067831951552876
535, 22.01046561511677
535.5, 22.01046561511677
536, 21.895732942244564
536.5, 21.867049774026512
537, 21.867049774026512
537.5, 21.83836660580846
538, 21.83836660580846
538.5, 21.6949507647182
539, 21.66626759650015
539.5, 21.66626759650015
540, 21.723633932936252
540.5, 21.723633932936252
541, 21.723633932936252
541.5, 21.66626759650015
542, 21.66626759650015
542.5, 21.580218091845992
543, 21.580218091845992
543.5, 21.55153492362794
544, 21.55153492362794
544.5, 21.580218091845992
545, 21.608901260064044
545.5, 21.608901260064044
546, 21.637584428282096
546.5, 21.637584428282096
547, 21.66626759650015
547.5, 21.6949507647182
548, 21.6949507647182
548.5, 21.723633932936252
549, 21.723633932936252
549.5, 21.781000269372356
550, 21.781000269372356
550.5, 21.752317101154304
551, 21.752317101154304
551.5, 21.752317101154304
552, 21.723633932936252
552.5, 21.723633932936252
553, 21.83836660580846
553.5, 21.953099278680668
554, 21.953099278680668
554.5, 22.096515119770928
555, 22.096515119770928
555.5, 22.182564624425083
556, 22.182564624425083
556.5, 22.29729729729729
557, 22.354663633733395
557.5, 22.354663633733395
558, 22.44071313838755
558.5, 22.44071313838755
559, 22.58412897947781
559.5, 22.69886165235002
560, 22.69886165235002
560.5, 22.842277493440278
561, 22.842277493440278
561.5, 22.985693334530538
562, 23.071742839184694
562.5, 23.071742839184694
563, 23.215158680274953
563.5, 23.215158680274953
564, 23.415940857801317
564.5, 23.415940857801317
565, 23.501990362455473
565.5, 23.674089371763785
566, 23.674089371763785
566.5, 23.702772539981837
567, 23.702772539981837
567.5, 23.73145570819989
568, 23.76013887641794
568.5, 23.76013887641794
569, 23.817505212854044
569.5, 23.817505212854044
570, 23.9035547175082
570.5, 23.9035547175082
571, 23.960921053944304
571.5, 24.018287390380408
572, 24.018287390380408
572.5, 24.04697055859846
573, 24.04697055859846
573.5, 24.018287390380408
574, 24.075653726816512
574.5, 24.075653726816512
575, 24.133020063252616
575.5, 24.133020063252616
576, 24.161703231470668
576.5, 24.161703231470668
577, 24.133020063252616
577.5, 24.19038639968872
578, 24.19038639968872
578.5, 24.161703231470668
579, 24.161703231470668
579.5, 24.018287390380408
580, 23.989604222162356
580.5, 23.989604222162356
581, 23.989604222162356
581.5, 23.989604222162356
582, 23.932237885726252
582.5, 23.932237885726252
583, 23.9035547175082
583.5, 23.846188381072096
584, 23.846188381072096
584.5, 23.846188381072096
585, 23.846188381072096
585.5, 23.73145570819989
586, 23.61672303532768
586.5, 23.61672303532768
587, 23.44462402601937
587.5, 23.44462402601937
588, 23.387257689583265
588.5, 23.32989135314716
589, 23.32989135314716
589.5, 23.243841848493005
590, 23.243841848493005
590.5, 23.215158680274953
591, 23.215158680274953
591.5, 22.985693334530538
592, 22.899643829876382
592.5, 22.899643829876382
593, 22.842277493440278
593.5, 22.842277493440278
594, 22.784911157004174
594.5, 22.612812147695863
595, 22.612812147695863
595.5, 22.526762643041707
596, 22.526762643041707
596.5, 22.383346801951447
597, 22.383346801951447
597.5, 22.29729729729729
598, 22.096515119770928
598.5, 22.096515119770928
599, 22.039148783334824
599.5, 22.039148783334824
600, 21.895732942244564
600.5, 21.723633932936252
601, 21.723633932936252
601.5, 21.608901260064044
602, 21.608901260064044
602.5, 21.465485418973785
603, 21.465485418973785
603.5, 21.322069577883525
604, 21.23602007322937
604.5, 21.23602007322937
605, 21.006554727484954
605.5, 21.006554727484954
606, 20.94918839104885
606.5, 20.920505222830798
607, 20.920505222830798
607.5, 20.891822054612746
608, 20.891822054612746
608.5, 20.834455718176642
609, 20.834455718176642
609.5, 20.719723045304434
610, 20.547624035996122
610.5, 20.547624035996122
611, 20.432891363123915
611.5, 20.432891363123915
612, 20.318158690251707
612.5, 20.318158690251707
613, 20.318158690251707
613.5, 20.289475522033655
614, 20.289475522033655
614.5, 20.260792353815603
615, 20.06001017628924
615.5, 20.06001017628924
616, 19.94527750341703
616.5, 19.94527750341703
617, 19.715812157672616
617.5, 19.715812157672616
618, 19.62976265301846
618.5, 19.543713148364304
619, 19.543713148364304
619.5, 19.572396316582356
620, 19.572396316582356
620.5, 19.543713148364304
621, 19.45766364371015
621.5, 19.45766364371015
622, 19.400297307274045
622.5, 19.400297307274045
623, 19.256881466183785
623.5, 19.256881466183785
624, 19.142148793311577
624.5, 19.02741612043937
625, 19.02741612043937
625.5, 18.970049784003265
626, 18.970049784003265
626.5, 18.88400027934911
627, 18.797950774694954
627.5, 18.797950774694954
628, 18.74058443825885
628.5, 18.74058443825885
629, 18.625851765386642
629.5, 18.625851765386642
630, 18.511119092514434
630.5, 18.396386419642226
631, 18.396386419642226
631.5, 18.224287410333915
632, 18.224287410333915
632.5, 18.109554737461707
633, 18.02350523280755
633.5, 18.02350523280755
634, 17.908772559935343
634.5, 17.908772559935343
635, 17.822723055281187
635.5, 17.822723055281187
636, 17.621940877754824
636.5, 17.507208204882616
637, 17.507208204882616
637.5, 17.363792363792356
638, 17.363792363792356
638.5, 17.163010186265993
639, 17.019594345175733
639.5, 17.019594345175733
640, 16.96222800873963
640.5, 16.96222800873963
641, 16.933544840521577
641.5, 16.933544840521577
642, 16.933544840521577
642.5, 16.81881216764937
643, 16.81881216764937
643.5, 16.732762662995214
644, 16.732762662995214
644.5, 16.560663653686902
645, 16.445930980814694
645.5, 16.445930980814694
646, 16.35988147616054
646.5, 16.35988147616054
647, 16.273831971506382
647.5, 16.21646563507028
648, 16.21646563507028
648.5, 16.159099298634175
649, 16.159099298634175
649.5, 16.015683457543915
650, 16.015683457543915
650.5, 15.958317121107811
651, 15.872267616453655
651.5, 15.872267616453655
652, 15.843584448235603
652.5, 15.843584448235603
653, 15.814901280017551
653.5, 15.64280227070924
654, 15.64280227070924
654.5, 15.585435934273136
655, 15.585435934273136
655.5, 15.49938642961898
656, 15.49938642961898
656.5, 15.35597058852872
657, 15.327287420310668
657.5, 15.327287420310668
658, 15.298604252092616
658.5, 15.298604252092616
659, 15.298604252092616
659.5, 15.298604252092616
660, 15.298604252092616
660.5, 15.269921083874564
661, 15.269921083874564
661.5, 15.155188411002356
662, 15.155188411002356
662.5, 15.0691389063482
663, 14.983089401694045
663.5, 14.983089401694045
664, 14.983089401694045
664.5, 14.983089401694045
665, 15.0691389063482
665.5, 15.040455738130149
666, 15.040455738130149
666.5, 15.040455738130149
667, 15.040455738130149
667.5, 15.040455738130149
668, 14.954406233475993
668.5, 14.954406233475993
669, 14.868356728821837
669.5, 14.868356728821837
670, 14.782307224167681
670.5, 14.782307224167681
671, 14.638891383077421
671.5, 14.581525046641318
672, 14.581525046641318
672.5, 14.552841878423266
673, 14.552841878423266
673.5, 14.61020821485937
674, 14.61020821485937
674.5, 14.61020821485937
675, 14.696257719513525
675.5, 14.696257719513525
676, 14.75362405594963
676.5, 14.75362405594963
677, 14.782307224167681
677.5, 14.839673560603785
678, 14.839673560603785
678.5, 14.868356728821837
679, 14.868356728821837
679.5, 14.897039897039889
680, 14.925723065257941
680.5, 14.925723065257941
681, 14.983089401694045
681.5, 14.983089401694045
682, 15.011772569912097
682.5, 15.011772569912097
683, 14.983089401694045
683.5, 14.925723065257941
684, 14.925723065257941
684.5, 14.897039897039889
685, 14.897039897039889
685.5, 14.925723065257941
686, 15.0691389063482
686.5, 15.0691389063482
687, 15.155188411002356
687.5, 15.155188411002356
688, 15.21255474743846
688.5, 15.21255474743846
689, 15.21255474743846
689.5, 15.21255474743846
690, 15.21255474743846
690.5, 15.183871579220408
691, 15.183871579220408
691.5, 15.126505242784305
692, 15.0691389063482
692.5, 15.0691389063482
693, 15.011772569912097
693.5, 15.011772569912097
694, 15.183871579220408
694.5, 15.269921083874564
695, 15.269921083874564
695.5, 15.442020093182876
696, 15.442020093182876
696.5, 15.556752766055084
697, 15.556752766055084
697.5, 15.556752766055084
698, 15.470703261400928
698.5, 15.470703261400928
699, 15.413336924964824
699.5, 15.413336924964824
700, 15.384653756746772
700.5, 15.614119102491188
701, 15.614119102491188
701.5, 15.671485438927292
702, 15.671485438927292
702.5, 15.814901280017551
703, 15.814901280017551
703.5, 15.757534943581447
704, 15.757534943581447
704.5, 15.757534943581447
705, 15.7862181117995
705.5, 15.7862181117995
706, 15.757534943581447
706.5, 15.700168607145343
707, 15.700168607145343
707.5, 15.700168607145343
708, 15.700168607145343
708.5, 15.728851775363395
709, 15.728851775363395
709.5, 15.814901280017551
710, 15.700168607145343
710.5, 15.700168607145343
711, 15.671485438927292
711.5, 15.671485438927292
712, 15.7862181117995
712.5, 15.814901280017551
713, 15.814901280017551
713.5, 15.872267616453655
714, 15.872267616453655
714.5, 15.843584448235603
715, 15.7862181117995
715.5, 15.7862181117995
716, 15.728851775363395
716.5, 15.728851775363395
717, 15.728851775363395
717.5, 15.728851775363395
718, 15.700168607145343
718.5, 15.671485438927292
719, 15.671485438927292
719.5, 15.757534943581447
720, 15.757534943581447
720.5, 15.757534943581447
721, 15.700168607145343
721.5, 15.700168607145343
722, 15.671485438927292
722.5, 15.671485438927292
723, 15.671485438927292
723.5, 15.671485438927292
724, 15.700168607145343
724.5, 15.728851775363395
725, 15.728851775363395
725.5, 15.757534943581447
726, 15.757534943581447
726.5, 15.872267616453655
727, 15.958317121107811
727.5, 15.958317121107811
728, 15.843584448235603
728.5, 15.843584448235603
729, 15.843584448235603
729.5, 15.843584448235603
730, 15.814901280017551
730.5, 15.728851775363395
731, 15.728851775363395
731.5, 15.671485438927292
732, 15.671485438927292
732.5, 15.585435934273136
733, 15.64280227070924
733.5, 15.64280227070924
734, 15.671485438927292
734.5, 15.671485438927292
735, 15.728851775363395
735.5, 15.728851775363395
736, 15.814901280017551
736.5, 15.843584448235603
737, 15.843584448235603
737.5, 15.843584448235603
738, 15.843584448235603
738.5, 15.671485438927292
739, 15.614119102491188
739.5, 15.614119102491188
740, 15.528069597837032
740.5, 15.528069597837032
741, 15.556752766055084
741.5, 15.757534943581447
742, 15.757534943581447
742.5, 15.872267616453655
743, 15.872267616453655
743.5, 15.900950784671707
744, 15.900950784671707
744.5, 15.900950784671707
745, 15.900950784671707
745.5, 15.900950784671707
746, 15.929633952889759
746.5, 15.929633952889759
747, 15.872267616453655
747.5, 15.757534943581447
748, 15.757534943581447
748.5, 15.671485438927292
749, 15.671485438927292
749.5, 15.585435934273136
750, 15.585435934273136
750.5, 15.528069597837032
751, 15.528069597837032
751.5, 15.528069597837032
752, 15.413336924964824
752.5, 15.413336924964824
753, 15.327287420310668
753.5, 15.269921083874564
754, 15.269921083874564
754.5, 15.269921083874564
755, 15.269921083874564
755.5, 15.384653756746772
756, 15.384653756746772
756.5, 15.442020093182876
757, 15.470703261400928
757.5, 15.470703261400928
758, 15.49938642961898
758.5, 15.49938642961898
759, 15.585435934273136
759.5, 15.64280227070924
760, 15.64280227070924
760.5, 15.728851775363395
761, 15.728851775363395
761.5, 15.64280227070924
762, 15.64280227070924
762.5, 15.585435934273136
763, 15.49938642961898
763.5, 15.49938642961898
764, 15.470703261400928
764.5, 15.470703261400928
765, 15.442020093182876
765.5, 15.413336924964824
766, 15.413336924964824
766.5, 15.384653756746772
767, 15.384653756746772
767.5, 15.35597058852872
768, 15.442020093182876
768.5, 15.442020093182876
769, 15.470703261400928
769.5, 15.470703261400928
770, 15.442020093182876
770.5, 15.442020093182876
771, 15.442020093182876
771.5, 15.327287420310668
772, 15.327287420310668
772.5, 15.35597058852872
773, 15.35597058852872
773.5, 15.35597058852872
774, 15.298604252092616
774.5, 15.298604252092616
775, 15.269921083874564
775.5, 15.269921083874564
776, 15.21255474743846
776.5, 15.21255474743846
777, 15.0691389063482
777.5, 14.983089401694045
778, 14.983089401694045
778.5, 15.011772569912097
779, 15.011772569912097
779.5, 15.126505242784305
780, 15.097822074566253
780.5, 15.097822074566253
781, 14.810990392385733
781.5, 14.810990392385733
782, 14.75362405594963
782.5, 14.75362405594963
783, 14.724940887731577
783.5, 14.724940887731577
784, 14.724940887731577
784.5, 14.667574551295473
785, 14.667574551295473
785.5, 14.581525046641318
786, 14.46679237376911
786.5, 14.46679237376911
787, 14.438109205551058
787.5, 14.438109205551058
788, 14.409426037333006
788.5, 14.380742869114954
789, 14.380742869114954
789.5, 14.352059700896902
790, 14.352059700896902
790.5, 14.32337653267885
791, 14.32337653267885
791.5, 14.17996069158859
792.0000000000002, 14.093911186934434
792.5, 14.093911186934434
793.0000000000002, 14.03654485049833
793.5, 14.03654485049833
794, 13.979178514062227
794.5, 13.921812177626123
795, 13.921812177626123
795.5000000000002, 13.749713168317811
796, 13.749713168317811
796.5000000000002, 13.548930990791447
797, 13.548930990791447
797.5000000000002, 13.405515149701188
798, 13.262099308610928
798.5, 13.262099308610928
799, 13.14736663573872
799.5, 13.14736663573872
800.0000000000002, 13.061317131084564
800.5, 13.00395079464846
801.0000000000002, 13.00395079464846
801.5, 12.917901289994305
802, 12.917901289994305
802.5, 12.774485448904045
803, 12.774485448904045
803.5000000000002, 12.774485448904045
804, 12.831851785340149
804.5000000000002, 12.831851785340149
805, 12.774485448904045
805.5000000000002, 12.774485448904045
806, 12.688435944249889
806.5, 12.430287430287422
807.0000000000002, 12.430287430287422
807.5, 12.372921093851318
808.0000000000002, 12.372921093851318
808.5, 12.286871589197162
809.0000000000002, 12.286871589197162
809.5, 12.172138916324954
810, 12.086089411670798
810.5, 12.086089411670798
811, 11.942673570580538
811.5000000000002, 11.942673570580538
812, 11.856624065926397
812.5000000000002, 11.655841888400033
813, 11.655841888400033
813.5, 11.45505971087367
814, 11.45505971087367
814.5, 11.254277533347306
815.0000000000002, 11.082178524038994
815.5, 11.082178524038994
816.0000000000002, 10.967445851166786
816.5, 10.967445851166786
817.0000000000002, 11.02481218760289
817.5, 11.02481218760289
818, 11.254277533347306
818.5, 10.996129019384838
819, 10.996129019384838
819.5000000000002, 10.88139634651263
820, 10.88139634651263
820.5000000000002, 10.623247832550163
821, 10.651931000768215
821.5, 10.651931000768215
822, 10.680614168986267
822.5, 10.680614168986267
823.0000000000002, 10.680614168986267
823.5, 10.680614168986267
824.0000000000002, 10.508515159677955
824.5, 10.4224656550238
825.0000000000002, 10.4224656550238
825.5, 10.336416150369644
826, 10.336416150369644
826.5000000000002, 10.336416150369644
827, 10.336416150369644
827.5000000000002, 10.336416150369644
828, 10.307732982151592
828.5000000000002, 10.307732982151592
829, 10.193000309279384
829.5, 10.193000309279384
830, 9.99221813175302
830.5, 10.078267636407176
831.0000000000002, 10.078267636407176
831.5, 10.106950804625228
832.0000000000002, 10.106950804625228
832.5, 10.020901299971072
833, 10.020901299971072
833.5, 10.020901299971072
834, 10.078267636407176
834.5000000000002, 10.078267636407176
835, 10.164317141061332
835.5000000000002, 10.164317141061332
836, 10.164317141061332
836.5000000000002, 10.13563397284328
837, 10.13563397284328
837.5, 10.164317141061332
838, 10.164317141061332
838.5, 10.13563397284328
839.0000000000002, 10.078267636407176
839.5, 10.078267636407176
840.0000000000002, 9.99221813175302
840.5, 9.99221813175302
841, 9.820119122444709
841.5, 9.877485458880813
842, 9.877485458880813
842.5000000000002, 9.934851795316916
843, 9.934851795316916
843.5000000000002, 9.99221813175302
844, 9.99221813175302
844.5000000000002, 9.963534963534968
845, 9.99221813175302
845.5, 9.99221813175302
846.0000000000002, 10.106950804625228
846.5, 10.106950804625228
847.0000000000002, 10.13563397284328
847.5, 10.13563397284328
848.0000000000002, 10.13563397284328
848.5, 10.250366645715488
849, 10.250366645715488
849.5, 10.365099318587696
850, 10.365099318587696
850.5000000000002, 10.4224656550238
851, 10.508515159677955
851.5000000000002, 10.508515159677955
852, 10.479831991459903
852.5, 10.479831991459903
853, 10.336416150369644
853.5, 10.307732982151592
854.0000000000002, 10.307732982151592
854.5, 10.27904981393354
855.0000000000002, 10.27904981393354
855.5, 10.27904981393354
856.0000000000002, 10.27904981393354
856.5, 10.365099318587696
857, 10.451148823241851
857.5000000000002, 10.451148823241851
858, 10.479831991459903
858.5000000000002, 10.479831991459903
859, 10.4224656550238
859.5000000000002, 10.365099318587696
860, 10.365099318587696
860.5, 10.307732982151592
861, 10.307732982151592
861.5, 10.393782486805748
862.0000000000002, 10.393782486805748
862.5, 10.508515159677955
863.0000000000002, 10.594564664332111
863.5, 10.594564664332111
864.0000000000002, 10.623247832550163
864.5, 10.623247832550163
865, 10.537198327896007
865.5000000000002, 10.537198327896007
866, 10.537198327896007
866.5000000000002, 10.537198327896007
867, 10.537198327896007
867.5000000000002, 10.766663673640423
868, 10.852713178294579
868.5, 10.852713178294579
869, 10.910079514730683
869.5, 10.910079514730683
870.0000000000002, 10.88139634651263
870.5, 10.88139634651263
871.0000000000002, 10.852713178294579
871.5, 10.824030010076527
872, 10.824030010076527
872.5, 10.852713178294579
873, 10.852713178294579
873.5000000000002, 10.910079514730683
874, 11.02481218760289
874.5000000000002, 11.02481218760289
875, 11.139544860475098
875.5000000000002, 11.139544860475098
876, 11.196911196911202
876.5, 11.196911196911202
877.0000000000002, 11.225594365129254
877.5, 11.254277533347306
878.0000000000002, 11.254277533347306
878.5, 11.282960701565358
879.0000000000002, 11.282960701565358
879.5, 11.254277533347306
880, 11.254277533347306
880.5, 11.254277533347306
881, 11.369010206219514
881.5000000000002, 11.369010206219514
882, 11.426376542655618
882.5000000000002, 11.426376542655618
883, 11.45505971087367
883.5000000000002, 11.483742879091722
884, 11.483742879091722
884.5, 11.483742879091722
885.0000000000002, 11.483742879091722
885.5, 11.483742879091722
886.0000000000002, 11.569792383745877
886.5, 11.569792383745877
887.0000000000002, 11.684525056618085
887.5, 11.684525056618085
888, 11.713208224836137
888.5000000000002, 11.713208224836137
889, 11.541109215527825
889.5000000000002, 11.426376542655618
890, 11.426376542655618
890.5000000000002, 11.340327038001462
891, 11.340327038001462
891.5, 11.45505971087367
892, 11.59847555196393
892.5, 11.59847555196393
893.0000000000002, 11.684525056618085
893.5, 11.684525056618085
894.0000000000002, 11.713208224836137
894.5, 11.741891393054189
895.0000000000002, 11.741891393054189
895.5, 11.885307234144449
896, 11.885307234144449
896.5000000000002, 11.942673570580538
897, 11.942673570580538
897.5000000000002, 12.25818842097911
898, 12.372921093851318
898.5000000000002, 12.372921093851318
899, 12.487653766723525
899.5, 12.487653766723525
900, 12.54502010315963
900.5, 12.631069607813785
901.0000000000002, 12.631069607813785
901.5, 12.717119112467941
902.0000000000002, 12.717119112467941
902.5, 12.831851785340149
903.0000000000002, 12.831851785340149
903.5, 12.975267626430409
904, 13.118683467520668
904.5000000000002, 13.118683467520668
905, 13.348148813265084
905.5000000000002, 13.348148813265084
906, 13.462881486137292
906.5000000000002, 13.692346831881707
907, 13.692346831881707
907.5, 13.89312900940807
908.0000000000002, 13.89312900940807
908.5, 13.921812177626123
909.0000000000002, 13.921812177626123
909.5, 13.979178514062227
910.0000000000002, 14.03654485049833
910.5, 14.03654485049833
911, 14.122594355152486
911.5, 14.122594355152486
912, 14.294693364460798
912.5000000000002, 14.495475541987162
913, 14.495475541987162
913.5000000000002, 14.868356728821837
914, 14.868356728821837
914.5000000000002, 15.0691389063482
915, 15.298604252092616
915.5, 15.298604252092616
916.0000000000002, 15.442020093182876
916.5, 15.442020093182876
917.0000000000002, 15.614119102491188
917.5, 15.614119102491188
918.0000000000002, 15.728851775363395
918.5, 15.958317121107811
919, 15.958317121107811
919.5000000000002, 16.10173296219807
920, 16.10173296219807
920.5000000000002, 16.38856464437859
921, 16.81881216764937
921.5000000000002, 16.81881216764937
922, 16.933544840521577
922.5000000000002, 16.933544840521577
923, 17.048277513393785
923.5, 17.048277513393785
924.0000000000002, 17.335109195574304
924.5, 17.363792363792356
925.0000000000002, 17.363792363792356
925.5, 17.70799038240898
926.0000000000002, 17.70799038240898
926.5, 17.88008939171729
927, 18.195604242115863
927.5000000000002, 18.195604242115863
928, 18.31033691498807
928.5000000000002, 18.31033691498807
929, 18.42506958786028
929.5000000000002, 18.42506958786028
930, 18.941366615785213
930.5, 19.084782456875473
931, 19.084782456875473
931.5, 19.515029980146252
932.0000000000002, 19.515029980146252
932.5, 19.658445821236512
933.0000000000002, 19.801861662326772
933.5, 19.801861662326772
934.0000000000002, 20.117376512725343
934.5, 20.117376512725343
935, 20.404208194905863
935.5000000000002, 20.404208194905863
936, 20.604990372432226
936.5000000000002, 21.006554727484954
937, 21.006554727484954
937.5000000000002, 21.149970568575213
938, 21.149970568575213
938.5, 21.26470324144742
939.0000000000002, 21.52285175540989
939.5, 21.52285175540989
940.0000000000002, 21.895732942244564
940.5, 21.895732942244564
941.0000000000002, 22.29729729729729
941.5, 22.29729729729729
942.0000000000002, 22.29729729729729
942.5, 22.383346801951447
943, 22.383346801951447
943.5000000000002, 22.498079474823655
944, 22.498079474823655
944.5000000000002, 22.69886165235002
945, 22.928326998094434
945.5000000000002, 22.928326998094434
946, 23.1864755120569
946.5, 23.1864755120569
947.0000000000002, 23.358574521365213
947.5, 23.702772539981837
948.0000000000002, 23.702772539981837
948.5, 23.9035547175082
949.0000000000002, 23.9035547175082
949.5, 24.133020063252616
950, 24.133020063252616
950.5, 24.391168577215083
951, 24.678000259395603
951.5000000000002, 24.678000259395603
952, 24.964831941576122
952.5000000000002, 24.964831941576122
953, 25.136930950884434
953.5000000000002, 25.337713128410797
954, 25.337713128410797
954.5, 25.567178474155213
955.0000000000002, 25.567178474155213
955.5, 25.79664381989963
956.0000000000002, 25.79664381989963
956.5, 25.94005966098989
957.0000000000002, 26.42767352069677
957.5, 26.42767352069677
958, 26.657138866441187
958.5000000000002, 26.657138866441187
959, 26.71450520287729
959.5000000000002, 26.943970548621706
960, 26.943970548621706
960.5000000000002, 27.058703221493914
961, 27.058703221493914
961.5000000000002, 27.202119062584174
962, 27.202119062584174
962.5, 27.488950744764693
963.0000000000002, 27.632366585854953
963.5, 27.632366585854953
964.0000000000002, 27.89051509981742
964.5, 27.89051509981742
965.0000000000002, 28.062614109125732
965.5, 28.206029950215992
966, 28.206029950215992
966.5000000000002, 28.578911137050667
967, 28.578911137050667
967.5000000000002, 28.664960641704823
968, 28.808376482795083
968.5000000000002, 28.808376482795083
969, 28.865742819231187
969.5, 28.865742819231187
970.0000000000002, 28.980475492103395
970.5, 28.980475492103395
971.0000000000002, 29.123891333193654
971.5, 29.52545568824638
972.0000000000002, 29.52545568824638
972.5, 29.66887152933664
973.0000000000002, 29.66887152933664
973.5, 30.013069547953265
974, 30.041752716171317
974.5000000000002, 30.041752716171317
975, 30.09911905260742
975.5000000000002, 30.09911905260742
976, 30.55804974409625
976.5000000000002, 30.55804974409625
977, 30.644099248750408
977.5, 30.787515089840667
978.0000000000002, 30.787515089840667
978.5, 30.95961409914898
979.0000000000002, 30.95961409914898
979.5, 31.016980435585083
980.0000000000002, 31.189079444893395
980.5, 31.189079444893395
981.0000000000002, 31.303812117765602
981.5, 31.303812117765602
982, 31.475911127073914
982.5000000000002, 31.475911127073914
983, 31.648010136382226
983.5000000000002, 31.934841818562745
984, 31.934841818562745
984.5000000000002, 32.078257659653005
985, 32.078257659653005
985.5, 32.393772510051576
986.0000000000002, 32.56587151935989
986.5, 32.56587151935989
987.0000000000002, 32.7379705286682
987.5, 32.7379705286682
988.0000000000002, 32.85270320154041
988.5, 32.85270320154041
989.0000000000002, 32.76665369688625
989.5000000000002, 32.70928736045015
990, 32.70928736045015
990.5000000000002, 32.91006953797651
991, 32.91006953797651
991.5000000000002, 33.08216854728482
992, 33.254267556593135
992.5000000000002, 33.254267556593135
993, 33.59846557520976
993.5, 33.59846557520976
994.0000000000002, 33.74188141630002
994.5, 33.91398042560833
995.0000000000002, 33.91398042560833
995.5, 33.91398042560833
996.0000000000002, 33.91398042560833
996.5, 33.79924775273612
997, 33.79924775273612
997.5000000000002, 33.97134676204443
998, 34.05739626669859
998.5000000000002, 34.05739626669859
999, 34.143445771352745
999.5000000000002, 34.143445771352745
1000, 34.2294952760069
1000.5000000000002, 34.31554478066106
1001.0000000000002, 34.31554478066106
1001.5, 34.34422794887911
1002.0000000000002, 34.34422794887911
1002.5, 34.45896062175132
1003.0000000000002, 34.45896062175132
1003.5, 34.573693294623524
1004.0000000000002, 34.54501012640547
1004.5, 34.54501012640547
1005, 34.65974279927768
1005.5000000000002, 34.65974279927768
1006, 34.9465744814582
1006.5000000000002, 35.29077250007482
1007, 35.29077250007482
1007.5000000000002, 35.37682200472898
1008, 35.37682200472898
1008.5000000000002, 35.37682200472898
1009.0000000000002, 35.37682200472898
1009.5, 35.49155467760119
1010.0000000000002, 35.57760418225534
1010.5, 35.57760418225534
1011.0000000000002, 35.921802200871966
1011.5, 35.921802200871966
1012.0000000000002, 36.00785170552612
1012.5, 36.09390121018028
1013, 36.09390121018028
1013.5000000000002, 36.3807328923608
1014, 36.3807328923608
1014.5000000000002, 36.55283190166911
1015, 36.86834675206768
1015.5000000000002, 36.86834675206768
1016, 37.069128929594044
1016.5, 37.069128929594044
1017.0000000000002, 37.2125447706843
1017.5, 37.2125447706843
1018.0000000000002, 37.26991110712041
1018.5, 37.18386160246625
1019.0000000000002, 37.18386160246625
1019.5, 37.1551784342482
1020.0000000000002, 37.1551784342482
1020.5000000000002, 37.49937645286482
1021, 37.64279229395508
1021.5000000000002, 37.64279229395508
1022, 37.8722576396995
1022.5000000000002, 37.8722576396995
1023, 37.986990312571706
1023.5000000000002, 37.986990312571706
1024, 38.07303981722586
1024.5, 38.560653676932745
1025.0000000000002, 38.560653676932745
1025.5, 38.93353486376742
1026.0000000000002, 38.93353486376742
1026.5, 39.134317041293784
1027.0000000000002, 39.19168337772989
1027.5, 39.19168337772989
1028.0000000000002, 39.07695070485768
1028.5000000000002, 39.07695070485768
1029, 39.019584368421576
1029.5000000000002, 39.019584368421576
1030, 39.306416050602095
1030.5000000000002, 39.47851505991041
1031, 39.47851505991041
1031.5000000000002, 39.65061406921872
1032.0000000000002, 39.65061406921872
1032.5, 39.93744575139924
1033.0000000000002, 40.1382279289256
1033.5, 40.1382279289256
1034.0000000000002, 40.195594265361706
1034.5, 40.195594265361706
1035.0000000000002, 40.25296060179781
1035.5, 40.25296060179781
1036, 40.31032693823391
1036.5000000000002, 40.39637644288807
1037, 40.39637644288807
1037.5000000000002, 40.45374277932417
1038, 40.45374277932417
1038.5000000000002, 40.53979228397833
1039, 40.912673470813004
1039.5000000000002, 40.912673470813004
1040.0000000000002, 41.056089311903264
1040.5, 41.056089311903264
1041.0000000000002, 41.199505152993524
1041.5, 41.25687148942963
1042.0000000000002, 41.25687148942963
1042.5, 41.31423782586573
1043.0000000000002, 41.31423782586573
1043.5, 41.515020003392095
1044, 41.515020003392095
1044.5000000000002, 41.68711901270041
1045, 41.88790119022677
1045.5000000000002, 41.88790119022677
1046, 41.91658435844482
1046.5000000000002, 41.91658435844482
1047, 42.088683367753134
1047.5000000000002, 42.232099208843394
1048.0000000000002, 42.232099208843394
1048.5, 42.2894655452795
1049.0000000000002, 42.2894655452795
1049.5, 42.31814871349755
1050.0000000000002, 42.31814871349755
1050.5, 42.260782377061446
1051.0000000000002, 42.31814871349755
1051.5000000000002, 42.31814871349755
1052, 42.2894655452795
1052.5000000000002, 42.2894655452795
1053, 42.31814871349755
1053.5000000000002, 42.43288138636976
1054, 42.43288138636976
1054.5000000000002, 42.46156455458781
1055, 42.46156455458781
1055.5, 42.547614059241965
1056.0000000000002, 42.547614059241965
1056.5, 42.49024772280586
1057.0000000000002, 42.43288138636976
1057.5, 42.43288138636976
1058.0000000000002, 42.547614059241965
1058.5, 42.547614059241965
1059.0000000000002, 42.547614059241965
1059.5000000000002, 42.63366356389612
1060, 42.63366356389612
1060.5000000000002, 42.66234673211417
1061, 42.66234673211417
1061.5000000000002, 42.71971306855028
1062, 42.71971306855028
1062.5000000000002, 42.691029900332225
1063.0000000000002, 42.46156455458781
1063.5, 42.46156455458781
1064.0000000000002, 42.20341604062534
1064.5, 42.20341604062534
1065.0000000000002, 42.260782377061446
1065.5, 42.31814871349755
1066.0000000000002, 42.31814871349755
1066.5, 42.375515049933654
1067.0000000000002, 42.375515049933654
1067.5000000000002, 42.57629722746002
1068, 42.60498039567807
1068.5000000000002, 42.60498039567807
1069, 42.71971306855028
1069.5000000000002, 42.71971306855028
1070, 42.77707940498638
1070.5000000000002, 42.77707940498638
1071.0000000000002, 42.834445741422485
1071.5, 42.51893089102391
1072.0000000000002, 42.51893089102391
1072.5, 42.3468318817156
1073.0000000000002, 42.3468318817156
1073.5, 41.97395069488093
1074.0000000000002, 41.97395069488093
1074.5, 41.97395069488093
1075, 41.945267526662875
1075.5000000000002, 41.945267526662875
1076, 41.71580218091846
1076.5000000000002, 41.71580218091846
1077, 41.658435844482355
1077.5000000000002, 41.658435844482355
1078, 41.658435844482355
1078.5000000000002, 41.77316851735456
1079.0000000000002, 41.77316851735456
1079.5, 41.658435844482355
1080.0000000000002, 41.5723863398282
1080.5, 41.5723863398282
1081.0000000000002, 41.54370317161015
1081.5, 41.54370317161015
1082.0000000000002, 41.42897049873794
1082.5000000000002, 41.42897049873794
1083, 41.17082198477547
1083.5000000000002, 41.02740614368521
1084, 41.02740614368521
1084.5000000000002, 40.7979407979408
1085, 40.7979407979408
1085.5000000000002, 40.59715862041443
1086, 40.39637644288807
1086.5000000000002, 40.39637644288807
1087.0000000000002, 40.25296060179781
1087.5, 40.25296060179781
1088.0000000000002, 40.1382279289256
1088.5, 40.1382279289256
1089.0000000000002, 39.880079414963134
1089.5, 39.82271307852703
1090.0000000000002, 39.82271307852703
1090.5000000000002, 39.62193090100067
1091, 39.62193090100067
1091.5000000000002, 39.53588139634651
1092, 39.47851505991041
1092.5000000000002, 39.47851505991041
1093, 39.22036654594794
1093.5000000000002, 39.22036654594794
1094, 39.134317041293784
1094.5, 38.53197050871469
1095.0000000000002, 38.53197050871469
1095.5, 38.18777249009807
1096.0000000000002, 38.18777249009807
1096.5, 37.90094080791755
1097.0000000000002, 37.90094080791755
1097.5, 37.986990312571706
1098.0000000000002, 37.958307144353654
1098.5000000000002, 37.958307144353654
1099, 37.55674278930093
1099.5000000000002, 37.55674278930093
1100, 37.41332694821067
1100.5000000000002, 37.2125447706843
1101, 37.2125447706843
1101.5000000000002, 37.1551784342482
1102.0000000000002, 37.1551784342482
1102.5, 36.89702992028573
1103.0000000000002, 36.89702992028573
1103.5, 36.75361407919547
1104.0000000000002, 36.4380992287969
1104.5, 36.4380992287969
1105.0000000000002, 36.3807328923608
1105.5, 36.3807328923608
1106.0000000000002, 36.15126754661638
1106.5000000000002, 36.00785170552612
1107, 36.00785170552612
1107.5000000000002, 35.83575269621781
1108, 35.83575269621781
1108.5000000000002, 35.52023784581924
1109, 35.52023784581924
1109.5000000000002, 35.43418834116508
1110.0000000000002, 35.032623986112355
1110.5, 35.032623986112355
1111.0000000000002, 34.83184180858599
1111.5, 34.83184180858599
1112.0000000000002, 34.63105963105963
1112.5, 34.286861612443005
1113.0000000000002, 34.286861612443005
1113.5000000000002, 33.88529725739028
1114, 33.88529725739028
1114.5000000000002, 33.62714874342781
1115, 33.62714874342781
1115.5000000000002, 33.19690122015703
1116, 33.16821805193898
1116.5000000000002, 33.16821805193898
1117, 33.13953488372093
1117.5000000000002, 33.13953488372093
1118.0000000000002, 33.02480221084872
1118.5, 32.680604192232096
1119.0000000000002, 32.680604192232096
1119.5, 32.47982201470573
1120.0000000000002, 32.47982201470573
1120.5, 32.365089341833524
1121.0000000000002, 32.16430716430716
1121.5000000000002, 32.16430716430716
1122, 32.42245567826963
1122.5000000000002, 32.42245567826963
1123, 32.30772300539742
1123, 30.414633903005992
1123.5000000000002, 32.30772300539742
1123.5000000000002, 30.414633903005992
1124, 30.70146558518651
1124.5000000000002, 30.5293665758782
1125, 30.5293665758782
1125.5000000000002, 30.472000239442096
1126.0000000000002, 30.472000239442096
1126.5, 30.414633903005992
1127.0000000000002, 29.984386379735213
1127.5, 29.984386379735213
1128.0000000000002, 29.92702004329911
1128.5, 29.92702004329911
1129.0000000000002, 29.8122873704269
1129.5000000000002, 29.8122873704269
1130, 29.295990342501966
1130.5000000000002, 29.095208164975602
1131, 29.095208164975602
1131.5000000000002, 28.722326978140927
1132, 28.722326978140927
1132.5000000000002, 28.550227968832615
1133.0000000000002, 28.234713118434044
1133.5, 28.234713118434044
1134.0000000000002, 27.86183193159937
1134.5, 27.86183193159937
1135.0000000000002, 27.775782426945213
1135.5, 27.775782426945213
1136.0000000000002, 27.345534903674434
1136.5, 27.374218071892486
1137.0000000000002, 27.374218071892486
1137.5000000000002, 27.345534903674434
1138, 27.345534903674434
1138.5000000000002, 27.259485399020278
1139, 26.915287380403655
1139.5000000000002, 26.915287380403655
1140, 26.513723025350927
1140.5000000000002, 26.513723025350927
1141.0000000000002, 26.140841838516252
1141.5, 25.710594315245473
1142.0000000000002, 25.710594315245473
1142.5, 25.423762633064953
1143.0000000000002, 25.423762633064953
1143.5, 25.22298045553859
1144.0000000000002, 25.22298045553859
1144.5000000000002, 25.07956461444833
1145.0000000000002, 24.93614877335807
1145.5000000000002, 24.93614877335807
1146, 24.678000259395603
1146.5000000000002, 24.678000259395603
1147, 24.6206339229595
1147.5000000000002, 24.247752736124824
1148, 24.247752736124824
1148.5000000000002, 24.104336895034564
1149.0000000000002, 24.104336895034564
1149.5, 23.960921053944304
1150.0000000000002, 23.960921053944304
1150.5, 23.501990362455473
1151.0000000000002, 23.415940857801317
1151.5, 23.415940857801317
1152.0000000000002, 23.215158680274953
1152.5000000000002, 23.215158680274953
1153, 23.387257689583265
1153.5000000000002, 23.071742839184694
1154, 23.071742839184694
1154.5000000000002, 22.55544581125976
1155, 22.55544581125976
1155.5000000000002, 22.4120299701695
1156.0000000000002, 22.4120299701695
1156.5000000000002, 21.924416110462616
1157, 21.723633932936252
1157.5, 21.723633932936252
1158.0000000000002, 21.436802250755733
1158.5000000000002, 21.436802250755733
1159, 21.26470324144742
1159.5, 20.94918839104885
1160.0000000000002, 20.94918839104885
1160.5000000000002, 20.80577254995859
1161.0000000000002, 20.80577254995859
1161.5, 20.777089381740538
1162, 20.777089381740538
1162.5000000000002, 20.49025769956002
1163.0000000000002, 20.318158690251707
1163.5, 20.318158690251707
1164, 19.973960671635083
1164.5000000000002, 19.973960671635083
1165.0000000000002, 19.744495325890668
1165.5000000000002, 19.62976265301846
1166, 19.62976265301846
1166.5, 19.572396316582356
1167.0000000000002, 19.572396316582356
1167.5000000000002, 19.34293097083794
1168.0000000000002, 19.113465625093525
1168.5, 19.113465625093525
1169, 18.970049784003265
1169.5000000000002, 18.970049784003265
1170.0000000000002, 18.88400027934911
1170.5, 18.88400027934911
1171, 18.711901270040798
1171.5000000000002, 18.339020083206123
1172.0000000000002, 18.339020083206123
1172.5000000000002, 18.02350523280755
1173, 18.02350523280755
1173.5, 17.621940877754824
1174.0000000000002, 17.449841868446512
1174.5000000000002, 17.449841868446512
1175, 17.163010186265993
1175.5, 17.163010186265993
1176.0000000000002, 17.163010186265993
1176.5000000000002, 17.163010186265993
1177.0000000000002, 16.96222800873963
1177.5, 16.904861672303525
1178, 16.904861672303525
1178.5000000000002, 16.933544840521577
1179.0000000000002, 16.933544840521577
1179.5000000000002, 16.933544840521577
1180, 16.646713158341058
1180.5, 16.646713158341058
1181.0000000000002, 16.560663653686902
1181.5000000000002, 16.560663653686902
1182, 16.044366625761967
1182.5, 16.044366625761967
1183.0000000000002, 15.843584448235603
1183.5000000000002, 15.700168607145343
1184.0000000000002, 15.700168607145343
1184.5, 15.327287420310668
1185, 15.327287420310668
1185.5000000000002, 15.155188411002356
1186.0000000000002, 15.040455738130149
1186.5, 15.040455738130149
1187, 14.954406233475993
1187.5000000000002, 14.954406233475993
1188.0000000000002, 14.810990392385733
1188.5000000000002, 14.810990392385733
1189, 14.667574551295473
1189.5, 14.552841878423266
1190.0000000000002, 14.552841878423266
1190.5000000000002, 14.380742869114954
1191.0000000000002, 14.380742869114954
1191.5, 14.294693364460798
1192, 14.266010196242746
1192.5000000000002, 14.266010196242746
1193.0000000000002, 14.093911186934434
1193.5, 14.093911186934434
1194, 13.950495345844175
1194.5000000000002, 13.921812177626123
1195.0000000000002, 13.921812177626123
1195.5000000000002, 13.778396336535863
1196, 13.778396336535863
1196.5, 13.749713168317811
1197.0000000000002, 13.749713168317811
1197.5000000000002, 13.692346831881707
1198, 13.43419831791924
1198.5, 13.43419831791924
1199.0000000000002, 13.204732972174824
1199.5000000000002, 13.204732972174824
1200.0000000000002, 13.118683467520668
1200.5, 13.14736663573872
1201, 13.14736663573872
1201.5000000000002, 12.688435944249889
1202.0000000000002, 12.688435944249889
1202.5, 12.631069607813785
1203, 12.631069607813785
1203.5000000000002, 12.54502010315963
1204.0000000000002, 12.40160426206937
1204.5000000000002, 12.40160426206937
1205, 12.229505252761058
1205.5, 12.229505252761058
1206.0000000000002, 12.057406243452746
1206.5000000000002, 12.000039907016642
1207.0000000000002, 12.000039907016642
1207.5, 11.741891393054189
1208, 11.741891393054189
1208.5000000000002, 11.856624065926397
1209.0000000000002, 11.856624065926397
1209.5, 12.028723075234694
1210, 12.057406243452746
1210.5000000000002, 12.057406243452746
1211.0000000000002, 12.000039907016642
1211.5000000000002, 12.000039907016642
1212, 11.741891393054189
1212.5, 11.569792383745877
1213.0000000000002, 11.569792383745877
1213.5000000000002, 11.541109215527825
1214, 11.541109215527825
1214.5, 11.512426047309773
1215.0000000000002, 11.512426047309773
1215.5000000000002, 11.684525056618085
1216.0000000000002, 11.59847555196393
1216.5, 11.59847555196393
1217, 11.426376542655618
1217.5000000000002, 11.426376542655618
1218.0000000000002, 11.053495355820942
1218.5000000000002, 10.938762682948735
1219, 10.938762682948735
1219.5, 10.88139634651263
1220.0000000000002, 10.88139634651263
1220.5000000000002, 10.910079514730683
1221, 11.053495355820942
1221.5, 11.053495355820942
1222.0000000000002, 11.16822802869315
1222.5000000000002, 11.16822802869315
1223.0000000000002, 11.110861692257046
1223.5, 11.110861692257046
1224, 11.02481218760289
1224.5000000000002, 10.852713178294579
1225.0000000000002, 10.852713178294579
1225.5, 10.852713178294579
1226, 10.852713178294579
1226.5000000000002, 11.139544860475098
1227.0000000000002, 11.110861692257046
1227.5000000000002, 11.110861692257046
1228, 11.082178524038994
1228.5, 11.082178524038994
1229.0000000000002, 10.967445851166786
1229.5000000000002, 10.967445851166786
1230.0000000000002, 10.967445851166786
1230.5, 10.967445851166786
1231, 10.967445851166786
1231.5000000000002, 10.737980505422371
1232.0000000000002, 10.737980505422371
1232.5, 10.623247832550163
1233, 10.336416150369644
1233.5000000000002, 10.336416150369644
1234.0000000000002, 10.078267636407176
1234.5000000000002, 10.078267636407176
1235, 9.877485458880813
1235.5, 9.877485458880813
1236.0000000000002, 9.7053864495725
1236.5000000000002, 9.648020113136397
1237, 9.648020113136397
1237.5, 9.619336944918345
1238.0000000000002, 9.619336944918345
1238.5000000000002, 9.619336944918345
1239.0000000000002, 9.820119122444709
1239.5, 9.820119122444709
1240, 9.934851795316916
1240.5000000000002, 9.934851795316916
1241.0000000000002, 10.13563397284328
1241.5000000000002, 10.13563397284328
1242, 10.221683477497436
1242.5000000000002, 10.307732982151592
1243.0000000000002, 10.307732982151592
1243.5000000000002, 10.307732982151592
1244, 10.307732982151592
1244.5, 10.250366645715488
1245.0000000000002, 10.164317141061332
1245.5000000000002, 10.164317141061332
1246.0000000000002, 10.078267636407176
1246.5, 10.078267636407176
1247, 10.049584468189124
1247.5000000000002, 9.934851795316916
1248.0000000000002, 9.934851795316916
1248.5, 9.934851795316916
1249, 9.934851795316916
1249.5000000000002, 9.906168627098864
1250.0000000000002, 9.906168627098864
1250.5000000000002, 10.164317141061332
1251, 10.164317141061332
1251.5, 10.164317141061332
1252.0000000000002, 10.221683477497436
1252.5000000000002, 10.221683477497436
1253, 10.049584468189124
1253.5, 9.820119122444709
1254.0000000000002, 9.820119122444709
1254.5000000000002, 9.877485458880813
1255.0000000000002, 9.877485458880813
1255.5, 9.99221813175302
1256, 9.99221813175302
1256.5000000000002, 10.078267636407176
1257.0000000000002, 10.164317141061332
1257.5000000000002, 10.164317141061332
1258, 10.221683477497436
1258.5, 10.221683477497436
1259.0000000000002, 10.193000309279384
1259.5000000000002, 10.193000309279384
1260, 10.193000309279384
1260.5, 10.336416150369644
1261.0000000000002, 10.336416150369644
1261.5000000000002, 10.594564664332111
1262.0000000000002, 10.594564664332111
1262.5, 10.594564664332111
1263, 10.479831991459903
1263.5000000000002, 10.479831991459903
1264.0000000000002, 10.307732982151592
1264.5, 10.307732982151592
1265, 10.307732982151592
1265.5000000000002, 10.221683477497436
1266.0000000000002, 10.221683477497436
1266.5000000000002, 10.106950804625228
1267, 10.106950804625228
1267.5, 10.164317141061332
1268.0000000000002, 10.336416150369644
1268.5000000000002, 10.336416150369644
1269.0000000000002, 10.250366645715488
1269.5, 10.250366645715488
1270, 10.106950804625228
1270.5000000000002, 10.106950804625228
1271.0000000000002, 9.963534963534968
1271.5, 9.99221813175302
1272, 9.99221813175302
1272.5000000000002, 10.049584468189124
1273.0000000000002, 10.049584468189124
1273.5000000000002, 10.193000309279384
1274, 10.13563397284328
1274.5, 10.13563397284328
1275.0000000000002, 9.963534963534968
1275.5000000000002, 9.963534963534968
1276, 10.193000309279384
1276.5, 10.193000309279384
1277.0000000000002, 10.27904981393354
1277.5000000000002, 10.164317141061332
1278.0000000000002, 10.164317141061332
1278.5, 10.106950804625228
1279, 10.106950804625228
1279.5000000000002, 9.84880229066276
1280.0000000000002, 10.049584468189124
1280.5000000000002, 10.049584468189124
1281, 10.078267636407176
1281.5000000000002, 10.078267636407176
1282.0000000000002, 10.078267636407176
1282.5000000000002, 10.078267636407176
1283, 10.049584468189124
1283.5, 10.049584468189124
1284.0000000000002, 10.049584468189124
1284.5000000000002, 10.049584468189124
1285.0000000000002, 10.049584468189124
1285.5, 10.049584468189124
1286, 10.078267636407176
1286.5000000000002, 10.078267636407176
1287.0000000000002, 10.164317141061332
1287.5, 10.164317141061332
1288, 10.164317141061332
1288.5000000000002, 10.164317141061332
1289.0000000000002, 10.164317141061332
1289.5000000000002, 10.106950804625228
1290, 10.106950804625228
1290.5, 10.049584468189124
1291.0000000000002, 10.049584468189124
1291.5000000000002, 10.049584468189124
1292.0000000000002, 10.049584468189124
1292.5, 10.049584468189124
1293.0000000000002, 10.13563397284328
1293.5000000000002, 10.13563397284328
1294.0000000000002, 10.049584468189124
1294.5, 10.078267636407176
1295, 10.078267636407176
1295.5000000000002, 10.221683477497436
1296.0000000000002, 10.221683477497436
1296.5000000000002, 10.56588149611406
1297, 10.56588149611406
1297.5, 10.537198327896007
1298.0000000000002, 10.307732982151592
1298.5000000000002, 10.307732982151592
1299, 10.307732982151592
1299.5, 10.307732982151592
1300.0000000000002, 10.307732982151592
1300.5000000000002, 10.623247832550163
1301.0000000000002, 10.623247832550163
1301.5, 10.651931000768215
1302, 10.651931000768215
1302.5000000000002, 10.479831991459903
1303.0000000000002, 10.479831991459903
1303.5000000000002, 10.4224656550238
1304, 10.365099318587696
1304.5, 10.365099318587696
1305, 10.393782486805748
1305.5000000000002, 10.393782486805748
1306, 10.537198327896007
1306.5, 10.56588149611406
1307, 10.56588149611406
1307.5000000000002, 10.537198327896007
1308.0000000000002, 10.537198327896007
1308.5, 10.250366645715488
1309, 10.250366645715488
1309.5, 10.193000309279384
1310.0000000000002, 9.99221813175302
1310.5, 9.99221813175302
1311, 9.99221813175302
1311.5, 9.99221813175302
1312.0000000000002, 9.99221813175302
1312.5000000000002, 9.877485458880813
1313, 9.877485458880813
1313.5, 9.906168627098864
1314, 9.906168627098864
1314.5000000000002, 9.906168627098864
1315, 9.906168627098864
1315.5, 10.221683477497436
1316, 10.250366645715488
1316.5, 10.250366645715488
1317.0000000000002, 10.078267636407176
1317.5, 10.078267636407176
1318, 10.250366645715488
1318.5, 10.4224656550238
1319.0000000000002, 10.4224656550238
1319.5000000000002, 10.709297337204319
1320, 10.709297337204319
1320.5, 10.737980505422371
1321, 10.680614168986267
1321.5000000000002, 10.680614168986267
1322, 10.106950804625228
1322.5, 10.106950804625228
1323, 10.020901299971072
1323.5000000000002, 10.020901299971072
1324.0000000000002, 10.221683477497436
1324.5, 10.307732982151592
1325, 10.307732982151592
1325.5, 10.336416150369644
1326.0000000000002, 10.336416150369644
1326.5, 10.508515159677955
1327, 10.56588149611406
1327.5, 10.56588149611406
1328, 10.623247832550163
1328.5000000000002, 10.623247832550163
1329, 10.365099318587696
1329.5, 10.365099318587696
1330, 10.27904981393354
1330.5000000000002, 10.250366645715488
1331.0000000000002, 10.250366645715488
1331.5, 10.336416150369644
1332, 10.336416150369644
1332.5, 10.537198327896007
1333.0000000000002, 10.795346841858475
1333.5, 10.795346841858475
1334, 10.88139634651263
1334.5, 10.88139634651263
1335.0000000000002, 10.967445851166786
1335.5000000000002, 10.967445851166786
1336, 10.766663673640423
1336.5, 10.680614168986267
1337, 10.680614168986267
1337.5000000000002, 10.594564664332111
1338, 10.594564664332111
1338.5, 10.824030010076527
1339, 10.852713178294579
1339.5000000000002, 10.852713178294579
1340.0000000000002, 10.938762682948735
1340.5, 10.938762682948735
1341, 10.910079514730683
1341.5, 10.910079514730683
1342.0000000000002, 10.795346841858475
1342.5000000000002, 10.651931000768215
1343, 10.651931000768215
1343.5, 10.623247832550163
1344, 10.623247832550163
1344.5000000000002, 10.795346841858475
1345, 10.824030010076527
1345.5, 10.824030010076527
1346, 10.795346841858475
1346.5000000000002, 10.795346841858475
1347.0000000000002, 10.709297337204319
1347.5, 10.623247832550163
1348, 10.623247832550163
1348.5, 10.4224656550238
1349.0000000000002, 10.4224656550238
1349.5, 10.365099318587696
1350, 10.365099318587696
1350.5, 10.451148823241851
1351.0000000000002, 10.479831991459903
1351.5000000000002, 10.479831991459903
1352, 10.193000309279384
1352.5, 10.193000309279384
1353, 10.193000309279384
1353.5000000000002, 9.99221813175302
1354.0000000000002, 9.99221813175302
1354.5, 10.049584468189124
1355, 10.049584468189124
1355.5, 10.049584468189124
1356.0000000000002, 10.049584468189124
1356.5, 9.934851795316916
1357, 9.934851795316916
1357.5, 9.934851795316916
1358.0000000000002, 9.963534963534968
1358.5000000000002, 9.963534963534968
1359, 9.99221813175302
1359.5, 10.020901299971072
1360, 10.020901299971072
1360.5000000000002, 9.99221813175302
1361, 9.99221813175302
1361.5, 9.934851795316916
1362, 9.934851795316916
1362.5000000000002, 9.877485458880813
1363.0000000000002, 9.934851795316916
1363.5, 9.934851795316916
1364, 9.877485458880813
1364.5, 9.877485458880813
1365.0000000000002, 9.820119122444709
1365.5, 9.791435954226657
1366, 9.791435954226657
1366.5, 9.676703281354449
1367, 9.676703281354449
1122.5950782997763, 31.38138138138136
