312, 1.6740993485179558
312.5, 1.6740993485179558
313, 1.6740993485179558
313.5, 1.7314656849540597
314, 1.7314656849540597
314.5, 1.7888320213901636
315, 1.8175151896082156
315.5, 1.8175151896082156
316, 1.8748815260443195
316.5, 1.8748815260443195
317, 1.9609310306984753
317.5, 1.9609310306984753
318, 2.018297367134579
318.5, 2.046980535352631
319, 2.046980535352631
319.5, 2.133030040006787
320, 2.133030040006787
320.5, 2.190396376442891
321, 2.2477627128789948
321.5, 2.2477627128789948
322, 2.3051290493150987
322.5, 2.3051290493150987
323, 2.3338122175331506
323.5, 2.3338122175331506
324, 2.3911785539692545
324.5, 2.4485448904053584
325, 2.4485448904053584
325.5, 2.4485448904053584
326, 2.4485448904053584
326.5, 2.4485448904053584
327, 2.5059112268414623
327.5, 2.5059112268414623
328, 2.563277563277566
328.5, 2.563277563277566
329, 2.62064389971367
329.5, 2.62064389971367
330, 2.678010236149774
330.5, 2.735376572585878
331, 2.735376572585878
331.5, 2.8214260772400337
332, 2.8214260772400337
332.5, 2.8787924136761376
333, 2.9074755818941895
333.5, 2.9074755818941895
334, 2.9648419183302934
334.5, 2.9648419183302934
335, 3.0222082547663973
335.5, 3.108257759420553
336, 3.108257759420553
336.5, 3.194307264074709
337, 3.194307264074709
337.5, 3.251673600510813
338, 3.251673600510813
338.5, 3.280356768728865
339, 3.3950894416010726
339.5, 3.3950894416010726
340, 3.4237726098191246
340.5, 3.4237726098191246
341, 3.5098221144732804
341.5, 3.5385052826913324
342, 3.5385052826913324
342.5, 3.5671884509093843
343, 3.5671884509093843
343.5, 3.624554787345488
344, 3.624554787345488
344.5, 3.65323795556354
345, 3.739287460217696
345.5, 3.739287460217696
346, 3.767970628435748
346.5, 3.767970628435748
347, 3.825336964871852
347.5, 3.8540201330899038
348, 3.8540201330899038
348.5, 3.9974359741801635
349, 3.9974359741801635
349.5, 4.054802310616267
350, 4.054802310616267
350.5, 4.140851815270423
351, 4.198218151706527
351.5, 4.198218151706527
352, 4.284267656360683
352.5, 4.284267656360683
353, 4.312950824578735
353.5, 4.341633992796787
354, 4.341633992796787
354.5, 4.399000329232891
355, 4.399000329232891
355.5, 4.427683497450943
356, 4.427683497450943
356.5, 4.5424161703231505
357, 4.571099338541202
357.5, 4.571099338541202
358, 4.628465674977306
358.5, 4.628465674977306
359, 4.657148843195358
359.5, 4.743198347849514
360, 4.743198347849514
360.5, 4.800564684285618
361, 4.800564684285618
361.5, 4.915297357157826
362, 4.943980525375878
362.5, 4.943980525375878
363, 5.001346861811982
363.5, 5.001346861811982
364, 5.0873963664661375
364.5, 5.0873963664661375
365, 5.202129039338345
365.5, 5.316861712210553
366, 5.316861712210553
366.5, 5.402911216864709
367, 5.402911216864709
367.5, 5.431594385082761
368, 5.431594385082761
368.5, 5.431594385082761
369, 5.517643889736917
369.5, 5.517643889736917
370, 5.6323765626091244
370.5, 5.6323765626091244
371, 5.747109235481332
371.5, 5.804475571917436
372, 5.804475571917436
372.5, 5.86184190835354
373, 5.86184190835354
373.5, 6.0052577494438
374, 6.091307254097956
374.5, 6.091307254097956
375, 6.1486735905340595
375.5, 6.1486735905340595
376, 6.206039926970163
376.5, 6.206039926970163
377, 6.234723095188215
377.5, 6.292089431624319
378, 6.292089431624319
378.5, 6.406822104496527
379, 6.406822104496527
379.5, 6.464188440932631
380, 6.492871609150683
380.5, 6.492871609150683
381, 6.550237945586787
381.5, 6.550237945586787
382, 6.607604282022891
382.5, 6.607604282022891
383, 6.6936537866770465
383.5, 6.779703291331202
384, 6.779703291331202
384.5, 6.808386459549254
385, 6.808386459549254
385.5, 6.980485468857566
386, 7.03785180529367
386.5, 7.03785180529367
387, 7.18126764638393
387.5, 7.18126764638393
388, 7.267317151038085
388.5, 7.324683487474189
389, 7.324683487474189
389.5, 7.410732992128345
390, 7.410732992128345
390.5, 7.468099328564449
391, 7.468099328564449
391.5, 7.525465665000553
392, 7.697564674308865
392.5, 7.697564674308865
393, 7.7549310107449685
393.5, 7.7549310107449685
394, 7.840980515399124
394.5, 7.92703002005328
395, 7.92703002005328
395.5, 7.984396356489384
396, 7.984396356489384
396.5, 8.156495365797696
397, 8.156495365797696
397.5, 8.271228038669904
398, 8.385960711542111
398.5, 8.385960711542111
399, 8.414643879760163
399.5, 8.414643879760163
400, 8.558059720850423
400.5, 8.644109225504579
401, 8.644109225504579
401.5, 8.730158730158735
402, 8.730158730158735
402.5, 8.787525066594839
403, 8.787525066594839
403.5, 8.81620823481289
404, 8.902257739467046
404.5, 8.902257739467046
405, 8.930940907685098
405.5, 8.930940907685098
406, 9.045673580557306
406.5, 9.131723085211462
407, 9.131723085211462
407.5, 9.217772589865618
408, 9.217772589865618
408.5, 9.303822094519774
409, 9.303822094519774
409.5, 9.38987159917393
410, 9.475921103828085
410.5, 9.475921103828085
411, 9.561970608482241
411.5, 9.561970608482241
412, 9.648020113136397
412.5, 9.791435954226657
413, 9.791435954226657
413.5, 9.877485458880813
414, 9.877485458880813
414.5, 9.99221813175302
415, 10.13563397284328
415.5, 10.13563397284328
416, 10.164317141061332
416.5, 10.164317141061332
417, 10.250366645715488
417.5, 10.250366645715488
418, 10.365099318587696
418.5, 10.479831991459903
419, 10.479831991459903
419.5, 10.623247832550163
420, 10.623247832550163
420.5, 10.709297337204319
421, 10.824030010076527
421.5, 10.824030010076527
422, 10.910079514730683
422.5, 10.910079514730683
423, 10.996129019384838
423.5, 10.996129019384838
424, 11.110861692257046
424.5, 11.225594365129254
425, 11.225594365129254
425.5, 11.340327038001462
426, 11.340327038001462
426.5, 11.397693374437566
427, 11.541109215527825
427.5, 11.541109215527825
428, 11.684525056618085
428.5, 11.684525056618085
429, 11.770574561272241
429.5, 11.770574561272241
430, 11.856624065926397
430.5, 12.000039907016642
431, 12.000039907016642
431.5, 12.11477257988885
432, 12.11477257988885
432.5, 12.200822084543006
433, 12.344237925633266
433.5, 12.344237925633266
434, 12.487653766723525
434.5, 12.487653766723525
435, 12.573703271377681
435.5, 12.688435944249889
436, 12.688435944249889
436.5, 12.774485448904045
437, 12.774485448904045
437.5, 12.831851785340149
438, 12.831851785340149
438.5, 12.946584458212357
439, 13.090000299302616
439.5, 13.090000299302616
440, 13.262099308610928
440.5, 13.262099308610928
441, 13.319465645047032
441.5, 13.43419831791924
442, 13.43419831791924
442.5, 13.520247822573396
443, 13.520247822573396
443.5, 13.606297327227551
444, 13.606297327227551
444.5, 13.72103000009976
445, 13.864445841190019
445.5, 13.864445841190019
446, 13.950495345844175
446.5, 13.950495345844175
447, 14.065228018716383
447.5, 14.093911186934434
448, 14.093911186934434
448.5, 14.17996069158859
449, 14.17996069158859
449.5, 14.266010196242746
450, 14.266010196242746
450.5, 14.409426037333006
451, 14.524158710205214
451.5, 14.524158710205214
452, 14.667574551295473
452.5, 14.667574551295473
453, 14.696257719513525
453.5, 14.75362405594963
454, 14.75362405594963
454.5, 14.810990392385733
455, 14.810990392385733
455.5, 14.897039897039889
456, 14.897039897039889
456.5, 15.040455738130149
457, 15.126505242784305
457.5, 15.126505242784305
458, 15.155188411002356
458.5, 15.155188411002356
459, 15.155188411002356
459.5, 15.21255474743846
460, 15.21255474743846
460.5, 15.327287420310668
461, 15.327287420310668
461.5, 15.413336924964824
462, 15.470703261400928
462.5, 15.470703261400928
463, 15.614119102491188
463.5, 15.614119102491188
464, 15.671485438927292
464.5, 15.671485438927292
465, 15.757534943581447
465.5, 15.872267616453655
466, 15.872267616453655
466.5, 15.958317121107811
467, 15.958317121107811
467.5, 16.07304979398002
468, 16.187782466852227
468.5, 16.187782466852227
469, 16.187782466852227
469.5, 16.187782466852227
470, 16.187782466852227
470.5, 16.187782466852227
471, 16.331198307942486
471.5, 16.445930980814694
472, 16.445930980814694
472.5, 16.53198048546885
473, 16.53198048546885
473.5, 16.53198048546885
474, 16.618029990123006
474.5, 16.618029990123006
475, 16.67539632655911
475.5, 16.67539632655911
476, 16.790128999431317
476.5, 16.790128999431317
477, 16.933544840521577
477.5, 16.99091117695768
478, 16.99091117695768
478.5, 17.048277513393785
479, 17.048277513393785
479.5, 17.019594345175733
480, 16.99091117695768
480.5, 16.99091117695768
481, 17.13432701804794
481.5, 17.13432701804794
482, 17.220376522702097
482.5, 17.220376522702097
483, 17.335109195574304
483.5, 17.507208204882616
484, 17.507208204882616
484.5, 17.621940877754824
485, 17.621940877754824
485.5, 17.621940877754824
486, 17.535891373100668
486.5, 17.535891373100668
487, 17.56457454131872
487.5, 17.56457454131872
488, 17.621940877754824
488.5, 17.650624045972876
489, 17.650624045972876
489.5, 17.73667355062703
490, 17.73667355062703
490.5, 17.73667355062703
491, 17.73667355062703
491.5, 17.650624045972876
492, 17.85140622349924
492.5, 17.85140622349924
493, 17.88008939171729
493.5, 17.88008939171729
494, 18.02350523280755
494.5, 17.966138896371447
495, 17.966138896371447
495.5, 17.908772559935343
496, 17.908772559935343
496.5, 17.966138896371447
497, 17.966138896371447
497.5, 17.937455728153395
498, 17.908772559935343
498.5, 17.908772559935343
499, 17.908772559935343
499.5, 17.908772559935343
500, 17.937455728153395
500.5, 17.966138896371447
501, 17.966138896371447
501.5, 17.908772559935343
502, 17.908772559935343
502.5, 17.822723055281187
503, 17.822723055281187
503.5, 17.822723055281187
504, 17.822723055281187
504.5, 17.822723055281187
505, 17.765356718845084
505.5, 17.765356718845084
506, 17.70799038240898
506.5, 17.593257709536772
507, 17.593257709536772
507.5, 17.535891373100668
508, 17.535891373100668
508.5, 17.507208204882616
509, 17.507208204882616
509.5, 17.449841868446512
510, 17.363792363792356
510.5, 17.363792363792356
511, 17.220376522702097
511.5, 17.220376522702097
512, 17.048277513393785
512.5, 16.99091117695768
513, 16.99091117695768
513.5, 16.84749533586742
514, 16.84749533586742
514.5, 16.761445831213265
515, 16.732762662995214
515.5, 16.732762662995214
516, 16.646713158341058
516.5, 16.646713158341058
517, 16.560663653686902
517.5, 16.560663653686902
518, 16.474614149032746
518.5, 16.302515139724434
519, 16.302515139724434
519.5, 16.273831971506382
520, 16.273831971506382
520.5, 16.187782466852227
521, 16.10173296219807
521.5, 16.10173296219807
522, 16.044366625761967
522.5, 16.044366625761967
523, 15.929633952889759
523.5, 15.929633952889759
524, 15.900950784671707
524.5, 15.872267616453655
525, 15.872267616453655
525.5, 15.843584448235603
526, 15.843584448235603
526.5, 15.757534943581447
527, 15.64280227070924
527.5, 15.64280227070924
528, 15.585435934273136
528.5, 15.585435934273136
529, 15.528069597837032
529.5, 15.528069597837032
530, 15.470703261400928
530.5, 15.413336924964824
531, 15.413336924964824
531.5, 15.298604252092616
532, 15.298604252092616
532.5, 15.183871579220408
533, 15.097822074566253
533.5, 15.097822074566253
534, 15.097822074566253
534.5, 15.097822074566253
535, 15.097822074566253
535.5, 15.097822074566253
536, 15.011772569912097
536.5, 14.925723065257941
537, 14.925723065257941
537.5, 14.897039897039889
538, 14.897039897039889
538.5, 14.810990392385733
539, 14.75362405594963
539.5, 14.75362405594963
540, 14.724940887731577
540.5, 14.724940887731577
541, 14.696257719513525
541.5, 14.667574551295473
542, 14.667574551295473
542.5, 14.75362405594963
543, 14.75362405594963
543.5, 14.810990392385733
544, 14.810990392385733
544.5, 14.839673560603785
545, 14.839673560603785
545.5, 14.839673560603785
546, 14.810990392385733
546.5, 14.810990392385733
547, 14.782307224167681
547.5, 14.782307224167681
548, 14.782307224167681
548.5, 14.75362405594963
549, 14.75362405594963
549.5, 14.925723065257941
550, 14.925723065257941
550.5, 14.925723065257941
551, 14.897039897039889
551.5, 14.897039897039889
552, 14.925723065257941
552.5, 14.925723065257941
553, 14.983089401694045
553.5, 15.040455738130149
554, 15.040455738130149
554.5, 15.183871579220408
555, 15.183871579220408
555.5, 15.298604252092616
556, 15.298604252092616
556.5, 15.384653756746772
557, 15.413336924964824
557.5, 15.413336924964824
558, 15.442020093182876
558.5, 15.442020093182876
559, 15.528069597837032
559.5, 15.614119102491188
560, 15.614119102491188
560.5, 15.7862181117995
561, 15.7862181117995
561.5, 15.958317121107811
562, 16.044366625761967
562.5, 16.044366625761967
563, 16.21646563507028
563.5, 16.21646563507028
564, 16.302515139724434
564.5, 16.302515139724434
565, 16.35988147616054
565.5, 16.417247812596642
566, 16.417247812596642
566.5, 16.503297317250798
567, 16.503297317250798
567.5, 16.560663653686902
568, 16.732762662995214
568.5, 16.732762662995214
569, 16.761445831213265
569.5, 16.761445831213265
570, 16.81881216764937
570.5, 16.81881216764937
571, 16.790128999431317
571.5, 16.790128999431317
572, 16.790128999431317
572.5, 16.84749533586742
573, 16.84749533586742
573.5, 16.876178504085473
574, 16.96222800873963
574.5, 16.96222800873963
575, 17.019594345175733
575.5, 17.019594345175733
576, 17.019594345175733
576.5, 17.019594345175733
577, 16.99091117695768
577.5, 17.019594345175733
578, 17.019594345175733
578.5, 17.019594345175733
579, 17.019594345175733
579.5, 17.048277513393785
580, 17.076960681611837
580.5, 17.076960681611837
581, 17.019594345175733
581.5, 17.019594345175733
582, 16.96222800873963
582.5, 16.96222800873963
583, 16.933544840521577
583.5, 16.790128999431317
584, 16.790128999431317
584.5, 16.790128999431317
585, 16.790128999431317
585.5, 16.761445831213265
586, 16.732762662995214
586.5, 16.732762662995214
587, 16.646713158341058
587.5, 16.646713158341058
588, 16.618029990123006
588.5, 16.589346821904954
589, 16.589346821904954
589.5, 16.503297317250798
590, 16.503297317250798
590.5, 16.417247812596642
591, 16.417247812596642
591.5, 16.273831971506382
592, 16.21646563507028
592.5, 16.21646563507028
593, 16.159099298634175
593.5, 16.159099298634175
594, 16.044366625761967
594.5, 15.900950784671707
595, 15.900950784671707
595.5, 15.843584448235603
596, 15.843584448235603
596.5, 15.700168607145343
597, 15.700168607145343
597.5, 15.64280227070924
598, 15.528069597837032
598.5, 15.528069597837032
599, 15.49938642961898
599.5, 15.49938642961898
600, 15.470703261400928
600.5, 15.35597058852872
601, 15.35597058852872
601.5, 15.21255474743846
602, 15.21255474743846
602.5, 15.097822074566253
603, 15.097822074566253
603.5, 15.011772569912097
604, 14.954406233475993
604.5, 14.954406233475993
605, 14.75362405594963
605.5, 14.75362405594963
606, 14.638891383077421
606.5, 14.552841878423266
607, 14.552841878423266
607.5, 14.409426037333006
608, 14.409426037333006
608.5, 14.380742869114954
609, 14.380742869114954
609.5, 14.151277523370538
610, 14.065228018716383
610.5, 14.065228018716383
611, 14.03654485049833
611.5, 14.03654485049833
612, 13.864445841190019
612.5, 13.778396336535863
613, 13.778396336535863
613.5, 13.692346831881707
614, 13.692346831881707
614.5, 13.548930990791447
615, 13.491564654355344
615.5, 13.491564654355344
616, 13.43419831791924
616.5, 13.43419831791924
617, 13.348148813265084
617.5, 13.348148813265084
618, 13.319465645047032
618.5, 13.032633962866512
619, 13.032633962866512
619.5, 13.032633962866512
620, 13.032633962866512
620.5, 12.975267626430409
621, 12.8605349535582
621.5, 12.8605349535582
622, 12.803168617122097
622.5, 12.803168617122097
623, 12.688435944249889
623.5, 12.688435944249889
624, 12.54502010315963
624.5, 12.372921093851318
625, 12.372921093851318
625.5, 12.286871589197162
626, 12.286871589197162
626.5, 12.143455748106902
627, 12.086089411670798
627.5, 12.086089411670798
628, 12.028723075234694
628.5, 12.028723075234694
629, 12.028723075234694
629.5, 12.028723075234694
630, 12.028723075234694
630.5, 11.885307234144449
631, 11.885307234144449
631.5, 11.655841888400033
632, 11.655841888400033
632.5, 11.45505971087367
633, 11.110861692257046
633.5, 11.110861692257046
634, 11.02481218760289
634.5, 11.02481218760289
635, 10.967445851166786
635.5, 10.967445851166786
636, 10.795346841858475
636.5, 10.737980505422371
637, 10.737980505422371
637.5, 10.594564664332111
638, 10.594564664332111
638.5, 10.250366645715488
639, 10.164317141061332
639.5, 10.164317141061332
640, 10.049584468189124
640.5, 10.049584468189124
641, 9.963534963534968
641.5, 9.906168627098864
642, 9.906168627098864
642.5, 9.762752786008605
643, 9.762752786008605
643.5, 9.7053864495725
644, 9.7053864495725
644.5, 9.590653776700293
645, 9.475921103828085
645.5, 9.475921103828085
646, 9.38987159917393
646.5, 9.38987159917393
647, 9.189089421647566
647.5, 9.131723085211462
648, 9.131723085211462
648.5, 8.930940907685098
649, 8.930940907685098
649.5, 8.873574571248994
650, 8.873574571248994
650.5, 8.81620823481289
651, 8.758841898376787
651.5, 8.758841898376787
652, 8.615426057286527
652.5, 8.615426057286527
653, 8.558059720850423
653.5, 8.443327047978215
654, 8.443327047978215
654.5, 8.385960711542111
655, 8.385960711542111
655.5, 8.328594375106007
656, 8.328594375106007
656.5, 8.185178534015748
657, 8.099129029361592
657.5, 8.099129029361592
658, 8.07044586114354
658.5, 8.07044586114354
659, 8.07044586114354
659.5, 8.013079524707436
660, 8.013079524707436
660.5, 7.898346851835228
661, 7.898346851835228
661.5, 7.840980515399124
662, 7.840980515399124
662.5, 7.78361417896302
663, 7.812297347181072
663.5, 7.812297347181072
664, 7.7262478425269165
664.5, 7.7262478425269165
665, 7.668881506090813
665.5, 7.554148833218605
666, 7.554148833218605
666.5, 7.554148833218605
667, 7.554148833218605
667.5, 7.582832001436657
668, 7.668881506090813
668.5, 7.668881506090813
669, 7.525465665000553
669.5, 7.525465665000553
670, 7.382049823910293
670.5, 7.382049823910293
671, 7.324683487474189
671.5, 7.095218141729774
672, 7.095218141729774
672.5, 7.095218141729774
673, 7.095218141729774
673.5, 7.18126764638393
674, 7.18126764638393
674.5, 7.18126764638393
675, 7.353366655692241
675.5, 7.353366655692241
676, 7.410732992128345
676.5, 7.410732992128345
677, 7.410732992128345
677.5, 7.439416160346397
678, 7.439416160346397
678.5, 7.439416160346397
679, 7.439416160346397
679.5, 7.410732992128345
680, 7.439416160346397
680.5, 7.439416160346397
681, 7.525465665000553
681.5, 7.525465665000553
682, 7.554148833218605
682.5, 7.554148833218605
683, 7.582832001436657
683.5, 7.582832001436657
684, 7.582832001436657
684.5, 7.525465665000553
685, 7.525465665000553
685.5, 7.468099328564449
686, 7.496782496782501
686.5, 7.496782496782501
687, 7.525465665000553
687.5, 7.525465665000553
688, 7.525465665000553
688.5, 7.525465665000553
689, 7.525465665000553
689.5, 7.525465665000553
690, 7.525465665000553
690.5, 7.554148833218605
691, 7.554148833218605
691.5, 7.640198337872761
692, 7.668881506090813
692.5, 7.668881506090813
693, 7.640198337872761
693.5, 7.640198337872761
694, 7.525465665000553
694.5, 7.496782496782501
695, 7.496782496782501
695.5, 7.582832001436657
696, 7.582832001436657
696.5, 7.611515169654709
697, 7.611515169654709
697.5, 7.611515169654709
698, 7.582832001436657
698.5, 7.582832001436657
699, 7.668881506090813
699.5, 7.668881506090813
700, 7.7549310107449685
700.5, 7.840980515399124
701, 7.840980515399124
701.5, 7.955713188271332
702, 7.955713188271332
702.5, 7.984396356489384
703, 7.984396356489384
703.5, 8.013079524707436
704, 7.984396356489384
704.5, 7.984396356489384
705, 7.984396356489384
705.5, 7.984396356489384
706, 7.898346851835228
706.5, 7.812297347181072
707, 7.812297347181072
707.5, 7.7262478425269165
708, 7.7262478425269165
708.5, 7.78361417896302
709, 7.78361417896302
709.5, 7.78361417896302
710, 7.898346851835228
710.5, 7.898346851835228
711, 7.840980515399124
711.5, 7.840980515399124
712, 7.869663683617176
712.5, 7.668881506090813
713, 7.668881506090813
713.5, 7.640198337872761
714, 7.640198337872761
714.5, 7.840980515399124
715, 7.92703002005328
715.5, 7.92703002005328
716, 7.869663683617176
716.5, 7.869663683617176
717, 7.840980515399124
717.5, 7.840980515399124
718, 7.78361417896302
718.5, 7.7262478425269165
719, 7.7262478425269165
719.5, 7.7262478425269165
720, 7.7262478425269165
720.5, 7.7549310107449685
721, 7.78361417896302
721.5, 7.78361417896302
722, 7.78361417896302
722.5, 7.78361417896302
723, 7.7549310107449685
723.5, 7.7549310107449685
724, 7.840980515399124
724.5, 7.840980515399124
725, 7.840980515399124
725.5, 7.840980515399124
726, 7.840980515399124
726.5, 7.78361417896302
727, 7.7549310107449685
727.5, 7.7549310107449685
728, 7.7549310107449685
728.5, 7.7549310107449685
729, 7.78361417896302
729.5, 7.78361417896302
730, 7.812297347181072
730.5, 7.7549310107449685
731, 7.7549310107449685
731.5, 7.7262478425269165
732, 7.7262478425269165
732.5, 7.7262478425269165
733, 7.7262478425269165
733.5, 7.7262478425269165
734, 7.697564674308865
734.5, 7.697564674308865
735, 7.668881506090813
735.5, 7.668881506090813
736, 7.7262478425269165
736.5, 7.7549310107449685
737, 7.7549310107449685
737.5, 7.697564674308865
738, 7.697564674308865
738.5, 7.611515169654709
739, 7.496782496782501
739.5, 7.496782496782501
740, 7.582832001436657
740.5, 7.582832001436657
741, 7.668881506090813
741.5, 7.7549310107449685
742, 7.7549310107449685
742.5, 7.697564674308865
743, 7.697564674308865
743.5, 7.668881506090813
744, 7.668881506090813
744.5, 7.668881506090813
745, 7.582832001436657
745.5, 7.582832001436657
746, 7.611515169654709
746.5, 7.611515169654709
747, 7.611515169654709
747.5, 7.582832001436657
748, 7.582832001436657
748.5, 7.525465665000553
749, 7.525465665000553
749.5, 7.439416160346397
750, 7.439416160346397
750.5, 7.296000319256137
751, 7.152584478165878
751.5, 7.152584478165878
752, 7.18126764638393
752.5, 7.18126764638393
753, 7.18126764638393
753.5, 7.18126764638393
754, 7.18126764638393
754.5, 7.2099508146019815
755, 7.2099508146019815
755.5, 7.2386339828200335
756, 7.2386339828200335
756.5, 7.267317151038085
757, 7.2386339828200335
757.5, 7.2386339828200335
758, 7.18126764638393
758.5, 7.18126764638393
759, 7.152584478165878
759.5, 7.152584478165878
760, 7.152584478165878
760.5, 7.18126764638393
761, 7.18126764638393
761.5, 7.2099508146019815
762, 7.2099508146019815
762.5, 7.2099508146019815
763, 7.267317151038085
763.5, 7.267317151038085
764, 7.18126764638393
764.5, 7.18126764638393
765, 7.152584478165878
765.5, 7.095218141729774
766, 7.095218141729774
766.5, 7.123901309947826
767, 7.123901309947826
767.5, 7.152584478165878
768, 7.2099508146019815
768.5, 7.2099508146019815
769, 7.2099508146019815
769.5, 7.2099508146019815
770, 7.03785180529367
770.5, 7.03785180529367
771, 6.980485468857566
771.5, 6.980485468857566
772, 6.980485468857566
772.5, 7.066534973511722
773, 7.066534973511722
773.5, 7.095218141729774
774, 7.095218141729774
774.5, 7.095218141729774
775, 7.095218141729774
775.5, 7.095218141729774
776, 7.095218141729774
776.5, 7.095218141729774
777, 6.923119132421462
777.5, 6.865752795985358
778, 6.865752795985358
778.5, 6.722336954895098
779, 6.722336954895098
779.5, 6.6936537866770465
780, 6.6936537866770465
780.5, 6.6936537866770465
781, 6.6936537866770465
781.5, 6.6936537866770465
782, 6.578921113804839
782.5, 6.578921113804839
783, 6.550237945586787
783.5, 6.406822104496527
784, 6.406822104496527
784.5, 6.492871609150683
785, 6.492871609150683
785.5, 6.521554777368735
786, 6.521554777368735
786.5, 6.521554777368735
787, 6.349455768060423
787.5, 6.349455768060423
788, 6.320772599842371
788.5, 6.062624085879904
789, 6.062624085879904
789.5, 5.947891413007696
790, 5.947891413007696
790.5, 5.804475571917436
791, 5.804475571917436
791.5, 5.661059730827176
792.0000000000002, 5.546327057954969
792.5, 5.546327057954969
793.0000000000002, 5.546327057954969
793.5, 5.546327057954969
794, 5.5750102261730206
794.5, 5.5750102261730206
795, 5.5750102261730206
795.5000000000002, 5.431594385082761
796, 5.431594385082761
796.5000000000002, 5.288178543992501
797, 5.288178543992501
797.5000000000002, 5.0873963664661375
798, 4.97266369359393
798.5, 4.97266369359393
799, 4.857931020721722
799.5, 4.857931020721722
800.0000000000002, 4.82924785250367
800.5, 4.771881516067566
801.0000000000002, 4.771881516067566
801.5, 4.599782506759254
802, 4.599782506759254
802.5, 4.341633992796787
803, 4.341633992796787
803.5000000000002, 4.255584488142631
804, 3.9974359741801635
804.5000000000002, 3.9974359741801635
805, 3.9400696377440596
805.5000000000002, 3.9400696377440596
806, 3.9974359741801635
806.5, 4.0261191423982154
807.0000000000002, 4.0261191423982154
807.5, 3.8540201330899038
808.0000000000002, 3.8540201330899038
808.5, 3.5958716191274362
809.0000000000002, 3.5958716191274362
809.5, 3.4811389462552285
810, 3.3664062733830207
810.5, 3.3664062733830207
811, 3.251673600510813
811.5000000000002, 3.251673600510813
812, 3.0508914229844493
812.5000000000002, 2.9648419183302934
813, 2.9648419183302934
813.5, 2.8501092454580856
814, 2.8501092454580856
814.5, 2.8787924136761376
815.0000000000002, 2.8214260772400337
815.5, 2.8214260772400337
816.0000000000002, 2.706693404367826
816.5, 2.706693404367826
817.0000000000002, 2.62064389971367
817.5, 2.62064389971367
818, 2.5059112268414623
818.5, 2.3051290493150987
819, 2.3051290493150987
819.5000000000002, 2.2477627128789948
820, 2.2477627128789948
820.5000000000002, 2.190396376442891
821, 2.075663703570683
821.5, 2.075663703570683
822, 1.9896141989165272
822.5, 1.9896141989165272
823.0000000000002, 1.8461983578262675
823.5, 1.8461983578262675
824.0000000000002, 2.046980535352631
824.5, 2.046980535352631
825.0000000000002, 2.046980535352631
825.5, 1.9322478624804234
826, 1.9322478624804234
826.5000000000002, 1.8175151896082156
827, 1.6740993485179558
827.5000000000002, 1.6740993485179558
828, 1.7314656849540597
828.5000000000002, 1.7314656849540597
829, 1.7314656849540597
851, 1.7027825167360078
856.5, 1.4446340027735403
857, 1.4446340027735403
857.5000000000002, 1.4446340027735403
878.5, 1.5020003392096442
879.0000000000002, 1.5020003392096442
879.5, 1.530683507427696
880, 1.5880498438638
880.5, 1.5880498438638
881, 1.5880498438638
881.5000000000002, 1.5880498438638
882, 1.7314656849540597
882.5000000000002, 1.7314656849540597
883, 1.8175151896082156
883.5000000000002, 2.018297367134579
884, 2.018297367134579
884.5, 2.018297367134579
885.0000000000002, 2.018297367134579
885.5, 2.046980535352631
886.0000000000002, 2.161713208224839
886.5, 2.161713208224839
887.0000000000002, 2.161713208224839
887.5, 2.161713208224839
888, 2.161713208224839
888.5000000000002, 2.161713208224839
889, 2.046980535352631
889.5000000000002, 1.9609310306984753
890, 1.9609310306984753
890.5000000000002, 2.046980535352631
891, 2.046980535352631
891.5, 2.104346871788735
892, 2.133030040006787
892.5, 2.133030040006787
893.0000000000002, 2.104346871788735
893.5, 2.104346871788735
894.0000000000002, 2.018297367134579
894.5, 1.9609310306984753
895.0000000000002, 1.9609310306984753
895.5, 2.104346871788735
896, 2.104346871788735
896.5000000000002, 2.219079544660943
897, 2.219079544660943
897.5000000000002, 2.3051290493150987
898, 2.3338122175331506
898.5000000000002, 2.3338122175331506
899, 2.3624953857512025
899.5, 2.3624953857512025
900, 2.649327067931722
900.5, 2.591960731495618
901.0000000000002, 2.591960731495618
901.5, 2.5345943950595142
902.0000000000002, 2.5345943950595142
902.5, 2.8214260772400337
903.0000000000002, 2.8214260772400337
903.5, 3.079574591202501
904, 3.251673600510813
904.5000000000002, 3.251673600510813
905, 3.4524557780371765
905.5000000000002, 3.4524557780371765
906, 3.5098221144732804
906.5000000000002, 3.3377231051649687
907, 3.3377231051649687
907.5, 3.4524557780371765
908.0000000000002, 3.4524557780371765
908.5, 3.624554787345488
909.0000000000002, 3.624554787345488
909.5, 3.9687528059621116
910.0000000000002, 4.399000329232891
910.5, 4.399000329232891
911, 4.5137330021050985
911.5, 4.5137330021050985
912, 4.915297357157826
912.5000000000002, 5.144762702902241
913, 5.144762702902241
913.5000000000002, 5.316861712210553
914, 5.316861712210553
914.5000000000002, 5.546327057954969
915, 5.804475571917436
915.5, 5.804475571917436
916.0000000000002, 5.919208244789644
916.5, 5.919208244789644
917.0000000000002, 5.919208244789644
917.5, 5.919208244789644
918.0000000000002, 5.689742899045228
918.5, 5.747109235481332
919, 5.747109235481332
919.5000000000002, 5.86184190835354
920, 5.86184190835354
920.5000000000002, 6.206039926970163
921, 6.406822104496527
921.5000000000002, 6.406822104496527
922, 6.521554777368735
922.5000000000002, 6.521554777368735
923, 6.6649706184589945
923.5, 6.6649706184589945
924.0000000000002, 6.923119132421462
924.5, 7.123901309947826
925.0000000000002, 7.123901309947826
925.5, 7.2386339828200335
926.0000000000002, 7.2386339828200335
926.5, 7.496782496782501
927, 7.611515169654709
927.5000000000002, 7.611515169654709
928, 7.697564674308865
928.5000000000002, 7.697564674308865
929, 7.898346851835228
929.5000000000002, 7.898346851835228
930, 8.156495365797696
930.5, 8.299911206887955
931, 8.299911206887955
931.5, 8.414643879760163
932.0000000000002, 8.414643879760163
932.5, 8.558059720850423
933.0000000000002, 8.81620823481289
933.5, 8.81620823481289
934.0000000000002, 9.10303991699341
934.5, 9.10303991699341
935, 9.361188430955877
935.5000000000002, 9.361188430955877
936, 9.561970608482241
936.5000000000002, 9.84880229066276
937, 9.84880229066276
937.5000000000002, 9.934851795316916
938, 9.934851795316916
938.5, 10.106950804625228
939.0000000000002, 10.106950804625228
939.5, 10.106950804625228
940.0000000000002, 10.27904981393354
940.5, 10.27904981393354
941.0000000000002, 10.537198327896007
941.5, 10.766663673640423
942.0000000000002, 10.766663673640423
942.5, 11.082178524038994
943, 11.082178524038994
943.5000000000002, 11.397693374437566
944, 11.397693374437566
944.5000000000002, 11.684525056618085
945, 11.885307234144449
945.5000000000002, 11.885307234144449
946, 12.11477257988885
946.5, 12.11477257988885
947.0000000000002, 12.286871589197162
947.5, 12.40160426206937
948.0000000000002, 12.40160426206937
948.5, 12.631069607813785
949.0000000000002, 12.631069607813785
949.5, 13.14736663573872
950, 13.14736663573872
950.5, 13.29078247682898
951, 13.376831981483136
951.5000000000002, 13.376831981483136
952, 13.520247822573396
952.5000000000002, 13.520247822573396
953, 13.778396336535863
953.5000000000002, 13.89312900940807
954, 13.89312900940807
954.5, 14.17996069158859
955.0000000000002, 14.17996069158859
955.5, 14.237327028024694
956.0000000000002, 14.237327028024694
956.5, 14.495475541987162
957.0000000000002, 14.724940887731577
957.5, 14.724940887731577
958, 14.954406233475993
958.5000000000002, 14.954406233475993
959, 15.155188411002356
959.5000000000002, 15.298604252092616
960, 15.298604252092616
960.5000000000002, 15.585435934273136
961, 15.585435934273136
961.5000000000002, 15.728851775363395
962, 15.728851775363395
962.5, 15.872267616453655
963.0000000000002, 16.044366625761967
963.5, 16.044366625761967
964.0000000000002, 16.273831971506382
964.5, 16.273831971506382
965.0000000000002, 16.331198307942486
965.5, 16.503297317250798
966, 16.503297317250798
966.5000000000002, 16.618029990123006
967, 16.618029990123006
967.5000000000002, 16.761445831213265
968, 16.933544840521577
968.5000000000002, 16.933544840521577
969, 17.13432701804794
969.5, 17.13432701804794
970.0000000000002, 17.335109195574304
970.5, 17.335109195574304
971.0000000000002, 17.621940877754824
971.5, 17.88008939171729
972.0000000000002, 17.88008939171729
972.5, 17.937455728153395
973.0000000000002, 17.937455728153395
973.5, 18.02350523280755
974, 18.13823790567976
974.5000000000002, 18.13823790567976
975, 18.367703251424174
975.5000000000002, 18.367703251424174
976, 18.654534933604694
976.5000000000002, 18.654534933604694
977, 18.970049784003265
977.5, 19.17083196152963
978.0000000000002, 19.17083196152963
978.5, 19.543713148364304
979.0000000000002, 19.543713148364304
979.5, 19.830544830544824
980.0000000000002, 19.94527750341703
980.5, 19.94527750341703
981.0000000000002, 20.031327008071187
981.5, 20.031327008071187
982, 20.06001017628924
982.5000000000002, 20.06001017628924
983, 20.06001017628924
983.5000000000002, 19.94527750341703
984, 19.94527750341703
984.5000000000002, 19.973960671635083
985, 19.973960671635083
985.5, 20.174742849161447
986.0000000000002, 20.23210918559755
986.5, 20.23210918559755
987.0000000000002, 20.719723045304434
987.5, 20.719723045304434
988.0000000000002, 20.891822054612746
988.5, 20.891822054612746
989.0000000000002, 20.834455718176642
989.5000000000002, 20.80577254995859
990, 20.80577254995859
990.5000000000002, 20.80577254995859
991, 20.80577254995859
991.5000000000002, 20.94918839104885
992, 21.09260423213911
992.5000000000002, 21.09260423213911
993, 21.207336905011317
993.5, 21.207336905011317
994.0000000000002, 21.350752746101577
994.5, 21.465485418973785
995.0000000000002, 21.465485418973785
995.5, 21.809683437590408
996.0000000000002, 21.809683437590408
996.5, 21.924416110462616
997, 21.924416110462616
997.5000000000002, 22.211247792643135
998, 22.239930960861187
998.5000000000002, 22.239930960861187
999, 22.096515119770928
999.5000000000002, 22.096515119770928
1000, 22.182564624425083
1000.5000000000002, 22.325980465515343
1001.0000000000002, 22.325980465515343
1001.5, 22.87096066165833
1002.0000000000002, 22.87096066165833
1002.5, 22.928326998094434
1003.0000000000002, 22.928326998094434
1003.5, 23.01437650274859
1004.0000000000002, 22.899643829876382
1004.5, 22.899643829876382
1005, 23.04305967096664
1005.5000000000002, 23.04305967096664
1006, 23.272525016711057
1006.5000000000002, 23.215158680274953
1007, 23.215158680274953
1007.5000000000002, 23.1864755120569
1008, 23.1864755120569
1008.5000000000002, 23.32989135314716
1009.0000000000002, 23.32989135314716
1009.5, 23.674089371763785
1010.0000000000002, 23.788822044635992
1010.5, 23.788822044635992
1011.0000000000002, 24.19038639968872
1011.5, 24.19038639968872
1012.0000000000002, 24.104336895034564
1012.5, 24.075653726816512
1013, 24.075653726816512
1013.5000000000002, 24.104336895034564
1014, 24.104336895034564
1014.5000000000002, 24.21906956790677
1015, 24.563267586523395
1015.5000000000002, 24.563267586523395
1016, 24.90746560514002
1016.5, 24.90746560514002
1017.0000000000002, 24.993515109794174
1017.5, 24.993515109794174
1018.0000000000002, 25.194297287320538
1018.5, 25.337713128410797
1019.0000000000002, 25.337713128410797
1019.5, 25.423762633064953
1020.0000000000002, 25.423762633064953
1020.5000000000002, 25.53849530593716
1021, 25.739277483463525
1021.5000000000002, 25.739277483463525
1022, 25.79664381989963
1022.5000000000002, 25.79664381989963
1023, 26.054792333862096
1023.5000000000002, 26.054792333862096
1024, 26.370307184260668
1024.5, 26.513723025350927
1025.0000000000002, 26.513723025350927
1025.5, 26.370307184260668
1026.0000000000002, 26.370307184260668
1026.5, 26.39899035247872
1027.0000000000002, 26.800554707531447
1027.5, 26.800554707531447
1028.0000000000002, 27.058703221493914
1028.5000000000002, 27.058703221493914
1029, 27.259485399020278
1029.5000000000002, 27.259485399020278
1030, 27.28816856723833
1030.5000000000002, 27.316851735456382
1031, 27.316851735456382
1031.5000000000002, 27.345534903674434
1032.0000000000002, 27.345534903674434
1032.5, 27.804465595163265
1033.0000000000002, 27.947881436253525
1033.5, 27.947881436253525
1034.0000000000002, 28.062614109125732
1034.5, 28.062614109125732
1035.0000000000002, 28.091297277343784
1035.5, 28.091297277343784
1036, 28.14866361377989
1036.5000000000002, 28.378128959524304
1037, 28.378128959524304
1037.5000000000002, 28.60759430526872
1038, 28.60759430526872
1038.5000000000002, 28.693643809922875
1039, 28.951792323885343
1039.5000000000002, 28.951792323885343
1040.0000000000002, 29.06652499675755
1040.5, 29.06652499675755
1041.0000000000002, 29.06652499675755
1041.5, 29.8122873704269
1042.0000000000002, 29.8122873704269
1042.5, 29.869653706863005
1043.0000000000002, 29.869653706863005
1043.5, 29.52545568824638
1044, 29.52545568824638
1044.5000000000002, 29.554138856464434
1045, 30.644099248750408
1045.5000000000002, 30.644099248750408
1046, 29.984386379735213
1046.5000000000002, 29.984386379735213
1047, 30.21385172547963
1047.5000000000002, 30.271218061915732
1048.0000000000002, 30.271218061915732
1048.5, 30.357267566569888
1049.0000000000002, 30.357267566569888
1049.5, 30.414633903005992
1050.0000000000002, 30.414633903005992
1050.5, 30.615416080532356
1051.0000000000002, 30.787515089840667
1051.5000000000002, 30.787515089840667
1052, 30.787515089840667
1052.5000000000002, 30.787515089840667
1053, 30.615416080532356
1053.5000000000002, 30.615416080532356
1054, 30.615416080532356
1054.5000000000002, 30.644099248750408
1055, 30.644099248750408
1055.5, 30.84488142627677
1056.0000000000002, 30.84488142627677
1056.5, 30.873564594494823
1057.0000000000002, 30.758831921622615
1057.5, 30.758831921622615
1058.0000000000002, 30.615416080532356
1058.5, 30.615416080532356
1059.0000000000002, 30.55804974409625
1059.5000000000002, 30.758831921622615
1060, 30.758831921622615
1060.5000000000002, 30.758831921622615
1061, 30.758831921622615
1061.5000000000002, 30.758831921622615
1062, 30.758831921622615
1062.5000000000002, 30.84488142627677
1063.0000000000002, 31.074346772021187
1063.5, 31.074346772021187
1064.0000000000002, 31.2464457813295
1064.5, 31.2464457813295
1065.0000000000002, 31.13171310845729
1065.5, 30.930930930930927
1066.0000000000002, 30.930930930930927
1066.5, 30.84488142627677
1067.0000000000002, 30.84488142627677
1067.5000000000002, 30.902247762712875
1068, 30.95961409914898
1068.5000000000002, 30.95961409914898
1069, 31.160396276675343
1069.5000000000002, 31.160396276675343
1070, 31.10302994023924
1070.5000000000002, 31.10302994023924
1071.0000000000002, 30.98829726736703
1071.5, 30.95961409914898
1072.0000000000002, 30.95961409914898
1072.5, 30.95961409914898
1073.0000000000002, 30.95961409914898
1073.5, 30.95961409914898
1074.0000000000002, 30.930930930930927
1074.5, 30.930930930930927
1075, 30.902247762712875
1075.5000000000002, 30.902247762712875
1076, 30.70146558518651
1076.5000000000002, 30.70146558518651
1077, 30.5293665758782
1077.5000000000002, 30.38595073478794
1078, 30.38595073478794
1078.5000000000002, 30.38595073478794
1079.0000000000002, 30.38595073478794
1079.5, 30.443317071224044
1080.0000000000002, 30.500683407660148
1080.5, 30.500683407660148
1081.0000000000002, 30.443317071224044
1081.5, 30.443317071224044
1082.0000000000002, 30.500683407660148
1082.5000000000002, 30.500683407660148
1083, 30.500683407660148
1083.5000000000002, 30.328584398351836
1084, 30.328584398351836
1084.5000000000002, 30.013069547953265
1085, 30.013069547953265
1085.5000000000002, 29.8122873704269
1086, 29.869653706863005
1086.5000000000002, 29.869653706863005
1087.0000000000002, 29.984386379735213
1087.5, 29.984386379735213
1088.0000000000002, 29.238624006065862
1088.5, 29.238624006065862
1089.0000000000002, 29.095208164975602
1089.5, 28.951792323885343
1090.0000000000002, 28.951792323885343
1090.5000000000002, 28.49286163239651
1091, 28.49286163239651
1091.5000000000002, 28.435495295960408
1092, 28.693643809922875
1092.5000000000002, 28.693643809922875
1093, 28.664960641704823
1093.5000000000002, 28.664960641704823
1094, 28.521544800614564
1094.5, 28.17734678199794
1095.0000000000002, 28.17734678199794
1095.5, 27.833148763381317
1096.0000000000002, 27.833148763381317
1096.5, 27.546317081200797
1097.0000000000002, 27.546317081200797
1097.5, 27.316851735456382
1098.0000000000002, 27.259485399020278
1098.5000000000002, 27.259485399020278
1099, 27.14475272614807
1099.5000000000002, 27.14475272614807
1100, 27.230802230802226
1100.5000000000002, 27.316851735456382
1101, 27.316851735456382
1101.5000000000002, 27.259485399020278
1102.0000000000002, 27.259485399020278
1102.5, 27.116069557930018
1103.0000000000002, 27.116069557930018
1103.5, 26.54240619356898
1104.0000000000002, 26.341624016042616
1104.5, 26.341624016042616
1105.0000000000002, 26.370307184260668
1105.5, 26.370307184260668
1106.0000000000002, 26.42767352069677
1106.5000000000002, 26.226891343170408
1107, 26.226891343170408
1107.5000000000002, 25.739277483463525
1108, 25.739277483463525
1108.5000000000002, 25.25166362375664
1109, 25.25166362375664
1109.5000000000002, 24.993515109794174
1110.0000000000002, 24.591950754741447
1110.5, 24.591950754741447
1111.0000000000002, 24.591950754741447
1111.5, 24.591950754741447
1112.0000000000002, 24.563267586523395
1112.5, 24.448534913651187
1113.0000000000002, 24.448534913651187
1113.5000000000002, 24.19038639968872
1114, 24.19038639968872
1114.5000000000002, 23.874871549290148
1115, 23.874871549290148
1115.5000000000002, 23.559356698891577
1116, 23.989604222162356
1116, 22.039148783334824
1116.5000000000002, 23.989604222162356
1116.5000000000002, 22.039148783334824
1117, 23.702772539981837
1117.5000000000002, 23.702772539981837
1118.0000000000002, 22.58412897947781
1118.5, 22.69886165235002
1119.0000000000002, 22.69886165235002
1119.5, 22.784911157004174
1120.0000000000002, 22.784911157004174
1120.5, 22.325980465515343
1121.0000000000002, 22.039148783334824
1121.5000000000002, 22.039148783334824
1122, 21.608901260064044
1122.5000000000002, 21.608901260064044
1123, 22.26861412907924
1123, 20.318158690251707
1123.5000000000002, 22.26861412907924
1123.5000000000002, 20.318158690251707
1124, 20.691039877086382
1124.5000000000002, 20.174742849161447
1125, 20.174742849161447
1125.5000000000002, 20.23210918559755
1126.0000000000002, 20.23210918559755
1126.5, 20.318158690251707
1127.0000000000002, 21.23602007322937
1127.0000000000002, 19.31424780261989
1127.5, 21.23602007322937
1127.5, 19.31424780261989
1128.0000000000002, 21.178653736793265
1128.0000000000002, 19.02741612043937
1128.5, 21.178653736793265
1128.5, 19.02741612043937
1129.0000000000002, 19.256881466183785
1129.5000000000002, 19.256881466183785
1130, 18.74058443825885
1130.5000000000002, 18.31033691498807
1131, 18.31033691498807
1131.5000000000002, 17.9948220645895
1132, 17.9948220645895
1132.5000000000002, 17.88008939171729
1133.0000000000002, 17.85140622349924
1133.5, 17.85140622349924
1134.0000000000002, 17.822723055281187
1134.5, 17.822723055281187
1135.0000000000002, 17.478525036664564
1135.5, 17.478525036664564
1136.0000000000002, 17.39247553201041
1136.5, 17.306426027356252
1137.0000000000002, 17.306426027356252
1137.5000000000002, 17.019594345175733
1138, 17.019594345175733
1138.5000000000002, 16.904861672303525
1139, 16.618029990123006
1139.5000000000002, 16.618029990123006
1140, 16.331198307942486
1140.5000000000002, 16.331198307942486
1141.0000000000002, 15.987000289325863
1141.5, 15.843584448235603
1142.0000000000002, 15.843584448235603
1142.5, 15.49938642961898
1143.0000000000002, 15.49938642961898
1143.5, 15.183871579220408
1144.0000000000002, 15.183871579220408
1144.5000000000002, 15.155188411002356
1145.0000000000002, 14.667574551295473
1145.5000000000002, 14.667574551295473
1146, 14.552841878423266
1146.5000000000002, 14.552841878423266
1147, 14.495475541987162
1147.5000000000002, 14.380742869114954
1148, 14.380742869114954
1148.5000000000002, 14.208643859806642
1149.0000000000002, 14.208643859806642
1149.5, 14.007861682280279
1150.0000000000002, 14.007861682280279
1150.5, 13.548930990791447
1151.0000000000002, 13.520247822573396
1151.5, 13.520247822573396
1152.0000000000002, 13.376831981483136
1152.5000000000002, 13.376831981483136
1153, 13.233416140392876
1153.5000000000002, 12.946584458212357
1154, 12.946584458212357
1154.5000000000002, 12.516336934941577
1155, 12.516336934941577
1155.5000000000002, 12.11477257988885
1156.0000000000002, 12.11477257988885
1156.5000000000002, 11.97135673879859
1157, 11.45505971087367
1157.5, 11.45505971087367
1158.0000000000002, 11.282960701565358
1158.5000000000002, 11.282960701565358
1159, 11.053495355820942
1159.5, 11.02481218760289
1160.0000000000002, 11.02481218760289
1160.5000000000002, 10.88139634651263
1161.0000000000002, 10.88139634651263
1161.5, 10.623247832550163
1162, 10.623247832550163
1162.5000000000002, 10.393782486805748
1163.0000000000002, 10.221683477497436
1163.5, 10.221683477497436
1164, 9.877485458880813
1164.5000000000002, 9.877485458880813
1165.0000000000002, 9.762752786008605
1165.5000000000002, 9.447237935610033
1166, 9.447237935610033
1166.5, 9.275138926301722
1167.0000000000002, 9.275138926301722
1167.5000000000002, 9.217772589865618
1168.0000000000002, 8.95962407590315
1168.5, 8.95962407590315
1169, 8.615426057286527
1169.5000000000002, 8.615426057286527
1170.0000000000002, 8.414643879760163
1170.5, 8.414643879760163
1171, 8.299911206887955
1171.5000000000002, 8.185178534015748
1172.0000000000002, 8.185178534015748
1172.5000000000002, 7.78361417896302
1173, 7.78361417896302
1173.5, 7.812297347181072
1174.0000000000002, 7.582832001436657
1174.5000000000002, 7.582832001436657
1175, 7.410732992128345
1175.5, 7.410732992128345
1176.0000000000002, 7.2099508146019815
1176.5000000000002, 7.2099508146019815
1177.0000000000002, 6.865752795985358
1177.5, 6.578921113804839
1178, 6.578921113804839
1178.5000000000002, 6.492871609150683
1179.0000000000002, 6.492871609150683
1179.5000000000002, 6.206039926970163
1180, 5.919208244789644
1180.5, 5.919208244789644
1181.0000000000002, 5.804475571917436
1181.5000000000002, 5.804475571917436
1182, 5.6323765626091244
1182.5, 5.6323765626091244
1183.0000000000002, 5.517643889736917
1183.5000000000002, 5.374228048646657
1184.0000000000002, 5.374228048646657
1184.5, 5.0587131982480855
1185, 5.0587131982480855
1185.5000000000002, 4.943980525375878
1186.0000000000002, 4.82924785250367
1186.5, 4.82924785250367
1187, 4.771881516067566
1187.5000000000002, 4.771881516067566
1188.0000000000002, 4.743198347849514
1188.5000000000002, 4.743198347849514
1189, 4.68583201141341
1189.5, 4.226901319924579
1190.0000000000002, 4.226901319924579
1190.5000000000002, 3.9113864695260077
1191.0000000000002, 3.9113864695260077
1191.5, 3.65323795556354
1192, 3.5958716191274362
1192.5000000000002, 3.5958716191274362
1193.0000000000002, 3.4811389462552285
1193.5, 3.4811389462552285
1194, 2.76405974080393
1194, 1.7601488531721117
1194.5000000000002, 2.8214260772400337
1194.5000000000002, 1.7888320213901636
1195.0000000000002, 2.8214260772400337
1195.0000000000002, 1.7888320213901636
1195.5000000000002, 3.3950894416010726
1195.5000000000002, 1.9035646942623714
1196, 3.3950894416010726
1196, 1.9035646942623714
1196.5, 3.5098221144732804
1196.5, 1.9035646942623714
1197.0000000000002, 3.5098221144732804
1197.0000000000002, 1.9035646942623714
1197.5000000000002, 3.4237726098191246
1197.5000000000002, 1.9035646942623714
1198, 2.563277563277566
1198.5, 2.563277563277566
1199.0000000000002, 2.5345943950595142
1199.5000000000002, 2.5345943950595142
1200.0000000000002, 2.62064389971367
1200.5, 2.8501092454580856
1201, 2.8501092454580856
1201.5000000000002, 2.735376572585878
1202.0000000000002, 2.735376572585878
1202.5, 2.76405974080393
1203, 2.76405974080393
1203.5000000000002, 2.4198617221873064
1204.0000000000002, 2.133030040006787
1204.5000000000002, 2.133030040006787
1205, 1.9035646942623714
1205.5, 1.9035646942623714
1206.0000000000002, 1.7314656849540597
1206.5000000000002, 1.9035646942623714
1207.0000000000002, 1.9035646942623714
1207.5, 2.2477627128789948
1208, 2.2477627128789948
1208.5000000000002, 2.2477627128789948
1209.0000000000002, 2.2477627128789948
1209.5, 2.2764458810970467
1210, 2.161713208224839
1210.5000000000002, 2.161713208224839
1211.0000000000002, 2.018297367134579
1211.5000000000002, 2.018297367134579
1212, 1.7314656849540597
1212.5, 1.5020003392096442
1213.0000000000002, 1.5020003392096442
1213.5000000000002, 1.4733171709915922
1214, 1.4733171709915922
1215.5000000000002, 1.4733171709915922
1216.0000000000002, 1.4733171709915922
1216.5, 1.4733171709915922
1218.0000000000002, 1.530683507427696
1218.5000000000002, 1.559366675645748
1219, 1.559366675645748
1219.5, 1.5020003392096442
1220.0000000000002, 1.5020003392096442
1220.5000000000002, 1.2151686570291247
1221, 1.2151686570291247
1221.5, 1.2151686570291247
1225.5, 1.2151686570291247
1226, 1.2151686570291247
1226.5000000000002, 1.5880498438638
1227.0000000000002, 1.3872676663374364
1227.5000000000002, 1.3872676663374364
1247.5000000000002, 1.3585844981193844
1248.0000000000002, 1.3585844981193844
1248.5, 1.559366675645748
1249, 1.559366675645748
1249.5000000000002, 1.7027825167360078
1250.0000000000002, 1.7027825167360078
1250.5000000000002, 1.559366675645748
1251, 1.3585844981193844
1251.5, 1.3585844981193844
1252.0000000000002, 1.2151686570291247
1252.5000000000002, 1.2151686570291247
1314.5000000000002, 1.1291191523749688
1315, 1.1291191523749688
1315.5, 1.3585844981193844
1323, 1.3012181616832805
1323.5000000000002, 1.3012181616832805
1324.0000000000002, 1.2151686570291247
1324.5, 1.5880498438638
1325, 1.5880498438638
1325.5, 1.616733012081852
1326.0000000000002, 1.616733012081852
1326.5, 1.8748815260443195
1327, 1.5020003392096442
1327.5, 1.5020003392096442
1328, 1.071752815938865
1328.5000000000002, 1.071752815938865
1336.5, 1.4733171709915922
1337, 1.4733171709915922
1337.5000000000002, 1.5020003392096442
1338, 1.5020003392096442
1338.5, 1.530683507427696
1339, 1.4446340027735403
1339.5000000000002, 1.4446340027735403
1342.5000000000002, 1.3299013299013325
1343, 1.3299013299013325
1343.5, 1.3299013299013325
1344, 1.3299013299013325
1346, 1.4733171709915922
1346.5000000000002, 1.4733171709915922
1347.0000000000002, 1.6740993485179558
1347.5, 1.2438518252471766
1348, 1.2438518252471766
1348.5, 1.1578023205930208
1349.0000000000002, 1.1578023205930208
1353, 1.1578023205930208
1353.5000000000002, 1.1864854888110727
1354.0000000000002, 1.1864854888110727
1354.5, 1.1291191523749688
1355, 1.1291191523749688
1359, 1.1864854888110727
1359.5, 1.1864854888110727
1360, 1.1864854888110727
1363.0000000000002, 1.4733171709915922
1363.5, 1.4733171709915922
1364, 1.4446340027735403
1364.5, 1.4446340027735403
1365.0000000000002, 1.3872676663374364
1365.5, 1.3012181616832805
1366, 1.3012181616832805
1366.5, 1.3012181616832805
1367, 1.3012181616832805
1369, 1.3872676663374364
1369.5000000000002, 1.3872676663374364
1370.0000000000002, 1.4733171709915922
1370.5, 1.4733171709915922
1371, 1.1864854888110727
1374.0000000000002, 1.5020003392096442
1374.5000000000002, 1.5020003392096442
1375, 1.7601488531721117
1375.5, 1.7601488531721117
1376, 1.7601488531721117
1376.5000000000002, 1.7601488531721117
1377, 1.616733012081852
1377.5, 1.3299013299013325
1378, 1.3299013299013325
1388.0000000000002, 1.3872676663374364
1388.5, 1.3872676663374364
1389, 1.559366675645748
1389.5, 1.5880498438638
1390.0000000000002, 1.5880498438638
1390.5000000000002, 1.7314656849540597
1391, 1.7314656849540597
1394, 1.7314656849540597
1394.5, 1.7601488531721117
1395.0000000000002, 1.7601488531721117
1395.5, 1.7888320213901636
1396, 1.7888320213901636
1396.5, 2.161713208224839
1397.0000000000002, 2.161713208224839
1397.5000000000002, 2.161713208224839
867.5615212527964, 1.0510510510510471
873.5272184936614, 1.3513513513513402
842.2073079791201, 1.5515515515515403
851.1558538404176, 1.2512512512512473
861.5958240119314, 1.0510510510510471
834.7501864280389, 1.4514514514514474
843.6987322893362, 1.2512512512512473
848.173005219985, 1.2512512512512473
1274.7203579418344, 1.0510510510510471
1262.7889634601045, 0.8508508508508328
1232.9604772557793, 0.7507507507507398
1240.4175988068607, 1.0510510510510471
1295.600298284862, 0.95095095095094
1306.0402684563758, 1.0510510510510471
1286.6517524235646, 1.0510510510510471
