300, 17.424550096871485
300.5, 17.424550096871485
301, 17.424550096871485
301.5, 17.48197391460664
302, 17.48197391460664
302.5, 17.51068582347419
303, 17.51068582347419
303.5, 17.539397732341754
304, 17.539397732341754
304.5, 17.596821550076896
305, 17.625533458944474
305.5, 17.625533458944474
306, 17.654245367812038
306.5, 17.654245367812038
307, 17.682957276679602
307.5, 17.682957276679602
308, 17.740381094414744
308.5, 17.740381094414744
309, 17.740381094414744
309.5, 17.7978049121499
310, 17.7978049121499
310.5, 17.82651682101745
311, 17.82651682101745
311.5, 17.88394063875259
312, 17.88394063875259
312.5, 17.912652547620155
313, 17.970076365355297
313.5, 17.970076365355297
314, 17.99878827422286
314.5, 17.99878827422286
315, 18.027500183090453
315.5, 18.027500183090453
316, 18.056212091958002
316.5, 18.056212091958002
317, 18.113635909693144
317.5, 18.171059727428286
318, 18.171059727428286
318.5, 18.228483545163414
319, 18.228483545163414
319.5, 18.285907362898556
320, 18.285907362898556
320.5, 18.31461927176612
321, 18.31461927176612
321.5, 18.34333118063371
322, 18.37204308950126
322.5, 18.37204308950126
323, 18.37204308950126
323.5, 18.37204308950126
324, 18.458178816103967
324.5, 18.458178816103967
325, 18.458178816103967
325.5, 18.51560263383911
326, 18.51560263383911
326.5, 18.573026451574265
327, 18.573026451574265
327.5, 18.601738360441814
328, 18.601738360441814
328.5, 18.630450269309378
329, 18.630450269309378
329.5, 18.68787408704452
330, 18.74529790477966
330.5, 18.74529790477966
331, 18.74529790477966
331.5, 18.74529790477966
332, 18.802721722514818
332.5, 18.802721722514818
333, 18.86014554024993
333.5, 18.86014554024993
334, 18.917569357985073
334.5, 18.917569357985073
335, 18.917569357985073
335.5, 18.974993175720215
336, 18.974993175720215
336.5, 19.032416993455357
337, 19.032416993455357
337.5, 19.089840811190484
338, 19.147264628925626
338.5, 19.147264628925626
339, 19.204688446660782
339.5, 19.204688446660782
340, 19.262112264395896
340.5, 19.262112264395896
341, 19.319536082131037
341.5, 19.319536082131037
342, 19.319536082131037
342.5, 19.405671808733743
343, 19.405671808733743
343.5, 19.434383717601335
344, 19.434383717601335
344.5, 19.49180753533645
345, 19.49180753533645
345.5, 19.54923135307159
346, 19.54923135307159
346.5, 19.606655170806732
347, 19.635367079674296
347.5, 19.635367079674296
348, 19.692790897409438
348.5, 19.692790897409438
349, 19.721502806277
349.5, 19.721502806277
350, 19.778926624012144
350.5, 19.778926624012144
351, 19.836350441747285
351.5, 19.893774259482427
352, 19.893774259482427
352.5, 19.979909986085147
353, 19.979909986085147
353.5, 20.008621894952697
354, 20.008621894952697
354.5, 20.06604571268784
355, 20.12346953042298
355.5, 20.12346953042298
356, 20.152181439290544
356.5, 20.152181439290544
357, 20.2096052570257
357.5, 20.2096052570257
358, 20.267029074760814
358.5, 20.267029074760814
359, 20.295740983628406
359.5, 20.381876710231097
360, 20.381876710231097
360.5, 20.43930052796624
361, 20.43930052796624
361.5, 20.496724345701367
362, 20.496724345701367
362.5, 20.52543625456896
363, 20.52543625456896
363.5, 20.55414816343651
364, 20.640283890039214
364.5, 20.640283890039214
365, 20.697707707774356
365.5, 20.697707707774356
366, 20.78384343437706
366.5, 20.78384343437706
367, 20.841267252112218
367.5, 20.92740297871491
368, 20.92740297871491
368.5, 20.98482679645005
369, 20.98482679645005
369.5, 21.07096252305277
370, 21.07096252305277
370.5, 21.128386340787884
371, 21.128386340787884
371.5, 21.185810158523026
372, 21.243233976258168
372.5, 21.243233976258168
373, 21.27194588512573
373.5, 21.27194588512573
374, 21.329369702860873
374.5, 21.329369702860873
375, 21.41550542946358
375.5, 21.41550542946358
376, 21.47292924719872
376.5, 21.559064973801426
377, 21.559064973801426
377.5, 21.58777688266899
378, 21.58777688266899
378.5, 21.673912609271696
379, 21.673912609271696
379.5, 21.731336427006838
380, 21.78876024474198
380.5, 21.78876024474198
381, 21.84618406247712
381.5, 21.84618406247712
382, 21.93231978907984
382.5, 21.93231978907984
383, 22.018455515682547
383.5, 22.018455515682547
384, 22.133303151152802
384.5, 22.190726968887944
385, 22.190726968887944
385.5, 22.27686269549065
386, 22.27686269549065
386.5, 22.305574604358213
387, 22.305574604358213
387.5, 22.33428651322579
388, 22.33428651322579
388.5, 22.420422239828497
389, 22.535269875298766
389.5, 22.535269875298766
390, 22.592693693033908
390.5, 22.592693693033908
391, 22.678829419636614
391.5, 22.678829419636614
392, 22.79367705510691
392.5, 22.79367705510691
393, 22.851100872842025
393.5, 22.93723659944473
394, 22.93723659944473
394.5, 22.96594850831231
395, 22.96594850831231
395.5, 23.052084234915014
396, 23.052084234915014
396.5, 23.13821996151772
397, 23.224355688120426
397.5, 23.224355688120426
398, 23.31049141472313
398.5, 23.31049141472313
399, 23.396627141325837
399.5, 23.396627141325837
400, 23.482762867928543
400.5, 23.482762867928543
401, 23.568898594531262
401.5, 23.62632241226639
402, 23.62632241226639
402.5, 23.712458138869096
403, 23.712458138869096
403.5, 23.769881956604237
404, 23.769881956604237
404.5, 23.884729592074535
405, 23.884729592074535
405.5, 23.94215340980965
406, 24.028289136412354
406.5, 24.028289136412354
407, 24.143136771882638
407.5, 24.143136771882638
408, 24.200560589617794
408.5, 24.200560589617794
409, 24.2866963162205
409.5, 24.344120133955613
410, 24.344120133955613
410.5, 24.48767967829346
411, 24.48767967829346
411.5, 24.545103496028602
412, 24.545103496028602
412.5, 24.659951131498886
413, 24.659951131498886
413.5, 24.746086858101606
414, 24.86093449357186
414.5, 24.86093449357186
415, 24.947070220174567
415.5, 24.947070220174567
416, 25.061917855644865
416.5, 25.061917855644865
417, 25.119341673379978
417.5, 25.119341673379978
418, 25.205477399982698
418.5, 25.291613126585418
419, 25.291613126585418
419.5, 25.406460762055673
420, 25.406460762055673
420.5, 25.49259648865838
421, 25.49259648865838
421.5, 25.607444124128676
422, 25.607444124128676
422.5, 25.693579850731382
423, 25.779715577334073
423.5, 25.779715577334073
424, 25.86585130393678
424.5, 25.86585130393678
425, 26.009410848274626
425.5, 26.009410848274626
426, 26.124258483744896
426.5, 26.2103942103476
427, 26.2103942103476
427.5, 26.325241845817885
428, 26.325241845817885
428.5, 26.468801390155747
429, 26.468801390155747
429.5, 26.583649025626002
430, 26.583649025626002
430.5, 26.6984966610963
431, 26.813344296566555
431.5, 26.813344296566555
432, 26.985615749771966
432.5, 26.985615749771966
433, 27.071751476374672
433.5, 27.071751476374672
434, 27.21531102071252
434.5, 27.21531102071252
435, 27.358870565050367
435.5, 27.502430109388214
436, 27.502430109388214
436.5, 27.58856583599092
437, 27.58856583599092
437.5, 27.732125380328768
438, 27.732125380328768
438.5, 27.87568492466663
439, 27.96182065126932
439.5, 27.96182065126932
440, 28.07666828673959
440.5, 28.07666828673959
441, 28.191515922209888
441.5, 28.191515922209888
442, 28.27765164881258
442.5, 28.27765164881258
443, 28.39249928428285
443.5, 28.42121119315044
444, 28.42121119315044
444.5, 28.56477073748826
445, 28.56477073748826
445.5, 28.82317791729639
446, 28.82317791729639
446.5, 28.93802555276666
447, 28.93802555276666
447.5, 29.024161279369366
448, 29.167720823707214
448.5, 29.167720823707214
449, 29.28256845917751
449.5, 29.28256845917751
450, 29.368704185780203
450.5, 29.368704185780203
451, 29.51226373011805
451.5, 29.655823274455884
452, 29.655823274455884
452.5, 29.79938281879373
453, 29.79938281879373
453.5, 29.885518545396437
454, 29.885518545396437
454.5, 29.94294236313158
455, 29.94294236313158
455.5, 30.086501907469426
456, 30.17263763407213
456.5, 30.17263763407213
457, 30.2874852695424
457.5, 30.2874852695424
458, 30.373620996145135
458.5, 30.373620996145135
459, 30.48846863161539
459.5, 30.48846863161539
460, 30.632028175953238
460.5, 30.689451993688394
461, 30.689451993688394
461.5, 30.718163902555943
462, 30.718163902555943
462.5, 30.890435355761355
463, 30.890435355761355
463.5, 31.062706808966766
464, 31.062706808966766
464.5, 31.148842535569486
465, 31.263690171039755
465.5, 31.263690171039755
466, 31.34982589764246
466.5, 31.34982589764246
467, 31.464673533112745
467.5, 31.464673533112745
468, 31.550809259715464
468.5, 31.636944986318156
469, 31.636944986318156
469.5, 31.83792834839113
470, 31.83792834839113
470.5, 31.952775983861414
471, 31.952775983861414
471.5, 32.067623619331684
472, 32.067623619331684
472.5, 32.239895072537095
473, 32.38345461687494
473.5, 32.38345461687494
474, 32.440878434610084
474.5, 32.440878434610084
475, 32.55572607008037
475.5, 32.55572607008037
476, 32.6992856144182
476.5, 32.6992856144182
477, 32.87155706762363
477.5, 32.95769279422635
478, 32.95769279422635
478.5, 33.04382852082904
479, 33.04382852082904
479.5, 33.187388065166886
480, 33.187388065166886
480.5, 33.302235700637155
481, 33.38837142723986
481.5, 33.38837142723986
482, 33.50321906271016
482.5, 33.50321906271016
483, 33.56064288044527
483.5, 33.56064288044527
484, 33.675490515915556
484.5, 33.675490515915556
485, 33.7329143336507
485.5, 33.81905006025342
486, 33.81905006025342
486.5, 33.93389769572367
487, 33.93389769572367
487.5, 33.962609604591236
488, 33.962609604591236
488.5, 33.991321513458814
489, 33.991321513458814
489.5, 34.07745724006152
490, 34.134881057796676
490.5, 34.134881057796676
491, 34.163592966664226
491.5, 34.163592966664226
492, 34.19230487553179
492.5, 34.19230487553179
493, 34.27844060213451
493.5, 34.30715251100207
494, 34.30715251100207
494.5, 34.27844060213451
495, 34.27844060213451
495.5, 34.22101678439937
496, 34.22101678439937
496.5, 34.163592966664226
497, 34.163592966664226
497.5, 34.134881057796676
498, 34.106169148929084
498.5, 34.106169148929084
499, 33.991321513458814
499.5, 33.991321513458814
500, 33.84776196912097
500.5, 33.84776196912097
501, 33.64677860704798
501.5, 33.64677860704798
502, 33.56064288044527
502.5, 33.474507153842566
503, 33.474507153842566
503.5, 33.273523791769605
504, 33.273523791769605
504.5, 33.129964247431744
505, 33.129964247431744
505.5, 32.95769279422635
506, 32.95769279422635
506.5, 32.84284515875605
507, 32.6992856144182
507.5, 32.6992856144182
508, 32.440878434610084
508.5, 32.440878434610084
509, 32.26860698140467
509.5, 32.26860698140467
510, 32.03891171046412
510.5, 31.780504530656017
511, 31.780504530656017
511.5, 31.522097350847872
512, 31.522097350847872
512.5, 31.32111398877491
513, 31.32111398877491
513.5, 31.062706808966766
514, 31.062706808966766
514.5, 30.775587720291085
515, 30.545892449350532
515.5, 30.545892449350532
516, 30.373620996145135
516.5, 30.373620996145135
517, 30.11521381633699
517.5, 30.11521381633699
518, 29.828094727661323
518.5, 29.828094727661323
519, 29.655823274455884
519.5, 29.483551821250472
520, 29.483551821250472
520.5, 29.19643273257479
521, 29.19643273257479
521.5, 28.966737461634253
522, 28.966737461634253
522.5, 28.82317791729639
523, 28.65090646409098
523.5, 28.65090646409098
524, 28.44992310201799
524.5, 28.44992310201799
525, 28.191515922209888
525.5, 28.191515922209888
526, 28.047956377872026
526.5, 28.047956377872026
527, 27.90439683353418
527.5, 27.674701562593626
528, 27.674701562593626
528.5, 27.502430109388214
529, 27.502430109388214
529.5, 27.38758247391793
530, 27.38758247391793
530.5, 27.186599111844956
531, 27.186599111844956
531.5, 27.04303956750711
532, 26.956903840904403
532.5, 26.956903840904403
533, 26.84205620543412
533.5, 26.84205620543412
534, 26.784632387699006
534.5, 26.784632387699006
535, 26.6984966610963
535.5, 26.6984966610963
536, 26.612360934493566
536.5, 26.52622520789086
537, 26.52622520789086
537.5, 26.382665663553027
538, 26.382665663553027
538.5, 26.267818028082743
539, 26.267818028082743
539.5, 26.2103942103476
540, 26.124258483744896
540.5, 26.124258483744896
541, 26.06683466600977
541.5, 26.06683466600977
542, 26.03812275714219
542.5, 26.03812275714219
543, 26.009410848274626
543.5, 26.009410848274626
544, 25.98069893940705
544.5, 25.951987030539485
545, 25.951987030539485
545.5, 25.98069893940705
546, 25.98069893940705
546.5, 26.009410848274626
547, 26.009410848274626
547.5, 25.98069893940705
548, 25.98069893940705
548.5, 25.98069893940705
549, 26.009410848274626
549.5, 26.009410848274626
550, 26.03812275714219
550.5, 26.03812275714219
551, 26.06683466600977
551.5, 26.06683466600977
552, 26.095546574877332
552.5, 26.124258483744896
553, 26.124258483744896
553.5, 26.124258483744896
554, 26.124258483744896
554.5, 26.152970392612488
555, 26.152970392612488
555.5, 26.181682301480038
556, 26.181682301480038
556.5, 26.296529936950307
557, 26.440089481288155
557.5, 26.440089481288155
558, 26.497513299023296
558.5, 26.497513299023296
559, 26.641072843361144
559.5, 26.641072843361144
560, 26.784632387699006
560.5, 26.784632387699006
561, 26.84205620543412
561.5, 26.985615749771966
562, 26.985615749771966
562.5, 27.071751476374672
563, 27.071751476374672
563.5, 27.244022929580098
564, 27.244022929580098
564.5, 27.38758247391793
565, 27.47371820052065
565.5, 27.47371820052065
566, 27.53114201825578
566.5, 27.53114201825578
567, 27.617277744858484
567.5, 27.617277744858484
568, 27.674701562593626
568.5, 27.674701562593626
569, 27.732125380328768
569.5, 27.818261106931473
570, 27.818261106931473
570.5, 27.818261106931473
571, 27.818261106931473
571.5, 27.87568492466663
572, 27.87568492466663
572.5, 27.87568492466663
573, 27.87568492466663
573.5, 27.846973015799037
574, 27.87568492466663
574.5, 27.87568492466663
575, 27.846973015799037
575.5, 27.846973015799037
576, 27.78954919806391
576.5, 27.78954919806391
577, 27.78954919806391
577.5, 27.78954919806391
578, 27.645989653726076
578.5, 27.55985392712337
579, 27.55985392712337
579.5, 27.502430109388214
580, 27.502430109388214
580.5, 27.47371820052065
581, 27.47371820052065
581.5, 27.301446747315225
582, 27.244022929580098
582.5, 27.244022929580098
583, 27.157887202977378
583.5, 27.157887202977378
584, 27.129175294109814
584.5, 27.129175294109814
585, 26.92819193203684
585.5, 26.92819193203684
586, 26.784632387699006
586.5, 26.6984966610963
587, 26.6984966610963
587.5, 26.55493711675844
588, 26.55493711675844
588.5, 26.35395375468545
589, 26.35395375468545
589.5, 26.239106119215194
590, 26.239106119215194
590.5, 26.095546574877332
591, 25.98069893940705
591.5, 25.98069893940705
592, 25.894563212804343
592.5, 25.894563212804343
593, 25.607444124128676
593.5, 25.607444124128676
594, 25.406460762055673
594.5, 25.17676549111512
595, 25.17676549111512
595.5, 25.061917855644865
596, 25.061917855644865
596.5, 24.86093449357186
597, 24.86093449357186
597.5, 24.68866304036645
598, 24.68866304036645
598.5, 24.48767967829346
599, 24.37283204282319
599.5, 24.37283204282319
600, 24.200560589617794
600.5, 24.200560589617794
601, 24.028289136412354
601.5, 24.028289136412354
602, 23.884729592074535
602.5, 23.884729592074535
603, 23.655034321133982
603.5, 23.482762867928543
604, 23.482762867928543
604.5, 23.367915232458273
605, 23.367915232458273
605.5, 23.224355688120426
606, 23.224355688120426
606.5, 23.052084234915014
607, 23.052084234915014
607.5, 22.908524690577167
608, 22.79367705510691
608.5, 22.79367705510691
609, 22.707541328504192
609.5, 22.707541328504192
610, 22.56398178416636
610.5, 22.56398178416636
611, 22.44913414869606
611.5, 22.33428651322579
612, 22.33428651322579
612.5, 22.219438877755508
613, 22.219438877755508
613.5, 22.133303151152802
614, 22.133303151152802
614.5, 22.047167424550096
615, 22.047167424550096
615.5, 21.989743606814955
616, 21.90360788021225
616.5, 21.90360788021225
617, 21.78876024474198
617.5, 21.78876024474198
618, 21.731336427006838
618.5, 21.731336427006838
619, 21.702624518139288
619.5, 21.702624518139288
620, 21.530353064933863
620.5, 21.444217338331143
621, 21.444217338331143
621.5, 21.329369702860873
622, 21.329369702860873
622.5, 21.27194588512573
623, 21.27194588512573
623.5, 21.243233976258168
624, 21.21452206739059
624.5, 21.21452206739059
625, 21.185810158523026
625.5, 21.185810158523026
626, 21.157098249655476
626.5, 21.157098249655476
627, 21.09967443192032
627.5, 21.09967443192032
628, 21.07096252305277
628.5, 20.98482679645005
629, 20.98482679645005
629.5, 20.92740297871491
630, 20.92740297871491
630.5, 20.89869106984733
631, 20.89869106984733
631.5, 20.841267252112218
632, 20.841267252112218
632.5, 20.812555343244625
633, 20.755131525509512
633.5, 20.755131525509512
634, 20.72641961664192
634.5, 20.72641961664192
635, 20.668995798906778
635.5, 20.668995798906778
636, 20.611571981171664
636.5, 20.582860072304072
637, 20.582860072304072
637.5, 20.52543625456896
638, 20.52543625456896
638.5, 20.496724345701367
639, 20.496724345701367
639.5, 20.468012436833803
640, 20.468012436833803
640.5, 20.43930052796624
641, 20.468012436833803
641.5, 20.468012436833803
642, 20.468012436833803
642.5, 20.468012436833803
643, 20.468012436833803
643.5, 20.468012436833803
644, 20.496724345701367
644.5, 20.496724345701367
645, 20.496724345701367
645.5, 20.52543625456896
646, 20.52543625456896
646.5, 20.52543625456896
647, 20.52543625456896
647.5, 20.468012436833803
648, 20.468012436833803
648.5, 20.41058861909866
649, 20.41058861909866
649.5, 20.35316480136352
650, 20.324452892495955
650.5, 20.324452892495955
651, 20.41058861909866
651.5, 20.41058861909866
652, 20.43930052796624
652.5, 20.43930052796624
653, 20.496724345701367
653.5, 20.468012436833803
654, 20.468012436833803
654.5, 20.43930052796624
655, 20.43930052796624
655.5, 20.43930052796624
656, 20.43930052796624
656.5, 20.468012436833803
657, 20.468012436833803
657.5, 20.468012436833803
658, 20.43930052796624
658.5, 20.43930052796624
659, 20.43930052796624
659.5, 20.43930052796624
660, 20.468012436833803
660.5, 20.468012436833803
661, 20.468012436833803
661.5, 20.468012436833803
662, 20.496724345701367
662.5, 20.52543625456896
663, 20.52543625456896
663.5, 20.55414816343651
664, 20.55414816343651
664.5, 20.611571981171664
665, 20.611571981171664
665.5, 20.668995798906778
666, 20.72641961664192
666.5, 20.72641961664192
667, 20.72641961664192
667.5, 20.72641961664192
668, 20.78384343437706
668.5, 20.78384343437706
669, 20.78384343437706
669.5, 20.78384343437706
670, 20.755131525509512
670.5, 20.640283890039214
671, 20.640283890039214
671.5, 20.611571981171664
672, 20.611571981171664
672.5, 20.55414816343651
673, 20.55414816343651
673.5, 20.611571981171664
674, 20.611571981171664
674.5, 20.697707707774356
675, 20.812555343244625
675.5, 20.812555343244625
676, 20.78384343437706
676.5, 20.78384343437706
677, 20.78384343437706
677.5, 20.78384343437706
678, 20.72641961664192
678.5, 20.72641961664192
679, 20.72641961664192
679.5, 20.78384343437706
680, 20.78384343437706
680.5, 20.92740297871491
681, 20.92740297871491
681.5, 20.98482679645005
682, 20.98482679645005
682.5, 21.013538705317615
683, 21.04225061418518
683.5, 21.04225061418518
684, 21.185810158523026
684.5, 21.185810158523026
685, 21.243233976258168
685.5, 21.243233976258168
686, 21.185810158523026
686.5, 21.185810158523026
687, 21.09967443192032
687.5, 21.128386340787884
688, 21.128386340787884
688.5, 21.157098249655476
689, 21.157098249655476
689.5, 21.157098249655476
690, 21.157098249655476
690.5, 21.128386340787884
691, 21.128386340787884
691.5, 21.09967443192032
692, 21.09967443192032
692.5, 21.09967443192032
693, 21.128386340787884
693.5, 21.128386340787884
694, 21.157098249655476
694.5, 21.157098249655476
695, 21.21452206739059
695.5, 21.243233976258168
696, 21.243233976258168
696.5, 21.27194588512573
697, 21.27194588512573
697.5, 21.30065779399331
698, 21.30065779399331
698.5, 21.243233976258168
699, 21.243233976258168
699.5, 21.243233976258168
700, 21.21452206739059
700.5, 21.21452206739059
701, 21.243233976258168
701.5, 21.243233976258168
702, 21.329369702860873
702.5, 21.329369702860873
703, 21.358081611728437
703.5, 21.358081611728437
704, 21.329369702860873
704.5, 21.329369702860873
705, 21.329369702860873
705.5, 21.329369702860873
706, 21.329369702860873
706.5, 21.329369702860873
707, 21.329369702860873
707.5, 21.30065779399331
708, 21.243233976258168
708.5, 21.243233976258168
709, 21.21452206739059
709.5, 21.21452206739059
710, 21.21452206739059
710.5, 21.21452206739059
711, 21.21452206739059
711.5, 21.21452206739059
712, 21.243233976258168
712.5, 21.27194588512573
713, 21.27194588512573
713.5, 21.329369702860873
714, 21.329369702860873
714.5, 21.329369702860873
715, 21.329369702860873
715.5, 21.30065779399331
716, 21.30065779399331
716.5, 21.27194588512573
717, 21.243233976258168
717.5, 21.243233976258168
718, 21.185810158523026
718.5, 21.185810158523026
719, 21.157098249655476
719.5, 21.157098249655476
720, 21.157098249655476
720.5, 21.157098249655476
721, 21.157098249655476
721.5, 21.128386340787884
722, 21.128386340787884
722.5, 21.128386340787884
723, 21.128386340787884
723.5, 21.157098249655476
724, 21.157098249655476
724.5, 21.21452206739059
725, 21.157098249655476
725.5, 21.157098249655476
726, 21.157098249655476
726.5, 21.157098249655476
727, 21.21452206739059
727.5, 21.21452206739059
728, 21.30065779399331
728.5, 21.30065779399331
729, 21.358081611728437
729.5, 21.27194588512573
730, 21.27194588512573
730.5, 21.243233976258168
731, 21.243233976258168
731.5, 21.243233976258168
732, 21.243233976258168
732.5, 21.243233976258168
733, 21.243233976258168
733.5, 21.243233976258168
734, 21.21452206739059
734.5, 21.21452206739059
735, 21.128386340787884
735.5, 21.128386340787884
736, 21.128386340787884
736.5, 21.128386340787884
737, 21.09967443192032
737.5, 21.157098249655476
738, 21.157098249655476
738.5, 21.358081611728437
739, 21.358081611728437
739.5, 21.329369702860873
740, 21.329369702860873
740.5, 21.243233976258168
741, 21.243233976258168
741.5, 21.185810158523026
742, 21.21452206739059
742.5, 21.21452206739059
743, 21.21452206739059
743.5, 21.21452206739059
744, 21.21452206739059
744.5, 21.21452206739059
745, 21.21452206739059
745.5, 21.21452206739059
746, 21.185810158523026
746.5, 21.185810158523026
747, 21.185810158523026
747.5, 21.185810158523026
748, 21.185810158523026
748.5, 21.21452206739059
749, 21.21452206739059
749.5, 21.157098249655476
750, 21.128386340787884
750.5, 21.128386340787884
751, 21.09967443192032
751.5, 21.09967443192032
752, 21.013538705317615
752.5, 21.013538705317615
753, 20.89869106984733
753.5, 20.89869106984733
754, 20.92740297871491
754.5, 21.013538705317615
755, 21.013538705317615
755.5, 21.04225061418518
756, 21.04225061418518
756.5, 21.09967443192032
757, 21.09967443192032
757.5, 21.128386340787884
758, 21.128386340787884
758.5, 21.09967443192032
759, 21.04225061418518
759.5, 21.04225061418518
760, 21.04225061418518
760.5, 21.04225061418518
761, 21.09967443192032
761.5, 21.09967443192032
762, 21.157098249655476
762.5, 21.157098249655476
763, 21.21452206739059
763.5, 21.243233976258168
764, 21.243233976258168
764.5, 21.243233976258168
765, 21.243233976258168
765.5, 21.27194588512573
766, 21.27194588512573
766.5, 21.27194588512573
767, 21.30065779399331
767.5, 21.30065779399331
768, 21.185810158523026
768.5, 21.185810158523026
769, 21.157098249655476
769.5, 21.157098249655476
770, 21.128386340787884
770.5, 21.128386340787884
771, 21.128386340787884
771.5, 21.128386340787884
772, 21.128386340787884
772.5, 21.128386340787884
773, 21.128386340787884
773.5, 21.09967443192032
774, 21.09967443192032
774.5, 21.128386340787884
775, 21.128386340787884
775.5, 21.128386340787884
776, 21.128386340787884
776.5, 21.128386340787884
777, 21.128386340787884
777.5, 21.128386340787884
778, 21.09967443192032
778.5, 21.09967443192032
779, 21.07096252305277
779.5, 21.04225061418518
780, 21.04225061418518
780.5, 21.04225061418518
781, 21.04225061418518
781.5, 21.04225061418518
782, 21.04225061418518
782.5, 21.07096252305277
783, 21.07096252305277
783.5, 21.04225061418518
784, 20.98482679645005
784.5, 20.98482679645005
785, 20.869979160979767
785.5, 20.869979160979767
786, 20.78384343437706
786.5, 20.78384343437706
787, 20.755131525509512
787.5, 20.755131525509512
788, 20.78384343437706
788.5, 20.812555343244625
789, 20.812555343244625
789.5, 20.78384343437706
790, 20.78384343437706
790.5, 20.755131525509512
791, 20.755131525509512
791.5, 20.697707707774356
792, 20.668995798906778
792.5, 20.668995798906778
793, 20.640283890039214
793.5, 20.640283890039214
794, 20.52543625456896
794.5, 20.52543625456896
795, 20.496724345701367
795.5, 20.496724345701367
796, 20.41058861909866
796.5, 20.324452892495955
797, 20.324452892495955
797.5, 20.267029074760814
798, 20.267029074760814
798.5, 20.267029074760814
799, 20.267029074760814
799.5, 20.2096052570257
800, 20.2096052570257
800.5, 20.152181439290544
801, 20.12346953042298
801.5, 20.12346953042298
802, 20.12346953042298
802.5, 20.12346953042298
803, 20.094757621555402
803.5, 20.094757621555402
804, 19.979909986085147
804.5, 19.979909986085147
805, 19.92248616834999
805.5, 19.86506235061485
806, 19.86506235061485
806.5, 19.721502806277
807, 19.721502806277
807.5, 19.635367079674296
808, 19.635367079674296
808.5, 19.57794326193917
809, 19.463095626468885
809.5, 19.463095626468885
810, 19.405671808733743
810.5, 19.405671808733743
811, 19.262112264395896
811.5, 19.262112264395896
812, 19.17597653779319
812.5, 19.17597653779319
813, 19.06112890232292
813.5, 18.917569357985073
814, 18.917569357985073
814.5, 18.831433631382367
815, 18.831433631382367
815.5, 18.74529790477966
816, 18.74529790477966
816.5, 18.630450269309378
817, 18.630450269309378
817.5, 18.573026451574265
818, 18.544314542706672
818.5, 18.544314542706672
819, 18.458178816103967
819.5, 18.458178816103967
820, 18.37204308950126
820.5, 18.37204308950126
821, 18.257195454031006
821.5, 18.19977163629585
822, 18.19977163629585
822.5, 18.113635909693144
823, 18.113635909693144
823.5, 18.027500183090453
824, 18.027500183090453
824.5, 17.99878827422286
825, 17.99878827422286
825.5, 17.970076365355297
826, 17.941364456487747
826.5, 17.941364456487747
827, 17.912652547620155
827.5, 17.912652547620155
828, 17.855228729885027
828.5, 17.855228729885027
829, 17.82651682101745
829.5, 17.82651682101745
830, 17.7978049121499
830.5, 17.740381094414744
831, 17.740381094414744
831.5, 17.711669185547194
832, 17.711669185547194
832.5, 17.740381094414744
833, 17.740381094414744
833.5, 17.82651682101745
834, 17.82651682101745
834.5, 17.88394063875259
835, 17.941364456487747
835.5, 17.941364456487747
836, 18.056212091958002
836.5, 18.056212091958002
837, 18.171059727428286
837.5, 18.171059727428286
838, 18.285907362898556
838.5, 18.429466907236403
839, 18.429466907236403
839.5, 18.486890724971545
840, 18.486890724971545
840.5, 18.486890724971545
841, 18.486890724971545
841.5, 18.486890724971545
842, 18.486890724971545
842.5, 18.37204308950126
843, 18.257195454031006
843.5, 18.257195454031006
844, 18.171059727428286
844.5, 18.171059727428286
845, 18.084924000825566
845.5, 18.084924000825566
846, 18.027500183090453
846.5, 18.027500183090453
847, 17.99878827422286
847.5, 17.970076365355297
848, 17.970076365355297
848.5, 17.970076365355297
849, 17.970076365355297
849.5, 17.941364456487747
850, 17.941364456487747
850.5, 17.912652547620155
851, 17.855228729885027
851.5, 17.855228729885027
852, 17.82651682101745
852.5, 17.82651682101745
853, 17.740381094414744
853.5, 17.740381094414744
854, 17.654245367812038
854.5, 17.654245367812038
855, 17.625533458944474
855.5, 17.568109641209332
856, 17.568109641209332
856.5, 17.51068582347419
857, 17.51068582347419
857.5, 17.45326200573905
858, 17.45326200573905
858.5, 17.424550096871485
859, 17.424550096871485
859.5, 17.33841437026878
860, 17.367126279136343
860.5, 17.367126279136343
861, 17.424550096871485
861.5, 17.424550096871485
862, 17.45326200573905
862.5, 17.45326200573905
863, 17.45326200573905
863.5, 17.424550096871485
864, 17.424550096871485
864.5, 17.45326200573905
865, 17.45326200573905
865.5, 17.45326200573905
866, 17.45326200573905
866.5, 17.45326200573905
867, 17.45326200573905
867.5, 17.51068582347419
868, 17.539397732341754
868.5, 17.539397732341754
869, 17.625533458944474
869.5, 17.625533458944474
870, 17.625533458944474
870.5, 17.625533458944474
871, 17.654245367812038
871.5, 17.654245367812038
872, 17.682957276679602
872.5, 17.682957276679602
873, 17.682957276679602
873.5, 17.682957276679602
874, 17.682957276679602
874.5, 17.740381094414744
875, 17.740381094414744
875.5, 17.769093003282308
876, 17.769093003282308
876.5, 17.7978049121499
877, 17.769093003282308
877.5, 17.769093003282308
878, 17.7978049121499
878.5, 17.7978049121499
879, 17.82651682101745
879.5, 17.82651682101745
880, 17.941364456487747
880.5, 17.970076365355297
881, 17.970076365355297
881.5, 18.027500183090453
882, 18.027500183090453
882.5, 18.084924000825566
883, 18.084924000825566
883.5, 18.142347818560708
884, 18.142347818560708
884.5, 18.19977163629585
885, 18.257195454031006
885.5, 18.257195454031006
886, 18.31461927176612
886.5, 18.31461927176612
887, 18.31461927176612
887.5, 18.31461927176612
888, 18.34333118063371
888.5, 18.34333118063371
889, 18.37204308950126
889.5, 18.400754998368825
890, 18.400754998368825
890.5, 18.400754998368825
891, 18.400754998368825
891.5, 18.37204308950126
892, 18.37204308950126
892.5, 18.429466907236403
893, 18.486890724971545
893.5, 18.486890724971545
894, 18.573026451574265
894.5, 18.573026451574265
895, 18.659162178176956
895.5, 18.659162178176956
896, 18.716585995912098
896.5, 18.716585995912098
897, 18.831433631382367
897.5, 18.917569357985073
898, 18.917569357985073
898.5, 18.946281266852637
899, 18.946281266852637
899.5, 18.917569357985073
900, 18.917569357985073
900.5, 18.917569357985073
901, 18.917569357985073
901.5, 18.946281266852637
902, 19.00370508458778
902.5, 19.00370508458778
903, 19.089840811190484
903.5, 19.089840811190484
904, 19.17597653779319
904.5, 19.17597653779319
905, 19.204688446660782
905.5, 19.319536082131037
906, 19.319536082131037
906.5, 19.434383717601335
907, 19.434383717601335
907.5, 19.54923135307159
908, 19.54923135307159
908.5, 19.692790897409438
909, 19.692790897409438
909.5, 19.86506235061485
910, 20.06604571268784
910.5, 20.06604571268784
911, 20.12346953042298
911.5, 20.12346953042298
912, 20.152181439290544
912.5, 20.152181439290544
913, 20.23831716589325
913.5, 20.23831716589325
914, 20.41058861909866
914.5, 20.668995798906778
915, 20.668995798906778
915.5, 20.89869106984733
916, 20.89869106984733
916.5, 21.04225061418518
917, 21.04225061418518
917.5, 21.21452206739059
918, 21.21452206739059
918.5, 21.38679352059603
919, 21.41550542946358
919.5, 21.41550542946358
920, 21.501641156066285
920.5, 21.501641156066285
921, 21.559064973801426
921.5, 21.559064973801426
922, 21.645200700404132
922.5, 21.90360788021225
923, 21.90360788021225
923.5, 22.018455515682547
924, 22.018455515682547
924.5, 22.133303151152802
925, 22.133303151152802
925.5, 22.219438877755508
926, 22.219438877755508
926.5, 22.362998422093355
927, 22.56398178416636
927.5, 22.56398178416636
928, 22.736253237371756
928.5, 22.736253237371756
929, 22.79367705510691
929.5, 22.79367705510691
930, 22.994660417179873
930.5, 22.994660417179873
931, 23.10950805265017
931.5, 23.195643779252862
932, 23.195643779252862
932.5, 23.482762867928543
933, 23.482762867928543
933.5, 23.655034321133982
934, 23.655034321133982
934.5, 23.769881956604237
935, 23.97086531867724
935.5, 23.97086531867724
936, 24.1718486807502
936.5, 24.1718486807502
937, 24.37283204282319
937.5, 24.37283204282319
938, 24.458967769425897
938.5, 24.458967769425897
939, 24.68866304036645
939.5, 24.717374949234014
940, 24.717374949234014
940.5, 24.86093449357186
941, 24.86093449357186
941.5, 25.090629764512414
942, 25.090629764512414
942.5, 25.061917855644865
943, 25.061917855644865
943.5, 25.49259648865838
944, 25.808427486201637
944.5, 25.808427486201637
945, 26.06683466600977
945.5, 26.06683466600977
946, 26.296529936950307
946.5, 26.296529936950307
947, 26.440089481288155
947.5, 26.440089481288155
948, 26.583649025626002
948.5, 26.6984966610963
949, 26.6984966610963
949.5, 26.84205620543412
950, 26.84205620543412
950.5, 27.01432765863956
951, 27.01432765863956
951.5, 27.21531102071252
952, 27.41629438278551
952.5, 27.41629438278551
953, 27.55985392712337
953.5, 27.55985392712337
954, 27.87568492466663
954.5, 27.87568492466663
955, 28.07666828673959
955.5, 28.07666828673959
956, 28.248939739945
956.5, 28.363787375415285
957, 28.363787375415285
957.5, 28.593482646355838
958, 28.593482646355838
958.5, 28.708330281826107
959, 28.708330281826107
959.5, 28.76575409956125
960, 28.76575409956125
960.5, 28.909313643899097
961, 29.13900891483965
961.5, 29.13900891483965
962, 29.19643273257479
962.5, 29.19643273257479
963, 29.45483991238291
963.5, 29.45483991238291
964, 29.59839945672077
964.5, 29.68453518332346
965, 29.68453518332346
965.5, 29.885518545396437
966, 29.885518545396437
966.5, 30.201349542939695
967, 30.201349542939695
967.5, 30.344909087277543
968, 30.344909087277543
968.5, 30.45975672274784
969, 30.6607400848208
969.5, 30.6607400848208
970, 30.80429962915865
970.5, 30.80429962915865
971, 30.919147264628933
971.5, 30.919147264628933
972, 31.120130626701908
972.5, 31.120130626701908
973, 31.32111398877491
973.5, 31.49338544198031
974, 31.49338544198031
974.5, 31.579521168583014
975, 31.579521168583014
975.5, 31.751792621788425
976, 31.751792621788425
976.5, 32.125047437066826
977, 32.21118316366953
977.5, 32.21118316366953
978, 32.29731889027224
978.5, 32.29731889027224
979, 32.613149887815496
979.5, 32.613149887815496
980, 32.75670943215334
980.5, 32.75670943215334
981, 32.814133249888485
981.5, 32.95769279422635
982, 32.95769279422635
982.5, 33.24481188290201
983, 33.24481188290201
983.5, 33.21609997403445
984, 33.21609997403445
984.5, 33.33094760950472
985, 33.33094760950472
985.5, 33.3596595183723
986, 33.589354789312864
986.5, 33.589354789312864
987, 33.790338151385825
987.5, 33.790338151385825
988, 34.02003342232638
988.5, 34.02003342232638
989, 33.962609604591236
989.5, 33.962609604591236
990, 33.962609604591236
990.5, 34.07745724006152
991, 34.07745724006152
991.5, 34.106169148929084
992, 34.106169148929084
992.5, 34.19230487553179
993, 34.19230487553179
993.5, 34.39328823760478
994, 34.50813587307505
994.5, 34.50813587307505
995, 34.70911923514804
995.5, 34.70911923514804
996, 34.852678779485885
996.5, 34.852678779485885
997, 34.996238323823746
997.5, 34.996238323823746
998, 35.2259335947643
998.5, 35.3982050479697
999, 35.3982050479697
999.5, 35.57047650117511
1000, 35.57047650117511
1000.5, 35.68532413664539
1001, 35.68532413664539
1001.5, 35.828883680983225
1002, 35.828883680983225
1002.5, 35.97244322532107
1003, 36.029867043056214
1003.5, 36.029867043056214
1004, 36.05857895192379
1004.5, 36.05857895192379
1005, 36.11600276965892
1005.5, 36.11600276965892
1006, 36.2308504051292
1006.5, 36.31698613173191
1007, 36.31698613173191
1007.5, 36.63281712927516
1008, 36.63281712927516
1008.5, 36.74766476474544
1009, 36.74766476474544
1009.5, 36.862512400215714
1010, 36.862512400215714
1010.5, 37.09220767115627
1011, 37.408038668699525
1011.5, 37.408038668699525
1012, 37.49417439530223
1012.5, 37.49417439530223
1013, 37.49417439530223
1013.5, 37.49417439530223
1014, 37.752581575110355
1014.5, 37.752581575110355
1015, 38.097124481521185
1015.5, 38.15454829925632
1016, 38.15454829925632
1016.5, 38.15454829925632
1017, 38.15454829925632
1017.5, 38.12583639038875
1018, 38.12583639038875
1018.5, 38.269395934726596
1019, 38.441667387932014
1019.5, 38.441667387932014
1020, 38.585226932269855
1020.5, 38.585226932269855
1021, 38.7287864766077
1021.5, 38.7287864766077
1022, 38.987193656415826
1022.5, 38.987193656415826
1023, 39.274312745091514
1023.5, 39.475296107164496
1024, 39.475296107164496
1024.5, 39.59014374263477
1025, 39.59014374263477
1025.5, 39.73370328697262
1026, 39.73370328697262
1026.5, 39.90597474017803
1027, 39.90597474017803
1027.5, 40.02082237564831
1028, 40.27922955545643
1028.5, 40.27922955545643
1029, 40.53763673526455
1029.5, 40.53763673526455
1030, 40.652484370734825
1030.5, 40.652484370734825
1031, 40.70990818846997
1031.5, 40.70990818846997
1032, 40.73862009733753
1032.5, 40.968315368278084
1033, 40.968315368278084
1033.5, 41.11187491261593
1034, 41.11187491261593
1034.5, 41.312858274688914
1035, 41.312858274688914
1035.5, 41.42770591015919
1036, 41.54255354562947
1036.5, 41.54255354562947
1037, 41.54255354562947
1037.5, 41.54255354562947
1038, 41.686113089967314
1038.5, 41.686113089967314
1039, 41.94452026977543
1039.5, 41.94452026977543
1040, 42.20292744958356
1040.5, 42.46133462939167
1041, 42.46133462939167
1041.5, 42.6336060825971
1042, 42.6336060825971
1042.5, 42.66231799146466
1043, 42.66231799146466
1043.5, 42.77716562693493
1044, 42.77716562693493
1044.5, 43.006860897875484
1045, 43.207844259948466
1045.5, 43.207844259948466
1046, 43.43753953088902
1046.5, 43.43753953088902
1047, 43.638522892962
1047.5, 43.638522892962
1048, 43.75337052843228
1048.5, 43.896930072770125
1049, 43.896930072770125
1049.5, 44.12662534371068
1050, 44.12662534371068
1050.5, 44.18404916144581
1051, 44.18404916144581
1051.5, 44.27018488804853
1052, 44.27018488804853
1052.5, 44.35632061465124
1053, 44.58601588559179
1053.5, 44.58601588559179
1054, 44.64343970332692
1054.5, 44.64343970332692
1055, 44.8444230653999
1055.5, 44.8444230653999
1056, 45.1315421540756
1056.5, 45.1315421540756
1057, 45.18896597181073
1057.5, 45.30381360728101
1058, 45.30381360728101
1058.5, 45.50479696935399
1059, 45.50479696935399
1059.5, 45.56222078708914
1060, 45.56222078708914
1060.5, 45.590932695956695
1061, 45.590932695956695
1061.5, 45.590932695956695
1062, 45.590932695956695
1062.5, 45.590932695956695
1063, 45.590932695956695
1063.5, 45.590932695956695
1064, 45.70578033142697
1064.5, 45.70578033142697
1065, 45.70578033142697
1065.5, 45.82062796689725
1066, 45.82062796689725
1066.5, 45.906763693499954
1067, 45.906763693499954
1067.5, 45.935475602367525
1068, 45.935475602367525
1068.5, 45.906763693499954
1069, 45.906763693499954
1069.5, 46.0503232378378
1070, 46.39486614424863
1070.5, 46.39486614424863
1071, 46.48100187085134
1071.5, 46.48100187085134
1072, 46.48100187085134
1072.5, 46.48100187085134
1073, 46.452289961983766
1073.5, 46.452289961983766
1074, 46.42357805311621
1074.5, 46.39486614424863
1075, 46.39486614424863
1075.5, 46.280018508778355
1076, 46.280018508778355
1076.5, 46.36615423538106
1077, 46.36615423538106
1077.5, 46.39486614424863
1078, 46.39486614424863
1078.5, 46.39486614424863
1079, 46.36615423538106
1079.5, 46.36615423538106
1080, 46.02161132897023
1080.5, 46.02161132897023
1081, 46.07903514670537
1081.5, 46.07903514670537
1082, 46.22259469104322
1082.5, 46.251306599910784
1083, 46.251306599910784
1083.5, 46.251306599910784
1084, 46.251306599910784
1084.5, 46.251306599910784
1085, 46.251306599910784
1085.5, 46.280018508778355
1086, 46.280018508778355
1086.5, 46.02161132897023
1087, 45.82062796689725
1087.5, 45.82062796689725
1088, 45.64835651369184
1088.5, 45.64835651369184
1089, 45.53350887822156
1089.5, 45.53350887822156
1090, 45.619644604824266
1090.5, 45.53350887822156
1091, 45.53350887822156
1091.5, 45.27510169841344
1092, 45.27510169841344
1092.5, 45.18896597181073
1093, 45.18896597181073
1093.5, 45.01669451860533
1094, 45.01669451860533
1094.5, 44.87313497426747
1095, 44.758287338797196
1095.5, 44.758287338797196
1096, 44.52859206785664
1096.5, 44.52859206785664
1097, 44.35632061465124
1097.5, 44.35632061465124
1098, 44.155337252578256
1098.5, 44.155337252578256
1099, 43.95435389050527
1099.5, 43.81079434616742
1100, 43.81079434616742
1100.5, 43.69594671069714
1101, 43.69594671069714
1101.5, 43.58109907522687
1102, 43.58109907522687
1102.5, 43.46625143975659
1103, 43.46625143975659
1103.5, 43.380115713153884
1104, 43.15042044221333
1104.5, 43.15042044221333
1105, 43.17913235108091
1105.5, 43.17913235108091
1106, 43.17913235108091
1106.5, 43.17913235108091
1107, 42.92072517127278
1107.5, 42.60489417372952
1108, 42.60489417372952
1108.5, 42.51875844712682
1109, 42.51875844712682
1109.5, 42.26035126731869
1110, 42.26035126731869
1110.5, 42.03065599637814
1111, 42.03065599637814
1111.5, 41.8870964520403
1112, 41.74353690770245
1112.5, 41.74353690770245
1113, 41.45641781902676
1113.5, 41.45641781902676
1114, 41.08316300374836
1114.5, 41.08316300374836
1115, 40.93960345941051
1115.5, 40.93960345941051
1116, 40.7673320062051
1116.5, 40.480212917529414
1117, 40.480212917529414
1117.5, 40.164381919986155
1118, 40.164381919986155
1118.5, 39.99211046678074
1119, 39.99211046678074
1119.5, 39.819839013575326
1120, 39.819839013575326
1120.5, 39.819839013575326
1121, 39.5614318337672
1121.5, 39.5614318337672
1122, 39.33173656282665
1122.5, 39.33173656282665
1123, 39.18817701848881
1123.5, 39.18817701848881
1124, 38.78621029434284
1124.5, 38.556515023402284
1125, 38.556515023402284
1125.5, 38.32681975246174
1126, 38.32681975246174
1126.5, 38.12583639038875
1127, 38.12583639038875
1127.5, 37.83871730171306
1128, 37.83871730171306
1128.5, 37.32190294209682
1129, 37.235767215494114
1129.5, 37.235767215494114
1130, 37.14963148889141
1130.5, 37.14963148889141
1131, 36.718952855877866
1131.5, 36.718952855877866
1132, 36.43183376720218
1132.5, 36.43183376720218
1133, 36.31698613173191
1133.5, 36.11600276965892
1134, 36.11600276965892
1134.5, 35.97244322532107
1135, 35.97244322532107
1135.5, 35.80017177211566
1136, 35.80017177211566
1136.5, 35.57047650117511
1137, 35.31206932136699
1137.5, 35.31206932136699
1138, 35.13979786816158
1138.5, 35.13979786816158
1139, 34.82396687061832
1139.5, 34.82396687061832
1140, 34.50813587307505
1140.5, 34.50813587307505
1141, 34.30715251100207
1141.5, 34.134881057796676
1142, 34.134881057796676
1142.5, 33.84776196912097
1143, 33.84776196912097
1143.5, 33.474507153842566
1144, 33.474507153842566
1144.5, 33.273523791769605
1145, 33.273523791769605
1145.5, 33.101252338564166
1146, 32.87155706762363
1146.5, 32.87155706762363
1147, 32.64186179668309
1147.5, 32.64186179668309
1148, 32.18247125480198
1148.5, 32.18247125480198
1149, 32.03891171046412
1149.5, 31.924064074993836
1150, 31.924064074993836
1150.5, 31.66565689518572
1151, 31.66565689518572
1151.5, 31.464673533112745
1152, 31.464673533112745
1152.5, 31.32111398877491
1153, 31.32111398877491
1153.5, 31.120130626701908
1154, 30.947859173496497
1154.5, 30.947859173496497
1155, 30.689451993688394
1155.5, 30.689451993688394
1156, 30.48846863161539
1156.5, 30.48846863161539
1157, 30.143925725204582
1157.5, 30.143925725204582
1158, 30.00036618086672
1158.5, 29.770670909926167
1159, 29.770670909926167
1159.5, 29.59839945672077
1160, 29.59839945672077
1160.5, 29.42612800351533
1161, 29.42612800351533
1161.5, 29.13900891483965
1162, 28.93802555276666
1162.5, 28.93802555276666
1163, 28.679618372958544
1163.5, 28.679618372958544
1164, 28.44992310201799
1164.5, 28.44992310201799
1165, 28.39249928428285
1165.5, 28.39249928428285
1166, 28.248939739945
1166.5, 28.105380195607182
1167, 28.105380195607182
1167.5, 27.76083728919633
1168, 27.76083728919633
1168.5, 27.53114201825578
1169, 27.53114201825578
1169.5, 27.100463385242264
1170, 27.100463385242264
1170.5, 27.01432765863956
1171, 26.89948002316926
1171.5, 26.89948002316926
1172, 26.755920478831413
1172.5, 26.755920478831413
1173, 26.55493711675844
1173.5, 26.55493711675844
1174, 26.267818028082743
1174.5, 26.267818028082743
1175, 25.98069893940705
1175.5, 25.636156032996226
1176, 25.636156032996226
1176.5, 25.521308397525956
1177, 25.521308397525956
1177.5, 25.262901217717825
1178, 25.262901217717825
1178.5, 25.119341673379978
1179, 24.947070220174567
1179.5, 24.947070220174567
1180, 24.659951131498886
1180.5, 24.659951131498886
1181, 24.458967769425897
1181.5, 24.458967769425897
1182, 24.2866963162205
1182.5, 24.2866963162205
1183, 24.257984407352907
1183.5, 24.143136771882638
1184, 24.143136771882638
1184.5, 23.856017683206943
1185, 23.856017683206943
1185.5, 23.683746230001532
1186, 23.683746230001532
1186.5, 23.568898594531262
1187, 23.568898594531262
1187.5, 23.42533905019343
1188, 23.281779505855567
1188.5, 23.281779505855567
1189, 22.93723659944473
1189.5, 22.93723659944473
1190, 22.79367705510691
1190.5, 22.79367705510691
1191, 22.65011751076905
1191.5, 22.535269875298766
1192, 22.535269875298766
1192.5, 22.2481507866231
1193, 22.2481507866231
1193.5, 22.104591242285238
1194, 22.104591242285238
1194.5, 22.047167424550096
1195, 22.047167424550096
1195.5, 21.93231978907984
1196, 21.817472153609543
1196.5, 21.817472153609543
1197, 21.673912609271696
1197.5, 21.673912609271696
1198, 21.616488791536582
1198.5, 21.616488791536582
1199, 21.41550542946358
1199.5, 21.41550542946358
1200, 21.30065779399331
1200.5, 21.243233976258168
1201, 21.243233976258168
1201.5, 21.09967443192032
1202, 21.09967443192032
1202.5, 20.92740297871491
1203, 20.92740297871491
1203.5, 20.812555343244625
1204, 20.697707707774356
1204.5, 20.697707707774356
1205, 20.582860072304072
1205.5, 20.582860072304072
1206, 20.43930052796624
1206.5, 20.43930052796624
1207, 20.295740983628406
1207.5, 20.295740983628406
1208, 20.2096052570257
1208.5, 19.979909986085147
1209, 19.979909986085147
1209.5, 19.86506235061485
1210, 19.86506235061485
1210.5, 19.66407898854189
1211, 19.66407898854189
1211.5, 19.49180753533645
1212, 19.49180753533645
1212.5, 19.37695989986618
1213, 19.23340035552833
1213.5, 19.23340035552833
1214, 19.319536082131037
1214.5, 19.319536082131037
1215, 19.34824799099863
1215.5, 19.34824799099863
1216, 19.290824173263474
1216.5, 19.290824173263474
1217, 19.262112264395896
1217.5, 19.23340035552833
1218, 19.23340035552833
1218.5, 19.17597653779319
1219, 19.17597653779319
1219.5, 19.089840811190484
1220, 19.089840811190484
1220.5, 18.917569357985073
1221, 18.888857449117523
1221.5, 18.888857449117523
1222, 18.946281266852637
1222.5, 18.946281266852637
1223, 18.974993175720215
1223.5, 18.974993175720215
1224, 18.946281266852637
1224.5, 18.946281266852637
1225, 18.86014554024993
1225.5, 18.802721722514818
1226, 18.802721722514818
1226.5, 18.774009813647226
1227, 18.774009813647226
1227.5, 18.774009813647226
1228, 18.774009813647226
1228.5, 18.802721722514818
1229, 18.802721722514818
1229.5, 18.802721722514818
1230, 18.716585995912098
1230.5, 18.716585995912098
1231, 18.68787408704452
1231.5, 18.68787408704452
1232, 18.601738360441814
1232.5, 18.601738360441814
1233, 18.573026451574265
1233.5, 18.51560263383911
1234, 18.51560263383911
1234.5, 18.486890724971545
1235, 18.486890724971545
1235.5, 18.458178816103967
1236, 18.458178816103967
1236.5, 18.400754998368825
1237, 18.400754998368825
1237.5, 18.257195454031006
1238, 18.113635909693144
1238.5, 18.113635909693144
1239, 18.142347818560708
1239.5, 18.142347818560708
1240, 18.113635909693144
1240.5, 18.113635909693144
1241, 18.142347818560708
1241.5, 18.142347818560708
1242, 18.171059727428286
1242.5, 18.19977163629585
1243, 18.19977163629585
1243.5, 18.285907362898556
1244, 18.285907362898556
1244.5, 18.34333118063371
1245, 18.34333118063371
1245.5, 18.429466907236403
1246, 18.429466907236403
1246.5, 18.458178816103967
1247, 18.429466907236403
1247.5, 18.429466907236403
1248, 18.400754998368825
1248.5, 18.400754998368825
1249, 18.34333118063371
1249.5, 18.34333118063371
1250, 18.19977163629585
1250.5, 18.228483545163414
1251, 18.228483545163414
1251.5, 18.285907362898556
1252, 18.285907362898556
1252.5, 18.34333118063371
1253, 18.34333118063371
1253.5, 18.285907362898556
1254, 18.285907362898556
1254.5, 18.19977163629585
1255, 18.257195454031006
1255.5, 18.257195454031006
1256, 18.285907362898556
1256.5, 18.285907362898556
1257, 18.400754998368825
1257.5, 18.400754998368825
1258, 18.458178816103967
1258.5, 18.458178816103967
1259, 18.458178816103967
1259.5, 18.19977163629585
1260, 18.19977163629585
1260.5, 18.056212091958002
1261, 18.056212091958002
1261.5, 17.941364456487747
1262, 17.941364456487747
1262.5, 17.970076365355297
1263, 18.084924000825566
1263.5, 18.084924000825566
1264, 18.171059727428286
1264.5, 18.171059727428286
1265, 18.142347818560708
1265.5, 18.142347818560708
1266, 18.142347818560708
1266.5, 18.142347818560708
1267, 18.084924000825566
1267.5, 18.056212091958002
1268, 18.056212091958002
1268.5, 17.99878827422286
1269, 17.99878827422286
1269.5, 17.88394063875259
1270, 17.88394063875259
1270.5, 17.82651682101745
1271, 17.82651682101745
1271.5, 17.769093003282308
1272, 17.912652547620155
1272.5, 17.912652547620155
1273, 18.056212091958002
1273.5, 18.056212091958002
1274, 18.171059727428286
1274.5, 18.171059727428286
1275, 18.142347818560708
1275.5, 18.113635909693144
1276, 18.113635909693144
1276.5, 17.99878827422286
1277, 17.99878827422286
1277.5, 17.912652547620155
1278, 17.912652547620155
1278.5, 17.855228729885027
1279, 17.855228729885027
1279.5, 17.99878827422286
1280, 18.084924000825566
1280.5, 18.084924000825566
1281, 18.19977163629585
1281.5, 18.19977163629585
1282, 18.285907362898556
1282.5, 18.285907362898556
1283, 18.285907362898556
1283.5, 18.285907362898556
1283.9999999999998, 18.257195454031006
1284.5, 18.228483545163414
1285, 18.228483545163414
1285.5, 18.19977163629585
1286, 18.19977163629585
1286.5, 18.285907362898556
1287, 18.285907362898556
1287.5, 18.34333118063371
1288, 18.34333118063371
1288.5, 18.400754998368825
1289, 18.400754998368825
1289.5, 18.400754998368825
1290, 18.400754998368825
1290.5, 18.400754998368825
1291, 18.400754998368825
1291.5, 18.400754998368825
1292, 18.400754998368825
1292.5, 18.429466907236403
1293, 18.429466907236403
1293.5, 18.486890724971545
1294, 18.486890724971545
1294.5, 18.544314542706672
1295, 18.544314542706672
1295.5, 18.573026451574265
1296, 18.573026451574265
1296.5, 18.544314542706672
1297, 18.51560263383911
1297.5, 18.51560263383911
1298, 18.458178816103967
1298.5, 18.458178816103967
1299, 18.458178816103967
1299.5, 18.458178816103967
1300, 18.429466907236403
1300.5, 18.429466907236403
1301, 18.37204308950126
1301.4999999999998, 18.31461927176612
1302, 18.31461927176612
1302.5, 18.257195454031006
1303, 18.257195454031006
1303.5, 18.228483545163414
1304, 18.228483545163414
1304.5, 18.228483545163414
1305, 18.19977163629585
1305.5, 18.19977163629585
1306, 18.142347818560708
1306.5, 18.142347818560708
1307, 18.113635909693144
1307.5, 18.113635909693144
1308, 18.142347818560708
1308.5, 18.142347818560708
1309, 17.99878827422286
1309.5, 17.941364456487747
1310, 17.941364456487747
1310.4999999999998, 17.855228729885027
1311, 17.855228729885027
1311.4999999999998, 17.7978049121499
1312, 17.7978049121499
1312.4999999999998, 17.711669185547194
1313, 17.711669185547194
1313.5, 17.625533458944474
1314, 17.51068582347419
1314.5, 17.51068582347419
1315, 17.367126279136343
1315.5, 17.367126279136343
1315.9999999999998, 17.48197391460664
1316.5, 17.48197391460664
1316.9999999999998, 17.45326200573905
1317.5, 17.48197391460664
1317.9999999999998, 17.48197391460664
1318.5, 17.45326200573905
1319, 17.45326200573905
1319.5, 17.51068582347419
1320, 17.51068582347419
1320.5, 17.912652547620155
1321, 17.912652547620155
1321.4999999999998, 17.941364456487747
1322, 17.88394063875259
1322.4999999999998, 17.88394063875259
1323, 17.7978049121499
1323.4999999999998, 17.7978049121499
1324, 17.740381094414744
1324.4999999999998, 17.740381094414744
1325, 17.682957276679602
1325.5, 17.682957276679602
1326, 17.596821550076896
1326.5, 17.596821550076896
1327, 17.596821550076896
1327.5, 17.769093003282308
1327.9999999999998, 17.769093003282308
1328.5, 17.855228729885027
1328.9999999999998, 17.855228729885027
1329.5, 17.82651682101745
1329.9999999999998, 17.82651682101745
1330.5, 17.740381094414744
1331, 17.740381094414744
1331.5, 17.740381094414744
1332, 17.740381094414744
1332.5, 17.740381094414744
1333, 17.711669185547194
1333.4999999999998, 17.711669185547194
1334, 17.711669185547194
1334.4999999999998, 17.82651682101745
1335, 17.82651682101745
1335.4999999999998, 17.941364456487747
1336, 17.941364456487747
1336.5, 18.027500183090453
1337, 18.027500183090453
1337.5, 17.941364456487747
1338, 17.941364456487747
1338.5, 17.82651682101745
1338.9999999999998, 17.740381094414744
1339.5, 17.740381094414744
1339.9999999999998, 17.625533458944474
1340.5, 17.625533458944474
1340.9999999999998, 17.51068582347419
1341.5, 17.51068582347419
1341.9999999999998, 17.45326200573905
1342.5, 17.45326200573905
1343, 17.51068582347419
1343.5, 17.539397732341754
1344, 17.539397732341754
1344.4999999999998, 17.568109641209332
1345, 17.568109641209332
1345.4999999999998, 17.596821550076896
1346, 17.596821550076896
1346.4999999999998, 17.625533458944474
1347, 17.625533458944474
1347.4999999999998, 17.625533458944474
1348, 17.711669185547194
1348.5, 17.711669185547194
1349, 17.7978049121499
1349.5, 17.7978049121499
1350, 17.682957276679602
1350.5, 17.682957276679602
1350.9999999999998, 17.568109641209332
1351.5, 17.45326200573905
1351.9999999999998, 17.45326200573905
1352.5, 17.395838188003935
1352.9999999999998, 17.395838188003935
1353.5, 17.395838188003935
1354, 17.395838188003935
1354.5, 17.367126279136343
1355, 17.367126279136343
1355.5, 17.33841437026878
1356, 17.367126279136343
1356.4999999999998, 17.367126279136343
1357, 17.33841437026878
1357.4999999999998, 17.33841437026878
1358, 17.252278643666074
1358.4999999999998, 17.252278643666074
1359, 17.13743100819579
1359.4999999999998, 17.13743100819579
1360, 17.309702461401216
1360.5, 17.424550096871485
1361, 17.424550096871485
1361.5, 17.51068582347419
1361.9999999999998, 17.51068582347419
1362.5, 17.48197391460664
1362.9999999999998, 17.48197391460664
1363.5, 17.194854825930932
1363.9999999999998, 17.13743100819579
1364.5, 17.13743100819579
1364.9999999999998, 17.223566734798496
1365.5, 17.223566734798496
1366, 17.424550096871485
1366.5, 17.424550096871485
1367, 17.33841437026878
1367.5, 17.33841437026878
1368, 17.309702461401216
1368.4999999999998, 17.280990552533638
1369, 17.280990552533638
1369.4999999999998, 17.367126279136343
1370, 17.367126279136343
1370.4999999999998, 17.395838188003935
1371, 17.395838188003935
1371.5, 17.424550096871485
1372, 17.424550096871485
1372.5, 17.424550096871485
1373, 17.48197391460664
1373.5, 17.48197391460664
1373.9999999999998, 17.596821550076896
1374.5, 17.596821550076896
1374.9999999999998, 17.625533458944474
1375.5, 17.625533458944474
1375.9999999999998, 17.625533458944474
1376.5, 17.51068582347419
1376.9999999999998, 17.51068582347419
1377.5, 17.45326200573905
1378, 17.45326200573905
1378.5, 17.51068582347419
1379, 17.51068582347419
1379.4999999999998, 17.596821550076896
1380, 17.596821550076896
1380.4999999999998, 17.654245367812038
1381, 17.654245367812038
1381.4999999999998, 17.654245367812038
1382, 17.568109641209332
1382.4999999999998, 17.568109641209332
1383, 17.45326200573905
1383.5, 17.45326200573905
1384, 17.51068582347419
1384.5, 17.51068582347419
1385, 17.625533458944474
1385.5, 17.682957276679602
1385.9999999999998, 17.682957276679602
1386.5, 17.682957276679602
1386.9999999999998, 17.682957276679602
1387.5, 17.740381094414744
1387.9999999999998, 17.740381094414744
1388.5, 17.568109641209332
1389, 17.539397732341754
1389.5, 17.539397732341754
1390, 17.539397732341754
1390.5, 17.539397732341754
1391, 17.596821550076896
1391.4999999999998, 17.596821550076896
1392, 17.625533458944474
1392.4999999999998, 17.625533458944474
1393, 17.654245367812038
1393.4999999999998, 17.539397732341754
1394, 17.539397732341754
1394.4999999999998, 17.48197391460664
1395, 17.48197391460664
1395.5, 17.194854825930932
1396, 17.194854825930932
1396.5, 17.252278643666074
1396.9999999999998, 17.252278643666074
1397.5, 17.280990552533638
1397.9999999999998, 17.309702461401216
1398.5, 17.309702461401216
1398.9999999999998, 17.395838188003935
1399.5, 17.395838188003935
1399.9999999999998, 17.48197391460664
