300.5, 49.34552492692028
301, 49.34552492692028
301.5, 49.34552492692028
302, 49.34552492692028
302.5, 49.37420809513833
303, 49.37420809513833
303.5, 49.37420809513833
304, 49.43157443157443
304.5, 49.43157443157443
305, 49.460257599792484
305.5, 49.460257599792484
306, 49.51762393622859
306.5, 49.57499027266469
307, 49.57499027266469
307.5, 49.603673440882744
308, 49.603673440882744
308.5, 49.632356609100796
309, 49.632356609100796
309.5, 49.66103977731885
310, 49.6897229455369
310.5, 49.6897229455369
311, 49.747089281973004
311.5, 49.747089281973004
312, 49.80445561840911
312.5, 49.83313878662716
313, 49.83313878662716
313.5, 49.890505123063264
314, 49.890505123063264
314.5, 49.94787145949937
315, 49.97655462771742
315.5, 49.97655462771742
316, 50.03392096415352
316.5, 50.03392096415352
317, 50.062604132371575
317.5, 50.062604132371575
318, 50.11997046880768
318.5, 50.14865363702573
319, 50.14865363702573
319.5, 50.23470314167989
320, 50.23470314167989
320.5, 50.23470314167989
321, 50.29206947811599
321.5, 50.29206947811599
322, 50.32075264633404
322.5, 50.32075264633404
323, 50.349435814552095
323.5, 50.349435814552095
324, 50.4068021509882
324.5, 50.4068021509882
325, 50.4068021509882
325.5, 50.4641684874243
326, 50.4641684874243
326.5, 50.492851655642355
327, 50.52153482386041
327.5, 50.52153482386041
328, 50.52153482386041
328.5, 50.52153482386041
329, 50.60758432851456
329.5, 50.60758432851456
330, 50.69363383316872
330.5, 50.72231700138677
331, 50.72231700138677
331.5, 50.779683337822874
332, 50.779683337822874
332.5, 50.83704967425898
333, 50.89441601069508
333.5, 50.89441601069508
334, 50.923099178913134
334.5, 50.923099178913134
335, 50.98046551534924
335.5, 50.98046551534924
336, 50.98046551534924
336.5, 51.03783185178534
337, 51.03783185178534
337.5, 51.095198188221445
338, 51.095198188221445
338.5, 51.1238813564395
339, 51.1812476928756
339.5, 51.1812476928756
340, 51.238614029311705
340.5, 51.238614029311705
341, 51.29598036574781
341.5, 51.32466353396586
342, 51.32466353396586
342.5, 51.382029870401965
343, 51.382029870401965
343.5, 51.43939620683807
344, 51.43939620683807
344.5, 51.49676254327417
345, 51.55412887971028
345.5, 51.55412887971028
346, 51.55412887971028
346.5, 51.55412887971028
347, 51.58281204792833
347.5, 51.668861552582484
348, 51.668861552582484
348.5, 51.75491105723664
349, 51.75491105723664
349.5, 51.812277393672744
350, 51.812277393672744
350.5, 51.8983268983269
351, 51.955693234763004
351.5, 51.955693234763004
352, 51.955693234763004
352.5, 51.955693234763004
353, 52.04174273941716
353.5, 52.07042590763521
354, 52.07042590763521
354.5, 52.127792244071316
355, 52.127792244071316
355.5, 52.15647541228937
356, 52.15647541228937
356.5, 52.21384174872547
357, 52.24252491694352
357.5, 52.24252491694352
358, 52.35725758981573
358.5, 52.35725758981573
359, 52.38594075803378
359.5, 52.47199026268794
360, 52.47199026268794
360.5, 52.52935659912404
361, 52.52935659912404
361.5, 52.558039767342095
362, 52.58672293556015
362.5, 52.58672293556015
363, 52.6154061037782
363.5, 52.6154061037782
364, 52.6727724402143
364.5, 52.6727724402143
365, 52.78750511308651
365.5, 52.90223778595872
366, 52.90223778595872
366.5, 52.988287290612874
367, 52.988287290612874
367.5, 53.04565362704898
368, 53.10301996348508
368.5, 53.10301996348508
369, 53.18906946813924
369.5, 53.18906946813924
370, 53.24643580457534
370.5, 53.24643580457534
371, 53.27511897279339
371.5, 53.303802141011445
372, 53.303802141011445
372.5, 53.3324853092295
373, 53.3324853092295
373.5, 53.41853481388365
374, 53.50458431853781
374.5, 53.50458431853781
375, 53.590633823191965
375.5, 53.590633823191965
376, 53.61931699141002
376.5, 53.61931699141002
377, 53.64800015962807
377.5, 53.734049664282225
378, 53.734049664282225
378.5, 53.82009916893638
379, 53.82009916893638
379.5, 53.877465505372484
380, 53.96351501002664
380.5, 53.96351501002664
381, 54.049564514680796
381.5, 54.049564514680796
382, 54.1069308511169
382.5, 54.1069308511169
383, 54.25034669220716
383.5, 54.27902986042521
384, 54.27902986042521
384.5, 54.30771302864326
385, 54.30771302864326
385.5, 54.39376253329742
386, 54.479812037951575
386.5, 54.479812037951575
387, 54.56586154260573
387.5, 54.56586154260573
388, 54.65191104725989
388.5, 54.73796055191404
389, 54.73796055191404
389.5, 54.85269322478625
390, 54.85269322478625
390.5, 54.938742729440406
391, 54.938742729440406
391.5, 54.99610906587651
392, 55.11084173874872
392.5, 55.11084173874872
393, 55.196891243402874
393.5, 55.196891243402874
394, 55.28294074805703
394.5, 55.31162391627508
395, 55.31162391627508
395.5, 55.368990252711185
396, 55.368990252711185
396.5, 55.45503975736534
397, 55.45503975736534
397.5, 55.56977243023755
398, 55.655821934891705
398.5, 55.655821934891705
399, 55.77055460776391
399.5, 55.77055460776391
400, 55.82792094420002
400.5, 55.91397044885417
401, 55.91397044885417
401.5, 56.02870312172637
402, 56.02870312172637
402.5, 56.08606945816248
403, 56.08606945816248
403.5, 56.200802131034685
404, 56.25816846747079
404.5, 56.25816846747079
405, 56.28685163568884
405.5, 56.28685163568884
406, 56.372901140343
406.5, 56.4302674767791
407, 56.4302674767791
407.5, 56.516316981433256
408, 56.516316981433256
408.5, 56.659732822523516
409, 56.659732822523516
409.5, 56.74578232717767
410, 56.83183183183183
410.5, 56.83183183183183
411, 56.946564504704035
411.5, 56.946564504704035
412, 57.00393084114014
412.5, 57.11866351401235
413, 57.11866351401235
413.5, 57.233396186884555
414, 57.233396186884555
414.5, 57.34812885975676
415, 57.46286153262897
415.5, 57.46286153262897
416, 57.548911037283126
416.5, 57.548911037283126
417, 57.63496054193728
417.5, 57.63496054193728
418, 57.77837638302754
418.5, 57.8644258876817
419, 57.8644258876817
419.5, 58.00784172877196
420, 58.00784172877196
420.5, 58.03652489699001
421, 58.06520806520806
421.5, 58.06520806520806
422, 58.15125756986222
422.5, 58.15125756986222
423, 58.23730707451637
423.5, 58.23730707451637
424, 58.35203974738858
424.5, 58.46677242026079
425, 58.46677242026079
425.5, 58.552821924914944
426, 58.552821924914944
426.5, 58.66755459778715
427, 58.839653607095464
427.5, 58.839653607095464
428, 58.92570311174962
428.5, 58.92570311174962
429, 59.06911895283988
429.5, 59.06911895283988
430, 59.155168457494035
430.5, 59.32726746680235
431, 59.32726746680235
431.5, 59.47068330789261
432, 59.47068330789261
432.5, 59.585415980764814
433, 59.64278231720092
433.5, 59.64278231720092
434, 59.81488132650923
434.5, 59.81488132650923
435, 59.900930831163386
435.5, 60.10171300868975
436, 60.10171300868975
436.5, 60.24512884978001
437, 60.24512884978001
437.5, 60.35986152265222
438, 60.35986152265222
438.5, 60.474594195524425
439, 60.56064370017858
439.5, 60.56064370017858
440, 60.618010036614685
440.5, 60.618010036614685
441, 60.761425877704944
441.5, 60.81879221414105
442, 60.81879221414105
442.5, 60.933524887013256
443, 60.933524887013256
443.5, 61.01957439166741
444, 61.01957439166741
444.5, 61.13430706453962
445, 61.30640607384793
445.5, 61.30640607384793
446, 61.47850508315624
446.5, 61.47850508315624
447, 61.6219209242465
447.5, 61.76533676533676
448, 61.76533676533676
448.5, 61.88006943820897
449, 61.88006943820897
449.5, 61.99480211108118
450, 61.99480211108118
450.5, 62.13821795217144
451, 62.224267456825594
451.5, 62.224267456825594
452, 62.3390001296978
452.5, 62.3390001296978
453, 62.45373280257001
453.5, 62.539782307224165
454, 62.539782307224165
454.5, 62.65451498009637
455, 62.65451498009637
455.5, 62.79793082118663
456, 62.79793082118663
456.5, 62.88398032584079
457, 62.998712998712996
457.5, 62.998712998712996
458, 63.08476250336715
458.5, 63.08476250336715
459, 63.22817834445741
459.5, 63.37159418554767
460, 63.37159418554767
460.5, 63.48632685841988
461, 63.48632685841988
461.5, 63.68710903594624
462, 63.80184170881845
462.5, 63.80184170881845
463, 63.91657438169066
463.5, 63.91657438169066
464, 64.03130705456286
464.5, 64.03130705456286
465, 64.14603972743507
465.5, 64.23208923208924
466, 64.23208923208924
466.5, 64.43287140961559
467, 64.43287140961559
467.5, 64.57628725070586
468, 64.74838626001417
468.5, 64.74838626001417
469, 64.92048526932248
469.5, 64.92048526932248
470, 65.03521794219469
470.5, 65.03521794219469
471, 65.17863378328494
471.5, 65.2646832879391
472, 65.2646832879391
472.5, 65.43678229724742
473, 65.43678229724742
473.5, 65.58019813833766
474, 65.66624764299183
474.5, 65.66624764299183
475, 65.86702982051818
475.5, 65.86702982051818
476, 66.0964951662626
476.5, 66.0964951662626
477, 66.23991100735287
477.5, 66.49805952131533
478, 66.49805952131533
478.5, 66.6414753624056
479, 66.6414753624056
479.5, 66.78489120349585
480, 66.87094070815002
480.5, 66.87094070815002
481, 67.04303971745833
481.5, 67.04303971745833
482, 67.15777239033054
482.5, 67.15777239033054
483, 67.35855456785688
483.5, 67.47328724072909
484, 67.47328724072909
484.5, 67.5880199136013
485, 67.5880199136013
485.5, 67.76011892290961
486, 67.90353476399989
486.5, 67.90353476399989
487, 68.04695060509013
487.5, 68.04695060509013
488, 68.0756337733082
488.5, 68.0756337733082
489, 68.0756337733082
489.5, 68.27641595083455
490, 68.27641595083455
490.5, 68.33378228727065
491, 68.33378228727065
491.5, 68.50588129657896
492, 68.62061396945117
492.5, 68.62061396945117
493, 68.64929713766924
493.5, 68.64929713766924
494, 68.73534664232338
494.5, 68.73534664232338
495, 68.73534664232338
495.5, 68.76402981054144
496, 68.76402981054144
496.5, 68.76402981054144
497, 68.76402981054144
497.5, 68.82139614697755
498, 68.87876248341365
498.5, 68.87876248341365
499, 68.82139614697755
499.5, 68.82139614697755
500, 68.79271297875948
500.5, 68.76402981054144
501, 68.76402981054144
501.5, 68.64929713766924
502, 68.64929713766924
502.5, 68.59193080123313
503, 68.59193080123313
503.5, 68.59193080123313
504, 68.53456446479703
504.5, 68.53456446479703
505, 68.44851496014286
505.5, 68.44851496014286
506, 68.27641595083455
506.5, 68.1330001097443
507, 68.1330001097443
507.5, 67.98958426865403
508, 67.98958426865403
508.5, 67.87485159578182
509, 67.87485159578182
509.5, 67.73143575469157
510, 67.44460407251105
510.5, 67.44460407251105
511, 67.35855456785688
511.5, 67.35855456785688
512, 67.21513872676664
512.5, 66.92830704458612
513, 66.92830704458612
513.5, 66.6988416988417
514, 66.6988416988417
514.5, 66.49805952131533
515, 66.0964951662626
515.5, 66.0964951662626
516, 65.89571298873625
516.5, 65.89571298873625
517, 65.63756447477377
517.5, 65.63756447477377
518, 65.35073279259325
518.5, 65.207316951503
519, 65.207316951503
519.5, 64.89180210110442
520, 64.89180210110442
520.5, 64.69101992357807
521, 64.49023774605169
521.5, 64.49023774605169
522, 64.20340606387117
522.5, 64.20340606387117
523, 64.03130705456286
523.5, 64.03130705456286
524, 63.80184170881845
524.5, 63.572376363074035
525, 63.572376363074035
525.5, 63.45764369020183
526, 63.45764369020183
526.5, 63.17081200802131
527, 63.0560793351491
527.5, 63.0560793351491
528, 62.94134666227689
528.5, 62.94134666227689
529, 62.65451498009637
529.5, 62.65451498009637
530, 62.56846547544222
530.5, 62.3390001296978
531, 62.3390001296978
531.5, 62.109534783953386
532, 62.109534783953386
532.5, 62.02348527929923
533, 61.88006943820897
533.5, 61.88006943820897
534, 61.67928726068261
534.5, 61.67928726068261
535, 61.650604092464555
535.5, 61.650604092464555
536, 61.53587141959235
536.5, 61.47850508315624
537, 61.47850508315624
537.5, 61.33508924206598
538, 61.33508924206598
538.5, 61.19167340097572
539, 61.13430706453962
539.5, 61.13430706453962
540, 61.01957439166741
540.5, 61.01957439166741
541, 61.01957439166741
541.5, 61.01957439166741
542, 61.01957439166741
542.5, 61.01957439166741
543, 61.01957439166741
543.5, 60.96220805523131
544, 60.96220805523131
544.5, 60.96220805523131
545, 60.96220805523131
545.5, 60.96220805523131
546, 60.99089122344936
546.5, 60.99089122344936
547, 60.99089122344936
547.5, 61.01957439166741
548, 61.01957439166741
548.5, 61.048257559885464
549, 61.048257559885464
549.5, 61.048257559885464
550, 61.048257559885464
550.5, 61.048257559885464
551, 61.076940728103516
551.5, 61.076940728103516
552, 61.10562389632157
552.5, 61.10562389632157
553, 61.13430706453962
553.5, 61.220356569193775
554, 61.220356569193775
554.5, 61.363772410284035
555, 61.363772410284035
555.5, 61.47850508315624
556, 61.47850508315624
556.5, 61.650604092464555
557, 61.70797042890066
557.5, 61.70797042890066
558, 61.794019933554814
558.5, 61.794019933554814
559, 61.966118942863126
559.5, 62.109534783953386
560, 62.109534783953386
560.5, 62.19558428860754
561, 62.19558428860754
561.5, 62.3390001296978
562, 62.396366466133905
562.5, 62.396366466133905
563, 62.56846547544222
563.5, 62.56846547544222
564, 62.683198148314425
564.5, 62.683198148314425
565, 62.76924765296858
565.5, 62.826613989404684
566, 62.826613989404684
566.5, 62.79793082118663
567, 62.79793082118663
567.5, 62.79793082118663
568, 62.970029830494944
568.5, 62.970029830494944
569, 63.08476250336715
569.5, 63.08476250336715
570, 63.08476250336715
570.5, 63.08476250336715
571, 62.998712998712996
571.5, 62.998712998712996
572, 62.998712998712996
572.5, 62.998712998712996
573, 62.998712998712996
573.5, 62.970029830494944
574, 62.94134666227689
574.5, 62.94134666227689
575, 62.88398032584079
575.5, 62.88398032584079
576, 62.74056448475053
576.5, 62.74056448475053
577, 62.65451498009637
577.5, 62.42504963435196
578, 62.42504963435196
578.5, 62.3390001296978
579, 62.3390001296978
579.5, 62.224267456825594
580, 62.05216844751728
580.5, 62.05216844751728
581, 61.937435774645074
581.5, 61.937435774645074
582, 61.76533676533676
582.5, 61.76533676533676
583, 61.6219209242465
583.5, 61.47850508315624
584, 61.47850508315624
584.5, 61.24903973741183
585, 61.24903973741183
585.5, 61.076940728103516
586, 60.790109045922996
586.5, 60.790109045922996
587, 60.50327736374248
587.5, 60.50327736374248
588, 60.35986152265222
588.5, 60.10171300868975
589, 60.10171300868975
589.5, 59.92961399938144
590, 59.92961399938144
590.5, 59.757514990073126
591, 59.757514990073126
591.5, 59.49936647611066
592, 59.24121796214819
592.5, 59.24121796214819
593, 59.011752616403776
593.5, 59.011752616403776
594, 58.75360410244131
594.5, 58.6388714295691
595, 58.6388714295691
595.5, 58.46677242026079
596, 58.46677242026079
596.5, 58.23730707451637
597, 58.23730707451637
597.5, 58.09389123342611
598, 57.72101004659144
598.5, 57.72101004659144
599, 57.520227869065074
599.5, 57.520227869065074
600, 57.31944569153871
600.5, 57.089980345794295
601, 57.089980345794295
601.5, 56.946564504704035
602, 56.946564504704035
602.5, 56.803148663613776
603, 56.803148663613776
603.5, 56.57368331786936
604, 56.4302674767791
604.5, 56.4302674767791
605, 56.25816846747079
605.5, 56.25816846747079
606, 56.02870312172637
606.5, 55.91397044885417
607, 55.91397044885417
607.5, 55.799237775981965
608, 55.799237775981965
608.5, 55.655821934891705
609, 55.655821934891705
609.5, 55.512406093801445
610, 55.368990252711185
610.5, 55.368990252711185
611, 55.25425757983898
611.5, 55.25425757983898
612, 55.13952490696677
612.5, 54.910059561222354
613, 54.910059561222354
613.5, 54.79532688835015
614, 54.79532688835015
614.5, 54.59454471082378
615, 54.623227879041835
615.5, 54.623227879041835
616, 54.65191104725989
616.5, 54.65191104725989
617, 54.479812037951575
617.5, 54.479812037951575
618, 54.42244570151547
618.5, 54.22166352398911
619, 54.22166352398911
619.5, 54.164297187553004
620, 54.164297187553004
620.5, 54.1069308511169
621, 54.07824768289885
621.5, 54.07824768289885
622, 53.99219817824469
622.5, 53.99219817824469
623, 53.96351501002664
623.5, 53.96351501002664
624, 53.877465505372484
624.5, 53.76273283250028
625, 53.76273283250028
625.5, 53.67668332784612
626, 53.67668332784612
626.5, 53.61931699141002
627, 53.64800015962807
627.5, 53.64800015962807
628, 53.67668332784612
628.5, 53.67668332784612
629, 53.64800015962807
629.5, 53.64800015962807
630, 53.590633823191965
630.5, 53.41853481388365
631, 53.41853481388365
631.5, 53.3898516456656
632, 53.3898516456656
632.5, 53.3898516456656
633, 53.27511897279339
633.5, 53.27511897279339
634, 53.21775263635729
634.5, 53.21775263635729
635, 53.160386299921186
635.5, 53.160386299921186
636, 53.10301996348508
636.5, 53.10301996348508
637, 53.10301996348508
637.5, 53.18906946813924
638, 53.18906946813924
638.5, 53.160386299921186
639, 53.131703131703134
639.5, 53.131703131703134
640, 53.10301996348508
640.5, 53.10301996348508
641, 53.04565362704898
641.5, 52.95960412239482
642, 52.95960412239482
642.5, 52.93092095417677
643, 52.93092095417677
643.5, 52.95960412239482
644, 52.95960412239482
644.5, 53.04565362704898
645, 53.04565362704898
645.5, 53.04565362704898
646, 53.04565362704898
646.5, 53.04565362704898
647, 53.04565362704898
647.5, 53.04565362704898
648, 53.04565362704898
648.5, 53.04565362704898
649, 53.04565362704898
649.5, 53.10301996348508
650, 53.10301996348508
650.5, 53.160386299921186
651, 53.160386299921186
651.5, 53.160386299921186
652, 53.131703131703134
652.5, 53.131703131703134
653, 53.131703131703134
653.5, 53.18906946813924
654, 53.18906946813924
654.5, 53.24643580457534
655, 53.24643580457534
655.5, 53.24643580457534
656, 53.24643580457534
656.5, 53.160386299921186
657, 53.10301996348508
657.5, 53.10301996348508
658, 53.07433679526703
658.5, 53.07433679526703
659, 53.303802141011445
659.5, 53.3324853092295
660, 53.3324853092295
660.5, 53.3324853092295
661, 53.3324853092295
661.5, 53.3898516456656
662, 53.3898516456656
662.5, 53.447217982101705
663, 53.53326748675586
663.5, 53.53326748675586
664, 53.53326748675586
664.5, 53.53326748675586
665, 53.53326748675586
665.5, 53.590633823191965
666, 53.590633823191965
666.5, 53.590633823191965
667, 53.590633823191965
667.5, 53.590633823191965
668, 53.590633823191965
668.5, 53.590633823191965
669, 53.590633823191965
669.5, 53.590633823191965
670, 53.590633823191965
670.5, 53.590633823191965
671, 53.50458431853781
671.5, 53.50458431853781
672, 53.50458431853781
672.5, 53.590633823191965
673, 53.590633823191965
673.5, 53.61931699141002
674, 53.734049664282225
674.5, 53.734049664282225
675, 53.79141600071833
675.5, 53.79141600071833
676, 53.877465505372484
676.5, 53.877465505372484
677, 53.93483184180859
677.5, 53.96351501002664
678, 53.96351501002664
678.5, 53.96351501002664
679, 53.96351501002664
679.5, 54.07824768289885
680, 54.13561401933495
680.5, 54.13561401933495
681, 54.25034669220716
681.5, 54.25034669220716
682, 54.22166352398911
682.5, 54.22166352398911
683, 54.22166352398911
683.5, 54.25034669220716
684, 54.25034669220716
684.5, 54.27902986042521
685, 54.27902986042521
685.5, 54.30771302864326
686, 54.27902986042521
686.5, 54.27902986042521
687, 54.30771302864326
687.5, 54.30771302864326
688, 54.36507936507937
688.5, 54.39376253329742
689, 54.39376253329742
689.5, 54.50849520616963
690, 54.50849520616963
690.5, 54.56586154260573
691, 54.56586154260573
691.5, 54.623227879041835
692, 54.65191104725989
692.5, 54.65191104725989
693, 54.70927738369599
693.5, 54.70927738369599
694, 54.85269322478625
694.5, 54.99610906587651
695, 54.99610906587651
695.5, 55.13952490696677
696, 55.13952490696677
696.5, 55.02479223409456
697, 55.02479223409456
697.5, 54.938742729440406
698, 54.8813763930043
698.5, 54.8813763930043
699, 54.910059561222354
699.5, 54.910059561222354
700, 54.96742589765846
700.5, 54.99610906587651
701, 54.99610906587651
701.5, 55.02479223409456
702, 55.02479223409456
702.5, 55.11084173874872
703, 55.11084173874872
703.5, 55.053475402312614
704, 54.96742589765846
704.5, 54.96742589765846
705, 54.96742589765846
705.5, 54.96742589765846
706, 54.99610906587651
706.5, 55.02479223409456
707, 55.02479223409456
707.5, 55.053475402312614
708, 55.053475402312614
708.5, 55.053475402312614
709, 55.053475402312614
709.5, 55.053475402312614
710, 55.02479223409456
710.5, 55.02479223409456
711, 54.99610906587651
711.5, 54.99610906587651
712, 54.99610906587651
712.5, 55.02479223409456
713, 55.02479223409456
713.5, 55.02479223409456
714, 55.02479223409456
714.5, 54.99610906587651
715, 55.02479223409456
715.5, 55.02479223409456
716, 55.11084173874872
716.5, 55.11084173874872
717, 55.082158570530666
717.5, 55.082158570530666
718, 54.99610906587651
718.5, 54.8240100565682
719, 54.8240100565682
719.5, 54.79532688835015
720, 54.79532688835015
720.5, 54.85269322478625
721, 54.938742729440406
721.5, 54.938742729440406
722, 54.99610906587651
722.5, 54.99610906587651
723, 54.99610906587651
723.5, 54.99610906587651
724, 54.99610906587651
724.5, 55.053475402312614
725, 55.053475402312614
725.5, 55.11084173874872
726, 55.11084173874872
728, 54.938742729440406
728.5, 54.938742729440406
729, 54.8813763930043
729.5, 54.8813763930043
730, 54.85269322478625
730.5, 54.85269322478625
731, 54.85269322478625
731.5, 54.8813763930043
732, 54.8813763930043
732.5, 54.8813763930043
733, 54.85269322478625
733.5, 54.85269322478625
734, 54.766643720132095
734.5, 54.766643720132095
735, 54.73796055191404
735.5, 54.73796055191404
736, 54.73796055191404
736.5, 54.766643720132095
737, 54.766643720132095
737.5, 54.70927738369599
738, 54.70927738369599
738.5, 54.70927738369599
739, 54.68059421547794
739.5, 54.68059421547794
740, 54.70927738369599
740.5, 54.70927738369599
741, 54.766643720132095
741.5, 54.85269322478625
742, 54.85269322478625
742.5, 54.766643720132095
743, 54.766643720132095
743.5, 54.73796055191404
744, 54.73796055191404
744.5, 54.79532688835015
745, 54.766643720132095
745.5, 54.766643720132095
746, 54.73796055191404
746.5, 54.73796055191404
747, 54.73796055191404
747.5, 54.68059421547794
748, 54.68059421547794
748.5, 54.56586154260573
749, 54.56586154260573
749.5, 54.42244570151547
750, 54.42244570151547
750.5, 54.30771302864326
751, 54.25034669220716
751.5, 54.25034669220716
752, 54.22166352398911
752.5, 54.22166352398911
753, 54.22166352398911
753.5, 54.1069308511169
754, 54.1069308511169
754.5, 53.99219817824469
755, 53.99219817824469
755.5, 53.877465505372484
756, 53.877465505372484
756.5, 53.96351501002664
757, 53.99219817824469
757.5, 53.99219817824469
758, 53.99219817824469
758.5, 53.99219817824469
759, 53.96351501002664
759.5, 53.96351501002664
760, 53.96351501002664
760.5, 54.020881346462744
761, 54.020881346462744
761.5, 54.07824768289885
762, 54.07824768289885
762.5, 54.07824768289885
763, 54.049564514680796
763.5, 54.049564514680796
764, 54.049564514680796
764.5, 54.049564514680796
765, 54.020881346462744
765.5, 53.99219817824469
766, 53.99219817824469
766.5, 53.93483184180859
767, 53.93483184180859
767.5, 53.906148673590536
768, 53.906148673590536
768.5, 53.906148673590536
769, 53.84878233715443
769.5, 53.84878233715443
770, 53.70536649606417
770.5, 53.70536649606417
771, 53.67668332784612
771.5, 53.61931699141002
772, 53.61931699141002
772.5, 53.67668332784612
773, 53.67668332784612
773.5, 53.70536649606417
774, 53.734049664282225
774.5, 53.734049664282225
775, 53.64800015962807
775.5, 53.64800015962807
776, 53.50458431853781
776.5, 53.50458431853781
777, 53.3898516456656
777.5, 53.3898516456656
778, 53.3898516456656
778.5, 53.3324853092295
779, 53.3324853092295
779.5, 53.303802141011445
780, 53.18906946813924
780.5, 53.18906946813924
781, 53.04565362704898
781.5, 53.04565362704898
782, 52.90223778595872
782.5, 52.90223778595872
783, 52.844871449522614
783.5, 52.701455608432354
784, 52.701455608432354
784.5, 52.64408927199625
785, 52.64408927199625
785.5, 52.6154061037782
786, 52.6727724402143
786.5, 52.6727724402143
787, 52.6727724402143
787.5, 52.6727724402143
788, 52.58672293556015
788.5, 52.44330709446989
789, 52.44330709446989
789.5, 52.38594075803378
790, 52.38594075803378
790.5, 52.29989125337963
791, 52.29989125337963
791.5, 52.15647541228937
792.0000000000002, 52.04174273941716
792.5, 52.04174273941716
793.0000000000002, 51.86964373010885
793.5, 51.86964373010885
794, 51.812277393672744
794.5, 51.72622788901859
795, 51.72622788901859
795.5000000000002, 51.668861552582484
796, 51.668861552582484
796.5000000000002, 51.61149521614638
797, 51.61149521614638
797.5000000000002, 51.525445711492225
798, 51.43939620683807
798.5, 51.43939620683807
799, 51.35334670218391
799.5, 51.35334670218391
800.0000000000002, 51.238614029311705
800.5, 51.15256452465755
801.0000000000002, 51.15256452465755
801.5, 51.095198188221445
802, 51.095198188221445
802.5, 50.951782347131186
803, 50.951782347131186
803.5000000000002, 50.951782347131186
804, 50.98046551534924
804.5000000000002, 50.98046551534924
805, 50.923099178913134
805.5000000000002, 50.923099178913134
806, 50.779683337822874
806.5, 50.636267496732614
807.0000000000002, 50.636267496732614
807.5, 50.492851655642355
808.0000000000002, 50.492851655642355
808.5, 50.29206947811599
809.0000000000002, 50.29206947811599
809.5, 50.206019973461835
810, 50.11997046880768
810.5, 50.11997046880768
811, 50.062604132371575
811.5000000000002, 50.062604132371575
812, 49.919188291281316
812.5000000000002, 49.86182195484521
813, 49.86182195484521
813.5, 49.83313878662716
814, 49.83313878662716
814.5, 49.83313878662716
815.0000000000002, 49.775772450191056
815.5, 49.775772450191056
816.0000000000002, 49.71840611375495
816.5, 49.71840611375495
817.0000000000002, 49.747089281973004
817.5, 49.747089281973004
818, 49.80445561840911
818.5, 49.775772450191056
819, 49.775772450191056
819.5000000000002, 49.66103977731885
820, 49.66103977731885
820.5000000000002, 49.488940768010536
821, 49.316841758702225
821.5, 49.316841758702225
822, 49.316841758702225
822.5, 49.316841758702225
823.0000000000002, 49.40289126335638
823.5, 49.40289126335638
824.0000000000002, 49.43157443157443
824.5, 49.460257599792484
825.0000000000002, 49.460257599792484
825.5, 49.51762393622859
826, 49.51762393622859
826.5000000000002, 49.632356609100796
827, 49.66103977731885
827.5000000000002, 49.66103977731885
828, 49.57499027266469
828.5000000000002, 49.57499027266469
829, 49.51762393622859
829.5, 49.51762393622859
830, 49.460257599792484
830.5, 49.51762393622859
831.0000000000002, 49.51762393622859
831.5, 49.57499027266469
832.0000000000002, 49.57499027266469
832.5, 49.71840611375495
833, 49.83313878662716
833.5, 49.83313878662716
834, 49.919188291281316
834.5000000000002, 49.919188291281316
835, 50.11997046880768
835.5000000000002, 50.11997046880768
836, 50.29206947811599
836.5000000000002, 50.4068021509882
837, 50.4068021509882
837.5, 50.57890116029651
838, 50.57890116029651
838.5, 50.636267496732614
839.0000000000002, 50.808366506040926
839.5, 50.808366506040926
840.0000000000002, 50.72231700138677
840.5, 50.72231700138677
841, 50.60758432851456
841.5, 50.52153482386041
842, 50.52153482386041
842.5000000000002, 50.4641684874243
843, 50.4641684874243
843.5000000000002, 50.4068021509882
844, 50.4068021509882
844.5000000000002, 50.17733680524378
845, 50.206019973461835
845.5, 50.206019973461835
846.0000000000002, 50.26338630989794
846.5, 50.26338630989794
847.0000000000002, 50.349435814552095
847.5, 50.4068021509882
848.0000000000002, 50.4068021509882
848.5, 50.4641684874243
849, 50.4641684874243
849.5, 50.43548531920625
850, 50.43548531920625
850.5000000000002, 50.43548531920625
851, 50.43548531920625
851.5000000000002, 50.43548531920625
852, 50.349435814552095
852.5, 50.349435814552095
853, 50.29206947811599
853.5, 50.17733680524378
854.0000000000002, 50.17733680524378
854.5, 50.14865363702573
855.0000000000002, 50.14865363702573
855.5, 50.062604132371575
856.0000000000002, 50.062604132371575
856.5, 50.09128730058963
857, 50.062604132371575
857.5000000000002, 50.062604132371575
858, 50.00523779593547
858.5000000000002, 50.00523779593547
859, 50.09128730058963
859.5000000000002, 50.17733680524378
860, 50.17733680524378
860.5, 50.11997046880768
861, 50.11997046880768
861.5, 50.11997046880768
862.0000000000002, 50.11997046880768
862.5, 50.206019973461835
863.0000000000002, 50.206019973461835
863.5, 50.206019973461835
864.0000000000002, 50.206019973461835
864.5, 50.206019973461835
865, 50.11997046880768
865.5000000000002, 50.11997046880768
866, 50.11997046880768
866.5000000000002, 50.14865363702573
867, 50.14865363702573
867.5000000000002, 50.23470314167989
868, 50.26338630989794
868.5, 50.26338630989794
869, 50.29206947811599
869.5, 50.29206947811599
870.0000000000002, 50.349435814552095
870.5, 50.349435814552095
871.0000000000002, 50.43548531920625
871.5, 50.492851655642355
872, 50.492851655642355
872.5, 50.636267496732614
873, 50.636267496732614
873.5000000000002, 50.75100016960482
874, 50.808366506040926
874.5000000000002, 50.808366506040926
875, 50.779683337822874
875.5000000000002, 50.779683337822874
876, 50.779683337822874
876.5, 50.779683337822874
877.0000000000002, 50.89441601069508
877.5, 50.951782347131186
878.0000000000002, 50.951782347131186
878.5, 51.03783185178534
879.0000000000002, 51.03783185178534
879.5, 51.1812476928756
880, 51.26729719752976
880.5, 51.26729719752976
881, 51.41071303862002
881.5000000000002, 51.41071303862002
882, 51.46807937505612
882.5000000000002, 51.46807937505612
883, 51.49676254327417
883.5000000000002, 51.49676254327417
884, 51.49676254327417
884.5, 51.49676254327417
885.0000000000002, 51.49676254327417
885.5, 51.525445711492225
886.0000000000002, 51.668861552582484
886.5, 51.668861552582484
887.0000000000002, 51.72622788901859
887.5, 51.72622788901859
888, 51.58281204792833
888.5000000000002, 51.58281204792833
889, 51.41071303862002
889.5000000000002, 51.29598036574781
890, 51.29598036574781
890.5000000000002, 51.46807937505612
891, 51.46807937505612
891.5, 51.525445711492225
892, 51.61149521614638
892.5, 51.61149521614638
893.0000000000002, 51.78359422545469
893.5, 51.78359422545469
894.0000000000002, 51.955693234763004
894.5, 52.07042590763521
895.0000000000002, 52.07042590763521
895.5, 52.127792244071316
896, 52.127792244071316
896.5000000000002, 52.127792244071316
897, 52.127792244071316
897.5000000000002, 52.127792244071316
898, 52.15647541228937
898.5000000000002, 52.15647541228937
899, 52.21384174872547
899.5, 52.21384174872547
900, 52.50067343090599
900.5, 52.558039767342095
901.0000000000002, 52.558039767342095
901.5, 52.75882194486846
902.0000000000002, 52.75882194486846
902.5, 52.93092095417677
903.0000000000002, 52.93092095417677
903.5, 53.04565362704898
904, 53.303802141011445
904.5000000000002, 53.303802141011445
905, 53.447217982101705
905.5000000000002, 53.447217982101705
906, 53.61931699141002
906.5000000000002, 53.84878233715443
907, 53.84878233715443
907.5, 54.07824768289885
908.0000000000002, 54.07824768289885
908.5, 54.27902986042521
909.0000000000002, 54.27902986042521
909.5, 54.53717837438768
910.0000000000002, 54.68059421547794
910.5, 54.68059421547794
911, 54.910059561222354
911.5, 54.910059561222354
912, 55.053475402312614
912.5000000000002, 55.39767342092924
913, 55.39767342092924
913.5000000000002, 55.77055460776391
914, 55.77055460776391
914.5000000000002, 56.00001995350832
915, 56.28685163568884
915.5, 56.28685163568884
916.0000000000002, 56.57368331786936
916.5, 56.57368331786936
917.0000000000002, 56.88919816826793
917.5, 56.88919816826793
918.0000000000002, 57.03261400935819
918.5, 57.2047130186665
919, 57.2047130186665
919.5000000000002, 57.233396186884555
920, 57.233396186884555
920.5000000000002, 57.29076252332066
921, 57.57759420550118
921.5000000000002, 57.57759420550118
922, 57.8644258876817
922.5000000000002, 57.8644258876817
923, 58.23730707451637
923.5, 58.23730707451637
924.0000000000002, 58.581505093132996
924.5, 58.724920934223256
925.0000000000002, 58.724920934223256
925.5, 59.011752616403776
926.0000000000002, 59.011752616403776
926.5, 59.24121796214819
927, 59.47068330789261
927.5000000000002, 59.47068330789261
928, 59.585415980764814
928.5000000000002, 59.585415980764814
929, 59.64278231720092
929.5000000000002, 59.64278231720092
930, 59.95829716759949
930.5, 60.30249518621611
931, 60.30249518621611
931.5, 60.474594195524425
932.0000000000002, 60.474594195524425
932.5, 60.64669320483274
933.0000000000002, 60.96220805523131
933.5, 60.96220805523131
934.0000000000002, 61.10562389632157
934.5, 61.10562389632157
935, 61.47850508315624
935.5000000000002, 61.47850508315624
936, 61.6219209242465
936.5000000000002, 61.966118942863126
937, 61.966118942863126
937.5000000000002, 62.224267456825594
938, 62.224267456825594
938.5, 62.48241597078806
939.0000000000002, 62.79793082118663
939.5, 62.79793082118663
940.0000000000002, 62.998712998712996
940.5, 62.998712998712996
941.0000000000002, 63.19949517623936
941.5, 63.37159418554767
942.0000000000002, 63.37159418554767
942.5, 63.48632685841988
943, 63.48632685841988
943.5000000000002, 63.7731585406004
944, 63.7731585406004
944.5000000000002, 63.91657438169066
945, 64.11735655921703
945.5000000000002, 64.11735655921703
946, 64.46155457783365
946.5, 64.46155457783365
947.0000000000002, 64.83443576466831
947.5, 65.12126744684883
948.0000000000002, 65.12126744684883
948.5, 65.49414863368352
949.0000000000002, 65.49414863368352
949.5, 65.60888130655573
950, 65.60888130655573
950.5, 65.89571298873625
951, 66.0391288298265
951.5000000000002, 66.0391288298265
952, 66.18254467091677
952.5000000000002, 66.18254467091677
953, 66.44069318487922
953.5000000000002, 66.5841090259695
954, 66.5841090259695
954.5, 66.75620803527781
955.0000000000002, 66.75620803527781
955.5, 67.04303971745833
956.0000000000002, 67.04303971745833
956.5, 67.38723773607495
957.0000000000002, 67.5880199136013
957.5, 67.5880199136013
958, 68.10431694152624
958.5000000000002, 68.10431694152624
959, 68.30509911905261
959.5000000000002, 68.70666347410534
960, 68.70666347410534
960.5000000000002, 68.64929713766924
961, 68.64929713766924
961.5000000000002, 68.67798030588727
962, 68.67798030588727
962.5, 68.93612881984976
963.0000000000002, 69.10822782915807
963.5, 69.10822782915807
964.0000000000002, 69.5097921842108
964.5, 69.5097921842108
965.0000000000002, 69.91135653926352
965.5, 70.05477238035377
966, 70.05477238035377
966.5000000000002, 70.48501990362456
967, 70.48501990362456
967.5000000000002, 70.71448524936898
968, 70.80053475402312
968.5000000000002, 70.80053475402312
969, 70.94395059511339
969.5, 70.94395059511339
970.0000000000002, 71.34551495016612
970.5, 71.34551495016612
971.0000000000002, 71.51761395947443
971.5, 71.97654465096326
972.0000000000002, 71.97654465096326
972.5, 72.17732682848961
973.0000000000002, 72.17732682848961
973.5, 72.32074266957989
974, 72.57889118354234
974.5000000000002, 72.57889118354234
975, 72.72230702463261
975.5000000000002, 72.72230702463261
976, 73.03782187503117
976.5000000000002, 73.03782187503117
977, 73.18123771612144
977.5, 73.32465355721169
978.0000000000002, 73.32465355721169
978.5, 73.64016840761028
979.0000000000002, 73.64016840761028
979.5, 73.84095058513662
980.0000000000002, 74.0990990990991
980.5, 74.0990990990991
981.0000000000002, 74.52934662236987
981.5, 74.52934662236987
982, 74.64407929524208
982.5000000000002, 74.64407929524208
983, 74.95959414564066
983.5000000000002, 75.21774265960312
984, 75.21774265960312
984.5000000000002, 75.38984166891143
985, 75.38984166891143
985.5, 75.82008919218222
986.0000000000002, 76.02087136970857
986.5, 76.02087136970857
987.0000000000002, 76.33638622010716
987.5, 76.33638622010716
988.0000000000002, 76.53716839763351
988.5, 76.53716839763351
989.0000000000002, 76.68058423872378
989.5000000000002, 76.82400007981403
990, 76.82400007981403
990.5000000000002, 77.05346542555844
991, 77.05346542555844
991.5000000000002, 77.19688126664872
992, 77.54107928526534
992.5000000000002, 77.54107928526534
993, 77.94264364031807
993.5, 77.94264364031807
994.0000000000002, 78.20079215428052
994.5, 78.91787135973182
995.0000000000002, 78.91787135973182
995.5, 78.83182185507766
996.0000000000002, 78.83182185507766
996.5, 78.80313868685961
997, 78.80313868685961
997.5000000000002, 79.00392086438598
998, 79.11865353725818
998.5000000000002, 79.11865353725818
999, 79.4628515558748
999.5000000000002, 79.4628515558748
1000, 79.69231690161922
1000.5000000000002, 80.03651492023585
1001.0000000000002, 80.03651492023585
1001.5, 80.0651980884539
1002.0000000000002, 80.0651980884539
1002.5, 80.09388125667195
1003.0000000000002, 80.09388125667195
1003.5, 80.1799307613261
1004.0000000000002, 80.66754462103299
1004.5, 80.66754462103299
1005, 80.7822772939052
1005.5000000000002, 80.7822772939052
1006, 81.12647531252182
1006.5000000000002, 81.32725749004818
1007, 81.32725749004818
1007.5000000000002, 81.41330699470234
1008, 81.41330699470234
1008.5000000000002, 81.58540600401065
1009.0000000000002, 81.58540600401065
1009.5, 81.90092085440922
1010.0000000000002, 82.01565352728143
1010.5, 82.01565352728143
1011.0000000000002, 82.41721788233416
1011.5, 82.41721788233416
1012.0000000000002, 82.56063372342442
1012.5, 82.81878223738688
1013, 82.81878223738688
1013.5000000000002, 83.01956441491325
1014, 83.01956441491325
1014.5000000000002, 83.22034659243961
1015, 83.53586144283818
1015.5000000000002, 83.53586144283818
1016, 83.79400995680065
1016.5, 83.79400995680065
1017.0000000000002, 83.96610896610896
1017.5, 83.96610896610896
1018.0000000000002, 83.99479213432701
1018.5, 83.99479213432701
1019.0000000000002, 83.99479213432701
1019.5, 84.02347530254507
1020.0000000000002, 84.02347530254507
1020.5000000000002, 84.4250396575978
1021, 84.62582183512416
1021.5000000000002, 84.62582183512416
1022, 85.05606935839494
1022.5000000000002, 85.05606935839494
1023, 85.14211886304909
1023.5000000000002, 85.14211886304909
1024, 85.11343569483104
1024.5, 85.08475252661299
1025.0000000000002, 85.08475252661299
1025.5, 85.1994851994852
1026.0000000000002, 85.1994851994852
1027.0000000000002, 85.54368321810182
1027.5, 85.54368321810182
1028.0000000000002, 85.80183173206429
1028.5000000000002, 85.80183173206429
1029, 86.0312970778087
1029.5000000000002, 86.0312970778087
1030, 86.40417826464338
1030.5000000000002, 86.49022776929753
1031, 86.49022776929753
1031.5000000000002, 86.49022776929753
1032.0000000000002, 86.49022776929753
1032.5, 86.31812875998922
1033.0000000000002, 86.26076242355312
1033.5, 86.26076242355312
1034.0000000000002, 86.20339608711701
1034.5, 86.20339608711701
1035.0000000000002, 86.43286143286143
1035.5, 86.43286143286143
1036, 86.54759410573364
1036.5000000000002, 86.71969311504195
1037, 86.71969311504195
1037.5000000000002, 86.74837628326
1038, 86.74837628326
1038.5000000000002, 86.77705945147805
1039, 86.66232677860584
1039.5000000000002, 86.66232677860584
1040.0000000000002, 86.60496044216974
1040.5, 86.60496044216974
1041.0000000000002, 86.40417826464338
1041.5, 86.6910099468239
1042.0000000000002, 86.6910099468239
1042.5, 86.6910099468239
1043.0000000000002, 86.6910099468239
1043.5, 87.09257430187662
1044, 87.09257430187662
1045, 87.00652479722247
1045.5000000000002, 87.00652479722247
1046, 87.12125747009468
1046.5000000000002, 87.12125747009468
1047, 87.14994063831273
1047.5000000000002, 87.06389113365857
1048.0000000000002, 87.06389113365857
1050.5, 87.12125747009468
1051.0000000000002, 86.74837628326
1051.5000000000002, 86.74837628326
1052, 86.51891093751559
1052.5000000000002, 86.51891093751559
1053, 86.57627727395169
1053.5000000000002, 86.57627727395169
1054, 86.57627727395169
1054.5000000000002, 86.49022776929753
1055, 86.49022776929753
1055.5, 86.31812875998922
1056.0000000000002, 86.31812875998922
1056.5, 86.14602975068091
1057.0000000000002, 86.0312970778087
1057.5, 86.0312970778087
1058.0000000000002, 85.71578222741013
1058.5, 85.71578222741013
1059.0000000000002, 85.65841589097403
1059.5000000000002, 85.65841589097403
1060, 85.65841589097403
1060.5000000000002, 85.60104955453792
1061, 85.60104955453792
1061.5000000000002, 85.57236638631987
1062, 85.57236638631987
1062.5000000000002, 85.11343569483104
1063.0000000000002, 84.94133668552273
1063.5, 84.94133668552273
1064.0000000000002, 84.74055450799636
1064.5, 84.74055450799636
1065.0000000000002, 84.65450500334221
1065.5, 84.56845549868805
1066.0000000000002, 84.56845549868805
1066.5, 84.31030698472559
1067.0000000000002, 84.31030698472559
1067.5000000000002, 84.28162381650753
1068, 84.19557431185338
1068.5000000000002, 84.19557431185338
1069, 84.16689114363533
1069.5000000000002, 84.16689114363533
1070, 83.7079604521465
1070.5000000000002, 83.7079604521465
1071.0000000000002, 84.22425748007143
1071.5, 82.96219807847714
1072.0000000000002, 82.96219807847714
1072.5, 82.87614857382299
1073.0000000000002, 82.87614857382299
1073.5, 82.84746540560494
1074.0000000000002, 82.50326738698831
1074.5, 82.50326738698831
1075, 82.3885347141161
1075.5000000000002, 82.3885347141161
1076, 82.07301986371753
1076.5000000000002, 82.07301986371753
1077, 81.6714555086648
1077.5000000000002, 81.35594065826623
1078, 81.35594065826623
1078.5000000000002, 80.8970099667774
1079.0000000000002, 80.8970099667774
1079.5, 80.75359412568714
1080.0000000000002, 80.69622778925104
1080.5, 80.69622778925104
1081.0000000000002, 80.38071293885247
1081.5, 80.38071293885247
1082.0000000000002, 80.23729709776221
1082.5000000000002, 80.23729709776221
1083, 79.80704957449143
1083.5000000000002, 79.57758422874701
1084, 79.57758422874701
1084.5000000000002, 79.31943571478455
1085, 79.31943571478455
1085.5000000000002, 79.14733670547623
1086, 78.94655452794987
1086.5000000000002, 78.94655452794987
1087.0000000000002, 78.65972284576935
1087.5, 78.65972284576935
1088.0000000000002, 78.28684165893468
1088.5, 78.28684165893468
1089.0000000000002, 78.00000997675416
1089.5, 77.54107928526534
1090.0000000000002, 77.54107928526534
1090.5000000000002, 77.25424760308482
1091, 77.25424760308482
1091.5000000000002, 77.0247822573404
1092, 76.99609908912234
1092.5000000000002, 76.99609908912234
1093, 76.88136641625013
1093.5000000000002, 76.88136641625013
1094, 76.68058423872378
1094.5, 76.04955453792664
1095.0000000000002, 76.04955453792664
1095.5, 75.93482186505443
1096.0000000000002, 75.93482186505443
1096.5, 75.4185248371295
1097.0000000000002, 75.4185248371295
1097.5, 75.21774265960312
1098.0000000000002, 75.0456436502948
1098.5000000000002, 75.0456436502948
1099, 74.55802979058794
1099.5000000000002, 74.55802979058794
1100, 74.38593078127963
1100.5000000000002, 73.9843664262269
1101, 73.9843664262269
1101.5000000000002, 73.52543573473807
1102.0000000000002, 73.52543573473807
1102.5, 73.41070306186586
1103.0000000000002, 73.41070306186586
1103.5, 73.26728722077559
1104.0000000000002, 72.89440603394092
1104.5, 72.89440603394092
1105.0000000000002, 72.77967336106872
1105.5, 72.77967336106872
1106.0000000000002, 72.34942583779792
1106.5000000000002, 72.03391098739937
1107, 72.03391098739937
1107.5000000000002, 71.83312880987299
1108, 71.83312880987299
1108.5000000000002, 71.48893079125637
1109, 71.48893079125637
1109.5000000000002, 71.20209910907585
1110.0000000000002, 70.85790109045922
1110.5, 70.85790109045922
1111.0000000000002, 70.74316841758701
1111.5, 70.74316841758701
1112.0000000000002, 70.65711891293287
1112.5, 70.34160406253429
1113.0000000000002, 70.34160406253429
1113.5000000000002, 70.08345554857183
1114, 70.08345554857183
1114.5000000000002, 69.624524857083
1115, 69.624524857083
1115.5000000000002, 69.07954466094
1116, 68.87876248341365
1116.5000000000002, 68.87876248341365
1117, 68.59193080123313
1117.5000000000002, 68.59193080123313
1118.0000000000002, 68.24773278261651
1118.5, 67.81748525934572
1119.0000000000002, 67.81748525934572
1119.5, 67.70275258647351
1120.0000000000002, 67.70275258647351
1120.5, 67.41592090429299
1121.0000000000002, 67.35855456785688
1121.5000000000002, 67.35855456785688
1122, 66.98567338102222
1122.5000000000002, 66.98567338102222
1123, 66.81357437171391
1123.5000000000002, 66.81357437171391
1124, 66.38332684844312
1124.5000000000002, 66.01044566160846
1125, 66.01044566160846
1125.5000000000002, 65.86702982051818
1126.0000000000002, 65.86702982051818
1126.5, 65.63756447477377
1127.0000000000002, 65.2646832879391
1127.5, 65.2646832879391
1128.0000000000002, 65.03521794219469
1128.5, 65.03521794219469
1129.0000000000002, 64.43287140961559
1129.5000000000002, 64.43287140961559
1130, 64.28945556852534
1130.5000000000002, 64.08867339099896
1131, 64.08867339099896
1131.5000000000002, 63.91657438169066
1132, 63.91657438169066
1132.5000000000002, 63.48632685841988
1133.0000000000002, 63.37159418554767
1133.5, 63.37159418554767
1134.0000000000002, 63.02739616693105
1134.5, 63.02739616693105
1135.0000000000002, 62.855297157622736
1135.5, 62.855297157622736
1136.0000000000002, 62.65451498009637
1136.5, 62.396366466133905
1137.0000000000002, 62.396366466133905
1137.5000000000002, 62.252950625043646
1138, 62.252950625043646
1138.5000000000002, 61.937435774645074
1139, 61.5645545878104
1139.5000000000002, 61.5645545878104
1140, 61.42113874672014
1140.5000000000002, 61.42113874672014
1141.0000000000002, 61.048257559885464
1141.5, 60.790109045922996
1142.0000000000002, 60.790109045922996
1142.5, 60.53196053196053
1143.0000000000002, 60.53196053196053
1143.5, 60.474594195524425
1144.0000000000002, 60.474594195524425
1144.5000000000002, 60.27381201799806
1145.0000000000002, 59.872247662945334
1145.5000000000002, 59.872247662945334
1146, 59.55673281254676
1146.5000000000002, 59.55673281254676
1147, 59.4133169714565
1147.5000000000002, 59.26990113036624
1148, 59.26990113036624
1148.5000000000002, 59.04043578462183
1149.0000000000002, 59.04043578462183
1149.5, 58.724920934223256
1150.0000000000002, 58.724920934223256
1150.5, 58.46677242026079
1151.0000000000002, 58.38072291560663
1151.5, 58.38072291560663
1152.0000000000002, 58.265990242734425
1152.5000000000002, 58.265990242734425
1153, 58.06520806520806
1153.5000000000002, 57.77837638302754
1154, 57.77837638302754
1154.5000000000002, 57.548911037283126
1155, 57.548911037283126
1155.5000000000002, 57.34812885975676
1156.0000000000002, 57.34812885975676
1156.5000000000002, 57.06129717757624
1157, 56.83183183183183
1157.5, 56.83183183183183
1158.0000000000002, 56.68841599074157
1158.5000000000002, 56.68841599074157
1159, 56.487633813215204
1159.5, 56.25816846747079
1160.0000000000002, 56.25816846747079
1160.5000000000002, 56.17211896281663
1161.0000000000002, 56.17211896281663
1161.5, 55.71318827132781
1162, 55.71318827132781
1162.5000000000002, 55.5410892620195
1163.0000000000002, 55.25425757983898
1163.5, 55.25425757983898
1164, 55.11084173874872
1164.5000000000002, 55.11084173874872
1165.0000000000002, 55.053475402312614
1165.5000000000002, 54.99610906587651
1166, 54.99610906587651
1166.5, 54.79532688835015
1167.0000000000002, 54.79532688835015
1167.5000000000002, 54.65191104725989
1168.0000000000002, 54.479812037951575
1168.5, 54.479812037951575
1169, 54.192980355771056
1169.5000000000002, 54.192980355771056
1170.0000000000002, 54.020881346462744
1170.5, 54.020881346462744
1171, 53.76273283250028
1171.5000000000002, 53.56195065497391
1172.0000000000002, 53.56195065497391
1172.5000000000002, 53.447217982101705
1173, 53.447217982101705
1173.5, 53.303802141011445
1174.0000000000002, 53.131703131703134
1174.5000000000002, 53.131703131703134
1175, 52.90223778595872
1175.5, 52.90223778595872
1176.0000000000002, 52.6727724402143
1176.5000000000002, 52.6727724402143
1177.0000000000002, 52.6154061037782
1177.5, 52.50067343090599
1178, 52.50067343090599
1178.5000000000002, 52.50067343090599
1179.0000000000002, 52.50067343090599
1179.5000000000002, 52.47199026268794
1180, 52.21384174872547
1180.5, 52.21384174872547
1181.0000000000002, 52.04174273941716
1181.5000000000002, 52.04174273941716
1182, 51.86964373010885
1182.5, 51.86964373010885
1183.0000000000002, 51.668861552582484
1183.5000000000002, 51.61149521614638
1184.0000000000002, 51.61149521614638
1184.5, 51.49676254327417
1185, 51.49676254327417
1185.5000000000002, 51.43939620683807
1186.0000000000002, 51.29598036574781
1186.5, 51.29598036574781
1187, 51.1238813564395
1187.5000000000002, 51.1238813564395
1188.0000000000002, 51.095198188221445
1188.5000000000002, 51.095198188221445
1189, 50.86573284247703
1189.5, 50.808366506040926
1190.0000000000002, 50.808366506040926
1190.5000000000002, 51.03783185178534
1191.0000000000002, 51.03783185178534
1191.5, 51.00914868356729
1192, 50.779683337822874
1192.5000000000002, 50.779683337822874
1193.0000000000002, 50.69363383316872
1193.5, 50.69363383316872
1194, 50.664950664950666
1194.5000000000002, 50.636267496732614
1195.0000000000002, 50.636267496732614
1195.5000000000002, 50.57890116029651
1196, 50.57890116029651
1196.5, 50.52153482386041
1197.0000000000002, 50.52153482386041
1197.5000000000002, 50.4641684874243
1198, 50.37811898277015
1198.5, 50.37811898277015
1199.0000000000002, 50.14865363702573
1199.5000000000002, 50.14865363702573
1200.0000000000002, 50.03392096415352
1200.5, 49.890505123063264
1201, 49.890505123063264
1201.5000000000002, 49.97655462771742
1202.0000000000002, 49.97655462771742
1202.5, 50.09128730058963
1203, 50.09128730058963
1203.5000000000002, 50.206019973461835
1204.0000000000002, 49.94787145949937
1204.5000000000002, 49.94787145949937
1205, 49.86182195484521
1205.5, 49.86182195484521
1206.0000000000002, 49.83313878662716
1206.5000000000002, 49.80445561840911
1207.0000000000002, 49.80445561840911
1207.5, 49.747089281973004
1208, 49.747089281973004
1208.5000000000002, 49.603673440882744
1209.0000000000002, 49.603673440882744
1209.5, 49.57499027266469
1210, 49.71840611375495
1210.5000000000002, 49.71840611375495
1211.0000000000002, 49.80445561840911
1211.5000000000002, 49.80445561840911
1212, 49.80445561840911
1212.5, 49.71840611375495
1213.0000000000002, 49.71840611375495
1213.5000000000002, 49.66103977731885
1214, 49.66103977731885
1214.5, 49.57499027266469
1215.0000000000002, 49.57499027266469
1215.5000000000002, 49.632356609100796
1216.0000000000002, 49.632356609100796
1216.5, 49.632356609100796
1217, 49.57499027266469
1217.5000000000002, 49.57499027266469
1218.0000000000002, 49.51762393622859
1218.5000000000002, 49.488940768010536
1219, 49.488940768010536
1219.5, 49.488940768010536
1220.0000000000002, 49.488940768010536
1220.5000000000002, 49.40289126335638
1221, 49.34552492692028
1221.5, 49.34552492692028
1222.0000000000002, 49.20210908583002
1222.5000000000002, 49.20210908583002
1223.0000000000002, 49.20210908583002
1223.5, 49.20210908583002
1224, 49.25947542226612
1224.5000000000002, 49.316841758702225
1225.0000000000002, 49.316841758702225
1225.5, 49.34552492692028
1226, 49.34552492692028
1226.5000000000002, 49.40289126335638
1227.0000000000002, 49.43157443157443
1227.5000000000002, 49.43157443157443
1228, 49.460257599792484
1228.5, 49.460257599792484
1229.0000000000002, 49.603673440882744
1229.5000000000002, 49.603673440882744
1230.0000000000002, 49.632356609100796
1230.5, 49.51762393622859
1231, 49.51762393622859
1231.5000000000002, 49.28815859048417
1232.0000000000002, 49.28815859048417
1232.5, 49.25947542226612
1233, 49.23079225404807
1233.5000000000002, 49.23079225404807
1234.0000000000002, 49.11605958117586
1234.5000000000002, 49.11605958117586
1235, 48.94396057186755
1235.5, 48.94396057186755
1236.0000000000002, 48.743178394341186
1236.5000000000002, 48.80054473077729
1237, 48.80054473077729
1237.5, 48.857911067213394
1238.0000000000002, 48.857911067213394
1238.5000000000002, 49.14474274939391
1239.0000000000002, 49.173425917611965
1239.5, 49.173425917611965
1240, 49.20210908583002
1240.5000000000002, 49.20210908583002
1241.0000000000002, 49.316841758702225
1241.5000000000002, 49.316841758702225
1242, 49.40289126335638
1242.5000000000002, 49.43157443157443
1243.0000000000002, 49.43157443157443
1243.5000000000002, 49.40289126335638
1244, 49.40289126335638
1244.5, 49.43157443157443
1245.0000000000002, 49.632356609100796
1245.5000000000002, 49.632356609100796
1246.0000000000002, 49.51762393622859
1246.5, 49.51762393622859
1247, 49.28815859048417
1247.5000000000002, 49.20210908583002
1248.0000000000002, 49.20210908583002
1248.5, 49.173425917611965
1249, 49.173425917611965
1249.5000000000002, 49.05869324473976
1250.0000000000002, 49.05869324473976
1250.5000000000002, 49.40289126335638
1251, 49.54630710444664
1251.5, 49.54630710444664
1252.0000000000002, 49.603673440882744
1252.5000000000002, 49.603673440882744
1253, 49.54630710444664
1253.5, 49.460257599792484
1254.0000000000002, 49.460257599792484
1254.5000000000002, 48.857911067213394
1255.0000000000002, 48.857911067213394
1255.5, 49.00132690830365
1256, 49.00132690830365
1256.5000000000002, 49.08737641295781
1257.0000000000002, 49.34552492692028
1257.5000000000002, 49.34552492692028
1258, 49.37420809513833
1258.5, 49.37420809513833
1259.0000000000002, 49.28815859048417
1259.5000000000002, 49.34552492692028
1260, 49.34552492692028
1260.5, 49.37420809513833
1261.0000000000002, 49.37420809513833
1261.5000000000002, 49.173425917611965
1262.0000000000002, 49.173425917611965
1262.5, 49.05869324473976
1263, 49.00132690830365
1263.5000000000002, 49.00132690830365
1264.0000000000002, 49.20210908583002
1264.5, 49.20210908583002
1265, 49.28815859048417
1265.5000000000002, 49.40289126335638
1266.0000000000002, 49.40289126335638
1266.5000000000002, 49.37420809513833
1267, 49.37420809513833
1267.5, 49.34552492692028
1268.0000000000002, 49.34552492692028
1268.5000000000002, 49.34552492692028
1269.0000000000002, 49.173425917611965
1269.5, 49.173425917611965
1270, 49.11605958117586
1270.5000000000002, 49.11605958117586
1271.0000000000002, 49.460257599792484
1271.5, 49.460257599792484
1272, 49.460257599792484
1272.5000000000002, 49.34552492692028
1273.0000000000002, 49.34552492692028
1273.5000000000002, 49.28815859048417
1274, 49.316841758702225
1274.5, 49.316841758702225
1275.0000000000002, 49.54630710444664
1275.5000000000002, 49.54630710444664
1276, 49.71840611375495
1276.5, 49.71840611375495
1277.0000000000002, 49.775772450191056
1277.5000000000002, 49.57499027266469
1278.0000000000002, 49.57499027266469
1278.5, 49.54630710444664
1279, 49.54630710444664
1279.5000000000002, 49.51762393622859
1280.0000000000002, 49.37420809513833
1280.5000000000002, 49.37420809513833
1281, 49.40289126335638
1281.5000000000002, 49.40289126335638
1282.0000000000002, 49.6897229455369
1282.5000000000002, 49.6897229455369
1283, 49.775772450191056
1283.5, 49.80445561840911
1284.0000000000002, 49.80445561840911
1284.5000000000002, 49.6897229455369
1285.0000000000002, 49.6897229455369
1285.5, 49.747089281973004
1286, 49.83313878662716
1286.5000000000002, 49.83313878662716
1287.0000000000002, 50.03392096415352
1287.5, 50.03392096415352
1288, 50.09128730058963
1288.5000000000002, 50.09128730058963
1289.0000000000002, 50.17733680524378
1289.5000000000002, 50.23470314167989
1290, 50.23470314167989
1290.5, 50.23470314167989
1291.0000000000002, 50.23470314167989
1291.5000000000002, 50.23470314167989
1292.0000000000002, 50.23470314167989
1292.5, 50.23470314167989
1293.0000000000002, 50.23470314167989
1293.5000000000002, 50.23470314167989
1294.0000000000002, 50.14865363702573
1294.5, 50.11997046880768
1295, 50.11997046880768
1295.5000000000002, 50.062604132371575
1296.0000000000002, 50.062604132371575
1296.5000000000002, 50.03392096415352
1297, 50.03392096415352
1297.5, 50.09128730058963
1298.0000000000002, 50.09128730058963
1298.5000000000002, 50.09128730058963
1299, 50.03392096415352
1299.5, 50.03392096415352
1300.0000000000002, 50.00523779593547
1300.5000000000002, 50.14865363702573
1301.0000000000002, 50.14865363702573
1301.5, 50.09128730058963
1302, 50.09128730058963
1302.5000000000002, 50.00523779593547
1303.0000000000002, 50.00523779593547
1303.5000000000002, 49.97655462771742
1304, 49.919188291281316
1304.5, 49.919188291281316
1305, 49.97655462771742
1305.5000000000002, 49.97655462771742
1306, 49.94787145949937
1306.5, 49.890505123063264
1307, 49.890505123063264
1307.5000000000002, 49.66103977731885
1308.0000000000002, 49.66103977731885
1308.5, 49.488940768010536
1309, 49.488940768010536
1309.5, 49.37420809513833
1310.0000000000002, 49.28815859048417
1310.5, 49.28815859048417
1311, 49.28815859048417
1311.5, 49.28815859048417
1312.0000000000002, 49.28815859048417
1312.5000000000002, 49.316841758702225
1313, 49.316841758702225
1313.5, 49.316841758702225
1314, 49.316841758702225
1314.5000000000002, 49.25947542226612
1315, 49.25947542226612
1315.5, 49.43157443157443
1316, 49.51762393622859
1316.5, 49.51762393622859
1317.0000000000002, 49.51762393622859
1317.5, 49.51762393622859
1318, 49.54630710444664
1318.5, 49.57499027266469
1319.0000000000002, 49.57499027266469
1319.5000000000002, 49.54630710444664
1320, 49.54630710444664
1320.5, 49.54630710444664
1321, 49.54630710444664
1321.5000000000002, 49.54630710444664
1322, 49.54630710444664
1322.5, 49.54630710444664
1323, 49.603673440882744
1323.5000000000002, 49.603673440882744
1324.0000000000002, 49.632356609100796
1324.5, 49.80445561840911
1325, 49.80445561840911
1325.5, 49.86182195484521
1326.0000000000002, 49.86182195484521
1326.5, 49.71840611375495
1327, 49.71840611375495
1327.5, 49.71840611375495
1328, 49.775772450191056
1328.5000000000002, 49.775772450191056
1329, 49.80445561840911
1329.5, 49.80445561840911
1330, 49.71840611375495
1330.5000000000002, 49.66103977731885
1331.0000000000002, 49.66103977731885
1331.5, 49.919188291281316
1332, 49.919188291281316
1332.5, 49.97655462771742
1333.0000000000002, 49.6897229455369
1333.5, 49.6897229455369
1334, 49.6897229455369
1334.5, 49.6897229455369
1335.0000000000002, 49.71840611375495
1335.5000000000002, 49.71840611375495
1336, 49.890505123063264
1336.5, 49.83313878662716
1337, 49.83313878662716
1337.5000000000002, 49.71840611375495
1338, 49.71840611375495
1338.5, 49.603673440882744
1339, 49.80445561840911
1339.5000000000002, 49.80445561840911
1340.0000000000002, 49.919188291281316
1340.5, 49.919188291281316
1341, 49.66103977731885
1341.5, 49.66103977731885
1342.0000000000002, 49.488940768010536
1342.5000000000002, 49.775772450191056
1343, 49.775772450191056
1343.5, 49.919188291281316
1344, 49.919188291281316
1344.5000000000002, 50.03392096415352
1345, 49.97655462771742
1345.5, 49.97655462771742
1346, 49.890505123063264
1346.5000000000002, 49.890505123063264
1347.0000000000002, 49.775772450191056
1347.5, 49.86182195484521
1348, 49.86182195484521
1348.5, 49.86182195484521
1349.0000000000002, 49.86182195484521
1349.5, 49.71840611375495
1350, 49.71840611375495
1350.5, 49.71840611375495
1351.0000000000002, 49.6897229455369
1351.5000000000002, 49.6897229455369
1352, 49.34552492692028
1352.5, 49.34552492692028
1353, 49.37420809513833
1353.5000000000002, 49.57499027266469
1354.0000000000002, 49.57499027266469
1354.5, 49.632356609100796
1355, 49.632356609100796
1355.5, 49.603673440882744
1356.0000000000002, 49.603673440882744
1356.5, 49.57499027266469
1357, 49.488940768010536
1357.5, 49.488940768010536
1358.0000000000002, 49.43157443157443
1358.5000000000002, 49.43157443157443
1359, 49.51762393622859
1359.5, 49.460257599792484
1360, 49.460257599792484
1360.5000000000002, 49.460257599792484
1361, 49.460257599792484
1361.5, 49.632356609100796
1362, 49.632356609100796
1362.5000000000002, 49.632356609100796
1363.0000000000002, 49.54630710444664
1363.5, 49.54630710444664
1364, 49.51762393622859
1364.5, 49.51762393622859
1365.0000000000002, 49.57499027266469
1365.5, 49.54630710444664
1366, 49.54630710444664
1366.5, 49.25947542226612
1367, 49.25947542226612
1367.5000000000002, 49.14474274939391
1368, 49.08737641295781
1368.5, 49.08737641295781
1369, 49.20210908583002
1369.5000000000002, 49.20210908583002
1370.0000000000002, 49.25947542226612
1370.5, 49.25947542226612
1371, 49.173425917611965
1371.5, 49.14474274939391
1372.0000000000002, 49.14474274939391
1372.5, 49.030010076521705
1373, 49.030010076521705
1373.5, 49.11605958117586
1374.0000000000002, 49.173425917611965
1374.5000000000002, 49.173425917611965
1375, 49.11605958117586
1375.5, 49.11605958117586
1376, 49.20210908583002
1376.5000000000002, 49.20210908583002
1377, 49.28815859048417
1377.5, 49.51762393622859
1378, 49.51762393622859
1378.5000000000002, 49.603673440882744
1379.0000000000002, 49.603673440882744
1379.5, 49.6897229455369
1380, 49.54630710444664
1380.5, 49.54630710444664
1381.0000000000002, 49.40289126335638
1381.5000000000002, 49.40289126335638
1382, 49.37420809513833
1382.5, 49.37420809513833
1383, 49.25947542226612
1383.5000000000002, 49.173425917611965
1384, 49.173425917611965
1384.5, 49.14474274939391
1385, 49.14474274939391
1385.5000000000002, 49.08737641295781
1386.0000000000002, 49.05869324473976
1386.5, 49.05869324473976
1387, 49.20210908583002
1387.5, 49.20210908583002
1388.0000000000002, 49.25947542226612
1388.5, 49.25947542226612
1389, 49.316841758702225
1389.5, 49.11605958117586
1390.0000000000002, 49.11605958117586
1390.5000000000002, 49.05869324473976
1391, 49.05869324473976
1391.5, 49.173425917611965
1392, 49.20210908583002
1392.5000000000002, 49.20210908583002
1393.0000000000002, 49.14474274939391
1393.5, 49.14474274939391
1394, 48.886594235431446
1394.5, 48.857911067213394
1395.0000000000002, 48.857911067213394
1395.5, 49.173425917611965
1396, 49.173425917611965
1396.5, 50.09128730058963
1396.5, 48.16951502998015
1397.0000000000002, 50.09128730058963
1397.0000000000002, 48.16951502998015
1397.5000000000002, 50.09128730058963
1397.5000000000002, 48.16951502998015
