320.5, 1.7191359463112263
321, 1.7191359463112263
321.5, 1.7765597640463682
322, 1.8626954906490738
322.5, 1.8626954906490738
323, 1.9201193083842298
323.5, 1.9201193083842298
324, 1.9488312172517794
324.5, 1.9488312172517794
325, 2.0062550349869355
325.5, 2.063678852722063
326, 2.063678852722063
326.5, 2.092390761589627
327, 2.092390761589627
327.5, 2.149814579324783
328, 2.149814579324783
328.5, 2.2072383970598963
329, 2.2072383970598963
329.5, 2.264662214795038
330, 2.264662214795038
330.5, 2.264662214795038
331, 2.32208603253018
331.5, 2.32208603253018
332, 2.379509850265336
332.5, 2.379509850265336
333, 2.4369336680004494
333.5, 2.4369336680004494
334, 2.4656455768680416
334.5, 2.5517813034707473
335, 2.5517813034707473
335.5, 2.580493212338297
336, 2.580493212338297
336.5, 2.6379170300734387
337, 2.6379170300734387
337.5, 2.6953408478085947
338, 2.752764665543708
338.5, 2.752764665543708
339, 2.81018848327885
339.5, 2.81018848327885
340, 2.867612301013992
340.5, 2.867612301013992
341, 2.8963242098815556
341.5, 2.8963242098815556
342, 2.9537480276166974
342.5, 3.039883754219403
343, 3.039883754219403
343.5, 3.068595663086967
344, 3.068595663086967
344.5, 3.1260194808221087
345, 3.1260194808221087
345.5, 3.1834432985572505
346, 3.1834432985572505
346.5, 3.2408671162924065
347, 3.327002842895112
347.5, 3.327002842895112
348, 3.3557147517626618
348.5, 3.3557147517626618
349, 3.413138569497818
349.5, 3.413138569497818
350, 3.527986204968073
350.5, 3.527986204968073
351, 3.585410022703215
351.5, 3.6141219315707787
352, 3.6141219315707787
352.5, 3.7002576581734843
353, 3.7002576581734843
353.5, 3.7289695670410623
354, 3.7289695670410623
354.5, 3.815105293643768
355, 3.872529111378924
355.5, 3.872529111378924
356, 3.9012410202464736
356.5, 3.9012410202464736
357, 3.9586648379816296
357.5, 3.9586648379816296
358, 4.016088655716757
358.5, 4.016088655716757
359, 4.044800564584321
359.5, 4.102224382319477
360, 4.102224382319477
360.5, 4.1596482000545905
361, 4.1596482000545905
361.5, 4.217072017789732
362, 4.217072017789732
362.5, 4.303207744392438
363, 4.303207744392438
363.5, 4.3893434709951435
364, 4.446767288730285
364.5, 4.446767288730285
365, 4.504191106465441
365.5, 4.504191106465441
366, 4.561614924200555
366.5, 4.561614924200555
367, 4.647750650803289
367.5, 4.705174468538402
368, 4.705174468538402
368.5, 4.791310195141108
369, 4.791310195141108
369.5, 4.877445921743828
370, 4.877445921743828
370.5, 4.963581648346548
371, 4.963581648346548
371.5, 5.049717374949253
372, 5.135853101551945
372.5, 5.135853101551945
373, 5.1932769192870865
373.5, 5.1932769192870865
374, 5.250700737022214
374.5, 5.250700737022214
375, 5.33683646362492
375.5, 5.33683646362492
376, 5.3942602813600615
376.5, 5.3942602813600615
377, 5.3942602813600615
377.5, 5.480396007962767
378, 5.480396007962767
378.5, 5.566531734565473
379, 5.566531734565473
379.5, 5.595243643433065
380, 5.681379370035756
380.5, 5.681379370035756
381, 5.738803187770898
381.5, 5.738803187770898
382, 5.853650823241168
382.5, 5.853650823241168
383, 5.911074640976324
383.5, 5.911074640976324
384, 5.997210367579015
384.5, 6.083346094181721
385, 6.083346094181721
385.5, 6.169481820784426
386, 6.169481820784426
386.5, 6.2269056385195825
387, 6.2269056385195825
387.5, 6.313041365122274
388, 6.313041365122274
388.5, 6.341753273989838
389, 6.427889000592543
389.5, 6.427889000592543
390, 6.514024727195249
390.5, 6.514024727195249
391, 6.600160453797969
391.5, 6.600160453797969
392, 6.715008089268238
392.5, 6.715008089268238
393, 6.829855724738522
393.5, 6.944703360208791
394, 6.944703360208791
394.5, 7.002127177943947
395, 7.002127177943947
395.5, 7.059550995679061
396, 7.059550995679061
396.5, 7.145686722281781
397, 7.26053435775205
397.5, 7.26053435775205
398, 7.317958175487206
398.5, 7.317958175487206
399, 7.4040939020898975
399.5, 7.4040939020898975
400, 7.432805810957461
400.5, 7.432805810957461
401, 7.518941537560167
401.5, 7.6050772641628726
402, 7.6050772641628726
402.5, 7.74863680850072
403, 7.74863680850072
403.5, 7.834772535103426
404, 7.834772535103426
404.5, 7.920908261706131
405, 7.920908261706131
405.5, 7.949620170573709
406, 8.035755897176415
406.5, 8.035755897176415
407, 8.093179714911571
407.5, 8.093179714911571
408, 8.23673925924939
408.5, 8.23673925924939
409, 8.294163076984532
409.5, 8.351586894719674
410, 8.351586894719674
410.5, 8.495146439057521
411, 8.495146439057521
411.5, 8.638705983395383
412, 8.638705983395383
412.5, 8.724841709998088
413, 8.724841709998088
413.5, 8.782265527733202
414, 8.92582507207105
414.5, 8.92582507207105
415, 9.011960798673755
415.5, 9.011960798673755
416, 9.098096525276475
416.5, 9.098096525276475
417, 9.155520343011602
417.5, 9.155520343011602
418, 9.29907988734945
418.5, 9.413927522819733
419, 9.413927522819733
419.5, 9.528775158290003
420, 9.528775158290003
420.5, 9.614910884892709
421, 9.614910884892709
421.5, 9.758470429230556
422, 9.758470429230556
422.5, 9.815894246965712
423, 9.930741882435967
423.5, 9.930741882435967
424, 10.016877609038673
424.5, 10.016877609038673
425, 10.103013335641378
425.5, 10.103013335641378
426, 10.189149062244084
426.5, 10.332708606581932
427, 10.332708606581932
427.5, 10.44755624205223
428, 10.44755624205223
428.5, 10.591115786390077
429, 10.591115786390077
429.5, 10.64853960412519
430, 10.64853960412519
430.5, 10.792099148463038
431, 10.935658692800885
431.5, 10.935658692800885
432, 11.107930146006296
432.5, 11.107930146006296
433, 11.251489690344144
433.5, 11.251489690344144
434, 11.33762541694685
434.5, 11.33762541694685
435, 11.395049234681991
435.5, 11.596032596754966
436, 11.596032596754966
436.5, 11.653456414490108
437, 11.653456414490108
437.5, 11.739592141092814
438, 11.739592141092814
438.5, 11.854439776563112
439, 11.940575503165803
439.5, 11.940575503165803
440, 12.112846956371214
440.5, 12.112846956371214
441, 12.19898268297392
441.5, 12.19898268297392
442, 12.285118409576626
442.5, 12.285118409576626
443, 12.342542227311768
443.5, 12.457389862782037
444, 12.457389862782037
444.5, 12.57223749825232
445, 12.57223749825232
445.5, 12.715797042590182
446, 12.715797042590182
446.5, 12.77322086032531
447, 12.77322086032531
447.5, 12.916780404663143
448, 13.031628040133427
448.5, 13.031628040133427
449, 13.117763766736132
449.5, 13.117763766736132
450, 13.232611402206402
450.5, 13.232611402206402
451, 13.347459037676686
451.5, 13.404882855411842
452, 13.404882855411842
452.5, 13.462306673146955
453, 13.462306673146955
453.5, 13.577154308617239
454, 13.577154308617239
454.5, 13.7207138529551
455, 13.7207138529551
455.5, 13.835561488425355
456, 13.892985306160497
456.5, 13.892985306160497
457, 14.007832941630767
457.5, 14.007832941630767
458, 14.093968668233472
458.5, 14.093968668233472
459, 14.122680577101065
459.5, 14.122680577101065
460, 14.208816303703756
460.5, 14.23752821257132
461, 14.23752821257132
461.5, 14.323663939174025
462, 14.323663939174025
462.5, 14.467223483511873
463, 14.467223483511873
463.5, 14.524647301247015
464, 14.524647301247015
464.5, 14.61078302784972
465, 14.72563066331999
465.5, 14.72563066331999
466, 14.81176638992271
466.5, 14.81176638992271
467, 14.89790211652543
467.5, 14.89790211652543
468, 14.984037843128121
468.5, 15.070173569730827
469, 15.070173569730827
469.5, 15.127597387465983
470, 15.127597387465983
470.5, 15.185021205201096
471, 15.185021205201096
471.5, 15.242445022936238
472, 15.242445022936238
472.5, 15.386004567274085
473, 15.443428385009241
473.5, 15.443428385009241
474, 15.529564111611947
474.5, 15.529564111611947
475, 15.558276020479497
475.5, 15.558276020479497
476, 15.673123655949794
476.5, 15.673123655949794
477, 15.78797129142005
477.5, 15.845395109155191
478, 15.845395109155191
478.5, 15.902818926890333
479, 15.902818926890333
479.5, 15.988954653493053
480, 15.988954653493053
480.5, 16.017666562360603
481, 16.132514197830872
481.5, 16.132514197830872
482, 16.27607374216872
482.5, 16.27607374216872
483, 16.33349755990386
483.5, 16.33349755990386
484, 16.33349755990386
484.5, 16.33349755990386
485, 16.362209468771425
485.5, 16.362209468771425
486, 16.362209468771425
486.5, 16.419633286506567
487, 16.419633286506567
487.5, 16.47705710424171
488, 16.47705710424171
488.5, 16.47705710424171
489, 16.47705710424171
489.5, 16.534480921976865
490, 16.59190473971198
490.5, 16.59190473971198
491, 16.735464284049826
491.5, 16.735464284049826
492, 16.678040466314684
492.5, 16.678040466314684
493, 16.64932855744712
493.5, 16.678040466314684
494, 16.678040466314684
494.5, 16.678040466314684
495, 16.678040466314684
495.5, 16.62061664857957
496, 16.62061664857957
496.5, 16.505769013109273
497, 16.505769013109273
497.5, 16.448345195374145
498, 16.362209468771425
498.5, 16.362209468771425
499, 16.247361833301156
499.5, 16.247361833301156
500, 16.16122610669845
500.5, 16.16122610669845
501, 16.16122610669845
501.5, 16.16122610669845
502, 16.132514197830872
502.5, 16.017666562360603
503, 16.017666562360603
503.5, 15.931530835757897
504, 15.931530835757897
504.5, 15.845395109155191
505, 15.845395109155191
505.5, 15.730547473684908
506, 15.730547473684908
506.5, 15.615699838214638
507, 15.500852202744355
507.5, 15.500852202744355
508, 15.357292658406521
508.5, 15.357292658406521
509, 15.213733114068688
509.5, 15.213733114068688
510, 15.070173569730827
510.5, 14.926614025392979
511, 14.926614025392979
511.5, 14.783054481055132
512, 14.783054481055132
512.5, 14.696918754452426
513, 14.696918754452426
513.5, 14.467223483511873
514, 14.467223483511873
514.5, 14.294952030306462
515, 14.093968668233472
515.5, 14.093968668233472
516, 13.95040912389564
516.5, 13.95040912389564
517, 13.892985306160497
517.5, 13.892985306160497
518, 13.663290035219944
518.5, 13.663290035219944
519, 13.519730490882097
519.5, 13.347459037676686
520, 13.347459037676686
520.5, 13.261323311073994
521, 13.261323311073994
521.5, 13.146475675603696
522, 13.146475675603696
522.5, 13.002916131265849
523, 12.830644678060438
523.5, 12.830644678060438
524, 12.744508951457732
524.5, 12.744508951457732
525, 12.68708513372259
525.5, 12.68708513372259
526, 12.57223749825232
526.5, 12.57223749825232
527, 12.428677953914473
527.5, 12.227694591841498
528, 12.227694591841498
528.5, 12.19898268297392
529, 12.19898268297392
529.5, 12.112846956371214
530, 12.112846956371214
530.5, 11.99799932090096
531, 11.99799932090096
531.5, 11.82572786769552
532, 11.71088023222525
532.5, 11.71088023222525
533, 11.653456414490108
533.5, 11.653456414490108
534, 11.624744505622544
534.5, 11.624744505622544
535, 11.452473052417147
535.5, 11.452473052417147
536, 11.395049234681991
536.5, 11.366337325814428
537, 11.366337325814428
537.5, 11.3089135080793
538, 11.3089135080793
538.5, 11.251489690344144
539, 11.251489690344144
539.5, 11.165353963741438
540, 11.136642054873874
540.5, 11.136642054873874
541, 11.136642054873874
541.5, 11.136642054873874
542, 11.079218237138733
542.5, 11.079218237138733
543, 11.050506328271155
543.5, 11.050506328271155
544, 11.02179441940359
544.5, 10.935658692800885
545, 10.935658692800885
545.5, 10.964370601668449
546, 10.964370601668449
546.5, 10.964370601668449
547, 10.964370601668449
547.5, 10.993082510536041
548, 10.993082510536041
548.5, 10.993082510536041
549, 10.993082510536041
549.5, 10.993082510536041
550, 10.906946783933336
550.5, 10.906946783933336
551, 10.84952296619818
551.5, 10.84952296619818
552, 10.935658692800885
552.5, 10.964370601668449
553, 10.964370601668449
553.5, 11.02179441940359
554, 11.02179441940359
554.5, 11.079218237138733
555, 11.079218237138733
555.5, 11.136642054873874
556, 11.136642054873874
556.5, 11.222777781476594
557, 11.3089135080793
557.5, 11.3089135080793
558, 11.395049234681991
558.5, 11.395049234681991
559, 11.452473052417147
559.5, 11.452473052417147
560, 11.538608779019853
560.5, 11.538608779019853
561, 11.596032596754966
561.5, 11.768304049960406
562, 11.768304049960406
562.5, 11.82572786769552
563, 11.82572786769552
563.5, 11.969287412033367
564, 11.969287412033367
564.5, 12.055423138636073
565, 12.19898268297392
565.5, 12.19898268297392
566, 12.256406500709062
566.5, 12.256406500709062
567, 12.313830318444218
567.5, 12.313830318444218
568, 12.371254136179331
568.5, 12.371254136179331
569, 12.428677953914473
569.5, 12.428677953914473
570, 12.428677953914473
570.5, 12.399966045046924
571, 12.399966045046924
571.5, 12.428677953914473
572, 12.428677953914473
572.5, 12.514813680517179
573, 12.514813680517179
573.5, 12.629661315987477
574, 12.68708513372259
574.5, 12.68708513372259
575, 12.715797042590182
575.5, 12.715797042590182
576, 12.715797042590182
576.5, 12.715797042590182
577, 12.715797042590182
577.5, 12.715797042590182
578, 12.715797042590182
578.5, 12.68708513372259
579, 12.68708513372259
579.5, 12.68708513372259
580, 12.68708513372259
580.5, 12.658373224855026
581, 12.658373224855026
581.5, 12.658373224855026
582, 12.658373224855026
582.5, 12.658373224855026
583, 12.600949407119884
583.5, 12.600949407119884
584, 12.543525589384757
584.5, 12.543525589384757
585, 12.486101771649615
585.5, 12.486101771649615
586, 12.399966045046924
586.5, 12.342542227311768
587, 12.342542227311768
587.5, 12.313830318444218
588, 12.313830318444218
588.5, 12.285118409576626
589, 12.285118409576626
589.5, 12.227694591841498
590, 12.227694591841498
590.5, 12.084135047503665
591, 11.940575503165803
591.5, 11.940575503165803
592, 11.854439776563112
592.5, 11.854439776563112
593, 11.50989687015226
593.5, 11.50989687015226
594, 11.452473052417147
594.5, 11.452473052417147
595, 11.452473052417147
595.5, 11.452473052417147
596, 11.452473052417147
596.5, 11.423761143549555
597, 11.423761143549555
597.5, 11.280201599211708
598, 11.280201599211708
598.5, 11.165353963741438
599, 11.107930146006296
599.5, 11.107930146006296
600, 10.964370601668449
600.5, 10.964370601668449
601, 10.734675330727896
601.5, 10.734675330727896
602, 10.591115786390077
602.5, 10.591115786390077
603, 10.53369196865492
603.5, 10.504980059787357
604, 10.504980059787357
604.5, 10.44755624205223
605, 10.44755624205223
605.5, 10.361420515449524
606, 10.361420515449524
606.5, 10.303996697714368
607, 10.303996697714368
607.5, 10.045589517906265
608, 9.902029973568418
608.5, 9.902029973568418
609, 9.844606155833262
609.5, 9.844606155833262
610, 9.729758520363006
610.5, 9.729758520363006
611, 9.67233470262785
611.5, 9.557487067157567
612, 9.557487067157567
612.5, 9.471351340554861
613, 9.471351340554861
613.5, 9.413927522819733
614, 9.413927522819733
614.5, 9.29907988734945
615, 9.29907988734945
615.5, 9.155520343011602
616, 9.069384616408897
616.5, 9.069384616408897
617, 9.011960798673755
617.5, 9.011960798673755
618, 8.954536980938641
618.5, 8.954536980938641
619, 8.839689345468344
619.5, 8.839689345468344
620, 8.696129801130496
620.5, 8.581282165660227
621, 8.581282165660227
621.5, 8.523858347925085
622, 8.523858347925085
622.5, 8.523858347925085
623, 8.523858347925085
623.5, 8.581282165660227
624, 8.552570256792663
624.5, 8.552570256792663
625, 8.351586894719674
625.5, 8.351586894719674
626, 8.23673925924939
626.5, 8.23673925924939
627, 8.064467806043979
627.5, 8.064467806043979
628, 7.949620170573709
628.5, 7.863484443971018
629, 7.863484443971018
629.5, 7.777348717368312
630, 7.777348717368312
630.5, 7.691212990765592
631, 7.691212990765592
631.5, 7.633789173030465
632, 7.633789173030465
632.5, 7.518941537560167
633, 7.4040939020898975
633.5, 7.4040939020898975
634, 7.317958175487206
634.5, 7.317958175487206
635, 7.203110540016908
635.5, 7.203110540016908
636, 7.059550995679061
636.5, 7.002127177943947
637, 7.002127177943947
637.5, 7.002127177943947
638, 7.002127177943947
638.5, 6.973415269076355
639, 6.973415269076355
639.5, 6.8872795424736495
640, 6.8872795424736495
640.5, 6.801143815870944
641, 6.657584271533096
641.5, 6.657584271533096
642, 6.542736636062827
642.5, 6.542736636062827
643, 6.542736636062827
643.5, 6.542736636062827
644, 6.37046518285743
644.5, 6.37046518285743
645, 6.313041365122274
645.5, 6.2269056385195825
646, 6.2269056385195825
646.5, 6.169481820784426
647, 6.169481820784426
647.5, 6.140769911916877
648, 6.140769911916877
648.5, 6.140769911916877
649, 6.140769911916877
649.5, 6.083346094181721
650, 6.025922276446579
650.5, 6.025922276446579
651, 5.968498458711437
651.5, 5.968498458711437
652, 5.939786549843873
652.5, 5.939786549843873
653, 5.8823627321087315
653.5, 5.767515096638462
654, 5.767515096638462
654.5, 5.652667461168178
655, 5.652667461168178
655.5, 5.566531734565473
656, 5.566531734565473
656.5, 5.451684099095203
657, 5.451684099095203
657.5, 5.3942602813600615
658, 5.33683646362492
658.5, 5.33683646362492
659, 5.33683646362492
659.5, 5.33683646362492
660, 5.308124554757356
660.5, 5.308124554757356
661, 5.33683646362492
661.5, 5.33683646362492
662, 5.33683646362492
662.5, 5.365548372492512
663, 5.365548372492512
663.5, 5.308124554757356
664, 5.308124554757356
664.5, 5.250700737022214
665, 5.250700737022214
665.5, 5.1932769192870865
666, 5.135853101551945
666.5, 5.135853101551945
667, 5.135853101551945
667.5, 5.135853101551945
668, 5.135853101551945
668.5, 5.135853101551945
669, 5.164565010419508
669.5, 5.164565010419508
670, 5.107141192684367
670.5, 4.992293557214097
671, 4.992293557214097
671.5, 4.934869739478955
672, 4.934869739478955
672.5, 4.9061578306113915
673, 4.9061578306113915
673.5, 4.9061578306113915
674, 4.9061578306113915
674.5, 4.963581648346548
675, 5.078429283816803
675.5, 5.078429283816803
676, 5.135853101551945
676.5, 5.135853101551945
677, 5.164565010419508
677.5, 5.164565010419508
678, 5.078429283816803
678.5, 5.021005466081661
679, 5.021005466081661
679.5, 4.992293557214097
680, 4.992293557214097
680.5, 5.1932769192870865
681, 5.1932769192870865
681.5, 5.1932769192870865
682, 5.1932769192870865
682.5, 5.135853101551945
683, 5.078429283816803
683.5, 5.078429283816803
684, 5.049717374949253
684.5, 5.049717374949253
685, 5.107141192684367
685.5, 5.107141192684367
686, 5.135853101551945
686.5, 5.135853101551945
687, 5.164565010419508
687.5, 5.22198882815465
688, 5.22198882815465
688.5, 5.308124554757356
689, 5.308124554757356
689.5, 5.3942602813600615
690, 5.3942602813600615
690.5, 5.279412645889806
691, 5.279412645889806
691.5, 5.279412645889806
692, 5.279412645889806
692.5, 5.279412645889806
693, 5.279412645889806
693.5, 5.279412645889806
694, 5.308124554757356
694.5, 5.308124554757356
695, 5.308124554757356
695.5, 5.308124554757356
696, 5.308124554757356
696.5, 5.365548372492512
697, 5.365548372492512
697.5, 5.3942602813600615
698, 5.3942602813600615
698.5, 5.4229721902276395
699, 5.4229721902276395
699.5, 5.365548372492512
700, 5.308124554757356
700.5, 5.308124554757356
701, 5.33683646362492
701.5, 5.33683646362492
702, 5.3942602813600615
702.5, 5.3942602813600615
703, 5.365548372492512
703.5, 5.365548372492512
704, 5.308124554757356
704.5, 5.250700737022214
705, 5.250700737022214
705.5, 5.365548372492512
706, 5.365548372492512
706.5, 5.480396007962767
707, 5.480396007962767
707.5, 5.509107916830359
708, 5.509107916830359
708.5, 5.509107916830359
709, 5.537819825697909
709.5, 5.537819825697909
710, 5.4229721902276395
710.5, 5.4229721902276395
711, 5.33683646362492
711.5, 5.33683646362492
712, 5.33683646362492
712.5, 5.480396007962767
713, 5.480396007962767
713.5, 5.566531734565473
714, 5.566531734565473
714.5, 5.480396007962767
715, 5.480396007962767
715.5, 5.480396007962767
716, 5.480396007962767
716.5, 5.480396007962767
717, 5.365548372492512
717.5, 5.365548372492512
718, 5.279412645889806
718.5, 5.279412645889806
719, 5.22198882815465
719.5, 5.22198882815465
720, 5.3942602813600615
720.5, 5.3942602813600615
721, 5.480396007962767
721.5, 5.451684099095203
722, 5.451684099095203
722.5, 5.3942602813600615
723, 5.3942602813600615
723.5, 5.365548372492512
724, 5.365548372492512
724.5, 5.33683646362492
725, 5.308124554757356
725.5, 5.308124554757356
726, 5.279412645889806
726.5, 5.279412645889806
727, 5.33683646362492
727.5, 5.33683646362492
728, 5.451684099095203
728.5, 5.451684099095203
729, 5.566531734565473
729.5, 5.509107916830359
730, 5.509107916830359
730.5, 5.451684099095203
731, 5.451684099095203
731.5, 5.509107916830359
732, 5.509107916830359
732.5, 5.537819825697909
733, 5.537819825697909
733.5, 5.623955552300615
734, 5.652667461168178
734.5, 5.652667461168178
735, 5.595243643433065
735.5, 5.595243643433065
736, 5.451684099095203
736.5, 5.451684099095203
737, 5.451684099095203
737.5, 5.480396007962767
738, 5.480396007962767
738.5, 5.537819825697909
739, 5.537819825697909
739.5, 5.566531734565473
740, 5.566531734565473
740.5, 5.595243643433065
741, 5.595243643433065
741.5, 5.566531734565473
742, 5.509107916830359
742.5, 5.509107916830359
743, 5.509107916830359
743.5, 5.509107916830359
744, 5.480396007962767
744.5, 5.480396007962767
745, 5.451684099095203
745.5, 5.451684099095203
746, 5.3942602813600615
746.5, 5.480396007962767
747, 5.480396007962767
747.5, 5.623955552300615
748, 5.623955552300615
748.5, 5.566531734565473
749, 5.566531734565473
749.5, 5.480396007962767
750, 5.365548372492512
750.5, 5.365548372492512
751, 5.308124554757356
751.5, 5.308124554757356
752, 5.308124554757356
752.5, 5.308124554757356
753, 5.33683646362492
753.5, 5.33683646362492
754, 5.250700737022214
754.5, 5.22198882815465
755, 5.22198882815465
755.5, 5.279412645889806
756, 5.279412645889806
756.5, 5.365548372492512
757, 5.365548372492512
757.5, 5.451684099095203
758, 5.451684099095203
758.5, 5.451684099095203
759, 5.451684099095203
759.5, 5.451684099095203
760, 5.451684099095203
760.5, 5.451684099095203
761, 5.509107916830359
761.5, 5.509107916830359
762, 5.595243643433065
762.5, 5.595243643433065
763, 5.595243643433065
763.5, 5.595243643433065
764, 5.595243643433065
764.5, 5.623955552300615
765, 5.623955552300615
765.5, 5.537819825697909
766, 5.537819825697909
766.5, 5.480396007962767
767, 5.509107916830359
767.5, 5.509107916830359
768, 5.652667461168178
768.5, 5.652667461168178
769, 5.71009127890332
769.5, 5.71009127890332
770, 5.767515096638462
770.5, 5.767515096638462
771, 5.738803187770898
771.5, 5.623955552300615
772, 5.623955552300615
772.5, 5.537819825697909
773, 5.537819825697909
773.5, 5.509107916830359
774, 5.509107916830359
774.5, 5.595243643433065
775, 5.595243643433065
775.5, 5.681379370035756
776, 5.71009127890332
776.5, 5.71009127890332
777, 5.681379370035756
777.5, 5.681379370035756
778, 5.652667461168178
778.5, 5.652667461168178
779, 5.681379370035756
779.5, 5.623955552300615
780, 5.623955552300615
780.5, 5.595243643433065
781, 5.595243643433065
781.5, 5.566531734565473
782, 5.566531734565473
782.5, 5.509107916830359
783, 5.509107916830359
783.5, 5.509107916830359
784, 5.537819825697909
784.5, 5.537819825697909
785, 5.509107916830359
785.5, 5.509107916830359
786, 5.480396007962767
786.5, 5.480396007962767
787, 5.365548372492512
787.5, 5.365548372492512
788, 5.365548372492512
788.5, 5.4229721902276395
789, 5.4229721902276395
789.5, 5.4229721902276395
790, 5.4229721902276395
790.5, 5.33683646362492
791, 5.33683646362492
791.5, 5.308124554757356
792, 5.250700737022214
792.5, 5.250700737022214
793, 5.164565010419508
793.5, 5.164565010419508
794, 5.049717374949253
794.5, 5.049717374949253
795, 4.992293557214097
795.5, 4.992293557214097
796, 4.9061578306113915
796.5, 4.877445921743828
797, 4.877445921743828
797.5, 4.84873401287625
798, 4.84873401287625
798.5, 4.791310195141108
799, 4.791310195141108
799.5, 4.84873401287625
800, 4.84873401287625
800.5, 4.877445921743828
801, 4.84873401287625
801.5, 4.84873401287625
802, 4.619038741935697
802.5, 4.619038741935697
803, 4.475479197597849
803.5, 4.475479197597849
804, 4.36063156212758
804.5, 4.36063156212758
805, 4.274495835524874
805.5, 4.245783926657296
806, 4.245783926657296
806.5, 4.073512473451885
807, 4.073512473451885
807.5, 4.044800564584321
808, 4.044800564584321
808.5, 4.102224382319477
809, 4.1596482000545905
809.5, 4.1596482000545905
810, 4.130936291187027
810.5, 4.130936291187027
811, 3.8438172025113317
811.5, 3.8438172025113317
812, 3.527986204968073
812.5, 3.527986204968073
813, 3.3557147517626618
813.5, 3.3557147517626618
814, 3.3557147517626618
814.5, 3.29829093402752
815, 3.29829093402752
815.5, 3.269579025159956
816, 3.269579025159956
816.5, 3.068595663086967
817, 3.068595663086967
817.5, 3.0111718453518534
818, 2.9537480276166974
818.5, 2.9537480276166974
819, 2.8389003921464138
819.5, 2.8389003921464138
820, 2.6953408478085947
820.5, 2.6953408478085947
821, 2.5517813034707473
821.5, 2.523069394603155
822, 2.523069394603155
822.5, 2.4656455768680416
823, 2.4656455768680416
823.5, 2.2359503059274886
824, 2.2359503059274886
824.5, 2.1211026704571907
825, 2.1211026704571907
825.5, 2.034966943854485
826, 1.9201193083842298
826.5, 1.9201193083842298
827, 1.8626954906490738
827.5, 1.8626954906490738
828, 1.805271672913932
828.5, 1.805271672913932
829, 1.8626954906490738
829.5, 1.8626954906490738
830, 1.8626954906490738
830.5, 1.7478478551788044
831, 1.7478478551788044
831.5, 1.575576401973379
832, 1.575576401973379
832.5, 1.4894406753706733
833, 1.4894406753706733
833.5, 1.6042883108409711
834, 1.6042883108409711
834.5, 1.6617121285760845
835, 1.7765597640463682
835.5, 1.7765597640463682
836, 1.9201193083842298
836.5, 1.9201193083842298
837, 2.063678852722063
837.5, 2.063678852722063
838, 2.2359503059274886
838.5, 2.2072383970598963
839, 2.2072383970598963
839.5, 2.1211026704571907
840, 2.1211026704571907
840.5, 1.9775431261193432
841, 1.9775431261193432
841.5, 1.9201193083842298
842, 1.9201193083842298
842.5, 1.8626954906490738
843, 1.805271672913932
843.5, 1.805271672913932
844, 1.7191359463112263
844.5, 1.7191359463112263
845, 1.6042883108409711
845.5, 1.6042883108409711
897.5, 1.4033049487679676
898, 1.4033049487679676
902, 1.575576401973379
902.5, 1.575576401973379
903, 1.6042883108409711
903.5, 1.6042883108409711
904, 1.6617121285760845
904.5, 1.6617121285760845
905, 1.7478478551788044
905.5, 1.8339835817815242
906, 1.8339835817815242
906.5, 1.8914073995166376
907, 1.8914073995166376
907.5, 2.034966943854485
908, 2.034966943854485
908.5, 2.1211026704571907
909, 2.1211026704571907
909.5, 2.1785264881923325
910, 2.293374123662602
910.5, 2.293374123662602
911, 2.4943574857355912
911.5, 2.4943574857355912
912, 2.580493212338297
912.5, 2.580493212338297
913, 2.6379170300734387
913.5, 2.6379170300734387
914, 2.752764665543708
914.5, 2.9250361187491336
915, 2.9250361187491336
915.5, 3.039883754219403
916, 3.039883754219403
916.5, 3.1547313896896867
917, 3.1547313896896867
917.5, 3.29829093402752
918, 3.29829093402752
918.5, 3.413138569497818
919, 3.4705623872329454
919.5, 3.4705623872329454
920, 3.585410022703215
920.5, 3.585410022703215
921, 3.6141219315707787
921.5, 3.6141219315707787
922, 3.7002576581734843
922.5, 3.872529111378924
923, 3.872529111378924
923.5, 3.9299529291140374
924, 3.9299529291140374
924.5, 3.987376746849179
925, 3.987376746849179
925.5, 4.245783926657296
926, 4.245783926657296
926.5, 4.446767288730285
927, 4.504191106465441
927.5, 4.504191106465441
928, 4.619038741935697
928.5, 4.619038741935697
929, 4.705174468538402
929.5, 4.705174468538402
930, 4.84873401287625
930.5, 4.84873401287625
931, 4.934869739478955
931.5, 5.135853101551945
932, 5.135853101551945
932.5, 5.279412645889806
933, 5.279412645889806
933.5, 5.3942602813600615
934, 5.3942602813600615
934.5, 5.451684099095203
935, 5.681379370035756
935.5, 5.681379370035756
936, 5.767515096638462
936.5, 5.767515096638462
937, 5.968498458711437
937.5, 5.968498458711437
938, 6.083346094181721
938.5, 6.083346094181721
939, 6.255617547387132
939.5, 6.3991770917249795
940, 6.3991770917249795
940.5, 6.628872362665533
941, 6.628872362665533
941.5, 6.801143815870944
942, 6.801143815870944
942.5, 7.002127177943947
943, 7.002127177943947
943.5, 7.088262904546639
944, 7.2318224488845
944.5, 7.2318224488845
945, 7.461517719825039
945.5, 7.461517719825039
946, 7.6050772641628726
946.5, 7.6050772641628726
947, 7.806060626235862
947.5, 7.806060626235862
948, 7.978332079441273
948.5, 8.150603532646684
949, 8.150603532646684
949.5, 8.23673925924939
950, 8.23673925924939
950.5, 8.380298803587237
951, 8.380298803587237
951.5, 8.552570256792663
952, 8.782265527733202
952.5, 8.782265527733202
953, 8.92582507207105
953.5, 8.92582507207105
954, 9.184232251879195
954.5, 9.184232251879195
955, 9.327791796217014
955.5, 9.327791796217014
956, 9.500063249422453
956.5, 9.815894246965712
957, 9.815894246965712
957.5, 10.045589517906265
958, 10.045589517906265
958.5, 10.045589517906265
959, 10.045589517906265
959.5, 10.217860971111662
960, 10.217860971111662
960.5, 10.275284788846804
961, 10.562403877522485
961.5, 10.562403877522485
962, 10.64853960412519
962.5, 10.64853960412519
963, 10.734675330727896
963.5, 10.734675330727896
964, 10.84952296619818
964.5, 11.02179441940359
965, 11.02179441940359
965.5, 11.194065872609002
966, 11.194065872609002
966.5, 11.33762541694685
967, 11.33762541694685
967.5, 11.452473052417147
968, 11.452473052417147
968.5, 11.596032596754966
969, 11.854439776563112
969.5, 11.854439776563112
970, 11.99799932090096
970.5, 11.99799932090096
971, 12.141558865238778
971.5, 12.141558865238778
972, 12.256406500709062
972.5, 12.256406500709062
973, 12.342542227311768
973.5, 12.457389862782037
974, 12.457389862782037
974.5, 12.514813680517179
975, 12.514813680517179
975.5, 12.68708513372259
976, 12.68708513372259
976.5, 12.88806849579558
977, 12.974204222398285
977.5, 12.974204222398285
978, 13.203899493338838
978.5, 13.203899493338838
979, 13.347459037676686
979.5, 13.347459037676686
980, 13.491018582014547
980.5, 13.491018582014547
981, 13.63457812635238
981.5, 13.692001944087508
982, 13.692001944087508
982.5, 13.86427339729292
983, 13.86427339729292
983.5, 14.122680577101065
984, 14.122680577101065
984.5, 14.208816303703756
985, 14.208816303703756
985.5, 14.294952030306462
986, 14.323663939174025
986.5, 14.323663939174025
987, 14.43851157464431
987.5, 14.43851157464431
988, 14.58207111898217
988.5, 14.58207111898217
989, 14.840478298790273
989.5, 14.840478298790273
990, 15.070173569730827
990.5, 15.29986884067138
991, 15.29986884067138
991.5, 15.213733114068688
992, 15.213733114068688
992.5, 15.012749751995685
993, 15.012749751995685
993.5, 14.955325934260543
994, 15.09888547859839
994.5, 15.09888547859839
995, 15.29986884067138
995.5, 15.29986884067138
996, 15.386004567274085
996.5, 15.386004567274085
997, 15.500852202744355
997.5, 15.500852202744355
998, 15.558276020479497
998.5, 15.730547473684908
999, 15.730547473684908
999.5, 15.816683200287613
1000, 15.816683200287613
1000.5, 15.96024274462546
1001, 15.96024274462546
1001.5, 15.96024274462546
1002, 15.96024274462546
1002.5, 16.017666562360603
1003, 16.10380228896331
1003.5, 16.10380228896331
1004, 16.247361833301156
1004.5, 16.247361833301156
1005, 16.448345195374145
1005.5, 16.448345195374145
1006, 16.505769013109273
1006.5, 16.59190473971198
1007, 16.59190473971198
1007.5, 16.706752375182262
1008, 16.706752375182262
1008.5, 16.850311919520124
1009, 16.850311919520124
1009.5, 17.080007190460677
1010, 17.080007190460677
1010.5, 17.223566734798496
1011, 17.223566734798496
1011.5, 17.223566734798496
1012, 17.13743100819579
1012.5, 17.13743100819579
1013, 17.252278643666074
1013.5, 17.252278643666074
1014, 17.309702461401216
1014.5, 17.309702461401216
1015, 17.596821550076896
1015.5, 17.88394063875259
1016, 17.88394063875259
1017.5, 18.19977163629585
1018, 18.19977163629585
1018.5, 18.257195454031006
1019, 18.257195454031006
1019.5, 18.257195454031006
1020, 18.285907362898556
1020.5, 18.285907362898556
1021, 18.34333118063371
1021.5, 18.34333118063371
1022, 18.486890724971545
1022.5, 18.486890724971545
1023, 18.458178816103967
1023.5, 18.429466907236403
1024, 18.429466907236403
1024.5, 18.544314542706672
1025, 18.544314542706672
1025.5, 18.74529790477966
1026, 18.74529790477966
1026.5, 18.946281266852637
1027, 18.946281266852637
1027.5, 19.147264628925626
1028, 19.204688446660782
1028.5, 19.204688446660782
1029, 19.463095626468885
1029.5, 19.463095626468885
1030, 19.635367079674296
1030.5, 19.635367079674296
1031, 19.721502806277
1031.5, 19.721502806277
1032, 19.836350441747285
1032.5, 19.951198077217555
1033, 19.951198077217555
1033.5, 20.06604571268784
1034, 20.06604571268784
1034.5, 20.12346953042298
1035, 20.12346953042298
1035.5, 20.2096052570257
1036, 20.381876710231097
1036.5, 20.381876710231097
1037, 20.55414816343651
1037.5, 20.55414816343651
1038, 20.640283890039214
1038.5, 20.640283890039214
1039, 20.869979160979767
1039.5, 20.869979160979767
1040, 21.04225061418518
1040.5, 21.185810158523026
1041, 21.185810158523026
1041.5, 21.27194588512573
1042, 21.27194588512573
1042.5, 21.329369702860873
1043, 21.329369702860873
1043.5, 21.444217338331143
1044, 21.444217338331143
1044.5, 21.559064973801426
1045, 21.673912609271696
1045.5, 21.673912609271696
1046, 21.817472153609543
1046.5, 21.817472153609543
1047, 21.96103169794739
1047.5, 21.96103169794739
1048, 22.133303151152802
1048.5, 22.44913414869606
1049, 22.44913414869606
1049.5, 22.592693693033908
1050, 22.592693693033908
1050.5, 22.79367705510691
1051, 22.79367705510691
1051.5, 22.994660417179873
1052, 22.994660417179873
1052.5, 23.339203323590723
1053, 23.655034321133982
1053.5, 23.655034321133982
1054, 23.597610503398826
1054.5, 23.597610503398826
1055, 23.62632241226639
1055.5, 23.62632241226639
1056, 23.769881956604237
1056.5, 23.769881956604237
1057, 23.769881956604237
1057.5, 23.712458138869096
1058, 23.712458138869096
1058.5, 23.712458138869096
1059, 23.712458138869096
1059.5, 23.94215340980965
1060, 23.94215340980965
1060.5, 24.31540822508805
1061, 24.31540822508805
1061.5, 24.631239222631308
1062, 24.717374949234014
1062.5, 24.717374949234014
1063, 24.68866304036645
1063.5, 24.68866304036645
1064, 24.746086858101606
1064.5, 24.746086858101606
1065, 24.774798766969155
1065.5, 24.717374949234014
1066, 24.717374949234014
1066.5, 24.774798766969155
1067, 24.774798766969155
1067.5, 24.947070220174567
1068, 24.947070220174567
1068.5, 25.148053582247556
1069, 25.148053582247556
1069.5, 25.291613126585418
1070, 25.49259648865838
1070.5, 25.49259648865838
1071, 25.693579850731382
1071.5, 25.693579850731382
1072, 25.72229175959893
1072.5, 25.72229175959893
1073, 25.751003668466495
1073.5, 25.751003668466495
1074, 25.894563212804343
1074.5, 25.86585130393678
1075, 25.86585130393678
1075.5, 25.837139395069215
1076, 25.837139395069215
1076.5, 25.837139395069215
1077, 25.837139395069215
1077.5, 25.837139395069215
1078, 25.894563212804343
1078.5, 25.894563212804343
1079, 25.951987030539485
1079.5, 25.951987030539485
1080, 25.951987030539485
1080.5, 25.951987030539485
1081, 25.837139395069215
1081.5, 25.837139395069215
1082, 25.751003668466495
1082.5, 26.03812275714219
1083, 26.03812275714219
1083.5, 26.152970392612488
1084, 26.152970392612488
1084.5, 26.181682301480038
1085, 26.181682301480038
1085.5, 26.124258483744896
1086, 26.124258483744896
1086.5, 26.009410848274626
1087, 25.923275121671935
1087.5, 25.923275121671935
1088, 26.06683466600977
1088.5, 26.06683466600977
1089, 26.095546574877332
1089.5, 26.095546574877332
1090, 26.03812275714219
1090.5, 25.894563212804343
1091, 25.894563212804343
1091.5, 25.751003668466495
1092, 25.751003668466495
1092.5, 25.66486794186379
1093, 25.66486794186379
1093.5, 25.66486794186379
1094, 25.66486794186379
1094.5, 25.693579850731382
1095, 25.72229175959893
1095.5, 25.72229175959893
1096, 25.66486794186379
1096.5, 25.66486794186379
1097, 25.262901217717825
1097.5, 25.262901217717825
1098, 25.320325035452967
1098.5, 25.320325035452967
1099, 25.34903694432053
1099.5, 25.34903694432053
1100, 25.34903694432053
1100.5, 25.291613126585418
1101, 25.291613126585418
1101.5, 25.119341673379978
1102, 25.119341673379978
1102.5, 25.033205946777272
1103, 25.033205946777272
1103.5, 25.00449403790971
1104, 24.975782129042145
1104.5, 24.975782129042145
1105, 25.090629764512414
1105.5, 25.090629764512414
1106, 25.090629764512414
1106.5, 25.090629764512414
1107, 24.889646402439425
1107.5, 24.83222258470431
1108, 24.83222258470431
1108.5, 24.68866304036645
1109, 24.68866304036645
1109.5, 24.37283204282319
1110, 24.37283204282319
1110.5, 24.229272498485344
1111, 24.229272498485344
1111.5, 24.057001045279932
1112, 23.769881956604237
1112.5, 23.769881956604237
1113, 23.62632241226639
1113.5, 23.62632241226639
1114, 23.540186685663684
1114.5, 23.540186685663684
1115, 23.367915232458273
1115.5, 23.367915232458273
1116, 23.195643779252862
1116.5, 23.023372326047465
1117, 23.023372326047465
1117.5, 22.707541328504192
1118, 22.707541328504192
1118.5, 22.592693693033908
1119, 22.592693693033908
1119.5, 22.477846057563653
1120, 22.420422239828497
1120.5, 22.420422239828497
1121, 22.305574604358213
1121.5, 22.305574604358213
1122, 22.16201506002038
1122.5, 22.16201506002038
1123, 22.104591242285238
1123.5, 22.104591242285238
1124, 21.90360788021225
1124.5, 21.817472153609543
1125, 21.817472153609543
1125.5, 21.616488791536582
1126, 21.616488791536582
1126.5, 21.329369702860873
1127, 21.329369702860873
1127.5, 21.157098249655476
1128, 21.157098249655476
1128.5, 20.92740297871491
1129, 20.496724345701367
1129.5, 20.496724345701367
1130, 20.41058861909866
1130.5, 20.41058861909866
1131, 20.35316480136352
1131.5, 20.35316480136352
1132, 20.23831716589325
1132.5, 20.23831716589325
1133, 19.807638532879707
1133.5, 19.319536082131037
1134, 19.319536082131037
1134.5, 19.290824173263474
1135, 19.290824173263474
1135.5, 19.23340035552833
1136, 19.23340035552833
1136.5, 18.917569357985073
1137, 18.831433631382367
1137.5, 18.831433631382367
1138, 18.716585995912098
1138.5, 18.716585995912098
1139, 18.573026451574265
1139.5, 18.573026451574265
1140, 18.34333118063371
1140.5, 18.34333118063371
1141, 18.142347818560708
1141.5, 17.99878827422286
1142, 17.99878827422286
1142.5, 17.769093003282308
1143, 17.769093003282308
1143.5, 17.48197391460664
1144, 17.48197391460664
1144.5, 17.280990552533638
1145, 17.280990552533638
1145.5, 17.108719099328226
1146, 16.850311919520124
1146.5, 16.850311919520124
1147, 16.706752375182262
1147.5, 16.706752375182262
1148, 16.64932855744712
1148.5, 16.64932855744712
1149, 16.505769013109273
1149.5, 16.390921377639017
1150, 16.390921377639017
1150.5, 16.189938015566014
1151, 16.189938015566014
1151.5, 15.701835564817344
1152, 15.701835564817344
1152.5, 15.386004567274085
1153, 15.386004567274085
1153.5, 15.357292658406521
1154, 15.357292658406521
1154.5, 15.357292658406521
1156, 14.266240121438912
1156.5, 14.266240121438912
1157, 14.783054481055132
1157.5, 14.783054481055132
1158, 14.381087756909167
1158.5, 13.979121032763203
1159, 13.979121032763203
1159.5, 13.86427339729292
1160, 13.86427339729292
1160.5, 13.778137670690214
1161, 13.778137670690214
1161.5, 13.63457812635238
1162, 13.433594764279391
1162.5, 13.433594764279391
1163, 13.146475675603696
1163.5, 13.146475675603696
1164, 13.002916131265849
1164.5, 13.002916131265849
1165, 12.77322086032531
1165.5, 12.77322086032531
1166, 12.457389862782037
1166.5, 12.342542227311768
1167, 12.342542227311768
1167.5, 12.026711229768509
1168, 12.026711229768509
1168.5, 11.739592141092814
1169, 11.739592141092814
1169.5, 11.624744505622544
1170, 11.624744505622544
1170.5, 11.423761143549555
1171, 11.280201599211708
1171.5, 11.280201599211708
1172, 10.820811057330616
1172.5, 10.820811057330616
1173, 10.53369196865492
1173.5, 10.53369196865492
1174, 10.418844333184637
1174.5, 10.418844333184637
1175, 10.13172524450897
1175.5, 10.016877609038673
1176, 10.016877609038673
1176.5, 9.988165700171109
1177, 9.988165700171109
1177.5, 9.815894246965712
1178, 9.815894246965712
1178.5, 9.614910884892709
1179, 9.184232251879195
1179.5, 9.184232251879195
1180, 8.92582507207105
1180.5, 8.92582507207105
1181, 8.782265527733202
1181.5, 8.782265527733202
1182, 8.60999407452779
1182.5, 8.60999407452779
1183, 8.495146439057521
1183.5, 8.380298803587237
1184, 8.380298803587237
1184.5, 8.150603532646684
1185, 8.150603532646684
1185.5, 7.978332079441273
1186, 7.978332079441273
1186.5, 7.74863680850072
1187, 7.74863680850072
1187.5, 7.518941537560167
1188, 7.4040939020898975
1188.5, 7.4040939020898975
1189, 7.145686722281781
1189.5, 7.145686722281781
1190, 6.944703360208791
1190.5, 6.944703360208791
1191, 6.743719998135802
1191.5, 6.542736636062827
1192, 6.542736636062827
1192.5, 6.313041365122274
1193, 6.313041365122274
1193.5, 6.140769911916877
1194, 6.140769911916877
1194.5, 6.169481820784426
1195, 6.169481820784426
1195.5, 6.140769911916877
1196, 5.796227005506026
1196.5, 5.796227005506026
1197, 5.480396007962767
1197.5, 5.480396007962767
1198, 5.4229721902276395
1198.5, 5.4229721902276395
1199, 5.33683646362492
1199.5, 5.33683646362492
1200, 5.164565010419508
1200.5, 4.877445921743828
1201, 4.877445921743828
1201.5, 4.7338863774059945
1202, 4.7338863774059945
1202.5, 4.647750650803289
1203, 4.647750650803289
1203.5, 4.504191106465441
1204, 4.274495835524874
1204.5, 4.274495835524874
1205, 4.1596482000545905
1205.5, 4.1596482000545905
1206, 4.073512473451885
1206.5, 4.073512473451885
1207, 3.9012410202464736
1207.5, 3.9012410202464736
1208, 3.7002576581734843
1208.5, 3.5566981138356653
1209, 3.5566981138356653
1209.5, 3.499274296100509
1210, 3.499274296100509
1210.5, 3.4418504783653674
1211, 3.4418504783653674
1211.5, 3.2408671162924065
1212, 3.2408671162924065
1212.5, 3.1547313896896867
1213, 3.068595663086967
1213.5, 3.068595663086967
1214, 3.039883754219403
1214.5, 3.039883754219403
1215, 3.0111718453518534
1215.5, 3.0111718453518534
1216, 2.9250361187491336
1216.5, 2.9250361187491336
1217, 2.752764665543708
1217.5, 2.523069394603155
1218, 2.523069394603155
1218.5, 2.6379170300734387
1219, 2.6379170300734387
1219.5, 2.6666289389410025
1220, 2.6666289389410025
1220.5, 2.6379170300734387
1221, 2.379509850265336
1221.5, 2.379509850265336
1222, 2.1211026704571907
1222.5, 2.1211026704571907
1223, 1.9201193083842298
1223.5, 1.9201193083842298
1224, 1.8339835817815242
1224.5, 1.8339835817815242
1225, 1.8626954906490738
1225.5, 1.8914073995166376
1226, 1.8914073995166376
1226.5, 1.9201193083842298
1227, 1.9201193083842298
1227.5, 1.9775431261193432
1228, 1.9775431261193432
1228.5, 1.9775431261193432
1229, 1.9775431261193432
1229.5, 1.8339835817815242
1230, 1.6330002197085207
1230.5, 1.6330002197085207
1231, 1.4607287665031095
1231.5, 1.4607287665031095
1232, 0.9726263157544537
1232.5, 0.9726263157544537
1233, 0.9439144068868615
1247, 1.5181525842382513
1247.5, 1.5181525842382513
1248, 0.9439144068868615
1248.5, 0.9439144068868615
311.1111111111111, 1.3026052104208503
301.7543859649123, 0.8016032064128211
306.4327485380117, 1.00200400801603
315.7894736842105, 1.503006012024045
867.8362573099416, 1.00200400801603
884.9902534113062, 1.3026052104208503
892.7875243664716, 1.2024048096192388
877.1929824561403, 1.1022044088176415
861.5984405458091, 0.8016032064128211
853.8011695906432, 1.2024048096192388
850.6822612085768, 1.3026052104208503
858.4795321637428, 0.9018036072144326
874.0740740740741, 0.8016032064128211
1256.140350877193, 1.1022044088176415
1265.4970760233919, 1.00200400801603
1277.9727095516569, 1.00200400801603
1326.3157894736842, 1.00200400801603
1337.2319688109162, 1.00200400801603
1352.8265107212476, 0.9018036072144326
1373.0994152046783, 0.9018036072144326
1394.9317738791422, 0.8016032064128211
1415.2046783625728, 1.00200400801603
1437.0370370370372, 0.8016032064128211
