300.5, 29.697554697554693
301, 29.697554697554693
302.5, 29.8122873704269
303, 29.8122873704269
303.5, 29.8122873704269
305, 29.92702004329911
305.5, 29.92702004329911
306, 29.984386379735213
306.5, 30.041752716171317
307, 30.041752716171317
307.5, 30.09911905260742
308, 30.09911905260742
308.5, 30.09911905260742
309, 30.09911905260742
312, 30.271218061915732
312.5, 30.299901230133784
313, 30.299901230133784
314.5, 30.443317071224044
315, 30.443317071224044
315.5, 30.443317071224044
317, 30.586732912314304
317.5, 30.586732912314304
318.5, 30.730148753404563
319, 30.730148753404563
319.5, 30.730148753404563
320, 30.730148753404563
321, 30.902247762712875
321.5, 30.902247762712875
322, 30.902247762712875
322.5, 30.902247762712875
324, 30.95961409914898
325.5, 31.016980435585083
326, 31.016980435585083
326.5, 31.10302994023924
329, 31.27512894954755
329.5, 31.27512894954755
330, 31.361178454201706
330.5, 31.361178454201706
331, 31.361178454201706
331.5, 31.475911127073914
332, 31.475911127073914
332.5, 31.533277463510018
333, 31.533277463510018
333.5, 31.533277463510018
334, 31.590643799946122
334.5, 31.590643799946122
335.5, 31.70537647281833
336, 31.70537647281833
337.5, 31.820109145690537
338, 31.820109145690537
338.5, 31.87747548212664
339, 31.99220815499885
339.5, 31.99220815499885
340, 31.99220815499885
340.5, 31.99220815499885
341, 32.0208913232169
345, 32.365089341833524
345.5, 32.365089341833524
346, 32.45113884648768
346.5, 32.45113884648768
347, 32.45113884648768
347.5, 32.45113884648768
348, 32.45113884648768
349.5, 32.59455468757794
350, 32.59455468757794
350.5, 32.7379705286682
352, 32.795336865104304
352.5, 32.795336865104304
353, 32.91006953797651
353.5, 32.967435874412615
354, 32.967435874412615
354.5, 33.02480221084872
355, 33.02480221084872
355.5, 33.08216854728482
356, 33.08216854728482
356.5, 33.08216854728482
357, 33.110851715502875
357.5, 33.110851715502875
359, 33.31163389302924
361.5, 33.48373290233755
362, 33.541099238773654
362.5, 33.541099238773654
363, 33.569782406991706
363.5, 33.569782406991706
364, 33.62714874342781
364.5, 33.62714874342781
365, 33.65583191164586
365.5, 33.74188141630002
366, 33.74188141630002
366.5, 33.94266359382638
367, 33.94266359382638
368, 34.143445771352745
368.5, 34.143445771352745
369, 34.1721289395708
369.5, 34.1721289395708
371, 34.37291111709716
371.5, 34.45896062175132
372, 34.45896062175132
372.5, 34.45896062175132
373, 34.45896062175132
373.5, 34.54501012640547
374, 34.63105963105963
374.5, 34.63105963105963
375, 34.65974279927768
375.5, 34.65974279927768
376, 34.77447547214989
376.5, 34.77447547214989
377, 34.80315864036794
377.5, 34.80315864036794
378, 34.80315864036794
378.5, 34.91789131324015
379, 34.91789131324015
379.5, 34.97525764967625
380, 35.11867349076651
380.5, 35.11867349076651
382, 35.319455668292875
382.5, 35.319455668292875
383, 35.37682200472898
383.5, 35.43418834116508
384, 35.43418834116508
384.5, 35.52023784581924
385, 35.52023784581924
387, 35.778386359781706
387.5, 35.778386359781706
388.5, 35.95048536909002
389, 35.95048536909002
389.5, 36.09390121018028
390, 36.09390121018028
390.5, 36.17995071483443
391, 36.17995071483443
391.5, 36.208633883052485
392, 36.23731705127054
392.5, 36.23731705127054
394, 36.46678239701495
395.5, 36.638881406323264
396, 36.638881406323264
396.5, 36.72493091097742
397, 36.72493091097742
398, 36.98307942493989
398.5, 36.98307942493989
399, 37.097812097812096
399.5, 37.097812097812096
400.5, 37.241227938902355
401, 37.241227938902355
403.5, 37.61410912573703
405, 37.72884179860924
405.5, 37.72884179860924
406, 37.8722576396995
406.5, 37.90094080791755
407, 37.90094080791755
408.5, 38.07303981722586
409, 38.07303981722586
410, 38.33118833118833
410.5, 38.33118833118833
411, 38.38855466762443
411.5, 38.38855466762443
412.5, 38.5893368451508
413, 38.5893368451508
414.5, 38.847485359113264
415, 39.04826753663963
415.5, 39.04826753663963
416, 39.10563387307573
416.5, 39.10563387307573
417, 39.163000209511836
417.5, 39.163000209511836
418.5, 39.449831891692355
419, 39.449831891692355
419.5, 39.53588139634651
420, 39.53588139634651
421, 39.79402991030898
421.5, 39.79402991030898
422, 39.908762583181186
422.5, 39.908762583181186
424, 40.023495256053394
424.5, 40.22427743357976
425, 40.22427743357976
425.5, 40.339010106451965
426, 40.339010106451965
426.5, 40.36769327467002
428, 40.53979228397833
428.5, 40.53979228397833
429, 40.71189129328664
429.5, 40.71189129328664
430.5, 41.084772480121316
431, 41.084772480121316
431.5, 41.31423782586573
432, 41.31423782586573
433, 41.5723863398282
433.5, 41.5723863398282
435, 41.74448534913651
435.5, 41.85921802200872
436, 41.85921802200872
437.5, 42.17473287240729
438, 42.17473287240729
438.5, 42.14604970418924
439, 42.232099208843394
439.5, 42.232099208843394
440, 42.260782377061446
440.5, 42.260782377061446
441, 42.404198218151706
442.5, 42.74839623676833
443, 42.74839623676833
443.5, 42.89181207785859
444, 42.89181207785859
444.5, 42.89181207785859
445, 43.121277423603004
445.5, 43.121277423603004
447, 43.408109105783524
447.5, 43.580208115091835
448, 43.580208115091835
449.5, 43.7809902926182
450, 43.7809902926182
450.5, 43.867039797272355
452, 44.23992098410703
452.5, 44.23992098410703
453, 44.26860415232508
454.5, 44.4980694980695
455, 44.4980694980695
455.5, 44.69885167559586
456, 44.69885167559586
456.5, 44.72753484381391
457, 44.899633853122225
457.5, 44.899633853122225
458, 44.92831702134028
458.5, 44.92831702134028
459, 44.98568335777638
460.5, 45.186465535302744
461, 45.186465535302744
461.5, 45.358564544611056
463, 45.58802989035547
463.5, 45.58802989035547
465, 45.87486157253599
465.5, 45.90354474075404
466, 45.90354474075404
466.5, 45.932227908972095
467, 45.932227908972095
468, 46.41984176867898
468.5, 46.41984176867898
470, 46.62062394620534
470.5, 46.62062394620534
471, 46.85008929194976
472.5, 47.02218830125807
473, 47.02218830125807
475, 47.33770315165664
475.5, 47.33770315165664
476, 47.36638631987469
476.5, 47.36638631987469
477.5, 47.62453483383716
478, 47.62453483383716
479.5, 48.08346552532599
480, 48.16951502998015
480.5, 48.16951502998015
481, 48.1981981981982
481.5, 48.1981981981982
482, 48.2555645346343
482.5, 48.2555645346343
484.5, 48.62844572146898
485, 48.62844572146898
486, 48.77186156255924
486.5, 48.77186156255924
487, 48.94396057186755
487.5, 48.94396057186755
488, 48.9726437400856
488.5, 49.00132690830365
489, 49.00132690830365
489.5, 49.23079225404807
490, 49.23079225404807
490.5, 49.23079225404807
491, 49.23079225404807
491.5, 49.20210908583002
492, 49.25947542226612
492.5, 49.25947542226612
493, 49.28815859048417
493.5, 49.28815859048417
494, 49.37420809513833
495.5, 49.54630710444664
496, 49.54630710444664
496.5, 49.51762393622859
497, 49.51762393622859
497.5, 49.54630710444664
498, 49.603673440882744
498.5, 49.603673440882744
499, 49.488940768010536
499.5, 49.488940768010536
500, 49.37420809513833
500.5, 49.25947542226612
501, 49.25947542226612
502.5, 49.08737641295781
503, 49.08737641295781
503.5, 48.9726437400856
504, 48.886594235431446
504.5, 48.886594235431446
505, 48.82922789899534
505.5, 48.82922789899534
506, 48.743178394341186
507.5, 48.39898037572456
508, 48.39898037572456
509.5, 48.16951502998015
510, 47.91136651601768
510.5, 47.91136651601768
512, 47.50980216096495
512.5, 47.02218830125807
513, 47.02218830125807
514.5, 46.649307114423394
517, 46.13301008649846
517.5, 46.13301008649846
518.5, 45.84617840431794
519, 45.84617840431794
519.5, 45.501980385701316
520, 45.501980385701316
521, 45.15778236708469
521.5, 45.15778236708469
522, 44.78490118025002
522.5, 44.78490118025002
523, 44.67016850737781
523.5, 44.67016850737781
524, 44.584119002723654
524.5, 44.4980694980695
525, 44.4980694980695
525.5, 44.41201999341534
526, 44.41201999341534
526.5, 44.23992098410703
528, 43.8383566290543
528.5, 43.8383566290543
529, 43.63757445152794
529.5, 43.63757445152794
530.5, 43.37942593756547
531, 43.37942593756547
531.5, 43.293376432911316
532, 43.293376432911316
532.5, 43.20732692825716
533, 43.149960591821056
533.5, 43.149960591821056
534, 43.0639110871669
534.5, 43.0639110871669
535, 43.03522791894885
535.5, 43.03522791894885
536, 42.977861582512745
537.5, 42.77707940498638
538, 42.77707940498638
538.5, 42.74839623676833
539, 42.77707940498638
539.5, 42.77707940498638
540, 42.89181207785859
540.5, 42.89181207785859
541.5, 42.547614059241965
542, 42.547614059241965
542.5, 42.46156455458781
543, 42.46156455458781
543.5, 42.49024772280586
544, 42.49024772280586
544.5, 42.547614059241965
545, 42.51893089102391
545.5, 42.51893089102391
546, 42.51893089102391
546.5, 42.51893089102391
547, 42.49024772280586
547.5, 42.49024772280586
548, 42.49024772280586
548.5, 42.49024772280586
549, 42.49024772280586
549.5, 42.46156455458781
550, 42.46156455458781
551, 42.74839623676833
551.5, 42.74839623676833
552, 42.86312890964054
552.5, 42.86312890964054
553.5, 43.0065447507308
554, 43.0065447507308
554.5, 43.0639110871669
555, 43.0639110871669
555.5, 43.17864376003911
556, 43.17864376003911
556.5, 43.35074276934742
557, 43.408109105783524
557.5, 43.408109105783524
558, 43.436792274001576
558.5, 43.436792274001576
559, 43.436792274001576
560.5, 43.7809902926182
561, 43.7809902926182
561.5, 43.98177247014456
563, 44.325970488761186
563.5, 44.325970488761186
565.5, 44.95700018955833
566, 44.95700018955833
566.5, 44.92831702134028
567, 44.92831702134028
567.5, 44.87095068490417
568, 44.81358434846807
568.5, 44.81358434846807
569, 44.84226751668612
569.5, 44.84226751668612
570, 44.92831702134028
570.5, 44.92831702134028
571, 44.87095068490417
571.5, 44.81358434846807
572, 44.81358434846807
572.5, 44.81358434846807
573, 44.81358434846807
573.5, 44.84226751668612
574, 44.84226751668612
574.5, 44.84226751668612
575, 44.78490118025002
575.5, 44.78490118025002
576, 44.81358434846807
576.5, 44.81358434846807
577, 44.78490118025002
577.5, 44.4980694980695
578, 44.4980694980695
578.5, 44.440703161633394
579, 44.440703161633394
579.5, 44.325970488761186
581, 44.09650514301677
581.5, 44.09650514301677
582, 43.98177247014456
582.5, 43.98177247014456
583.5, 43.69494078796404
584, 43.69494078796404
584.5, 43.46547544221963
585, 43.46547544221963
586, 43.121277423603004
586.5, 43.121277423603004
588.5, 42.51893089102391
589, 42.51893089102391
590.5, 42.14604970418924
591, 42.14604970418924
591.5, 42.088683367753134
593, 41.83053485379067
593.5, 41.83053485379067
594, 41.42897049873794
595.5, 41.199505152993524
596, 41.199505152993524
598, 40.51110911576028
598.5, 40.51110911576028
600, 40.0808615924895
600.5, 39.880079414963134
601, 39.880079414963134
601.5, 39.82271307852703
602, 39.82271307852703
602.5, 39.736663573872875
603, 39.736663573872875
605, 39.22036654594794
605.5, 39.22036654594794
606.5, 38.90485169554937
607, 38.90485169554937
607.5, 38.81880219089521
608, 38.81880219089521
609.5, 38.61802001336885
610, 38.18777249009807
610.5, 38.18777249009807
611, 38.15908932188002
611.5, 38.15908932188002
612, 38.130406153661966
612.5, 38.07303981722586
613, 38.07303981722586
613.5, 37.78620813504534
614, 37.78620813504534
614.5, 37.72884179860924
615, 37.72884179860924
615.5, 37.72884179860924
616, 37.72884179860924
616.5, 37.72884179860924
617, 37.61410912573703
617.5, 37.61410912573703
618.5, 37.26991110712041
619, 37.26991110712041
619.5, 37.12649526603015
620, 37.12649526603015
620.5, 37.12649526603015
621, 37.12649526603015
621.5, 37.12649526603015
622, 37.097812097812096
622.5, 37.097812097812096
624, 36.925713088503784
624.5, 36.89702992028573
625, 36.89702992028573
625.5, 36.925713088503784
626, 36.925713088503784
626.5, 36.83966358384963
628, 36.52414873345106
628.5, 36.52414873345106
630, 36.26600021948859
630.5, 36.17995071483443
631, 36.17995071483443
632.5, 36.00785170552612
633, 35.893119032653914
633.5, 35.893119032653914
635, 35.778386359781706
635.5, 35.778386359781706
636, 35.7210200233456
636.5, 35.69233685512755
637, 35.69233685512755
637.5, 35.43418834116508
638, 35.43418834116508
638.5, 35.40550517294703
640, 35.176039827202615
640.5, 35.176039827202615
641, 35.20472299542067
641.5, 35.26208933185677
642, 35.26208933185677
642.5, 35.29077250007482
643, 35.29077250007482
644.5, 35.11867349076651
645, 35.06130715433041
645.5, 35.06130715433041
646, 35.06130715433041
646.5, 35.06130715433041
647, 34.97525764967625
647.5, 34.91789131324015
648, 34.91789131324015
648.5, 34.860524976804044
649, 34.860524976804044
649.5, 34.77447547214989
650, 34.77447547214989
650.5, 34.77447547214989
652, 34.745792303931836
652.5, 34.745792303931836
653, 34.63105963105963
653.5, 34.602376462841576
654, 34.602376462841576
654.5, 34.63105963105963
655, 34.63105963105963
655.5, 34.65974279927768
656, 34.65974279927768
656.5, 34.48764378996937
657, 34.45896062175132
657.5, 34.45896062175132
658, 34.45896062175132
658.5, 34.45896062175132
659, 34.51632695818742
659.5, 34.54501012640547
660, 34.54501012640547
660.5, 34.573693294623524
661, 34.573693294623524
661.5, 34.573693294623524
662, 34.573693294623524
662.5, 34.573693294623524
663, 34.63105963105963
663.5, 34.63105963105963
664, 34.63105963105963
664.5, 34.63105963105963
665, 34.573693294623524
665.5, 34.45896062175132
666, 34.45896062175132
666.5, 34.45896062175132
667, 34.45896062175132
667.5, 34.573693294623524
668, 34.51632695818742
668.5, 34.51632695818742
669, 34.51632695818742
669.5, 34.51632695818742
670, 34.51632695818742
670.5, 34.51632695818742
671.5, 34.37291111709716
672, 34.37291111709716
672.5, 34.430277453533265
673, 34.430277453533265
673.5, 34.51632695818742
674, 34.54501012640547
674.5, 34.54501012640547
675, 34.63105963105963
675.5, 34.63105963105963
677, 34.83184180858599
678.5, 35.08999032254846
679, 35.08999032254846
679.5, 35.11867349076651
680, 35.08999032254846
680.5, 35.08999032254846
681, 35.06130715433041
681.5, 35.06130715433041
682, 35.14735665898456
682.5, 35.14735665898456
683, 35.14735665898456
683.5, 35.08999032254846
684, 35.08999032254846
684.5, 35.14735665898456
685, 35.14735665898456
685.5, 35.23340616363872
686, 35.29077250007482
686.5, 35.29077250007482
687, 35.40550517294703
687.5, 35.40550517294703
688, 35.49155467760119
688.5, 35.40550517294703
689, 35.40550517294703
689.5, 35.462871509383135
690, 35.462871509383135
690.5, 35.49155467760119
691, 35.49155467760119
691.5, 35.37682200472898
692, 35.37682200472898
692.5, 35.37682200472898
693, 35.462871509383135
693.5, 35.462871509383135
694, 35.52023784581924
694.5, 35.54892101403729
695, 35.54892101403729
695.5, 35.57760418225534
696, 35.57760418225534
697.5, 35.7210200233456
698, 35.7210200233456
698.5, 35.7210200233456
699, 35.7210200233456
699.5, 35.7210200233456
700, 35.749703191563654
700.5, 35.80706952799976
701, 35.80706952799976
701.5, 35.83575269621781
702, 35.83575269621781
702.5, 35.893119032653914
703, 35.893119032653914
703.5, 35.893119032653914
704, 35.893119032653914
704.5, 35.893119032653914
705, 35.86443586443586
705.5, 35.86443586443586
706, 35.921802200871966
706.5, 35.97916853730807
707, 35.97916853730807
707.5, 35.97916853730807
708, 35.97916853730807
709.5, 35.86443586443586
710, 35.893119032653914
710.5, 35.893119032653914
711, 35.893119032653914
711.5, 35.893119032653914
712, 35.86443586443586
712.5, 35.86443586443586
713, 35.86443586443586
713.5, 35.86443586443586
714, 35.86443586443586
714.5, 35.893119032653914
715, 35.893119032653914
715.5, 35.893119032653914
716, 35.86443586443586
716.5, 35.86443586443586
717, 35.86443586443586
717.5, 35.86443586443586
718, 35.83575269621781
718.5, 35.80706952799976
719, 35.80706952799976
719.5, 35.86443586443586
720, 35.86443586443586
720.5, 35.86443586443586
721, 35.893119032653914
721.5, 35.893119032653914
722, 35.86443586443586
722.5, 35.86443586443586
723, 35.80706952799976
723.5, 35.80706952799976
724, 35.778386359781706
724.5, 35.80706952799976
725, 35.80706952799976
725.5, 35.83575269621781
726, 35.83575269621781
726.5, 35.83575269621781
727, 35.80706952799976
727.5, 35.80706952799976
728, 35.778386359781706
728.5, 35.778386359781706
729, 35.80706952799976
729.5, 35.80706952799976
730, 35.83575269621781
730.5, 35.80706952799976
731, 35.80706952799976
731.5, 35.749703191563654
732, 35.749703191563654
732.5, 35.69233685512755
733, 35.7210200233456
733.5, 35.7210200233456
734, 35.7210200233456
734.5, 35.7210200233456
735, 35.778386359781706
735.5, 35.778386359781706
736.5, 35.606287350473394
737, 35.606287350473394
737.5, 35.606287350473394
738, 35.606287350473394
738.5, 35.69233685512755
739, 35.7210200233456
739.5, 35.7210200233456
740, 35.634970518691446
740.5, 35.634970518691446
741, 35.57760418225534
741.5, 35.52023784581924
742, 35.52023784581924
742.5, 35.52023784581924
743, 35.52023784581924
743.5, 35.54892101403729
744, 35.54892101403729
744.5, 35.54892101403729
746, 35.6636536869095
746.5, 35.6636536869095
747, 35.634970518691446
748.5, 35.40550517294703
749, 35.40550517294703
749.5, 35.34813883651093
750, 35.34813883651093
751, 35.0039408178943
751.5, 35.0039408178943
752, 34.91789131324015
752.5, 34.91789131324015
753, 34.889208145022096
753.5, 34.9465744814582
754, 34.9465744814582
754.5, 34.97525764967625
755, 34.97525764967625
755.5, 35.14735665898456
756, 35.14735665898456
756.5, 35.14735665898456
758, 34.9465744814582
758.5, 34.9465744814582
759, 34.889208145022096
759.5, 34.889208145022096
760, 34.889208145022096
760.5, 34.97525764967625
761, 34.97525764967625
761.5, 34.97525764967625
762, 34.97525764967625
762.5, 34.9465744814582
763, 34.9465744814582
763.5, 34.9465744814582
764, 34.889208145022096
764.5, 34.889208145022096
765, 34.745792303931836
765.5, 34.80315864036794
766, 34.80315864036794
767.5, 34.65974279927768
768, 34.63105963105963
768.5, 34.63105963105963
770, 34.573693294623524
770.5, 34.573693294623524
771, 34.573693294623524
771.5, 34.573693294623524
772, 34.573693294623524
772.5, 34.54501012640547
773, 34.54501012640547
774, 34.34422794887911
774.5, 34.34422794887911
775, 34.40159428531521
775.5, 34.40159428531521
776, 34.40159428531521
776.5, 34.40159428531521
777, 34.37291111709716
778.5, 34.143445771352745
779, 34.143445771352745
779.5, 34.11476260313469
781, 33.77056458451807
781.5, 33.77056458451807
782, 33.74188141630002
782.5, 33.74188141630002
783, 33.684515079863914
783.5, 33.569782406991706
784, 33.569782406991706
784.5, 33.541099238773654
785, 33.541099238773654
785.5, 33.5124160705556
786, 33.5124160705556
786.5, 33.5124160705556
787, 33.5124160705556
787.5, 33.5124160705556
788, 33.34031706124729
788.5, 33.08216854728482
789, 33.08216854728482
790.5, 32.93875270619456
791, 32.93875270619456
791.5, 32.93875270619456
792.0000000000002, 32.93875270619456
792.5, 32.93875270619456
793.0000000000002, 32.88138636975846
793.5, 32.88138636975846
794, 32.7379705286682
794.5, 32.680604192232096
795, 32.680604192232096
795.5000000000002, 32.56587151935989
796, 32.56587151935989
797.5000000000002, 32.33640617361547
799, 32.16430716430716
799.5, 32.16430716430716
800.0000000000002, 32.10694082787106
800.5, 32.04957449143495
801.0000000000002, 32.04957449143495
801.5, 31.791425977472485
802, 31.791425977472485
802.5, 31.56196063172807
803, 31.56196063172807
803.5000000000002, 31.533277463510018
804, 31.56196063172807
804.5000000000002, 31.56196063172807
805, 31.533277463510018
805.5000000000002, 31.533277463510018
806, 31.361178454201706
806.5, 31.2464457813295
807.0000000000002, 31.2464457813295
807.5, 31.189079444893395
808.0000000000002, 31.189079444893395
808.5, 31.13171310845729
809.0000000000002, 31.13171310845729
809.5, 30.787515089840667
811, 30.586732912314304
811.5000000000002, 30.586732912314304
812, 30.500683407660148
812.5000000000002, 30.500683407660148
813, 30.500683407660148
813.5, 30.38595073478794
814, 30.38595073478794
814.5, 30.156485389043524
815.0000000000002, 30.156485389043524
815.5, 30.156485389043524
863.0000000000002, 29.95570321151716
863.5, 29.95570321151716
864.0000000000002, 30.013069547953265
864.5, 30.013069547953265
865, 29.984386379735213
865.5000000000002, 29.984386379735213
866, 29.984386379735213
866.5000000000002, 29.92702004329911
867, 29.92702004329911
867.5000000000002, 29.95570321151716
868, 30.041752716171317
868.5, 30.041752716171317
869, 30.127802220825473
869.5, 30.127802220825473
870.0000000000002, 30.156485389043524
870.5, 30.156485389043524
871.0000000000002, 30.185168557261576
871.5, 30.09911905260742
872, 30.09911905260742
872.5, 30.127802220825473
873, 30.127802220825473
873.5000000000002, 30.185168557261576
874, 30.299901230133784
874.5000000000002, 30.299901230133784
875, 30.357267566569888
875.5000000000002, 30.357267566569888
876, 30.500683407660148
876.5, 30.500683407660148
877.5, 30.730148753404563
878.0000000000002, 30.730148753404563
878.5, 30.81619825805872
879.0000000000002, 30.81619825805872
879.5, 30.81619825805872
880, 30.81619825805872
880.5, 30.81619825805872
881, 30.84488142627677
881.5000000000002, 30.84488142627677
882, 30.930930930930927
882.5000000000002, 30.930930930930927
883, 30.98829726736703
883.5000000000002, 31.074346772021187
884, 31.074346772021187
884.5, 31.2464457813295
885.0000000000002, 31.2464457813295
885.5, 31.303812117765602
886.0000000000002, 31.27512894954755
886.5, 31.27512894954755
887.0000000000002, 31.2464457813295
887.5, 31.2464457813295
888, 31.2464457813295
888.5000000000002, 31.2464457813295
889, 31.217762613111447
889.5000000000002, 31.160396276675343
890, 31.160396276675343
890.5000000000002, 31.10302994023924
891, 31.10302994023924
892, 31.27512894954755
892.5, 31.27512894954755
893.0000000000002, 31.389861622419758
893.5, 31.389861622419758
894.0000000000002, 31.533277463510018
894.5, 31.533277463510018
895.0000000000002, 31.533277463510018
897.5000000000002, 31.820109145690537
899, 32.0208913232169
899.5, 32.0208913232169
900, 32.10694082787106
901.5, 32.42245567826963
902.0000000000002, 32.42245567826963
902.5, 32.651921024014044
903.0000000000002, 32.651921024014044
903.5, 32.76665369688625
904, 32.93875270619456
904.5000000000002, 32.93875270619456
905, 32.91006953797651
905.5000000000002, 32.91006953797651
906, 32.88138636975846
906.5000000000002, 33.31163389302924
907, 33.31163389302924
908.5, 33.65583191164586
909.0000000000002, 33.65583191164586
911, 34.63105963105963
911.5, 34.63105963105963
912.5000000000002, 35.176039827202615
913, 35.176039827202615
913.5000000000002, 35.6636536869095
914, 35.6636536869095
915, 36.15126754661638
915.5, 36.15126754661638
916.0000000000002, 36.03653487374417
916.5, 36.03653487374417
917.0000000000002, 36.065218041962225
917.5, 36.065218041962225
918.0000000000002, 36.26600021948859
918.5, 36.46678239701495
919, 36.46678239701495
919.5000000000002, 36.55283190166911
920, 36.55283190166911
920.5000000000002, 36.72493091097742
922, 37.241227938902355
922.5000000000002, 37.241227938902355
923, 37.671475462173134
923.5, 37.671475462173134
924.5, 38.07303981722586
925.0000000000002, 38.07303981722586
925.5, 38.273821994752225
926.0000000000002, 38.273821994752225
927, 38.704069518023005
927.5000000000002, 38.704069518023005
929, 39.50719822812846
929.5000000000002, 39.50719822812846
930, 39.56456456456456
930.5, 39.62193090100067
931, 39.62193090100067
931.5, 39.736663573872875
932.0000000000002, 39.736663573872875
932.5, 40.339010106451965
934.0000000000002, 40.56847545219638
934.5, 40.56847545219638
936.5000000000002, 41.17082198477547
937, 41.17082198477547
939.0000000000002, 41.85921802200872
939.5, 41.85921802200872
941.0000000000002, 42.49024772280586
941.5, 42.89181207785859
942.0000000000002, 42.89181207785859
943.5000000000002, 43.293376432911316
944, 43.293376432911316
945, 43.66625761974599
945.5000000000002, 43.66625761974599
946, 43.723623956182095
946.5, 43.723623956182095
947.0000000000002, 43.80967346083625
947.5, 44.21123781588898
948.0000000000002, 44.21123781588898
948.5, 44.4980694980695
949.0000000000002, 44.4980694980695
949.5, 44.64148533915976
950, 44.64148533915976
950.5, 45.10041603064859
951, 45.215148703520796
951.5000000000002, 45.215148703520796
953, 45.53066355391937
955.5, 46.219059591152615
956.0000000000002, 46.219059591152615
957.0000000000002, 46.7066734508595
957.5, 46.7066734508595
958, 47.07955463769417
958.5000000000002, 47.07955463769417
959.5000000000002, 47.28033681522054
960, 47.28033681522054
960.5000000000002, 47.33770315165664
961, 47.33770315165664
961.5000000000002, 47.36638631987469
962, 47.36638631987469
962.5, 47.73926750670937
964.0000000000002, 48.140831861762095
964.5, 48.140831861762095
965.0000000000002, 48.714495226123134
965.5, 48.82922789899534
966, 48.82922789899534
966.5000000000002, 49.08737641295781
967, 49.08737641295781
967.5000000000002, 49.14474274939391
969, 49.71840611375495
969.5, 49.71840611375495
970.0000000000002, 49.83313878662716
970.5, 49.83313878662716
971.0000000000002, 49.890505123063264
971.5, 49.94787145949937
972.0000000000002, 49.94787145949937
973.5, 50.37811898277015
974, 50.636267496732614
974.5000000000002, 50.636267496732614
975, 50.636267496732614
975.5000000000002, 50.636267496732614
976, 50.86573284247703
976.5000000000002, 50.86573284247703
977.5, 51.43939620683807
978.0000000000002, 51.43939620683807
978.5, 52.04174273941716
979.0000000000002, 52.04174273941716
979.5, 52.04174273941716
980.0000000000002, 52.01305957119911
980.5, 52.01305957119911
981.0000000000002, 52.29989125337963
981.5, 52.29989125337963
983, 52.6154061037782
983.5000000000002, 52.6727724402143
984, 52.6727724402143
984.5000000000002, 52.701455608432354
985, 52.701455608432354
985.5, 52.988287290612874
986.0000000000002, 53.303802141011445
986.5, 53.303802141011445
987.0000000000002, 53.36116847744755
987.5, 53.36116847744755
988.0000000000002, 53.36116847744755
988.5, 53.36116847744755
989.5000000000002, 53.76273283250028
990, 53.76273283250028
990.5000000000002, 53.877465505372484
991, 53.877465505372484
992, 54.164297187553004
992.5000000000002, 54.164297187553004
993, 54.30771302864326
993.5, 54.30771302864326
994.0000000000002, 54.36507936507937
994.5, 54.336396196861315
995.0000000000002, 54.336396196861315
996.5, 55.11084173874872
997, 55.11084173874872
997.5000000000002, 55.16820807518482
999, 55.5410892620195
999.5000000000002, 55.5410892620195
1000, 55.56977243023755
1000.5000000000002, 55.62713876667365
1001.0000000000002, 55.62713876667365
1001.5, 55.74187143954586
1002.0000000000002, 55.74187143954586
1003.5, 56.17211896281663
1004.0000000000002, 56.28685163568884
1004.5, 56.28685163568884
1005, 56.372901140343
1005.5000000000002, 56.372901140343
1006, 56.487633813215204
1006.5000000000002, 56.83183183183183
1007, 56.83183183183183
1007.5000000000002, 56.803148663613776
1008, 56.803148663613776
1008.5000000000002, 56.774465495395724
1009.0000000000002, 56.774465495395724
1009.5, 56.83183183183183
1010.0000000000002, 56.88919816826793
1010.5, 56.88919816826793
1011.0000000000002, 57.376812027974815
1011.5, 57.376812027974815
1012.5, 57.8644258876817
1013, 57.8644258876817
1013.5000000000002, 58.23730707451637
1014, 58.23730707451637
1014.5000000000002, 58.32335657917053
1015, 58.409406083824685
1015.5000000000002, 58.409406083824685
1016, 58.29467341095248
1016.5, 58.29467341095248
1017.0000000000002, 58.265990242734425
1017.5, 58.265990242734425
1018.0000000000002, 58.52413875669689
1018.5, 58.66755459778715
1019.0000000000002, 58.66755459778715
1019.5, 58.95438627996767
1020.0000000000002, 58.95438627996767
1020.5000000000002, 59.06911895283988
1022, 59.70014865363702
1022.5000000000002, 59.70014865363702
1024.5, 60.10171300868975
1025.0000000000002, 60.10171300868975
1025.5, 60.15907934512585
1026.0000000000002, 60.15907934512585
1026.5, 60.21644568156196
1027.0000000000002, 60.70405954126884
1027.5, 60.70405954126884
1028.0000000000002, 60.761425877704944
1028.5000000000002, 60.761425877704944
1029, 60.933524887013256
1029.5000000000002, 60.933524887013256
1030, 61.16299023275767
1030.5000000000002, 61.13430706453962
1031, 61.13430706453962
1031.5000000000002, 60.99089122344936
1032.0000000000002, 60.99089122344936
1032.5, 61.10562389632157
1033.0000000000002, 61.39245557850209
1033.5, 61.39245557850209
1034.0000000000002, 61.5645545878104
1034.5, 61.5645545878104
1035.0000000000002, 61.822703101772866
1035.5, 61.822703101772866
1036, 61.822703101772866
1036.5000000000002, 61.794019933554814
1037, 61.794019933554814
1037.5000000000002, 61.822703101772866
1038, 61.822703101772866
1038.5000000000002, 61.88006943820897
1039, 62.02348527929923
1039.5000000000002, 62.02348527929923
1040.0000000000002, 62.05216844751728
1040.5, 62.05216844751728
1041.0000000000002, 62.13821795217144
1042.5, 62.59714864366027
1043.0000000000002, 62.59714864366027
1043.5, 62.51109913900611
1044, 62.51109913900611
1044.5000000000002, 62.36768329791585
1045, 62.252950625043646
1045.5000000000002, 62.252950625043646
1046, 62.48241597078806
1046.5000000000002, 62.48241597078806
1047, 62.826613989404684
1047.5000000000002, 62.826613989404684
1048.0000000000002, 62.826613989404684
1048.5, 62.91266349405884
1049.0000000000002, 62.91266349405884
1049.5, 62.94134666227689
1050.0000000000002, 62.94134666227689
1050.5, 62.94134666227689
1051.0000000000002, 62.855297157622736
1051.5000000000002, 62.855297157622736
1052, 62.62583181187832
1052.5000000000002, 62.62583181187832
1053, 62.65451498009637
1053.5000000000002, 62.683198148314425
1054, 62.683198148314425
1054.5000000000002, 62.76924765296858
1055, 62.76924765296858
1055.5, 62.48241597078806
1056.0000000000002, 62.48241597078806
1056.5, 62.45373280257001
1057.0000000000002, 62.59714864366027
1057.5, 62.59714864366027
1058.0000000000002, 62.855297157622736
1058.5, 62.855297157622736
1059.0000000000002, 62.88398032584079
1059.5000000000002, 62.396366466133905
1060, 62.396366466133905
1060.5000000000002, 62.3390001296978
1061, 62.3390001296978
1061.5000000000002, 62.2816337932617
1062, 62.2816337932617
1062.5000000000002, 62.05216844751728
1063.0000000000002, 61.99480211108118
1063.5, 61.99480211108118
1064.0000000000002, 62.02348527929923
1064.5, 62.02348527929923
1065.0000000000002, 61.88006943820897
1065.5, 61.67928726068261
1066.0000000000002, 61.67928726068261
1066.5, 61.6219209242465
1067.0000000000002, 61.6219209242465
1067.5000000000002, 61.47850508315624
1068, 61.363772410284035
1068.5000000000002, 61.363772410284035
1069, 61.42113874672014
1069.5000000000002, 61.42113874672014
1070, 61.30640607384793
1070.5000000000002, 61.30640607384793
1071.0000000000002, 61.19167340097572
1071.5, 61.13430706453962
1072.0000000000002, 61.13430706453962
1072.5, 61.076940728103516
1073.0000000000002, 61.076940728103516
1073.5, 61.01957439166741
1074.0000000000002, 60.81879221414105
1074.5, 60.81879221414105
1075, 60.73274270948689
1075.5000000000002, 60.73274270948689
1076, 60.474594195524425
1076.5000000000002, 60.474594195524425
1077.5000000000002, 59.84356449472728
1078, 59.84356449472728
1078.5000000000002, 59.78619815829118
1079.0000000000002, 59.78619815829118
1079.5, 59.49936647611066
1080.0000000000002, 59.298584298584295
1080.5, 59.298584298584295
1081.0000000000002, 59.18385162571209
1081.5, 59.18385162571209
1082.0000000000002, 58.868336775313516
1082.5000000000002, 58.868336775313516
1083, 58.6388714295691
1084.5000000000002, 58.15125756986222
1085, 58.15125756986222
1085.5000000000002, 57.95047539233585
1087.0000000000002, 57.31944569153871
1087.5, 57.31944569153871
1088.0000000000002, 57.26207935510261
1088.5, 57.26207935510261
1089.0000000000002, 57.233396186884555
1089.5, 56.71709915895962
1090.0000000000002, 56.71709915895962
1090.5000000000002, 56.631049654305464
1091, 56.631049654305464
1091.5000000000002, 56.631049654305464
1092, 56.25816846747079
1092.5000000000002, 56.25816846747079
1093, 55.97133678529027
1093.5000000000002, 55.97133678529027
1094, 55.88528728063612
1094.5, 55.68450510310976
1095.0000000000002, 55.68450510310976
1096.5, 55.082158570530666
1097.0000000000002, 55.082158570530666
1098.0000000000002, 54.73796055191404
1098.5000000000002, 54.73796055191404
1099, 54.27902986042521
1099.5000000000002, 54.27902986042521
1100, 54.164297187553004
1100.5000000000002, 53.96351501002664
1101, 53.96351501002664
1102.5, 53.10301996348508
1103.0000000000002, 53.10301996348508
1103.5, 53.04565362704898
1104.0000000000002, 53.04565362704898
1104.5, 53.04565362704898
1105.0000000000002, 52.988287290612874
1105.5, 52.988287290612874
1106.0000000000002, 52.35725758981573
1106.5000000000002, 52.29989125337963
1107, 52.29989125337963
1107.5000000000002, 52.18515858050742
1108, 52.18515858050742
1108.5000000000002, 51.61149521614638
1109, 51.61149521614638
1110.0000000000002, 51.15256452465755
1110.5, 51.15256452465755
1111.0000000000002, 50.89441601069508
1111.5, 50.89441601069508
1112.0000000000002, 50.349435814552095
1112.5, 50.17733680524378
1113.0000000000002, 50.17733680524378
1113.5000000000002, 50.09128730058963
1114, 50.09128730058963
1114.5000000000002, 49.83313878662716
1115, 49.83313878662716
1115.5000000000002, 49.632356609100796
1116, 49.34552492692028
1116.5000000000002, 49.34552492692028
1117, 49.23079225404807
1117.5000000000002, 49.23079225404807
1118.0000000000002, 48.94396057186755
1119.5, 48.599762553250926
1120.0000000000002, 48.599762553250926
1122, 47.50980216096495
1122.5000000000002, 47.50980216096495
1124, 46.99350513304002
1124.5000000000002, 46.73535661907755
1125, 46.73535661907755
1126.5, 46.075643750062355
1127.0000000000002, 45.616713058573524
1127.5, 45.616713058573524
1128.0000000000002, 45.473297217483264
1128.5, 45.473297217483264
1129.0000000000002, 45.358564544611056
1129.5000000000002, 45.358564544611056
1130.5000000000002, 45.186465535302744
1131, 45.186465535302744
1131.5000000000002, 44.64148533915976
1132, 44.64148533915976
1133.0000000000002, 43.95308930192651
1133.5, 43.95308930192651
1134.0000000000002, 43.92440613370846
1134.5, 43.92440613370846
1135.0000000000002, 43.89572296549041
1135.5, 43.89572296549041
1136.0000000000002, 43.867039797272355
1137.5000000000002, 43.0065447507308
1138, 43.0065447507308
1138.5000000000002, 42.49024772280586
1139, 42.3468318817156
1139.5000000000002, 42.3468318817156
1140, 42.2894655452795
1140.5000000000002, 42.2894655452795
1141.0000000000002, 41.945267526662875
1141.5, 41.68711901270041
1142.0000000000002, 41.68711901270041
1142.5, 41.60106950804625
1143.0000000000002, 41.60106950804625
1143.5, 41.42897049873794
1144.0000000000002, 41.42897049873794
1145.0000000000002, 40.941356639031056
1145.5000000000002, 40.941356639031056
1147, 40.36769327467002
1147.5000000000002, 40.166911097143654
1148, 40.166911097143654
1149.5, 39.65061406921872
1150.0000000000002, 39.65061406921872
1150.5, 39.62193090100067
1151.0000000000002, 39.56456456456456
1151.5, 39.56456456456456
1152.0000000000002, 39.53588139634651
1152.5000000000002, 39.53588139634651
1153.5000000000002, 38.90485169554937
1154, 38.90485169554937
1154.5000000000002, 38.101722985443914
1155, 38.101722985443914
1155.5000000000002, 37.90094080791755
1156.0000000000002, 37.90094080791755
1156.5000000000002, 37.843574471481446
1157, 38.04435664900781
1157.5, 38.04435664900781
1159, 37.384643779992615
1159.5, 37.097812097812096
1160.0000000000002, 37.097812097812096
1161.5, 36.810980415631576
1162, 36.810980415631576
1163.0000000000002, 36.495465565233005
1163.5, 36.495465565233005
1164, 36.29468338770664
1164.5000000000002, 36.29468338770664
1165.5000000000002, 35.80706952799976
1166, 35.80706952799976
1166.5, 35.80706952799976
1167.0000000000002, 35.80706952799976
1167.5000000000002, 35.43418834116508
1168.0000000000002, 35.37682200472898
1168.5, 35.37682200472898
1169, 35.29077250007482
1169.5000000000002, 35.29077250007482
1170.0000000000002, 35.23340616363872
1170.5, 35.23340616363872
1171, 35.06130715433041
1172.5000000000002, 34.34422794887911
1173, 34.34422794887911
1173.5, 34.08607943491664
1174.0000000000002, 34.02871309848054
1174.5000000000002, 34.02871309848054
1175, 33.91398042560833
1175.5, 33.91398042560833
1176.0000000000002, 33.684515079863914
1176.5000000000002, 33.684515079863914
1177.0000000000002, 33.684515079863914
1177.5, 33.397683397683394
1178, 33.397683397683394
1179.5000000000002, 33.02480221084872
1180, 32.824020033322356
1180.5, 32.824020033322356
1181.0000000000002, 32.70928736045015
1181.5000000000002, 32.70928736045015
1182, 32.59455468757794
1182.5, 32.59455468757794
1183.0000000000002, 32.47982201470573
1183.5000000000002, 32.508505182923784
1184.0000000000002, 32.508505182923784
1184.5, 32.47982201470573
1185, 32.47982201470573
1185.5000000000002, 31.99220815499885
1186.0000000000002, 31.934841818562745
1186.5, 31.934841818562745
1187, 31.84879231390859
1187.5000000000002, 31.84879231390859
1188.0000000000002, 31.73405964103638
1188.5000000000002, 31.73405964103638
1189, 31.648010136382226
1189.5, 31.648010136382226
1190.0000000000002, 31.648010136382226
1190.5000000000002, 31.361178454201706
1191.0000000000002, 31.361178454201706
1191.5, 31.303812117765602
1192, 31.217762613111447
1192.5000000000002, 31.217762613111447
1193.0000000000002, 31.160396276675343
1193.5, 31.160396276675343
1194, 31.074346772021187
1194.5000000000002, 31.10302994023924
1195.0000000000002, 31.10302994023924
1195.5000000000002, 31.160396276675343
1196, 31.160396276675343
1196.5, 31.045663603803135
1197.0000000000002, 31.045663603803135
1197.5000000000002, 30.758831921622615
1198, 30.586732912314304
1198.5, 30.586732912314304
1199.0000000000002, 30.500683407660148
1199.5000000000002, 30.500683407660148
1200.0000000000002, 30.38595073478794
1200.5, 30.357267566569888
1201, 30.357267566569888
1201.5000000000002, 30.299901230133784
1202.0000000000002, 30.299901230133784
1202.5, 30.24253489369768
1203, 30.24253489369768
1203.5000000000002, 30.24253489369768
1204.0000000000002, 30.127802220825473
1204.5000000000002, 30.127802220825473
1205, 30.09911905260742
1205.5, 30.09911905260742
1206.0000000000002, 30.156485389043524
1206.5000000000002, 30.21385172547963
1207.0000000000002, 30.21385172547963
1207.5, 30.299901230133784
1208, 30.299901230133784
1209.5, 29.8122873704269
1211.0000000000002, 29.8122873704269
1211.5000000000002, 29.8122873704269
1212, 29.869653706863005
1212.5, 29.869653706863005
1213.0000000000002, 29.869653706863005
1213.5000000000002, 29.78360420220885
1214, 29.78360420220885
1214.5, 29.754921033990797
1215.0000000000002, 29.754921033990797
1215.5000000000002, 29.754921033990797
1216.0000000000002, 29.754921033990797
1216.5, 29.754921033990797
1217, 29.754921033990797
1217.5000000000002, 29.754921033990797
1218.0000000000002, 29.52545568824638
1218.5000000000002, 29.49677252002833
1219, 29.49677252002833
1219.5, 29.554138856464434
1220.0000000000002, 29.554138856464434
1220.5000000000002, 29.554138856464434
1221, 29.554138856464434
1221.5, 29.554138856464434
1222.0000000000002, 29.611505192900538
1222.5000000000002, 29.611505192900538
1223.0000000000002, 29.754921033990797
1223.5, 29.754921033990797
1224, 29.78360420220885
1224.5000000000002, 29.697554697554693
1225.0000000000002, 29.697554697554693
1225.5, 29.697554697554693
1226, 29.697554697554693
1226.5000000000002, 29.754921033990797
1227.0000000000002, 29.754921033990797
1227.5000000000002, 29.754921033990797
1228, 29.64018836111859
1228.5, 29.64018836111859
1229.0000000000002, 29.20994083784781
1229.5000000000002, 29.20994083784781
1230.0000000000002, 29.295990342501966
1230.5, 29.410723015374174
1231, 29.410723015374174
1231.5000000000002, 29.324673510720018
1232.0000000000002, 29.324673510720018
1232.5, 29.267307174283914
1233, 29.152574501411706
1233.5000000000002, 29.152574501411706
1234.0000000000002, 29.152574501411706
1234.5000000000002, 29.152574501411706
1235, 29.06652499675755
1235.5, 29.06652499675755
1236.0000000000002, 28.865742819231187
1236.5000000000002, 28.980475492103395
1237, 28.980475492103395
1237.5, 29.095208164975602
1238.0000000000002, 29.095208164975602
1238.5000000000002, 29.238624006065862
1239.0000000000002, 29.295990342501966
1239.5, 29.295990342501966
1240, 29.295990342501966
1240.5000000000002, 29.295990342501966
1241.0000000000002, 29.35335667893807
1241.5000000000002, 29.35335667893807
1242, 29.382039847156122
1242.5000000000002, 29.468089351810278
1243.0000000000002, 29.468089351810278
1243.5000000000002, 29.410723015374174
1244, 29.410723015374174
1244.5, 29.267307174283914
1245.0000000000002, 29.20994083784781
1245.5000000000002, 29.20994083784781
1246.0000000000002, 29.267307174283914
1246.5, 29.267307174283914
1247, 29.324673510720018
1247.5000000000002, 29.20994083784781
1248.0000000000002, 29.20994083784781
1248.5, 29.20994083784781
1249, 29.20994083784781
1249.5000000000002, 29.324673510720018
1250.0000000000002, 29.324673510720018
1250.5000000000002, 29.382039847156122
1251, 29.35335667893807
1251.5, 29.35335667893807
1252.0000000000002, 29.52545568824638
1252.5000000000002, 29.52545568824638
1253, 29.754921033990797
1253.5, 29.754921033990797
1254.0000000000002, 29.754921033990797
1254.5000000000002, 29.35335667893807
1255.0000000000002, 29.35335667893807
1255.5, 29.324673510720018
1256, 29.324673510720018
1256.5000000000002, 29.554138856464434
1257.0000000000002, 29.49677252002833
1257.5000000000002, 29.49677252002833
1258, 29.35335667893807
1258.5, 29.35335667893807
1259.0000000000002, 29.238624006065862
1259.5000000000002, 29.554138856464434
1260, 29.554138856464434
1260.5, 29.64018836111859
1261.0000000000002, 29.64018836111859
1261.5000000000002, 29.554138856464434
1262.0000000000002, 29.554138856464434
1263, 29.123891333193654
1263.5000000000002, 29.123891333193654
1264.0000000000002, 29.295990342501966
1264.5, 29.295990342501966
1265, 29.410723015374174
1265.5000000000002, 29.49677252002833
1266.0000000000002, 29.49677252002833
1266.5000000000002, 29.410723015374174
1267, 29.410723015374174
1267.5, 29.410723015374174
1268.0000000000002, 29.611505192900538
1268.5000000000002, 29.611505192900538
1269.0000000000002, 29.64018836111859
1269.5, 29.64018836111859
1270, 29.64018836111859
1270.5000000000002, 29.64018836111859
1271.0000000000002, 29.66887152933664
1271.5, 29.582822024682486
1272, 29.582822024682486
1272.5000000000002, 29.35335667893807
1273.0000000000002, 29.35335667893807
1273.5000000000002, 29.52545568824638
1275.0000000000002, 29.78360420220885
1275.5000000000002, 29.78360420220885
1276, 29.840970538644953
1276.5, 29.840970538644953
1277.0000000000002, 29.726237865772745
1277.5000000000002, 29.439406183592226
1278.0000000000002, 29.439406183592226
1278.5, 29.468089351810278
1279, 29.468089351810278
1279.5000000000002, 29.52545568824638
1280.0000000000002, 29.726237865772745
1280.5000000000002, 29.726237865772745
1281, 29.898336875081057
1281.5000000000002, 29.898336875081057
1282.0000000000002, 29.92702004329911
1282.5000000000002, 29.92702004329911
1283, 29.92702004329911
1283.5, 29.92702004329911
1284.0000000000002, 29.92702004329911
1284.5000000000002, 30.156485389043524
1285.0000000000002, 30.156485389043524
1285.5, 30.271218061915732
1286, 30.644099248750408
1286.5000000000002, 30.644099248750408
1287.0000000000002, 30.758831921622615
1287.5, 30.758831921622615
1288, 30.758831921622615
1288.5000000000002, 30.758831921622615
1289.0000000000002, 30.787515089840667
1289.5000000000002, 30.644099248750408
1290, 30.644099248750408
1290.5, 30.67278241696846
1291.0000000000002, 30.67278241696846
1291.5000000000002, 30.81619825805872
1292.0000000000002, 30.84488142627677
1292.5, 30.84488142627677
1294.0000000000002, 30.81619825805872
1295.5000000000002, 30.414633903005992
1296.0000000000002, 30.414633903005992
1296.5000000000002, 30.5293665758782
1297, 30.5293665758782
1297.5, 30.55804974409625
1298.0000000000002, 30.644099248750408
1298.5000000000002, 30.644099248750408
1299, 30.67278241696846
1299.5, 30.67278241696846
1300.0000000000002, 30.67278241696846
1300.5000000000002, 30.644099248750408
1301.0000000000002, 30.644099248750408
1302.5000000000002, 30.299901230133784
1303.0000000000002, 30.299901230133784
1303.5000000000002, 30.127802220825473
1304, 30.156485389043524
1304.5, 30.156485389043524
1305, 30.21385172547963
1305.5000000000002, 30.21385172547963
1306, 30.21385172547963
1306.5, 30.271218061915732
1307, 30.271218061915732
1307.5000000000002, 30.38595073478794
1308.0000000000002, 30.38595073478794
1309.5, 30.041752716171317
1310.0000000000002, 29.35335667893807
1310.5, 29.35335667893807
1311, 29.20994083784781
1311.5, 29.20994083784781
1312.0000000000002, 29.0378418285395
1313.5, 29.468089351810278
1314, 29.468089351810278
1314.5000000000002, 29.582822024682486
1315, 29.582822024682486
1315.5, 29.64018836111859
1316, 29.697554697554693
1316.5, 29.697554697554693
1317.0000000000002, 29.66887152933664
1317.5, 29.66887152933664
1318, 29.611505192900538
1318.5, 29.582822024682486
1319.0000000000002, 29.582822024682486
1319.5000000000002, 29.92702004329911
1320, 29.92702004329911
1320.5, 30.013069547953265
1321, 30.041752716171317
1321.5000000000002, 30.041752716171317
1322, 29.754921033990797
1322.5, 29.754921033990797
1323, 29.754921033990797
1323.5000000000002, 29.754921033990797
1324.0000000000002, 29.92702004329911
1325.5, 30.299901230133784
1326.0000000000002, 30.299901230133784
1326.5, 30.443317071224044
1328, 30.013069547953265
1328.5000000000002, 30.013069547953265
1329, 29.95570321151716
1329.5, 29.95570321151716
1330, 29.984386379735213
1330.5000000000002, 30.185168557261576
1331.0000000000002, 30.185168557261576
1331.5, 30.271218061915732
1332, 30.271218061915732
1332.5, 30.299901230133784
1333.0000000000002, 30.185168557261576
1333.5, 30.185168557261576
1334, 30.24253489369768
1334.5, 30.24253489369768
1335.0000000000002, 30.271218061915732
1335.5000000000002, 30.271218061915732
1336, 30.127802220825473
1336.5, 30.07043588438937
1337, 30.07043588438937
1337.5000000000002, 30.156485389043524
1338, 30.156485389043524
1338.5, 30.24253489369768
1339, 30.21385172547963
1339.5000000000002, 30.21385172547963
1340.0000000000002, 30.09911905260742
1340.5, 30.09911905260742
1341, 30.185168557261576
1341.5, 30.185168557261576
1342.0000000000002, 30.185168557261576
1342.5000000000002, 29.95570321151716
1343, 29.95570321151716
1343.5, 30.013069547953265
1344, 30.013069547953265
1344.5000000000002, 29.984386379735213
1345, 29.984386379735213
1345.5, 29.984386379735213
1346, 29.984386379735213
1346.5000000000002, 29.984386379735213
1347.0000000000002, 30.013069547953265
1347.5, 29.95570321151716
1348, 29.95570321151716
1348.5, 29.869653706863005
1349.0000000000002, 29.869653706863005
1349.5, 29.869653706863005
1350, 29.869653706863005
1350.5, 29.8122873704269
1351.0000000000002, 29.726237865772745
1351.5000000000002, 29.726237865772745
1352, 29.697554697554693
1352.5, 29.697554697554693
1353, 29.64018836111859
1353.5000000000002, 29.582822024682486
1354.0000000000002, 29.582822024682486
1354.5, 29.582822024682486
1355, 29.582822024682486
1355.5, 29.66887152933664
1356.0000000000002, 29.66887152933664
1356.5, 29.95570321151716
1357, 29.35335667893807
1357.5, 29.35335667893807
1358.0000000000002, 29.324673510720018
1358.5000000000002, 29.324673510720018
1359, 29.35335667893807
1359.5, 29.439406183592226
1360, 29.439406183592226
1360.5000000000002, 29.726237865772745
1361, 29.726237865772745
1361.5, 30.013069547953265
1362, 30.013069547953265
1362.5000000000002, 29.984386379735213
1363.0000000000002, 29.95570321151716
1363.5, 29.95570321151716
1365.0000000000002, 29.611505192900538
1365.5, 29.123891333193654
1366, 29.123891333193654
1366.5, 29.238624006065862
1367, 29.238624006065862
1367.5000000000002, 29.382039847156122
1368, 29.468089351810278
1368.5, 29.468089351810278
1369, 29.52545568824638
1369.5000000000002, 29.52545568824638
1370.0000000000002, 29.554138856464434
1370.5, 29.554138856464434
1371, 29.582822024682486
1371.5, 29.611505192900538
1372.0000000000002, 29.611505192900538
1372.5, 29.697554697554693
1373, 29.697554697554693
1373.5, 29.66887152933664
1374.0000000000002, 29.582822024682486
1374.5000000000002, 29.582822024682486
1375, 29.468089351810278
1375.5, 29.468089351810278
1376, 29.439406183592226
1376.5000000000002, 29.439406183592226
1377, 29.49677252002833
1377.5, 29.382039847156122
1378, 29.382039847156122
1378.5000000000002, 29.324673510720018
1379.0000000000002, 29.324673510720018
1379.5, 29.382039847156122
1380, 29.697554697554693
1380.5, 29.697554697554693
1381.0000000000002, 29.754921033990797
1381.5000000000002, 29.754921033990797
1382, 29.64018836111859
1382.5, 29.64018836111859
1383, 29.697554697554693
1383.5000000000002, 29.754921033990797
1384, 29.754921033990797
1384.5, 29.726237865772745
1385, 29.726237865772745
1386.0000000000002, 30.156485389043524
1386.5, 30.156485389043524
1387, 30.127802220825473
1387.5, 30.127802220825473
1388.0000000000002, 29.984386379735213
1388.5, 29.984386379735213
1389, 29.49677252002833
1389.5, 29.8122873704269
1390.0000000000002, 29.8122873704269
1390.5000000000002, 29.8122873704269
1391, 29.8122873704269
1391.5, 29.49677252002833
1392, 29.468089351810278
1392.5000000000002, 29.468089351810278
1393.0000000000002, 29.382039847156122
1393.5, 29.382039847156122
1394, 29.439406183592226
1394.5, 29.410723015374174
1395.0000000000002, 29.410723015374174
1396.5, 30.644099248750408
1396.5, 28.693643809922875
1397.0000000000002, 30.644099248750408
1397.0000000000002, 28.693643809922875
1397.5000000000002, 30.644099248750408
1397.5000000000002, 28.693643809922875
824.3102162565249, 29.67967967967968
821.3273676360925, 29.879879879879866
843.6987322893362, 29.67967967967968
855.6301267710664, 29.77977977977976
834.7501864280389, 29.579579579579573
