300, 50.78778820098669
300.5, 50.78778820098669
301, 50.78778820098669
301.5, 50.78778820098669
302, 50.78778820098669
302.5, 50.84521201872184
303, 50.84521201872184
303.5, 50.84521201872184
304, 50.84521201872184
304.5, 50.84521201872184
305, 50.81650010985426
305.5, 50.81650010985426
306, 50.84521201872184
306.5, 50.84521201872184
307, 50.84521201872184
307.5, 50.84521201872184
308, 50.8739239275894
308.5, 50.8739239275894
309, 50.902635836456966
309.5, 50.902635836456966
310, 50.902635836456966
310.5, 50.902635836456966
311, 50.902635836456966
311.5, 50.93134774532454
312, 50.93134774532454
312.5, 50.93134774532454
313, 50.960059654192115
313.5, 50.960059654192115
314, 50.98877156305967
314.5, 50.98877156305967
315, 50.98877156305967
315.5, 50.98877156305967
316, 50.98877156305967
316.5, 50.98877156305967
317, 51.04619538079481
317.5, 51.04619538079481
318, 51.04619538079481
318.5, 51.04619538079481
319, 51.04619538079481
319.5, 51.07490728966239
320, 51.07490728966239
320.5, 51.10361919852995
321, 51.10361919852995
321.5, 51.13233110739752
322, 51.13233110739752
322.5, 51.13233110739752
323, 51.13233110739752
323.5, 51.13233110739752
324, 51.16104301626509
324.5, 51.16104301626509
325, 51.16104301626509
325.5, 51.16104301626509
326, 51.16104301626509
326.5, 51.18975492513267
327, 51.18975492513267
327.5, 51.218466834000225
328, 51.218466834000225
328.5, 51.218466834000225
329, 51.218466834000225
329.5, 51.218466834000225
330, 51.247178742867796
330.5, 51.247178742867796
331, 51.247178742867796
331.5, 51.247178742867796
332, 51.27589065173537
332.5, 51.27589065173537
333, 51.30460256060294
333.5, 51.30460256060294
334, 51.30460256060294
334.5, 51.3333144694705
335, 51.3333144694705
335.5, 51.3333144694705
336, 51.3333144694705
336.5, 51.36202637833807
337, 51.36202637833807
337.5, 51.36202637833807
338, 51.39073828720565
338.5, 51.39073828720565
339, 51.39073828720565
339.5, 51.39073828720565
340, 51.41945019607321
340.5, 51.41945019607321
341, 51.41945019607321
341.5, 51.41945019607321
342, 51.44816210494078
342.5, 51.47687401380835
343, 51.47687401380835
343.5, 51.47687401380835
344, 51.47687401380835
344.5, 51.50558592267593
345, 51.50558592267593
345.5, 51.50558592267593
346, 51.50558592267593
346.5, 51.50558592267593
347, 51.563009740411054
347.5, 51.563009740411054
348, 51.591721649278625
348.5, 51.591721649278625
349, 51.6204335581462
349.5, 51.6204335581462
350, 51.6204335581462
350.5, 51.6204335581462
351, 51.64914546701376
351.5, 51.64914546701376
352, 51.64914546701376
352.5, 51.7065692847489
353, 51.7065692847489
353.5, 51.7065692847489
354, 51.7065692847489
354.5, 51.7065692847489
355, 51.73528119361647
355.5, 51.73528119361647
356, 51.76399310248404
356.5, 51.76399310248404
357, 51.76399310248404
357.5, 51.76399310248404
358, 51.79270501135161
358.5, 51.79270501135161
359, 51.79270501135161
359.5, 51.85012882908675
360, 51.85012882908675
360.5, 51.85012882908675
361, 51.85012882908675
361.5, 51.87884073795431
362, 51.87884073795431
362.5, 51.87884073795431
363, 51.87884073795431
363.5, 51.907552646821884
364, 51.907552646821884
364.5, 51.907552646821884
365, 51.93626455568946
365.5, 51.93626455568946
366, 51.96497646455702
366.5, 51.96497646455702
367, 51.99368837342459
367.5, 51.99368837342459
368, 51.99368837342459
368.5, 51.99368837342459
369, 51.99368837342459
369.5, 52.05111219115974
370, 52.05111219115974
370.5, 52.079824100027295
371, 52.079824100027295
371.5, 52.108536008894866
372, 52.13724791776244
372.5, 52.13724791776244
373, 52.165959826630015
373.5, 52.165959826630015
374, 52.19467173549757
374.5, 52.19467173549757
375, 52.22338364436514
375.5, 52.22338364436514
376, 52.22338364436514
376.5, 52.22338364436514
377, 52.22338364436514
377.5, 52.25209555323272
378, 52.25209555323272
378.5, 52.25209555323272
379, 52.25209555323272
379.5, 52.280807462100285
380, 52.30951937096785
380.5, 52.30951937096785
381, 52.30951937096785
381.5, 52.30951937096785
382, 52.33823127983542
382.5, 52.33823127983542
383, 52.395655097570554
383.5, 52.395655097570554
384, 52.424367006438125
384.5, 52.424367006438125
385, 52.424367006438125
385.5, 52.424367006438125
386, 52.424367006438125
386.5, 52.453078915305696
387, 52.453078915305696
387.5, 52.51050273304083
388, 52.51050273304083
388.5, 52.51050273304083
389, 52.56792655077597
389.5, 52.56792655077597
390, 52.59663845964355
390.5, 52.59663845964355
391, 52.59663845964355
391.5, 52.59663845964355
392, 52.62535036851111
392.5, 52.62535036851111
393, 52.65406227737868
393.5, 52.71148609511382
394, 52.71148609511382
394.5, 52.71148609511382
395, 52.71148609511382
395.5, 52.740198003981384
396, 52.740198003981384
396.5, 52.740198003981384
397, 52.79762182171653
397.5, 52.79762182171653
398, 52.85504563945166
398.5, 52.85504563945166
399, 52.88375754831923
399.5, 52.88375754831923
400, 52.88375754831923
400.5, 52.88375754831923
401, 52.941181366054366
401.5, 52.941181366054366
402, 52.941181366054366
402.5, 52.99860518378951
403, 52.99860518378951
403.5, 53.027317092657086
404, 53.027317092657086
404.5, 53.027317092657086
405, 53.027317092657086
405.5, 53.027317092657086
406, 53.05602900152464
406.5, 53.05602900152464
407, 53.08474091039221
407.5, 53.08474091039221
408, 53.142164728127355
408.5, 53.142164728127355
409, 53.17087663699492
409.5, 53.19958854586249
410, 53.19958854586249
410.5, 53.22830045473007
411, 53.22830045473007
411.5, 53.22830045473007
412, 53.22830045473007
412.5, 53.285724272465195
413, 53.285724272465195
413.5, 53.343148090200344
414, 53.343148090200344
414.5, 53.343148090200344
415, 53.40057190793547
415.5, 53.40057190793547
416, 53.40057190793547
416.5, 53.40057190793547
417, 53.45799572567062
417.5, 53.45799572567062
418, 53.51541954340575
418.5, 53.51541954340575
419, 53.51541954340575
419.5, 53.54413145227332
420, 53.54413145227332
420.5, 53.57284336114089
421, 53.57284336114089
421.5, 53.630267178876025
422, 53.630267178876025
422.5, 53.6589790877436
423, 53.68769099661117
423.5, 53.68769099661117
424, 53.7451148143463
424.5, 53.7451148143463
425, 53.77382672321388
425.5, 53.77382672321388
426, 53.802538632081436
426.5, 53.83125054094901
427, 53.83125054094901
427.5, 53.85996244981658
428, 53.85996244981658
428.5, 53.91738626755171
429, 53.91738626755171
429.5, 53.974810085286855
430, 53.974810085286855
430.5, 54.00352199415443
431, 54.06094581188956
431.5, 54.06094581188956
432, 54.1183696296247
432.5, 54.1183696296247
433, 54.204505356227415
433.5, 54.204505356227415
434, 54.204505356227415
434.5, 54.204505356227415
435, 54.26192917396254
435.5, 54.29064108283011
436, 54.29064108283011
436.5, 54.34806490056525
437, 54.34806490056525
437.5, 54.37677680943282
438, 54.37677680943282
438.5, 54.43420062716797
439, 54.462912536035525
439.5, 54.462912536035525
440, 54.52033635377067
440.5, 54.52033635377067
441, 54.54904826263824
441.5, 54.54904826263824
442, 54.60647208037337
442.5, 54.60647208037337
443, 54.66389589810851
443.5, 54.72131971584365
444, 54.72131971584365
444.5, 54.77874353357878
445, 54.77874353357878
445.5, 54.8648792601815
446, 54.8648792601815
446.5, 54.89359116904906
447, 54.89359116904906
447.5, 54.9510149867842
448, 55.008438804519336
448.5, 55.008438804519336
449, 55.065862622254485
449.5, 55.065862622254485
450, 55.09457453112204
450.5, 55.09457453112204
451, 55.151998348857184
451.5, 55.20942216659232
452, 55.20942216659232
452.5, 55.29555789319504
453, 55.29555789319504
453.5, 55.324269802062595
454, 55.324269802062595
454.5, 55.38169361979774
455, 55.38169361979774
455.5, 55.43911743753287
456, 55.46782934640044
456.5, 55.46782934640044
457, 55.525253164135584
457.5, 55.525253164135584
458, 55.6113888907383
458.5, 55.6113888907383
459, 55.640100799605854
459.5, 55.640100799605854
460, 55.75494843507613
460.5, 55.81237225281127
461, 55.81237225281127
461.5, 55.86979607054641
462, 55.86979607054641
462.5, 55.927219888281556
463, 55.927219888281556
463.5, 55.95593179714912
464, 55.95593179714912
464.5, 56.04206752375183
465, 56.09949134148696
465.5, 56.09949134148696
466, 56.21433897695724
466.5, 56.21433897695724
467, 56.24305088582481
467.5, 56.24305088582481
468, 56.30047470355994
468.5, 56.357898521295084
469, 56.357898521295084
469.5, 56.44403424789779
470, 56.44403424789779
470.5, 56.530169974500495
471, 56.530169974500495
471.5, 56.587593792235644
472, 56.587593792235644
472.5, 56.67372951883834
473, 56.70244142770592
473.5, 56.70244142770592
474, 56.78857715430862
474.5, 56.78857715430862
475, 56.9034247897789
475.5, 56.9034247897789
476, 56.96084860751403
476.5, 56.96084860751403
477, 57.01827242524918
477.5, 57.046984334116736
478, 57.046984334116736
478.5, 57.133120060719456
479, 57.133120060719456
479.5, 57.219255787322155
480, 57.219255787322155
480.5, 57.30539151392486
481, 57.36281533166
481.5, 57.36281533166
482, 57.42023914939514
482.5, 57.42023914939514
483, 57.47766296713027
483.5, 57.47766296713027
484, 57.59251060260055
484.5, 57.59251060260055
485, 57.64993442033569
485.5, 57.764782055805966
486, 57.764782055805966
486.5, 57.8222058735411
487, 57.8222058735411
487.5, 57.90834160014381
488, 57.90834160014381
488.5, 57.99447732674653
489, 57.99447732674653
489.5, 58.080613053349225
490, 58.1093249622168
490.5, 58.1093249622168
491, 58.1954606888195
491.5, 58.1954606888195
492, 58.252884506554636
492.5, 58.252884506554636
493, 58.36773214202491
493.5, 58.42515595976006
494, 58.42515595976006
494.5, 58.45386786862762
495, 58.45386786862762
495.5, 58.54000359523034
496, 58.54000359523034
496.5, 58.62613932183304
497, 58.62613932183304
497.5, 58.71227504843574
498, 58.76969886617088
498.5, 58.76969886617088
499, 58.82712268390602
499.5, 58.82712268390602
500, 58.884546501641154
500.5, 58.884546501641154
501, 58.913258410508725
501.5, 58.913258410508725
502, 58.99939413711143
502.5, 59.08552986371414
503, 59.08552986371414
503.5, 59.11424177258171
504, 59.11424177258171
504.5, 59.14295368144928
505, 59.14295368144928
505.5, 59.20037749918442
506, 59.20037749918442
506.5, 59.22908940805198
507, 59.257801316919554
507.5, 59.257801316919554
508, 59.31522513465469
508.5, 59.31522513465469
509, 59.34393704352226
509.5, 59.34393704352226
510, 59.37264895238983
510.5, 59.430072770124966
511, 59.430072770124966
511.5, 59.430072770124966
512, 59.430072770124966
512.5, 59.45878467899254
513, 59.45878467899254
513.5, 59.430072770124966
514, 59.430072770124966
514.5, 59.430072770124966
515, 59.45878467899254
515.5, 59.45878467899254
516, 59.45878467899254
516.5, 59.45878467899254
517, 59.516208496727685
517.5, 59.516208496727685
518, 59.516208496727685
518.5, 59.516208496727685
519, 59.57363231446281
519.5, 59.57363231446281
520, 59.57363231446281
520.5, 59.57363231446281
521, 59.57363231446281
521.5, 59.57363231446281
522, 59.57363231446281
522.5, 59.57363231446281
523, 59.631056132197955
523.5, 59.631056132197955
524, 59.65976804106552
524.5, 59.65976804106552
525, 59.68847994993309
525.5, 59.68847994993309
526, 59.65976804106552
526.5, 59.65976804106552
527, 59.57363231446281
527.5, 59.57363231446281
528, 59.57363231446281
528.5, 59.57363231446281
529, 59.57363231446281
529.5, 59.631056132197955
530, 59.631056132197955
530.5, 59.65976804106552
531, 59.65976804106552
531.5, 59.631056132197955
532, 59.602344223330384
532.5, 59.602344223330384
533, 59.54492040559524
533.5, 59.54492040559524
534, 59.54492040559524
534.5, 59.54492040559524
535, 59.54492040559524
535.5, 59.54492040559524
536, 59.516208496727685
536.5, 59.45878467899254
537, 59.45878467899254
537.5, 59.430072770124966
538, 59.430072770124966
538.5, 59.40136086125741
539, 59.40136086125741
539.5, 59.37264895238983
540, 59.37264895238983
540.5, 59.37264895238983
541, 59.40136086125741
541.5, 59.40136086125741
542, 59.37264895238983
542.5, 59.37264895238983
543, 59.37264895238983
543.5, 59.37264895238983
544, 59.37264895238983
544.5, 59.37264895238983
545, 59.37264895238983
545.5, 59.34393704352226
546, 59.34393704352226
546.5, 59.37264895238983
547, 59.37264895238983
547.5, 59.40136086125741
548, 59.40136086125741
548.5, 59.40136086125741
549, 59.45878467899254
549.5, 59.45878467899254
550, 59.45878467899254
550.5, 59.45878467899254
551, 59.45878467899254
551.5, 59.45878467899254
552, 59.516208496727685
552.5, 59.602344223330384
553, 59.602344223330384
553.5, 59.65976804106552
554, 59.65976804106552
554.5, 59.774615676535795
555, 59.774615676535795
555.5, 59.803327585403366
556, 59.803327585403366
556.5, 59.832039494270944
557, 59.832039494270944
557.5, 59.832039494270944
558, 59.8607514031385
558.5, 59.8607514031385
559, 59.91817522087364
559.5, 59.91817522087364
560, 59.97559903860878
560.5, 59.97559903860878
561, 60.03302285634392
561.5, 60.119158582946625
562, 60.119158582946625
562.5, 60.20529430954933
563, 60.20529430954933
563.5, 60.32014194501961
564, 60.32014194501961
564.5, 60.377565762754756
565, 60.434989580489884
565.5, 60.434989580489884
566, 60.492413398225025
566.5, 60.492413398225025
567, 60.52112530709259
567.5, 60.52112530709259
568, 60.607261033695295
568.5, 60.607261033695295
569, 60.66468485143044
569.5, 60.72210866916557
570, 60.72210866916557
570.5, 60.75082057803314
571, 60.75082057803314
571.5, 60.75082057803314
572, 60.75082057803314
572.5, 60.77953248690071
573, 60.77953248690071
573.5, 60.83695630463585
574, 60.83695630463585
574.5, 60.83695630463585
575, 60.86566821350342
575.5, 60.86566821350342
576, 60.951803940106124
576.5, 60.951803940106124
577, 60.951803940106124
577.5, 60.951803940106124
578, 60.951803940106124
578.5, 61.009227757841266
579, 61.009227757841266
579.5, 61.03793966670884
580, 61.03793966670884
580.5, 61.0666515755764
581, 61.0666515755764
581.5, 61.09536348444397
582, 61.09536348444397
582.5, 61.09536348444397
583, 61.0666515755764
583.5, 61.0666515755764
584, 61.09536348444397
584.5, 61.09536348444397
585, 61.09536348444397
585.5, 61.09536348444397
586, 61.15278730217911
586.5, 61.18149921104668
587, 61.18149921104668
587.5, 61.18149921104668
588, 61.18149921104668
588.5, 61.21021111991425
589, 61.21021111991425
589.5, 61.21021111991425
590, 61.21021111991425
590.5, 61.21021111991425
591, 61.15278730217911
591.5, 61.15278730217911
592, 61.09536348444397
592.5, 61.09536348444397
593, 61.09536348444397
593.5, 61.09536348444397
594, 61.12407539331155
594.5, 61.12407539331155
595, 61.12407539331155
595.5, 61.12407539331155
596, 61.12407539331155
596.5, 61.09536348444397
597, 61.09536348444397
597.5, 61.03793966670884
598, 61.03793966670884
598.5, 61.009227757841266
599, 60.951803940106124
599.5, 60.951803940106124
600, 60.89438012237099
600.5, 60.89438012237099
601, 60.86566821350342
601.5, 60.86566821350342
602, 60.80824439576829
602.5, 60.80824439576829
603, 60.75082057803314
603.5, 60.72210866916557
604, 60.72210866916557
604.5, 60.66468485143044
605, 60.66468485143044
605.5, 60.635972942562866
606, 60.635972942562866
606.5, 60.57854912482774
607, 60.57854912482774
607.5, 60.57854912482774
608, 60.52112530709259
608.5, 60.52112530709259
609, 60.492413398225025
609.5, 60.492413398225025
610, 60.40627767162231
610.5, 60.40627767162231
611, 60.377565762754756
611.5, 60.34885385388718
612, 60.34885385388718
612.5, 60.291430036152036
613, 60.291430036152036
613.5, 60.26271812728448
614, 60.26271812728448
614.5, 60.17658240068176
615, 60.17658240068176
615.5, 60.090446674079054
616, 60.03302285634392
616.5, 60.03302285634392
617, 59.97559903860878
617.5, 59.97559903860878
618, 59.91817522087364
618.5, 59.91817522087364
619, 59.832039494270944
619.5, 59.832039494270944
620, 59.774615676535795
620.5, 59.71719185880067
621, 59.71719185880067
621.5, 59.68847994993309
622, 59.68847994993309
622.5, 59.65976804106552
623, 59.65976804106552
623.5, 59.602344223330384
624, 59.516208496727685
624.5, 59.516208496727685
625, 59.45878467899254
625.5, 59.45878467899254
626, 59.430072770124966
626.5, 59.430072770124966
627, 59.34393704352226
627.5, 59.34393704352226
628, 59.28651322578713
628.5, 59.20037749918442
629, 59.20037749918442
629.5, 59.14295368144928
630, 59.14295368144928
630.5, 59.08552986371414
631, 59.08552986371414
631.5, 58.970682228243874
632, 58.970682228243874
632.5, 58.884546501641154
633, 58.8558345927736
633.5, 58.8558345927736
634, 58.82712268390602
634.5, 58.82712268390602
635, 58.71227504843574
635.5, 58.71227504843574
636, 58.62613932183304
636.5, 58.568715504097895
637, 58.568715504097895
637.5, 58.48257977749519
638, 58.48257977749519
638.5, 58.45386786862762
639, 58.45386786862762
639.5, 58.33902023315734
640, 58.33902023315734
640.5, 58.22417259768707
641, 58.1093249622168
641.5, 58.1093249622168
642, 58.051901144481654
642.5, 58.051901144481654
643, 57.99447732674653
643.5, 57.99447732674653
644, 57.87962969127625
644.5, 57.87962969127625
645, 57.79349396467354
645.5, 57.707358238070825
646, 57.707358238070825
646.5, 57.59251060260055
647, 57.59251060260055
647.5, 57.50637487599784
648, 57.50637487599784
648.5, 57.448951058262715
649, 57.448951058262715
649.5, 57.33410342279244
650, 57.247967696189725
650.5, 57.247967696189725
651, 57.16183196958701
651.5, 57.16183196958701
652, 57.046984334116736
652.5, 57.046984334116736
653, 56.9895605163816
653.5, 56.93213669864646
654, 56.93213669864646
654.5, 56.846000972043754
655, 56.846000972043754
655.5, 56.70244142770592
656, 56.70244142770592
656.5, 56.64501760997077
657, 56.64501760997077
657.5, 56.558881883368066
658, 56.44403424789779
658.5, 56.44403424789779
659, 56.357898521295084
659.5, 56.357898521295084
660, 56.271762794692386
660.5, 56.271762794692386
661, 56.15691515922211
661.5, 56.15691515922211
662, 56.09949134148696
662.5, 56.04206752375183
663, 56.04206752375183
663.5, 55.95593179714912
664, 55.95593179714912
664.5, 55.86979607054641
665, 55.86979607054641
665.5, 55.7836603439437
666, 55.640100799605854
666.5, 55.640100799605854
667, 55.58267698187072
667.5, 55.58267698187072
668, 55.49654125526802
668.5, 55.49654125526802
669, 55.352981710930166
669.5, 55.352981710930166
670, 55.26684598432746
670.5, 55.151998348857184
671, 55.151998348857184
671.5, 55.09457453112204
672, 55.09457453112204
672.5, 55.03715071338691
673, 55.03715071338691
673.5, 54.8648792601815
674, 54.8648792601815
674.5, 54.807455442446354
675, 54.807455442446354
675.5, 54.807455442446354
676, 54.75003162471123
676.5, 54.75003162471123
677, 54.66389589810851
677.5, 54.66389589810851
678, 54.5777601715058
678.5, 54.5777601715058
679, 54.5777601715058
679.5, 54.52033635377067
680, 54.52033635377067
680.5, 54.462912536035525
681, 54.462912536035525
681.5, 54.40548871830039
682, 54.40548871830039
682.5, 54.34806490056525
683, 54.29064108283011
683.5, 54.29064108283011
684, 54.23321726509497
684.5, 54.23321726509497
685, 54.23321726509497
685.5, 54.23321726509497
686, 54.17579344735984
686.5, 54.17579344735984
687, 54.1183696296247
687.5, 54.06094581188956
688, 54.06094581188956
688.5, 54.03223390302199
689, 54.03223390302199
689.5, 54.00352199415443
690, 54.00352199415443
690.5, 53.946098176419284
691, 53.946098176419284
691.5, 53.888674358684156
692, 53.83125054094901
692.5, 53.83125054094901
693, 53.83125054094901
693.5, 53.83125054094901
694, 53.7451148143463
694.5, 53.7451148143463
695, 53.68769099661117
695.5, 53.6589790877436
696, 53.6589790877436
696.5, 53.630267178876025
697, 53.630267178876025
697.5, 53.630267178876025
698, 53.630267178876025
698.5, 53.57284336114089
699, 53.57284336114089
699.5, 53.57284336114089
700, 53.57284336114089
700.5, 53.57284336114089
701, 53.51541954340575
701.5, 53.51541954340575
702, 53.54413145227332
702.5, 53.54413145227332
703, 53.48670763453818
703.5, 53.48670763453818
704, 53.48670763453818
704.5, 53.42928381680304
705, 53.42928381680304
705.5, 53.3718599990679
706, 53.3718599990679
706.5, 53.314436181332766
707, 53.314436181332766
707.5, 53.314436181332766
708, 53.257012363597624
708.5, 53.257012363597624
709, 53.257012363597624
709.5, 53.257012363597624
710, 53.22830045473007
710.5, 53.22830045473007
711, 53.19958854586249
711.5, 53.19958854586249
712, 53.19958854586249
712.5, 53.19958854586249
713, 53.19958854586249
713.5, 53.17087663699492
714, 53.17087663699492
714.5, 53.17087663699492
715, 53.17087663699492
715.5, 53.17087663699492
716, 53.17087663699492
716.5, 53.142164728127355
717, 53.142164728127355
717.5, 53.142164728127355
718, 53.17087663699492
718.5, 53.17087663699492
719, 53.17087663699492
719.5, 53.17087663699492
720, 53.17087663699492
720.5, 53.17087663699492
721, 53.142164728127355
721.5, 53.08474091039221
722, 53.08474091039221
722.5, 53.05602900152464
723, 53.05602900152464
723.5, 53.05602900152464
724, 53.05602900152464
724.5, 53.05602900152464
725, 53.05602900152464
725.5, 53.05602900152464
726, 53.08474091039221
726.5, 53.08474091039221
727, 53.08474091039221
727.5, 53.08474091039221
728, 53.08474091039221
728.5, 53.08474091039221
729, 53.05602900152464
729.5, 53.027317092657086
730, 53.027317092657086
730.5, 53.027317092657086
731, 53.027317092657086
731.5, 53.142164728127355
732, 53.142164728127355
732.5, 53.142164728127355
733, 53.142164728127355
733.5, 53.19958854586249
734, 53.17087663699492
734.5, 53.17087663699492
735, 53.142164728127355
735.5, 53.142164728127355
736, 53.08474091039221
736.5, 53.08474091039221
737, 53.05602900152464
737.5, 53.08474091039221
738, 53.08474091039221
738.5, 53.113452819259784
739, 53.113452819259784
739.5, 53.142164728127355
740, 53.142164728127355
740.5, 53.142164728127355
741, 53.142164728127355
741.5, 53.17087663699492
742, 53.19958854586249
742.5, 53.19958854586249
743, 53.285724272465195
743.5, 53.285724272465195
744, 53.285724272465195
744.5, 53.285724272465195
745, 53.285724272465195
745.5, 53.285724272465195
746, 53.257012363597624
746.5, 53.257012363597624
747, 53.257012363597624
747.5, 53.257012363597624
748, 53.257012363597624
748.5, 53.257012363597624
749, 53.257012363597624
749.5, 53.257012363597624
750, 53.257012363597624
750.5, 53.257012363597624
751, 53.19958854586249
751.5, 53.19958854586249
752, 53.19958854586249
752.5, 53.19958854586249
753, 53.17087663699492
753.5, 53.17087663699492
754, 53.17087663699492
754.5, 53.17087663699492
755, 53.17087663699492
755.5, 53.19958854586249
756, 53.19958854586249
756.5, 53.19958854586249
757, 53.19958854586249
757.5, 53.19958854586249
758, 53.19958854586249
758.5, 53.22830045473007
759, 53.22830045473007
759.5, 53.22830045473007
760, 53.257012363597624
760.5, 53.257012363597624
761, 53.257012363597624
761.5, 53.257012363597624
762, 53.285724272465195
762.5, 53.285724272465195
763, 53.343148090200344
763.5, 53.314436181332766
764, 53.314436181332766
764.5, 53.285724272465195
765, 53.285724272465195
765.5, 53.285724272465195
766, 53.285724272465195
766.5, 53.257012363597624
767, 53.257012363597624
767.5, 53.257012363597624
768, 53.22830045473007
768.5, 53.22830045473007
769, 53.22830045473007
769.5, 53.22830045473007
770, 53.257012363597624
770.5, 53.257012363597624
771, 53.19958854586249
771.5, 53.19958854586249
772, 53.19958854586249
772.5, 53.19958854586249
773, 53.19958854586249
773.5, 53.17087663699492
774, 53.17087663699492
774.5, 53.17087663699492
775, 53.17087663699492
775.5, 53.17087663699492
776, 53.142164728127355
776.5, 53.142164728127355
777, 53.17087663699492
777.5, 53.17087663699492
778, 53.142164728127355
778.5, 53.142164728127355
779, 53.142164728127355
779.5, 53.08474091039221
780, 53.08474091039221
780.5, 53.08474091039221
781, 53.08474091039221
781.5, 53.08474091039221
782, 53.08474091039221
782.5, 53.05602900152464
783, 53.05602900152464
783.5, 53.027317092657086
784, 52.96989327492194
784.5, 52.96989327492194
785, 52.91246945718681
785.5, 52.91246945718681
786, 52.91246945718681
786.5, 52.91246945718681
787, 52.82633373058409
787.5, 52.82633373058409
788, 52.768909912848954
788.5, 52.768909912848954
789, 52.768909912848954
789.5, 52.71148609511382
790, 52.71148609511382
790.5, 52.65406227737868
791, 52.65406227737868
791.5, 52.62535036851111
792, 52.5392146419084
792.5, 52.5392146419084
793, 52.481790824173274
793.5, 52.481790824173274
794, 52.453078915305696
794.5, 52.453078915305696
795, 52.395655097570554
795.5, 52.395655097570554
796, 52.33823127983542
796.5, 52.30951937096785
797, 52.30951937096785
797.5, 52.22338364436514
798, 52.22338364436514
798.5, 52.19467173549757
799, 52.19467173549757
799.5, 52.13724791776244
800, 52.13724791776244
800.5, 52.02240028229216
801, 51.907552646821884
801.5, 51.907552646821884
802, 51.87884073795431
802.5, 51.87884073795431
803, 51.87884073795431
803.5, 51.87884073795431
804, 51.87884073795431
804.5, 51.87884073795431
805, 51.85012882908675
805.5, 51.76399310248404
806, 51.76399310248404
806.5, 51.64914546701376
807, 51.64914546701376
807.5, 51.6204335581462
808, 51.6204335581462
808.5, 51.6204335581462
809, 51.50558592267593
809.5, 51.50558592267593
810, 51.44816210494078
810.5, 51.44816210494078
811, 51.39073828720565
811.5, 51.39073828720565
812, 51.3333144694705
812.5, 51.3333144694705
813, 51.247178742867796
813.5, 51.16104301626509
814, 51.16104301626509
814.5, 51.13233110739752
815, 51.13233110739752
815.5, 51.13233110739752
816, 51.13233110739752
816.5, 50.98877156305967
817, 50.98877156305967
817.5, 50.98877156305967
818, 50.93134774532454
818.5, 50.93134774532454
819, 50.960059654192115
819.5, 50.960059654192115
820, 50.960059654192115
820.5, 50.960059654192115
821, 50.93134774532454
821.5, 50.902635836456966
822, 50.902635836456966
822.5, 50.84521201872184
823, 50.84521201872184
823.5, 50.8739239275894
824, 50.8739239275894
824.5, 50.84521201872184
825, 50.84521201872184
825.5, 50.81650010985426
826, 50.78778820098669
826.5, 50.78778820098669
827, 50.78778820098669
827.5, 50.78778820098669
828, 50.78778820098669
828.5, 50.78778820098669
829, 50.78778820098669
829.5, 50.78778820098669
830, 50.81650010985426
830.5, 50.81650010985426
831, 50.81650010985426
831.5, 50.84521201872184
832, 50.84521201872184
832.5, 50.8739239275894
833, 50.8739239275894
833.5, 50.960059654192115
834, 50.960059654192115
834.5, 50.98877156305967
835, 51.04619538079481
835.5, 51.04619538079481
836, 51.16104301626509
836.5, 51.16104301626509
837, 51.218466834000225
837.5, 51.218466834000225
838, 51.27589065173537
838.5, 51.3333144694705
839, 51.3333144694705
839.5, 51.44816210494078
840, 51.44816210494078
840.5, 51.47687401380835
841, 51.47687401380835
841.5, 51.44816210494078
842, 51.44816210494078
842.5, 51.41945019607321
843, 51.39073828720565
843.5, 51.39073828720565
844, 51.39073828720565
844.5, 51.39073828720565
845, 51.30460256060294
845.5, 51.30460256060294
846, 51.3333144694705
846.5, 51.3333144694705
847, 51.36202637833807
847.5, 51.30460256060294
848, 51.30460256060294
848.5, 51.27589065173537
849, 51.27589065173537
849.5, 51.30460256060294
850, 51.30460256060294
850.5, 51.3333144694705
851, 51.3333144694705
851.5, 51.3333144694705
852, 51.27589065173537
852.5, 51.27589065173537
853, 51.247178742867796
853.5, 51.247178742867796
854, 51.218466834000225
854.5, 51.218466834000225
855, 51.218466834000225
855.5, 51.218466834000225
856, 51.218466834000225
856.5, 51.218466834000225
857, 51.218466834000225
857.5, 51.218466834000225
858, 51.218466834000225
858.5, 51.218466834000225
859, 51.218466834000225
859.5, 51.247178742867796
860, 51.27589065173537
860.5, 51.27589065173537
861, 51.247178742867796
861.5, 51.247178742867796
862, 51.247178742867796
862.5, 51.247178742867796
863, 51.27589065173537
863.5, 51.27589065173537
864, 51.27589065173537
864.5, 51.3333144694705
865, 51.3333144694705
865.5, 51.36202637833807
866, 51.36202637833807
866.5, 51.41945019607321
867, 51.41945019607321
867.5, 51.47687401380835
868, 51.47687401380835
868.5, 51.47687401380835
869, 51.50558592267593
869.5, 51.50558592267593
870, 51.53429783154348
870.5, 51.53429783154348
871, 51.591721649278625
871.5, 51.591721649278625
872, 51.6204335581462
872.5, 51.64914546701376
873, 51.64914546701376
873.5, 51.67785737588133
874, 51.67785737588133
874.5, 51.67785737588133
875, 51.67785737588133
875.5, 51.73528119361647
876, 51.73528119361647
876.5, 51.821416920219185
877, 51.85012882908675
877.5, 51.85012882908675
878, 51.907552646821884
878.5, 51.907552646821884
879, 51.907552646821884
879.5, 51.907552646821884
880, 51.96497646455702
880.5, 52.02240028229216
881, 52.02240028229216
881.5, 52.02240028229216
882, 52.02240028229216
882.5, 52.02240028229216
883, 52.02240028229216
883.5, 52.108536008894866
884, 52.108536008894866
884.5, 52.19467173549757
885, 52.22338364436514
885.5, 52.22338364436514
886, 52.280807462100285
886.5, 52.280807462100285
887, 52.30951937096785
887.5, 52.30951937096785
888, 52.366943188703
888.5, 52.366943188703
889, 52.33823127983542
889.5, 52.280807462100285
890, 52.280807462100285
890.5, 52.25209555323272
891, 52.25209555323272
891.5, 52.280807462100285
892, 52.280807462100285
892.5, 52.30951937096785
893, 52.366943188703
893.5, 52.366943188703
894, 52.453078915305696
894.5, 52.453078915305696
895, 52.51050273304083
895.5, 52.51050273304083
896, 52.5392146419084
896.5, 52.5392146419084
897, 52.65406227737868
897.5, 52.71148609511382
898, 52.71148609511382
898.5, 52.768909912848954
899, 52.768909912848954
899.5, 52.82633373058409
900, 52.82633373058409
900.5, 52.88375754831923
901, 52.88375754831923
901.5, 52.99860518378951
902, 53.05602900152464
902.5, 53.05602900152464
903, 53.113452819259784
903.5, 53.113452819259784
904, 53.19958854586249
904.5, 53.19958854586249
905, 53.19958854586249
905.5, 53.314436181332766
906, 53.314436181332766
906.5, 53.42928381680304
907, 53.42928381680304
907.5, 53.51541954340575
908, 53.51541954340575
908.5, 53.630267178876025
909, 53.630267178876025
909.5, 53.68769099661117
910, 53.85996244981658
910.5, 53.85996244981658
911, 53.974810085286855
911.5, 53.974810085286855
912, 54.08965772075714
912.5, 54.08965772075714
913, 54.23321726509497
913.5, 54.23321726509497
914, 54.37677680943282
914.5, 54.52033635377067
915, 54.52033635377067
915.5, 54.75003162471123
916, 54.75003162471123
916.5, 54.807455442446354
917, 54.807455442446354
917.5, 54.9510149867842
918, 54.9510149867842
918.5, 55.09457453112204
919, 55.20942216659232
919.5, 55.20942216659232
920, 55.38169361979774
920.5, 55.38169361979774
921, 55.525253164135584
921.5, 55.525253164135584
922, 55.640100799605854
922.5, 55.81237225281127
923, 55.81237225281127
923.5, 55.98464370601668
924, 55.98464370601668
924.5, 56.07077943261939
925, 56.07077943261939
925.5, 56.271762794692386
926, 56.271762794692386
926.5, 56.41532233903022
927, 56.558881883368066
927.5, 56.558881883368066
928, 56.70244142770592
928.5, 56.70244142770592
929, 56.81728906317619
929.5, 56.81728906317619
930, 56.96084860751403
930.5, 56.96084860751403
931, 57.10440815185188
931.5, 57.190543878454584
932, 57.190543878454584
932.5, 57.33410342279244
933, 57.33410342279244
933.5, 57.448951058262715
934, 57.448951058262715
934.5, 57.59251060260055
935, 57.707358238070825
935.5, 57.707358238070825
936, 57.79349396467354
936.5, 57.79349396467354
937, 57.96576541787895
937.5, 57.96576541787895
938, 58.16674877995193
938.5, 58.16674877995193
939, 58.22417259768707
939.5, 58.36773214202491
940, 58.36773214202491
940.5, 58.42515595976006
941, 58.42515595976006
941.5, 58.45386786862762
942, 58.45386786862762
942.5, 58.568715504097895
943, 58.568715504097895
943.5, 58.65485123070061
944, 58.74098695730332
944.5, 58.74098695730332
945, 58.8558345927736
945.5, 58.8558345927736
946, 58.8558345927736
946.5, 58.8558345927736
947, 58.884546501641154
947.5, 58.884546501641154
948, 59.05681795484657
948.5, 59.14295368144928
949, 59.14295368144928
949.5, 59.22908940805198
950, 59.22908940805198
950.5, 59.22908940805198
951, 59.22908940805198
951.5, 59.20037749918442
952, 59.171665590316856
952.5, 59.171665590316856
953, 59.171665590316856
953.5, 59.171665590316856
954, 59.22908940805198
954.5, 59.22908940805198
955, 59.31522513465469
955.5, 59.31522513465469
956, 59.37264895238983
956.5, 59.45878467899254
957, 59.45878467899254
957.5, 59.48749658786011
958, 59.48749658786011
958.5, 59.516208496727685
959, 59.516208496727685
959.5, 59.54492040559524
960, 59.54492040559524
960.5, 59.57363231446281
961, 59.602344223330384
961.5, 59.602344223330384
962, 59.631056132197955
962.5, 59.631056132197955
963, 59.631056132197955
963.5, 59.631056132197955
964, 59.71719185880067
964.5, 59.745903767668224
965, 59.745903767668224
965.5, 59.803327585403366
966, 59.803327585403366
966.5, 59.91817522087364
967, 59.91817522087364
967.5, 60.00431094747635
968, 60.00431094747635
968.5, 60.06173476521149
969, 60.1478704918142
969.5, 60.1478704918142
970, 60.20529430954933
970.5, 60.20529430954933
971, 60.377565762754756
971.5, 60.377565762754756
972, 60.492413398225025
972.5, 60.492413398225025
973, 60.57854912482774
973.5, 60.77953248690071
974, 60.77953248690071
974.5, 60.89438012237099
975, 60.89438012237099
975.5, 60.980515848973695
976, 60.980515848973695
976.5, 61.0666515755764
977, 61.18149921104668
977.5, 61.18149921104668
978, 61.325058755384525
978.5, 61.325058755384525
979, 61.497330208589936
979.5, 61.497330208589936
980, 61.61217784406021
980.5, 61.61217784406021
981, 61.841873115000766
981.5, 62.01414456820618
982, 62.01414456820618
982.5, 62.186416021411596
983, 62.186416021411596
983.5, 62.38739938348458
984, 62.38739938348458
984.5, 62.44482320121971
985, 62.44482320121971
985.5, 62.58838274555756
986, 62.703230381027836
986.5, 62.703230381027836
987, 62.76065419876298
987.5, 62.76065419876298
988, 63.076485196306244
988.5, 63.076485196306244
989, 63.16262092290894
989.5, 63.16262092290894
990, 63.30618046724679
990.5, 63.622011464790056
991, 63.622011464790056
991.5, 63.708147191392754
992, 63.708147191392754
992.5, 63.82299482686304
993, 63.82299482686304
993.5, 63.90913055346574
994, 64.05269009780358
994.5, 64.05269009780358
995, 64.36852109534684
995.5, 64.36852109534684
996, 64.51208063968468
996.5, 64.51208063968468
997, 64.54079254855225
997.5, 64.54079254855225
998, 64.74177591062524
998.5, 64.91404736383066
999, 64.91404736383066
999.5, 65.22987836137392
1000, 65.22987836137392
1000.5, 65.45957363231446
1001, 65.45957363231446
1001.5, 65.6031331766523
1002, 65.6031331766523
1002.5, 65.77540462985772
1003, 66.11994753626854
1003.5, 66.11994753626854
1004, 66.1773713540037
1004.5, 66.1773713540037
1005, 66.37835471607667
1005.5, 66.37835471607667
1006, 66.6367618958848
1006.5, 66.86645716682534
1007, 66.86645716682534
1007.5, 67.0961524377659
1008, 67.0961524377659
1008.5, 67.1822881643686
1009, 67.1822881643686
1009.5, 67.38327152644159
1010, 67.38327152644159
1010.5, 67.75652634171999
1011, 67.87137397719026
1011.5, 67.87137397719026
1012, 68.15849306586597
1012.5, 68.15849306586597
1013, 68.61788360774706
1013.5, 68.61788360774706
1014, 68.79015506095247
1014.5, 68.79015506095247
1015, 69.1346979673633
1015.5, 69.33568132943628
1016, 69.33568132943628
1016.5, 69.65151232697954
1017, 69.65151232697954
1017.5, 70.0534790511255
1018, 70.0534790511255
1018.5, 70.42673386640391
1019, 70.51286959300661
1019.5, 70.51286959300661
1020, 70.88612440828501
1020.5, 70.88612440828501
1021, 71.11581967922555
1021.5, 71.11581967922555
1022, 71.66134594770938
1022.5, 71.66134594770938
1023, 71.89104121864992
1023.5, 72.0920245807229
1024, 72.0920245807229
1024.5, 72.52270321373643
1025, 72.52270321373643
1025.5, 72.83853421127971
1026, 72.83853421127971
1026.5, 73.12565329995539
1027, 73.12565329995539
1027.5, 73.72860338617434
1028, 73.92958674824732
1028.5, 73.92958674824732
1029, 74.27412965465815
1029.5, 74.27412965465815
1030, 74.93450355861225
1030.5, 74.93450355861225
1031, 75.30775837389064
1031.5, 75.30775837389064
1032, 75.91070846010959
1032.5, 76.22653945765285
1033, 76.22653945765285
1033.5, 76.59979427293125
1034, 76.59979427293125
1034.5, 76.94433717934207
1035, 76.94433717934207
1035.5, 77.40372772122318
1036, 77.63342299216373
1036.5, 77.63342299216373
1037, 78.29379689611781
1037.5, 78.29379689611781
1038, 78.63833980252865
1038.5, 78.63833980252865
1039, 79.58583279515842
1039.5, 79.58583279515842
1040, 79.93037570156925
1040.5, 80.4471900611855
1041, 80.4471900611855
1041.5, 80.79173296759632
1042, 80.79173296759632
1042.5, 81.16498778287472
1043, 81.16498778287472
1043.5, 81.71051405135853
1044, 81.71051405135853
1044.5, 82.25604031984234
1045, 82.60058322625318
1045.5, 82.60058322625318
1046, 83.34709285680997
1046.5, 83.34709285680997
1047, 83.80648339869107
1047.5, 83.80648339869107
1048, 84.1510263051019
1048.5, 84.81140020905599
1049, 84.81140020905599
1049.5, 85.18465502433438
1050, 85.18465502433438
1050.5, 85.4430622041425
1051, 85.4430622041425
1051.5, 86.30441947016958
1052, 86.30441947016958
1052.5, 86.7350981031831
1053, 87.25191246279935
1053.5, 87.25191246279935
1054, 87.7687268224156
1054.5, 87.7687268224156
1055, 88.02713400222372
1055.5, 88.02713400222372
1056, 88.63008408844267
1056.5, 88.63008408844267
1057, 89.1468984480589
1057.5, 89.60628898994001
1058, 89.60628898994001
1058.5, 90.23795098502653
1059, 90.23795098502653
1059.5, 90.58249389143737
1060, 90.58249389143737
1060.5, 91.0131725244509
1061, 91.0131725244509
1061.5, 91.52998688406714
1062, 91.8458178816104
1062.5, 91.8458178816104
1063, 92.33392033235907
1063.5, 92.33392033235907
1064, 92.87944660084288
1064.5, 92.87944660084288
1065, 93.19527759838614
1065.5, 93.68338004913481
1066, 93.68338004913481
1066.5, 93.9704991378105
1067, 93.9704991378105
1067.5, 94.3437539530889
1068, 94.3437539530889
1068.5, 94.7170087683673
1069, 94.7170087683673
1069.5, 94.94670403930785
1070, 95.20511121911598
1070.5, 95.20511121911598
1071, 95.34867076345381
1071.5, 95.34867076345381
1072, 95.4635183989241
1072.5, 95.4635183989241
1074, 98.01887828813774
1074.5, 98.27728546794586
1075, 98.27728546794586
1075.5, 98.39213310341613
1076, 98.39213310341613
1076.5, 98.44955692115127
1077, 98.44955692115127
1077.5, 98.65054028322426
1078, 98.85152364529723
1078.5, 98.85152364529723
1079, 98.93765937189994
1079.5, 98.93765937189994
1080, 98.99508318963508
1080.5, 98.99508318963508
1081, 99.05250700737022
1081.5, 99.05250700737022
1082, 99.36833800491348
1082.5, 99.51189754925133
1083, 99.51189754925133
1083.5, 99.45447373151619
1084, 99.45447373151619
1084.5, 99.36833800491348
1085, 99.36833800491348
1085.5, 99.28220227831078
1086, 99.28220227831078
1086.5, 99.28220227831078
1087, 99.31091418717834
1087.5, 99.31091418717834
1088, 99.2534903694432
1088.5, 99.2534903694432
1089, 99.10993082510537
1089.5, 99.10993082510537
1090, 99.08121891623779
1090.5, 99.02379509850266
1091, 99.02379509850266
1091.5, 98.96637128076752
1092, 98.96637128076752
1092.5, 98.93765937189994
1093, 98.93765937189994
1093.5, 98.85152364529723
1094, 98.85152364529723
1094.5, 98.53569264775398
1095, 98.30599737681342
1095.5, 98.30599737681342
1096, 98.19114974134315
1096.5, 98.19114974134315
1097, 98.07630210587287
1097.5, 98.07630210587287
1098, 97.8753187437999
1098.5, 97.8753187437999
1099, 95.57836603439436
1099.5, 95.29124694571868
1100, 95.29124694571868
1100.5, 95.03283976591055
1101, 95.03283976591055
1101.5, 94.88928022157272
1102, 94.88928022157272
1102.5, 94.65958495063217
1103, 94.65958495063217
1103.5, 94.54473731516188
1104, 93.91307532007536
1104.5, 93.91307532007536
1105, 93.33883714272399
1105.5, 93.33883714272399
1106, 92.90815850971045
1106.5, 92.90815850971045
1107, 92.36263224122663
1107.5, 91.87452979047796
1108, 91.87452979047796
1108.5, 91.3864273397293
1109, 91.3864273397293
1109.5, 90.6399177091725
1110, 90.6399177091725
1110.5, 90.15181525842382
1111, 90.15181525842382
1111.5, 89.54886517220487
1112, 88.80235554164808
1112.5, 88.80235554164808
1113, 88.34296499976698
1113.5, 88.34296499976698
1114, 87.62516727807775
1114.5, 87.62516727807775
1115, 86.99350528299124
1115.5, 86.99350528299124
1116, 86.50540283224255
1116.5, 85.67275747508306
1117, 85.67275747508306
1117.5, 85.12723120659925
1118, 85.12723120659925
1118.5, 84.5242811203803
1119, 84.5242811203803
1119.5, 83.72034767208837
1120, 83.2322452213397
1120.5, 83.2322452213397
1121, 82.5718713173856
1121.5, 82.5718713173856
1122, 81.91149741343152
1122.5, 81.91149741343152
1123, 81.42339496268283
1123.5, 81.42339496268283
1124, 80.6194615143909
1124.5, 80.0739352459071
1125, 80.0739352459071
1125.5, 79.49969706855572
1126, 79.49969706855572
1126.5, 78.72447552913135
1127, 78.72447552913135
1127.5, 78.23637307838268
1128, 78.23637307838268
1128.5, 77.60471108329617
1129, 76.85820145273937
1129.5, 76.85820145273937
1130, 76.42752281972582
1130.5, 76.42752281972582
1131, 75.68101318916904
1131.5, 75.68101318916904
1132, 75.07806310295008
1132.5, 75.07806310295008
1133, 74.61867256106899
1133.5, 73.9582986571149
1134, 73.9582986571149
1134.5, 73.52762002410137
1135, 73.52762002410137
1135.5, 72.98209375561754
1136, 72.98209375561754
1136.5, 72.12073648959048
1137, 71.74748167431208
1137.5, 71.74748167431208
1138, 71.2593792235634
1138.5, 71.2593792235634
1139, 70.57029341074175
1139.5, 70.57029341074175
1140, 70.31188623093362
1140.5, 70.31188623093362
1141, 69.73764805358225
1141.5, 69.19212178509844
1142, 69.19212178509844
1142.5, 68.70401933434977
1143, 68.70401933434977
1143.5, 68.12978115699838
1144, 68.12978115699838
1144.5, 67.58425488851458
1145, 67.58425488851458
1145.5, 67.21100007323616
1146, 66.80903334909021
1146.5, 66.80903334909021
1147, 66.46449044267938
1147.5, 66.46449044267938
1148, 65.80411653872528
1148.5, 65.80411653872528
1149, 65.37343790571175
1149.5, 65.02889499930095
1150, 65.02889499930095
1150.5, 64.54079254855225
1151, 64.54079254855225
1151.5, 64.22496155100899
1152, 64.22496155100899
1152.5, 63.736859100260325
1153, 63.736859100260325
1153.5, 63.22004474064408
1154, 62.96163756083597
1154.5, 62.96163756083597
1155, 62.502247018954854
1155.5, 62.502247018954854
1156, 62.157704112544025
1156.5, 62.157704112544025
1157, 61.89929693273591
1157.5, 61.89929693273591
1158, 61.21021111991425
1158.5, 60.980515848973695
1159, 60.980515848973695
1159.5, 60.77953248690071
1160, 60.77953248690071
1160.5, 60.32014194501961
1161, 60.32014194501961
1161.5, 60.03302285634392
1162, 59.71719185880067
1162.5, 59.71719185880067
1163, 59.34393704352226
1163.5, 59.34393704352226
1164, 59.14295368144928
1164.5, 59.14295368144928
1165, 58.8558345927736
1165.5, 58.8558345927736
1166, 58.568715504097895
1166.5, 58.310308324289785
1167, 58.310308324289785
1167.5, 58.080613053349225
1168, 58.080613053349225
1168.5, 57.85091778240867
1169, 57.85091778240867
1169.5, 57.53508678486541
1170, 57.53508678486541
1170.5, 57.16183196958701
1171, 56.96084860751403
1171.5, 56.96084860751403
1172, 56.75986524544105
1172.5, 56.75986524544105
1173, 56.6163057011032
1173.5, 56.6163057011032
1174, 56.44403424789779
1174.5, 56.44403424789779
1175, 56.12820325035453
1175.5, 55.89850797941398
1176, 55.89850797941398
1176.5, 55.726236526208574
1177, 55.726236526208574
1177.5, 55.58267698187072
1178, 55.58267698187072
1178.5, 55.352981710930166
1179, 55.12328643998961
1179.5, 55.12328643998961
1180, 54.92230307791663
1180.5, 54.92230307791663
1181, 54.836167351313925
1181.5, 54.836167351313925
1182, 54.69260780697608
1182.5, 54.69260780697608
1183, 54.54904826263824
1183.5, 54.31935299169769
1184, 54.31935299169769
1184.5, 54.17579344735984
1185, 54.17579344735984
1185.5, 54.00352199415443
1186, 54.00352199415443
1186.5, 53.946098176419284
1187, 53.946098176419284
1187.5, 53.802538632081436
1188, 53.6589790877436
1188.5, 53.6589790877436
1189, 53.51541954340575
1189.5, 53.51541954340575
1190, 53.40057190793547
1190.5, 53.40057190793547
1191, 53.285724272465195
1191.5, 53.19958854586249
1192, 53.19958854586249
1192.5, 53.05602900152464
1193, 53.05602900152464
1193.5, 52.941181366054366
1194, 52.941181366054366
1194.5, 52.91246945718681
1195, 52.91246945718681
1195.5, 52.85504563945166
1196, 52.768909912848954
1196.5, 52.768909912848954
1197, 52.65406227737868
1197.5, 52.65406227737868
1198, 52.59663845964355
1198.5, 52.59663845964355
1199, 52.51050273304083
1199.5, 52.51050273304083
1200, 52.424367006438125
1200.5, 52.280807462100285
1201, 52.280807462100285
1201.5, 52.108536008894866
1202, 52.108536008894866
1202.5, 52.079824100027295
1203, 52.079824100027295
1203.5, 52.02240028229216
1204, 51.99368837342459
1204.5, 51.99368837342459
1205, 51.99368837342459
1205.5, 51.99368837342459
1206, 51.907552646821884
1206.5, 51.907552646821884
1207, 51.85012882908675
1207.5, 51.85012882908675
1208, 51.79270501135161
1208.5, 51.87884073795431
1209, 51.87884073795431
1209.5, 51.85012882908675
1210, 51.85012882908675
1210.5, 51.87884073795431
1211, 51.87884073795431
1211.5, 51.73528119361647
1212, 51.73528119361647
1212.5, 51.7065692847489
1213, 51.67785737588133
1213.5, 51.67785737588133
1214, 51.591721649278625
1214.5, 51.591721649278625
1215, 51.563009740411054
1215.5, 51.563009740411054
1216, 51.563009740411054
1216.5, 51.563009740411054
1217, 51.6204335581462
1217.5, 51.6204335581462
1218, 51.6204335581462
1218.5, 51.563009740411054
1219, 51.563009740411054
1219.5, 51.53429783154348
1220, 51.53429783154348
1220.5, 51.53429783154348
1221, 51.44816210494078
1221.5, 51.44816210494078
1222, 51.36202637833807
1222.5, 51.36202637833807
1223, 51.3333144694705
1223.5, 51.3333144694705
1224, 51.30460256060294
1224.5, 51.30460256060294
1225, 51.247178742867796
1225.5, 51.218466834000225
1226, 51.218466834000225
1226.5, 51.18975492513267
1227, 51.18975492513267
1227.5, 51.13233110739752
1228, 51.13233110739752
1228.5, 51.13233110739752
1229, 51.13233110739752
1229.5, 51.18975492513267
1230, 51.27589065173537
1230.5, 51.27589065173537
1231, 51.27589065173537
1231.5, 51.27589065173537
1232, 51.218466834000225
1232.5, 51.218466834000225
1233, 51.16104301626509
1233.5, 51.18975492513267
1234, 51.18975492513267
1234.5, 51.16104301626509
1235, 51.16104301626509
1235.5, 51.10361919852995
1236, 51.10361919852995
1236.5, 51.04619538079481
1237, 51.04619538079481
1237.5, 50.98877156305967
1238, 51.01748347192724
1238.5, 51.01748347192724
1239, 51.01748347192724
1239.5, 51.01748347192724
1240, 51.07490728966239
1240.5, 51.07490728966239
1241, 51.10361919852995
1241.5, 51.10361919852995
1242, 51.13233110739752
1242.5, 51.10361919852995
1243, 51.10361919852995
1243.5, 51.10361919852995
1244, 51.10361919852995
1244.5, 51.13233110739752
1245, 51.13233110739752
1245.5, 51.13233110739752
1246, 51.13233110739752
1246.5, 51.13233110739752
1247, 51.16104301626509
1247.5, 51.16104301626509
1248, 51.218466834000225
1248.5, 51.218466834000225
1249, 51.247178742867796
1249.5, 51.247178742867796
1250, 51.218466834000225
1250.5, 51.16104301626509
1251, 51.16104301626509
1251.5, 51.13233110739752
1252, 51.13233110739752
1252.5, 51.10361919852995
1253, 51.10361919852995
1253.5, 51.13233110739752
1254, 51.13233110739752
1254.5, 51.18975492513267
1255, 51.16104301626509
1255.5, 51.16104301626509
1256, 51.10361919852995
1256.5, 51.10361919852995
1257, 51.07490728966239
1257.5, 51.07490728966239
1258, 51.07490728966239
1258.5, 51.07490728966239
1259, 51.07490728966239
1259.5, 51.07490728966239
1260, 51.07490728966239
1260.5, 51.04619538079481
1261, 51.04619538079481
1261.5, 51.04619538079481
1262, 51.04619538079481
1262.5, 51.04619538079481
1263, 51.07490728966239
1263.5, 51.07490728966239
1264, 51.10361919852995
1264.5, 51.10361919852995
1265, 51.07490728966239
1265.5, 51.07490728966239
1266, 51.01748347192724
1266.5, 51.01748347192724
1267, 50.98877156305967
1267.5, 50.93134774532454
1268, 50.93134774532454
1268.5, 50.93134774532454
1269, 50.93134774532454
1269.5, 51.01748347192724
1270, 51.01748347192724
1270.5, 50.960059654192115
1271, 50.960059654192115
1271.5, 50.902635836456966
1272, 50.93134774532454
1272.5, 50.93134774532454
1273, 50.98877156305967
1273.5, 50.98877156305967
1274, 51.07490728966239
1274.5, 51.07490728966239
1275, 50.960059654192115
1275.5, 50.8739239275894
1276, 50.8739239275894
1276.5, 51.01748347192724
1277, 51.01748347192724
1277.5, 51.01748347192724
1278, 51.01748347192724
1278.5, 50.98877156305967
1279, 50.98877156305967
1279.5, 50.98877156305967
1280, 50.98877156305967
1280.5, 50.98877156305967
1281, 51.04619538079481
1281.5, 51.04619538079481
1282, 51.16104301626509
1282.5, 51.16104301626509
1283, 51.18975492513267
1283.5, 51.18975492513267
1283.9999999999998, 51.18975492513267
1284.5, 51.16104301626509
1285, 51.16104301626509
1285.5, 51.13233110739752
1286, 51.13233110739752
1286.5, 51.16104301626509
1287, 51.16104301626509
1287.5, 51.218466834000225
1288, 51.218466834000225
1288.5, 51.30460256060294
1289, 51.36202637833807
1289.5, 51.36202637833807
1290, 51.41945019607321
1290.5, 51.41945019607321
1291, 51.53429783154348
1291.5, 51.53429783154348
1292, 51.563009740411054
1292.5, 51.563009740411054
1293, 51.563009740411054
1293.5, 51.53429783154348
1294, 51.53429783154348
1294.5, 51.47687401380835
1295, 51.47687401380835
1295.5, 51.44816210494078
1296, 51.44816210494078
1296.5, 51.44816210494078
1297, 51.47687401380835
1297.5, 51.47687401380835
1298, 51.563009740411054
1298.5, 51.563009740411054
1299, 51.53429783154348
1299.5, 51.53429783154348
1300, 51.50558592267593
1300.5, 51.50558592267593
1301, 51.39073828720565
1301.4999999999998, 51.30460256060294
1302, 51.30460256060294
1302.5, 51.27589065173537
1303, 51.27589065173537
1303.5, 51.16104301626509
1304, 51.16104301626509
1304.5, 51.13233110739752
1305, 51.07490728966239
1305.5, 51.07490728966239
1306, 51.10361919852995
1306.5, 51.10361919852995
1307, 51.10361919852995
1307.5, 51.10361919852995
1308, 51.07490728966239
1308.5, 51.07490728966239
1309, 51.01748347192724
1309.5, 50.98877156305967
1310, 50.98877156305967
1310.4999999999998, 51.01748347192724
1311, 51.01748347192724
1311.4999999999998, 51.01748347192724
1312, 51.01748347192724
1312.4999999999998, 50.960059654192115
1313, 50.960059654192115
1313.5, 50.84521201872184
1314, 50.81650010985426
1314.5, 50.81650010985426
1315, 50.78778820098669
1315.5, 50.78778820098669
1315.9999999999998, 50.78778820098669
1316.5, 50.78778820098669
1316.9999999999998, 50.75907629211913
1317.5, 50.78778820098669
1317.9999999999998, 50.78778820098669
1318.5, 50.81650010985426
1319, 50.81650010985426
1319.5, 50.84521201872184
1320, 50.84521201872184
1320.5, 50.8739239275894
1321, 50.8739239275894
1321.4999999999998, 50.902635836456966
1322, 50.93134774532454
1322.4999999999998, 50.93134774532454
1323, 50.8739239275894
1323.4999999999998, 50.8739239275894
1324, 50.8739239275894
1324.4999999999998, 50.8739239275894
1325, 50.8739239275894
1325.5, 50.8739239275894
1326, 50.81650010985426
1326.5, 50.75907629211913
1327, 50.75907629211913
1327.5, 50.701652474383984
1327.9999999999998, 50.701652474383984
1328.5, 50.78778820098669
1328.9999999999998, 50.78778820098669
1329.5, 50.8739239275894
1329.9999999999998, 50.8739239275894
1330.5, 50.960059654192115
1331, 50.98877156305967
1331.5, 50.98877156305967
1332, 51.01748347192724
1332.5, 51.01748347192724
1333, 50.960059654192115
1333.4999999999998, 50.960059654192115
1334, 50.902635836456966
1334.4999999999998, 50.8739239275894
1335, 50.8739239275894
1335.4999999999998, 50.84521201872184
1336, 50.84521201872184
1336.5, 50.84521201872184
1337, 50.84521201872184
1337.5, 50.84521201872184
1338, 50.84521201872184
1338.5, 50.8739239275894
1338.9999999999998, 50.93134774532454
1339.5, 50.93134774532454
1339.9999999999998, 50.84521201872184
1340.5, 50.84521201872184
1340.9999999999998, 50.81650010985426
1341.5, 50.81650010985426
1341.9999999999998, 50.8739239275894
1342.5, 50.8739239275894
1343, 50.8739239275894
1343.5, 50.8739239275894
1344, 50.8739239275894
1344.4999999999998, 50.8739239275894
1345, 50.8739239275894
1345.4999999999998, 50.8739239275894
1346, 50.8739239275894
1346.4999999999998, 50.84521201872184
1347, 50.84521201872184
1347.4999999999998, 50.84521201872184
1348, 50.8739239275894
1348.5, 50.8739239275894
1349, 50.8739239275894
1349.5, 50.8739239275894
1350, 50.8739239275894
1350.5, 50.8739239275894
1350.9999999999998, 50.8739239275894
1351.5, 50.75907629211913
1351.9999999999998, 50.75907629211913
1352.5, 50.75907629211913
1352.9999999999998, 50.75907629211913
1353.5, 50.78778820098669
1354, 50.78778820098669
1354.5, 50.81650010985426
1355, 50.81650010985426
1355.5, 50.81650010985426
1356, 50.78778820098669
1356.4999999999998, 50.78778820098669
1357, 50.78778820098669
1357.4999999999998, 50.78778820098669
1358, 50.730364383251555
1358.4999999999998, 50.730364383251555
1359, 50.58680483891371
1359.4999999999998, 50.58680483891371
1360, 50.61551674778128
1360.5, 50.644228656648856
1361, 50.644228656648856
1361.5, 50.81650010985426
1361.9999999999998, 50.81650010985426
1362.5, 50.78778820098669
1362.9999999999998, 50.78778820098669
1363.5, 50.78778820098669
1363.9999999999998, 50.78778820098669
1364.5, 50.78778820098669
1364.9999999999998, 50.78778820098669
1365.5, 50.78778820098669
1366, 50.84521201872184
1366.5, 50.84521201872184
1367, 50.902635836456966
1367.5, 50.902635836456966
1368, 50.960059654192115
1368.4999999999998, 50.93134774532454
1369, 50.93134774532454
1369.4999999999998, 50.93134774532454
1370, 50.93134774532454
1370.4999999999998, 50.960059654192115
1371, 50.960059654192115
1371.5, 50.98877156305967
1372, 50.98877156305967
1372.5, 50.960059654192115
1373, 50.8739239275894
1373.5, 50.8739239275894
1373.9999999999998, 50.84521201872184
1374.5, 50.84521201872184
1374.9999999999998, 50.81650010985426
1375.5, 50.81650010985426
1375.9999999999998, 50.81650010985426
1376.5, 50.84521201872184
1376.9999999999998, 50.84521201872184
1377.5, 50.84521201872184
1378, 50.84521201872184
1378.5, 50.84521201872184
1379, 50.84521201872184
1379.4999999999998, 50.84521201872184
1380, 50.84521201872184
1380.4999999999998, 50.84521201872184
1381, 50.8739239275894
1381.4999999999998, 50.8739239275894
1382, 50.8739239275894
1382.4999999999998, 50.8739239275894
1383, 50.8739239275894
1383.5, 50.8739239275894
1384, 50.84521201872184
1384.5, 50.84521201872184
1385, 50.84521201872184
1385.5, 51.01748347192724
1385.9999999999998, 51.01748347192724
1386.5, 51.04619538079481
1386.9999999999998, 51.04619538079481
1387.5, 51.10361919852995
1387.9999999999998, 51.10361919852995
1388.5, 51.01748347192724
1389, 51.04619538079481
1389.5, 51.04619538079481
1390, 51.04619538079481
1390.5, 51.04619538079481
1391, 51.01748347192724
1391.4999999999998, 51.01748347192724
1392, 50.960059654192115
1392.4999999999998, 50.960059654192115
1393, 50.93134774532454
1393.4999999999998, 50.93134774532454
1394, 50.93134774532454
1394.4999999999998, 50.93134774532454
1395, 50.93134774532454
1395.5, 50.8739239275894
1396, 50.8739239275894
1396.5, 50.84521201872184
1396.9999999999998, 50.84521201872184
1397.5, 50.902635836456966
1397.9999999999998, 50.93134774532454
1398.5, 50.93134774532454
1398.9999999999998, 50.93134774532454
1399.5, 50.93134774532454
1399.9999999999998, 50.8739239275894
1075.243664717349, 97.2945891783567
1072.1247563352827, 96.49298597194388
1072.1247563352827, 95.89178356713425
1073.6842105263158, 96.8937875751503
1073.6842105263158, 97.59519038076151
1097.076023391813, 96.9939879759519
1099.4152046783627, 96.49298597194388
1100.1949317738793, 96.04208416833667
1096.2962962962963, 97.4448897795591
