300, 34.07745724006152
300.5, 34.07745724006152
301, 34.07745724006152
301.5, 34.106169148929084
302, 34.106169148929084
302.5, 34.134881057796676
303, 34.134881057796676
303.5, 34.106169148929084
304, 34.106169148929084
304.5, 34.106169148929084
305, 34.163592966664226
305.5, 34.163592966664226
306, 34.19230487553179
306.5, 34.19230487553179
307, 34.22101678439937
307.5, 34.22101678439937
308, 34.24972869326693
308.5, 34.24972869326693
309, 34.27844060213451
309.5, 34.30715251100207
310, 34.30715251100207
310.5, 34.30715251100207
311, 34.30715251100207
311.5, 34.36457632873723
312, 34.36457632873723
312.5, 34.36457632873723
313, 34.39328823760478
313.5, 34.39328823760478
314, 34.42200014647234
314.5, 34.42200014647234
315, 34.45071205533992
315.5, 34.45071205533992
316, 34.479423964207484
316.5, 34.479423964207484
317, 34.50813587307505
317.5, 34.536847781942626
318, 34.536847781942626
318.5, 34.56555969081019
319, 34.56555969081019
319.5, 34.59427159967777
320, 34.59427159967777
320.5, 34.59427159967777
321, 34.59427159967777
321.5, 34.62298350854533
322, 34.68040732628049
322.5, 34.68040732628049
323, 34.70911923514804
323.5, 34.70911923514804
324, 34.7378311440156
324.5, 34.7378311440156
325, 34.76654305288318
325.5, 34.79525496175074
326, 34.79525496175074
326.5, 34.82396687061832
327, 34.82396687061832
327.5, 34.82396687061832
328, 34.82396687061832
328.5, 34.852678779485885
329, 34.852678779485885
329.5, 34.88139068835345
330, 34.93881450608859
330.5, 34.93881450608859
331, 34.93881450608859
331.5, 34.93881450608859
332, 34.996238323823746
332.5, 34.996238323823746
333, 34.996238323823746
333.5, 34.996238323823746
334, 35.024950232691296
334.5, 35.05366214155886
335, 35.05366214155886
335.5, 35.05366214155886
336, 35.05366214155886
336.5, 35.111085959294
337, 35.111085959294
337.5, 35.16850977702914
338, 35.19722168589671
338.5, 35.19722168589671
339, 35.2259335947643
339.5, 35.2259335947643
340, 35.2259335947643
340.5, 35.2259335947643
341, 35.28335741249941
341.5, 35.28335741249941
342, 35.31206932136699
342.5, 35.340781230234555
343, 35.340781230234555
343.5, 35.3982050479697
344, 35.3982050479697
344.5, 35.3982050479697
345, 35.3982050479697
345.5, 35.3982050479697
346, 35.3982050479697
346.5, 35.45562886570485
347, 35.513052683439966
347.5, 35.513052683439966
348, 35.54176459230756
348.5, 35.54176459230756
349, 35.59918841004267
349.5, 35.59918841004267
350, 35.65661222777781
350.5, 35.65661222777781
351, 35.68532413664539
351.5, 35.714036045512955
352, 35.714036045512955
352.5, 35.74274795438052
353, 35.74274795438052
353.5, 35.74274795438052
354, 35.74274795438052
354.5, 35.80017177211566
355, 35.8575955898508
355.5, 35.8575955898508
356, 35.8575955898508
356.5, 35.8575955898508
357, 35.91501940758593
357.5, 35.91501940758593
358, 35.91501940758593
358.5, 35.91501940758593
359, 35.97244322532107
359.5, 36.029867043056214
360, 36.029867043056214
360.5, 36.029867043056214
361, 36.029867043056214
361.5, 36.08729086079137
362, 36.08729086079137
362.5, 36.11600276965892
363, 36.11600276965892
363.5, 36.17342658739405
364, 36.17342658739405
364.5, 36.17342658739405
365, 36.2308504051292
365.5, 36.2308504051292
366, 36.28827422286433
366.5, 36.28827422286433
367, 36.34569804059947
367.5, 36.37440994946705
368, 36.37440994946705
368.5, 36.40312185833461
369, 36.40312185833461
369.5, 36.46054567606975
370, 36.46054567606975
370.5, 36.546681402672455
371, 36.546681402672455
371.5, 36.546681402672455
372, 36.6041052204076
372.5, 36.6041052204076
373, 36.66152903814273
373.5, 36.66152903814273
374, 36.6902409470103
374.5, 36.6902409470103
375, 36.718952855877866
375.5, 36.718952855877866
376, 36.74766476474544
376.5, 36.77637667361301
377, 36.77637667361301
377.5, 36.80508858248058
378, 36.80508858248058
378.5, 36.862512400215714
379, 36.862512400215714
379.5, 36.919936217950855
380, 36.97736003568599
380.5, 36.97736003568599
381, 37.03478385342113
381.5, 37.03478385342113
382, 37.09220767115627
382.5, 37.09220767115627
383, 37.14963148889141
383.5, 37.14963148889141
384, 37.17834339775897
384.5, 37.20705530662654
385, 37.20705530662654
385.5, 37.26447912436168
386, 37.26447912436168
386.5, 37.32190294209682
387, 37.32190294209682
387.5, 37.379326759831955
388, 37.379326759831955
388.5, 37.436750577567096
389, 37.49417439530223
389.5, 37.49417439530223
390, 37.5228863041698
390.5, 37.5228863041698
391, 37.580310121904944
391.5, 37.580310121904944
392, 37.66644584850765
392.5, 37.66644584850765
393, 37.66644584850765
393.5, 37.781293483977926
394, 37.781293483977926
394.5, 37.81000539284549
395, 37.81000539284549
395.5, 37.86742921058063
396, 37.86742921058063
396.5, 37.924853028315766
397, 37.98227684605091
397.5, 37.98227684605091
398, 38.01098875491848
398.5, 38.01098875491848
399, 38.068412572653614
399.5, 38.068412572653614
400, 38.12583639038875
400.5, 38.12583639038875
401, 38.18326020812389
401.5, 38.21197211699146
402, 38.21197211699146
402.5, 38.269395934726596
403, 38.269395934726596
403.5, 38.32681975246174
404, 38.32681975246174
404.5, 38.3555316613293
405, 38.3555316613293
405.5, 38.41295547906444
406, 38.47037929679958
406.5, 38.47037929679958
407, 38.52780311453472
407.5, 38.52780311453472
408, 38.556515023402284
408.5, 38.556515023402284
409, 38.613938841137426
409.5, 38.67136265887256
410, 38.67136265887256
410.5, 38.7287864766077
411, 38.7287864766077
411.5, 38.78621029434284
412, 38.78621029434284
412.5, 38.87234602094555
413, 38.87234602094555
413.5, 38.929769838680684
414, 39.01590556528339
414.5, 39.01590556528339
415, 39.04461747415096
415.5, 39.04461747415096
416, 39.15946510962124
416.5, 39.15946510962124
417, 39.18817701848881
417.5, 39.18817701848881
418, 39.24560083622394
418.5, 39.303024653959085
419, 39.303024653959085
419.5, 39.38916038056179
420, 39.38916038056179
420.5, 39.446584198296925
421, 39.446584198296925
421.5, 39.53271992489963
422, 39.53271992489963
422.5, 39.59014374263477
423, 39.70499137810505
423.5, 39.70499137810505
424, 39.819839013575326
424.5, 39.819839013575326
425, 39.87726283131046
425.5, 39.87726283131046
426, 39.963398557913166
426.5, 39.99211046678074
427, 39.99211046678074
427.5, 40.04953428451588
428, 40.04953428451588
428.5, 40.135670011118584
429, 40.135670011118584
429.5, 40.22180573772129
430, 40.22180573772129
430.5, 40.33665337319157
431, 40.42278909979427
431.5, 40.42278909979427
432, 40.50892482639698
432.5, 40.50892482639698
433, 40.59506055299969
433.5, 40.59506055299969
434, 40.681196279602396
434.5, 40.681196279602396
435, 40.7673320062051
435.5, 40.824755823940244
436, 40.824755823940244
436.5, 40.91089155054295
437, 40.91089155054295
437.5, 40.968315368278084
438, 40.968315368278084
438.5, 41.025739186013226
439, 41.1405868214835
439.5, 41.1405868214835
440, 41.25543445695378
440.5, 41.25543445695378
441, 41.341570183556485
441.5, 41.341570183556485
442, 41.39899400129162
442.5, 41.39899400129162
443, 41.513841636761896
443.5, 41.57126545449704
444, 41.57126545449704
444.5, 41.686113089967314
445, 41.686113089967314
445.5, 41.77224881657003
446, 41.77224881657003
446.5, 41.829672634305155
447, 41.829672634305155
447.5, 41.973232178643
448, 42.11679172298085
448.5, 42.11679172298085
449, 42.174215540715984
449.5, 42.174215540715984
450, 42.26035126731869
450.5, 42.26035126731869
451, 42.346486993921395
451.5, 42.46133462939167
452, 42.46133462939167
452.5, 42.57618226486195
453, 42.57618226486195
453.5, 42.66231799146466
454, 42.66231799146466
454.5, 42.748453718067374
455, 42.748453718067374
455.5, 42.83458944467007
456, 42.89201326240521
456.5, 42.89201326240521
457, 42.97814898900793
457.5, 42.97814898900793
458, 43.0929966244782
458.5, 43.0929966244782
459, 43.23655616881604
459.5, 43.23655616881604
460, 43.40882762202146
460.5, 43.46625143975659
461, 43.46625143975659
461.5, 43.552387166359296
462, 43.552387166359296
462.5, 43.72465861956472
463, 43.72465861956472
463.5, 43.78208243729985
464, 43.78208243729985
464.5, 43.839506255035
465, 44.0117777082404
465.5, 44.0117777082404
466, 44.212761070313384
466.5, 44.212761070313384
467, 44.241472979180955
467.5, 44.241472979180955
468, 44.29889679691609
468.5, 44.32760870578366
469, 44.32760870578366
469.5, 44.52859206785664
470, 44.52859206785664
470.5, 44.61472779445935
471, 44.61472779445935
471.5, 44.70086352106207
472, 44.70086352106207
472.5, 44.8444230653999
473, 44.90184688313505
473.5, 44.90184688313505
474, 45.074118336340455
474.5, 45.074118336340455
475, 45.16025406294316
475.5, 45.16025406294316
476, 45.27510169841344
476.5, 45.27510169841344
477, 45.50479696935399
477.5, 45.619644604824266
478, 45.619644604824266
478.5, 45.64835651369184
479, 45.64835651369184
479.5, 45.76320414916212
480, 45.76320414916212
480.5, 45.84933987576482
481, 46.07903514670537
481.5, 46.07903514670537
482, 46.16517087330808
482.5, 46.16517087330808
483, 46.280018508778355
483.5, 46.280018508778355
484, 46.36615423538106
484.5, 46.36615423538106
485, 46.452289961983766
485.5, 46.56713759745404
486, 46.56713759745404
486.5, 46.68198523292432
487, 46.68198523292432
487.5, 46.73940905065947
488, 46.73940905065947
488.5, 46.76812095952703
489, 46.76812095952703
489.5, 46.76812095952703
490, 46.82554477726217
490.5, 46.82554477726217
491, 46.96910432160002
491.5, 46.96910432160002
492, 47.05524004820272
492.5, 47.05524004820272
493, 47.112663865937854
493.5, 47.19879959254057
494, 47.19879959254057
494.5, 47.2562234102757
495, 47.2562234102757
495.5, 47.28493531914328
496, 47.28493531914328
496.5, 47.313647228010836
497, 47.313647228010836
497.5, 47.28493531914328
498, 47.28493531914328
498.5, 47.28493531914328
499, 47.2562234102757
499.5, 47.2562234102757
500, 47.22751150140813
500.5, 47.22751150140813
501, 47.22751150140813
501.5, 47.22751150140813
502, 47.170087683673
502.5, 47.141375774805425
503, 47.141375774805425
503.5, 47.112663865937854
504, 47.112663865937854
504.5, 47.02652813933515
505, 47.02652813933515
505.5, 46.8829685949973
506, 46.8829685949973
506.5, 46.854256686129744
507, 46.796832868394596
507.5, 46.796832868394596
508, 46.68198523292432
508.5, 46.68198523292432
509, 46.59584950632161
509.5, 46.59584950632161
510, 46.50971377971891
510.5, 46.3374423265135
511, 46.3374423265135
511.5, 46.16517087330808
512, 46.16517087330808
512.5, 46.0503232378378
513, 46.0503232378378
513.5, 45.82062796689725
514, 45.82062796689725
514.5, 45.73449224029454
515, 45.590932695956695
515.5, 45.590932695956695
516, 45.38994933388371
516.5, 45.38994933388371
517, 45.332525516148586
517.5, 45.332525516148586
518, 45.074118336340455
518.5, 45.074118336340455
519, 44.930558792002614
519.5, 44.815711156532345
520, 44.815711156532345
520.5, 44.67215161219449
521, 44.67215161219449
521.5, 44.61472779445935
522, 44.61472779445935
522.5, 44.3850325235188
523, 44.241472979180955
523.5, 44.241472979180955
524, 44.12662534371068
524.5, 44.12662534371068
525, 43.98306579937283
525.5, 43.98306579937283
526, 43.868218163902554
526.5, 43.868218163902554
527, 43.72465861956472
527.5, 43.58109907522687
528, 43.58109907522687
528.5, 43.380115713153884
529, 43.380115713153884
529.5, 43.23655616881604
530, 43.23655616881604
530.5, 43.06428471561063
531, 43.06428471561063
531.5, 42.949437080140356
532, 42.86330135353765
532.5, 42.86330135353765
533, 42.83458944467007
533.5, 42.83458944467007
534, 42.8058775358025
534.5, 42.8058775358025
535, 42.66231799146466
535.5, 42.66231799146466
536, 42.547470355994385
536.5, 42.46133462939167
537, 42.46133462939167
537.5, 42.375198902788966
538, 42.375198902788966
538.5, 42.28906317618626
539, 42.28906317618626
539.5, 42.23163935845112
540, 42.174215540715984
540.5, 42.174215540715984
541, 42.14550363184841
541.5, 42.14550363184841
542, 42.05936790524571
542.5, 42.05936790524571
543, 42.00194408751058
543.5, 42.00194408751058
544, 41.973232178643
544.5, 41.94452026977543
545, 41.94452026977543
545.5, 41.94452026977543
546, 41.94452026977543
546.5, 41.94452026977543
547, 41.94452026977543
547.5, 41.91580836090786
548, 41.91580836090786
548.5, 41.91580836090786
549, 41.8870964520403
549.5, 41.8870964520403
550, 41.8870964520403
550.5, 41.8870964520403
551, 41.91580836090786
551.5, 41.91580836090786
552, 41.94452026977543
552.5, 41.973232178643
553, 41.973232178643
553.5, 42.03065599637814
554, 42.03065599637814
554.5, 42.05936790524571
555, 42.05936790524571
555.5, 42.088079814113286
556, 42.088079814113286
556.5, 42.20292744958356
557, 42.26035126731869
557.5, 42.26035126731869
558, 42.31777508505384
558.5, 42.31777508505384
559, 42.40391081165654
559.5, 42.40391081165654
560, 42.46133462939167
560.5, 42.46133462939167
561, 42.547470355994385
561.5, 42.66231799146466
562, 42.66231799146466
562.5, 42.719741809199796
563, 42.719741809199796
563.5, 42.83458944467007
564, 42.83458944467007
564.5, 42.92072517127278
565, 42.97814898900793
565.5, 42.97814898900793
566, 43.06428471561063
566.5, 43.06428471561063
567, 43.17913235108091
567.5, 43.17913235108091
568, 43.23655616881604
568.5, 43.23655616881604
569, 43.23655616881604
569.5, 43.26526807768361
570, 43.26526807768361
570.5, 43.23655616881604
571, 43.23655616881604
571.5, 43.207844259948466
572, 43.207844259948466
572.5, 43.207844259948466
573, 43.207844259948466
573.5, 43.17913235108091
574, 43.15042044221333
574.5, 43.15042044221333
575, 43.12170853334576
575.5, 43.12170853334576
576, 43.12170853334576
576.5, 43.12170853334576
577, 43.06428471561063
577.5, 43.06428471561063
578, 43.006860897875484
578.5, 42.97814898900793
579, 42.97814898900793
579.5, 42.949437080140356
580, 42.949437080140356
580.5, 42.949437080140356
581, 42.949437080140356
581.5, 42.8058775358025
582, 42.77716562693493
582.5, 42.77716562693493
583, 42.719741809199796
583.5, 42.719741809199796
584, 42.6336060825971
584.5, 42.6336060825971
585, 42.51875844712682
585.5, 42.51875844712682
586, 42.432622720524115
586.5, 42.346486993921395
587, 42.346486993921395
587.5, 42.20292744958356
588, 42.20292744958356
588.5, 42.088079814113286
589, 42.088079814113286
589.5, 42.05936790524571
590, 42.05936790524571
590.5, 41.94452026977543
591, 41.829672634305155
591.5, 41.829672634305155
592, 41.686113089967314
592.5, 41.686113089967314
593, 41.57126545449704
593.5, 41.57126545449704
594, 41.54255354562947
594.5, 41.45641781902676
595, 41.45641781902676
595.5, 41.312858274688914
596, 41.312858274688914
596.5, 41.169298730351066
597, 41.169298730351066
597.5, 41.025739186013226
598, 41.025739186013226
598.5, 40.91089155054295
599, 40.85346773280781
599.5, 40.85346773280781
600, 40.73862009733753
600.5, 40.73862009733753
601, 40.59506055299969
601.5, 40.59506055299969
602, 40.50892482639698
602.5, 40.50892482639698
603, 40.36536528205914
603.5, 40.27922955545643
604, 40.27922955545643
604.5, 40.135670011118584
605, 40.135670011118584
605.5, 39.963398557913166
606, 39.963398557913166
606.5, 39.90597474017803
607, 39.90597474017803
607.5, 39.8485509224429
608, 39.791127104707755
608.5, 39.791127104707755
609, 39.762415195840184
609.5, 39.762415195840184
610, 39.67627946923748
610.5, 39.67627946923748
611, 39.59014374263477
611.5, 39.53271992489963
612, 39.53271992489963
612.5, 39.446584198296925
613, 39.446584198296925
613.5, 39.41787228942936
614, 39.41787228942936
614.5, 39.38916038056179
615, 39.38916038056179
615.5, 39.36044847169422
616, 39.33173656282665
616.5, 39.33173656282665
617, 39.21688892735637
617.5, 39.21688892735637
618, 39.07332938301853
618.5, 39.07332938301853
619, 39.04461747415096
619.5, 39.04461747415096
620, 39.04461747415096
620.5, 39.04461747415096
621, 39.04461747415096
621.5, 39.04461747415096
622, 39.04461747415096
622.5, 39.01590556528339
623, 39.01590556528339
623.5, 39.01590556528339
624, 38.987193656415826
624.5, 38.987193656415826
625, 38.958481747548255
625.5, 38.958481747548255
626, 38.929769838680684
626.5, 38.929769838680684
627, 38.84363411207798
627.5, 38.84363411207798
628, 38.84363411207798
628.5, 38.84363411207798
629, 38.84363411207798
629.5, 38.84363411207798
630, 38.84363411207798
630.5, 38.78621029434284
631, 38.78621029434284
631.5, 38.75749838547527
632, 38.75749838547527
632.5, 38.7287864766077
633, 38.7287864766077
633.5, 38.7287864766077
634, 38.67136265887256
634.5, 38.67136265887256
635, 38.67136265887256
635.5, 38.67136265887256
636, 38.642650750005
636.5, 38.642650750005
637, 38.642650750005
637.5, 38.642650750005
638, 38.642650750005
638.5, 38.70007456774013
639, 38.70007456774013
639.5, 38.70007456774013
640, 38.70007456774013
640.5, 38.67136265887256
641, 38.642650750005
641.5, 38.642650750005
642, 38.613938841137426
642.5, 38.613938841137426
643, 38.613938841137426
643.5, 38.613938841137426
644, 38.642650750005
644.5, 38.642650750005
645, 38.642650750005
645.5, 38.642650750005
646, 38.642650750005
646.5, 38.642650750005
647, 38.642650750005
647.5, 38.642650750005
648, 38.642650750005
648.5, 38.642650750005
649, 38.642650750005
649.5, 38.642650750005
650, 38.613938841137426
650.5, 38.613938841137426
651, 38.613938841137426
651.5, 38.613938841137426
652, 38.585226932269855
652.5, 38.585226932269855
653, 38.556515023402284
653.5, 38.556515023402284
654, 38.556515023402284
654.5, 38.556515023402284
655, 38.556515023402284
655.5, 38.556515023402284
656, 38.556515023402284
656.5, 38.49909120566715
657, 38.49909120566715
657.5, 38.47037929679958
658, 38.47037929679958
658.5, 38.47037929679958
659, 38.47037929679958
659.5, 38.47037929679958
660, 38.49909120566715
660.5, 38.49909120566715
661, 38.49909120566715
661.5, 38.49909120566715
662, 38.47037929679958
662.5, 38.41295547906444
663, 38.41295547906444
663.5, 38.41295547906444
664, 38.41295547906444
664.5, 38.41295547906444
665, 38.41295547906444
665.5, 38.41295547906444
666, 38.38424357019687
666.5, 38.38424357019687
667, 38.32681975246174
667.5, 38.32681975246174
668, 38.269395934726596
668.5, 38.269395934726596
669, 38.240684025859025
669.5, 38.240684025859025
670, 38.18326020812389
670.5, 38.097124481521185
671, 38.097124481521185
671.5, 38.068412572653614
672, 38.068412572653614
672.5, 38.03970066378604
673, 38.03970066378604
673.5, 38.03970066378604
674, 38.03970066378604
674.5, 38.03970066378604
675, 38.03970066378604
675.5, 38.03970066378604
676, 38.068412572653614
676.5, 38.068412572653614
677, 38.097124481521185
677.5, 38.097124481521185
678, 38.15454829925632
678.5, 38.15454829925632
679, 38.15454829925632
679.5, 38.097124481521185
680, 38.097124481521185
680.5, 37.98227684605091
681, 37.98227684605091
681.5, 37.924853028315766
682, 37.924853028315766
682.5, 37.95356493718334
683, 37.924853028315766
683.5, 37.924853028315766
684, 37.924853028315766
684.5, 37.924853028315766
685, 37.8961411194482
685.5, 37.8961411194482
686, 37.752581575110355
686.5, 37.752581575110355
687, 37.69515775737521
687.5, 37.723869666242784
688, 37.723869666242784
688.5, 37.723869666242784
689, 37.723869666242784
689.5, 37.723869666242784
690, 37.723869666242784
690.5, 37.69515775737521
691, 37.69515775737521
691.5, 37.69515775737521
692, 37.69515775737521
692.5, 37.69515775737521
693, 37.66644584850765
693.5, 37.66644584850765
694, 37.63773393964008
694.5, 37.63773393964008
695, 37.580310121904944
695.5, 37.5228863041698
696, 37.5228863041698
696.5, 37.46546248643467
697, 37.46546248643467
697.5, 37.580310121904944
698, 37.580310121904944
698.5, 37.580310121904944
699, 37.580310121904944
699.5, 37.580310121904944
700, 37.5228863041698
700.5, 37.5228863041698
701, 37.55159821303737
701.5, 37.55159821303737
702, 37.63773393964008
702.5, 37.63773393964008
703, 37.63773393964008
703.5, 37.63773393964008
704, 37.60902203077251
704.5, 37.60902203077251
705, 37.60902203077251
705.5, 37.63773393964008
706, 37.63773393964008
706.5, 37.63773393964008
707, 37.63773393964008
707.5, 37.5228863041698
708, 37.46546248643467
708.5, 37.46546248643467
709, 37.46546248643467
709.5, 37.46546248643467
710, 37.55159821303737
710.5, 37.55159821303737
711, 37.66644584850765
711.5, 37.66644584850765
712, 37.66644584850765
712.5, 37.55159821303737
713, 37.55159821303737
713.5, 37.46546248643467
714, 37.46546248643467
714.5, 37.436750577567096
715, 37.436750577567096
715.5, 37.379326759831955
716, 37.379326759831955
716.5, 37.32190294209682
717, 37.35061485096439
717.5, 37.35061485096439
718, 37.379326759831955
718.5, 37.379326759831955
719, 37.408038668699525
719.5, 37.408038668699525
720, 37.408038668699525
720.5, 37.408038668699525
721, 37.408038668699525
721.5, 37.408038668699525
722, 37.408038668699525
722.5, 37.379326759831955
723, 37.379326759831955
723.5, 37.35061485096439
724, 37.35061485096439
724.5, 37.235767215494114
725, 37.235767215494114
725.5, 37.235767215494114
726, 37.29319103322925
726.5, 37.29319103322925
727, 37.35061485096439
727.5, 37.35061485096439
728, 37.379326759831955
728.5, 37.379326759831955
729, 37.379326759831955
729.5, 37.379326759831955
730, 37.379326759831955
730.5, 37.35061485096439
731, 37.35061485096439
731.5, 37.379326759831955
732, 37.379326759831955
732.5, 37.379326759831955
733, 37.379326759831955
733.5, 37.35061485096439
734, 37.35061485096439
734.5, 37.35061485096439
735, 37.32190294209682
735.5, 37.32190294209682
736, 37.32190294209682
736.5, 37.32190294209682
737, 37.29319103322925
737.5, 37.29319103322925
738, 37.29319103322925
738.5, 37.408038668699525
739, 37.408038668699525
739.5, 37.379326759831955
740, 37.379326759831955
740.5, 37.35061485096439
741, 37.35061485096439
741.5, 37.35061485096439
742, 37.29319103322925
742.5, 37.29319103322925
743, 37.20705530662654
743.5, 37.20705530662654
744, 37.26447912436168
744.5, 37.26447912436168
745, 37.32190294209682
745.5, 37.32190294209682
746, 37.35061485096439
746.5, 37.35061485096439
747, 37.35061485096439
747.5, 37.32190294209682
748, 37.32190294209682
748.5, 37.26447912436168
749, 37.26447912436168
749.5, 37.235767215494114
750, 37.235767215494114
750.5, 37.235767215494114
751, 37.20705530662654
751.5, 37.20705530662654
752, 37.14963148889141
752.5, 37.14963148889141
753, 37.14963148889141
753.5, 37.14963148889141
754, 37.14963148889141
754.5, 37.14963148889141
755, 37.14963148889141
755.5, 37.14963148889141
756, 37.14963148889141
756.5, 37.17834339775897
757, 37.17834339775897
757.5, 37.29319103322925
758, 37.29319103322925
758.5, 37.26447912436168
759, 37.235767215494114
759.5, 37.235767215494114
760, 37.17834339775897
760.5, 37.17834339775897
761, 37.235767215494114
761.5, 37.235767215494114
762, 37.32190294209682
762.5, 37.32190294209682
763, 37.49417439530223
763.5, 37.49417439530223
764, 37.49417439530223
764.5, 37.49417439530223
765, 37.49417439530223
765.5, 37.379326759831955
766, 37.379326759831955
766.5, 37.379326759831955
767, 37.5228863041698
767.5, 37.5228863041698
768, 37.5228863041698
768.5, 37.5228863041698
769, 37.49417439530223
769.5, 37.49417439530223
770, 37.379326759831955
770.5, 37.379326759831955
771, 37.29319103322925
771.5, 37.20705530662654
772, 37.20705530662654
772.5, 37.12091958002384
773, 37.12091958002384
773.5, 37.09220767115627
774, 37.09220767115627
774.5, 37.09220767115627
775, 37.09220767115627
775.5, 37.063495762288696
776, 37.063495762288696
776.5, 37.063495762288696
777, 37.063495762288696
777.5, 37.063495762288696
778, 37.03478385342113
778.5, 37.03478385342113
779, 37.00607194455356
779.5, 37.00607194455356
780, 37.00607194455356
780.5, 37.00607194455356
781, 37.00607194455356
781.5, 36.97736003568599
782, 36.97736003568599
782.5, 36.919936217950855
783, 36.919936217950855
783.5, 36.919936217950855
784, 36.83380049134814
784.5, 36.83380049134814
785, 36.77637667361301
785.5, 36.77637667361301
786, 36.80508858248058
786.5, 36.80508858248058
787, 36.83380049134814
787.5, 36.83380049134814
788, 36.80508858248058
788.5, 36.77637667361301
789, 36.77637667361301
789.5, 36.6902409470103
790, 36.6902409470103
790.5, 36.63281712927516
791, 36.63281712927516
791.5, 36.575393311540026
792, 36.48925758493732
792.5, 36.48925758493732
793, 36.46054567606975
793.5, 36.46054567606975
794, 36.37440994946705
794.5, 36.37440994946705
795, 36.34569804059947
795.5, 36.34569804059947
796, 36.25956231399677
796.5, 36.202138496261625
797, 36.202138496261625
797.5, 36.11600276965892
798, 36.11600276965892
798.5, 36.05857895192379
799, 36.05857895192379
799.5, 35.97244322532107
800, 35.97244322532107
800.5, 35.94373131645351
801, 35.88630749871837
801.5, 35.88630749871837
802, 35.8575955898508
802.5, 35.8575955898508
803, 35.80017177211566
803.5, 35.80017177211566
804, 35.80017177211566
804.5, 35.80017177211566
805, 35.77145986324811
805.5, 35.62790031891025
806, 35.62790031891025
806.5, 35.4843407745724
807, 35.4843407745724
807.5, 35.42691695683726
808, 35.42691695683726
808.5, 35.31206932136699
809, 35.25464550363185
809.5, 35.25464550363185
810, 35.19722168589671
810.5, 35.19722168589671
811, 35.13979786816158
811.5, 35.13979786816158
812, 35.05366214155886
812.5, 35.05366214155886
813, 34.967526414956154
813.5, 34.88139068835345
814, 34.88139068835345
814.5, 34.82396687061832
815, 34.82396687061832
815.5, 34.7378311440156
816, 34.7378311440156
816.5, 34.651695417412895
817, 34.651695417412895
817.5, 34.59427159967777
818, 34.536847781942626
818.5, 34.536847781942626
819, 34.536847781942626
819.5, 34.536847781942626
820, 34.479423964207484
820.5, 34.479423964207484
821, 34.39328823760478
821.5, 34.33586441986964
822, 34.33586441986964
822.5, 34.27844060213451
823, 34.27844060213451
823.5, 34.22101678439937
824, 34.22101678439937
824.5, 34.22101678439937
825, 34.22101678439937
825.5, 34.22101678439937
826, 34.19230487553179
826.5, 34.19230487553179
827, 34.163592966664226
827.5, 34.163592966664226
828, 34.134881057796676
828.5, 34.134881057796676
829, 34.134881057796676
829.5, 34.134881057796676
830, 34.134881057796676
830.5, 34.106169148929084
831, 34.106169148929084
831.5, 34.106169148929084
832, 34.106169148929084
832.5, 34.106169148929084
833, 34.106169148929084
833.5, 34.163592966664226
834, 34.163592966664226
834.5, 34.19230487553179
835, 34.24972869326693
835.5, 34.24972869326693
836, 34.36457632873723
836.5, 34.36457632873723
837, 34.50813587307505
837.5, 34.50813587307505
838, 34.59427159967777
838.5, 34.68040732628049
839, 34.68040732628049
839.5, 34.76654305288318
840, 34.76654305288318
840.5, 34.79525496175074
841, 34.79525496175074
841.5, 34.79525496175074
842, 34.79525496175074
842.5, 34.7378311440156
843, 34.651695417412895
843.5, 34.651695417412895
844, 34.59427159967777
844.5, 34.59427159967777
845, 34.56555969081019
845.5, 34.56555969081019
846, 34.536847781942626
846.5, 34.536847781942626
847, 34.50813587307505
847.5, 34.50813587307505
848, 34.50813587307505
848.5, 34.50813587307505
849, 34.50813587307505
849.5, 34.50813587307505
850, 34.50813587307505
850.5, 34.479423964207484
851, 34.42200014647234
851.5, 34.42200014647234
852, 34.36457632873723
852.5, 34.36457632873723
853, 34.33586441986964
853.5, 34.33586441986964
854, 34.27844060213451
854.5, 34.27844060213451
855, 34.19230487553179
855.5, 34.163592966664226
856, 34.163592966664226
856.5, 34.134881057796676
857, 34.134881057796676
857.5, 34.134881057796676
858, 34.134881057796676
858.5, 34.134881057796676
859, 34.134881057796676
859.5, 34.106169148929084
860, 34.04874533119397
860.5, 34.04874533119397
861, 34.02003342232638
861.5, 34.02003342232638
862, 34.134881057796676
862.5, 34.134881057796676
863, 34.19230487553179
863.5, 34.27844060213451
864, 34.27844060213451
864.5, 34.27844060213451
865, 34.27844060213451
865.5, 34.30715251100207
866, 34.30715251100207
866.5, 34.27844060213451
867, 34.27844060213451
867.5, 34.30715251100207
868, 34.33586441986964
868.5, 34.33586441986964
869, 34.36457632873723
869.5, 34.36457632873723
870, 34.42200014647234
870.5, 34.42200014647234
871, 34.45071205533992
871.5, 34.45071205533992
872, 34.45071205533992
872.5, 34.45071205533992
873, 34.45071205533992
873.5, 34.45071205533992
874, 34.45071205533992
874.5, 34.45071205533992
875, 34.45071205533992
875.5, 34.50813587307505
876, 34.50813587307505
876.5, 34.56555969081019
877, 34.59427159967777
877.5, 34.59427159967777
878, 34.651695417412895
878.5, 34.651695417412895
879, 34.70911923514804
879.5, 34.70911923514804
880, 34.79525496175074
880.5, 34.852678779485885
881, 34.852678779485885
881.5, 34.852678779485885
882, 34.852678779485885
882.5, 34.852678779485885
883, 34.852678779485885
883.5, 34.93881450608859
884, 34.93881450608859
884.5, 34.967526414956154
885, 35.024950232691296
885.5, 35.024950232691296
886, 35.08237405042644
886.5, 35.08237405042644
887, 35.111085959294
887.5, 35.111085959294
888, 35.13979786816158
888.5, 35.13979786816158
889, 35.16850977702914
889.5, 35.16850977702914
890, 35.16850977702914
890.5, 35.13979786816158
891, 35.13979786816158
891.5, 35.111085959294
892, 35.111085959294
892.5, 35.111085959294
893, 35.16850977702914
893.5, 35.16850977702914
894, 35.25464550363185
894.5, 35.25464550363185
895, 35.31206932136699
895.5, 35.31206932136699
896, 35.340781230234555
896.5, 35.340781230234555
897, 35.3982050479697
897.5, 35.42691695683726
898, 35.42691695683726
898.5, 35.57047650117511
899, 35.57047650117511
899.5, 35.62790031891025
900, 35.62790031891025
900.5, 35.714036045512955
901, 35.714036045512955
901.5, 35.77145986324811
902, 35.91501940758593
902.5, 35.91501940758593
903, 35.94373131645351
903.5, 35.94373131645351
904, 36.00115513418865
904.5, 36.00115513418865
905, 36.05857895192379
905.5, 36.202138496261625
906, 36.202138496261625
906.5, 36.25956231399677
907, 36.25956231399677
907.5, 36.37440994946705
908, 36.37440994946705
908.5, 36.48925758493732
909, 36.48925758493732
909.5, 36.63281712927516
910, 36.74766476474544
910.5, 36.74766476474544
911, 36.862512400215714
911.5, 36.862512400215714
912, 36.97736003568599
912.5, 36.97736003568599
913, 37.20705530662654
913.5, 37.20705530662654
914, 37.408038668699525
914.5, 37.5228863041698
915, 37.5228863041698
915.5, 37.60902203077251
916, 37.60902203077251
916.5, 37.723869666242784
917, 37.723869666242784
917.5, 37.8961411194482
918, 37.8961411194482
918.5, 38.01098875491848
919, 38.097124481521185
919.5, 38.097124481521185
920, 38.18326020812389
920.5, 38.18326020812389
921, 38.3555316613293
921.5, 38.3555316613293
922, 38.49909120566715
922.5, 38.7287864766077
923, 38.7287864766077
923.5, 38.81492220321041
924, 38.81492220321041
924.5, 38.929769838680684
925, 38.929769838680684
925.5, 39.07332938301853
926, 39.07332938301853
926.5, 39.303024653959085
927, 39.475296107164496
927.5, 39.475296107164496
928, 39.5614318337672
928.5, 39.5614318337672
929, 39.64756756036991
929.5, 39.64756756036991
930, 39.819839013575326
930.5, 39.819839013575326
931, 39.963398557913166
931.5, 40.04953428451588
932, 40.04953428451588
932.5, 40.22180573772129
933, 40.22180573772129
933.5, 40.3940771909267
934, 40.3940771909267
934.5, 40.53763673526455
935, 40.73862009733753
935.5, 40.73862009733753
936, 40.824755823940244
936.5, 40.824755823940244
937, 41.025739186013226
937.5, 41.025739186013226
938, 41.22672254808621
938.5, 41.22672254808621
939, 41.39899400129162
939.5, 41.5999773633646
940, 41.5999773633646
940.5, 41.686113089967314
941, 41.686113089967314
941.5, 41.858384543172726
942, 41.858384543172726
942.5, 42.088079814113286
943, 42.088079814113286
943.5, 42.23163935845112
944, 42.40391081165654
944.5, 42.40391081165654
945, 42.547470355994385
945.5, 42.547470355994385
946, 42.6336060825971
946.5, 42.6336060825971
947, 42.86330135353765
947.5, 42.86330135353765
948, 43.006860897875484
948.5, 43.17913235108091
949, 43.17913235108091
949.5, 43.26526807768361
950, 43.26526807768361
950.5, 43.380115713153884
951, 43.380115713153884
951.5, 43.58109907522687
952, 43.839506255035
952.5, 43.839506255035
953, 43.95435389050527
953.5, 43.95435389050527
954, 44.06920152597554
954.5, 44.06920152597554
955, 44.241472979180955
955.5, 44.241472979180955
956, 44.3850325235188
956.5, 44.729575429929625
957, 44.729575429929625
957.5, 44.87313497426747
958, 44.87313497426747
958.5, 44.930558792002614
959, 44.930558792002614
959.5, 45.045406427472884
960, 45.045406427472884
960.5, 45.16025406294316
961, 45.30381360728101
961.5, 45.30381360728101
962, 45.44737315161886
962.5, 45.44737315161886
963, 45.619644604824266
963.5, 45.619644604824266
964, 45.76320414916212
964.5, 45.8780517846324
965, 45.8780517846324
965.5, 46.0503232378378
966, 46.0503232378378
966.5, 46.280018508778355
967, 46.280018508778355
967.5, 46.36615423538106
968, 46.36615423538106
968.5, 46.624561415189184
969, 46.96910432160002
969.5, 46.96910432160002
970, 47.112663865937854
970.5, 47.112663865937854
971, 47.22751150140813
971.5, 47.22751150140813
972, 47.457206772348684
972.5, 47.457206772348684
973, 47.658190134421666
973.5, 47.88788540536222
974, 47.88788540536222
974.5, 48.06015685856764
975, 48.06015685856764
975.5, 48.20371640290548
976, 48.20371640290548
976.5, 48.4621235827136
977, 48.54825930931631
977.5, 48.54825930931631
978, 48.77795458025686
978.5, 48.77795458025686
979, 49.036361760064985
979.5, 49.036361760064985
980, 49.237345122137974
980.5, 49.237345122137974
981, 49.35219275760825
981.5, 49.58188802854879
982, 49.58188802854879
982.5, 49.72544757288664
983, 49.72544757288664
983.5, 50.15612620590017
984, 50.15612620590017
984.5, 50.3283976591056
985, 50.3283976591056
985.5, 50.47195720344343
986, 50.58680483891371
986.5, 50.58680483891371
987, 50.701652474383984
987.5, 50.701652474383984
988, 51.07490728966239
988.5, 51.07490728966239
989, 51.27589065173537
989.5, 51.27589065173537
990, 51.39073828720565
990.5, 51.563009740411054
991, 51.563009740411054
991.5, 51.64914546701376
992, 51.64914546701376
992.5, 51.96497646455702
993, 51.96497646455702
993.5, 52.280807462100285
994, 52.33823127983542
994.5, 52.33823127983542
995, 52.59663845964355
995.5, 52.59663845964355
996, 52.88375754831923
996.5, 52.88375754831923
997, 53.08474091039221
997.5, 53.08474091039221
998, 53.343148090200344
998.5, 53.57284336114089
999, 53.57284336114089
999.5, 53.888674358684156
1000, 53.888674358684156
1000.5, 54.26192917396254
1001, 54.26192917396254
1001.5, 54.462912536035525
1002, 54.462912536035525
1002.5, 54.72131971584365
1003, 54.97972689565177
1003.5, 54.97972689565177
1004, 55.20942216659232
1004.5, 55.20942216659232
1005, 55.58267698187072
1005.5, 55.58267698187072
1006, 55.89850797941398
1006.5, 56.12820325035453
1007, 56.12820325035453
1007.5, 57.33410342279244
1007.5, 55.46782934640044
1008, 57.33410342279244
1008, 55.46782934640044
1008.5, 56.64501760997077
1009, 56.64501760997077
1009.5, 56.93213669864646
1010, 56.93213669864646
1010.5, 57.27667960505729
1011, 57.56379869373299
1011.5, 57.56379869373299
1012, 58.080613053349225
1012.5, 58.080613053349225
1013, 58.28159641542221
1013.5, 58.28159641542221
1014, 58.54000359523034
1014.5, 58.54000359523034
1015, 59.97559903860878
1015, 58.02318923561408
1015.5, 59.37264895238983
1016, 59.37264895238983
1016.5, 59.631056132197955
1017, 59.631056132197955
1017.5, 60.77953248690071
1018, 60.77953248690071
1018.5, 60.17658240068176
1019, 61.75573738839806
1019, 59.88946331200607
1019.5, 61.75573738839806
1019.5, 59.88946331200607
1020, 61.03793966670884
1020.5, 61.03793966670884
1021, 61.18149921104668
1021.5, 61.18149921104668
1022, 61.52604211745751
1022.5, 61.52604211745751
1023, 63.076485196306244
1023, 61.18149921104668
1023.5, 62.53095892782243
1024, 62.53095892782243
1024.5, 62.64580656329271
1025, 62.64580656329271
1025.5, 63.937842462333315
1025.5, 61.95672075047104
1026, 63.937842462333315
1026, 61.95672075047104
1026.5, 64.22496155100899
1026.5, 62.2725517480143
1027, 64.22496155100899
1027, 62.2725517480143
1027.5, 63.90913055346574
1028, 64.05269009780358
1028.5, 64.05269009780358
1029, 64.25367345987657
1029.5, 64.25367345987657
1030, 64.54079254855225
1030.5, 64.54079254855225
1031, 65.77540462985772
1031, 63.880418644598166
1031.5, 65.77540462985772
1031.5, 63.880418644598166
1032, 65.4308617234469
1032.5, 65.57442126778474
1033, 65.57442126778474
1033.5, 65.71798081212259
1034, 65.71798081212259
1034.5, 67.21100007323616
1035, 67.21100007323616
1035.5, 66.52191426041452
1036, 66.60804998701722
1036.5, 66.60804998701722
1037, 66.80903334909021
1037.5, 66.80903334909021
1038, 67.03872862003075
1038.5, 67.03872862003075
1039, 67.58425488851458
1039.5, 67.58425488851458
1040, 68.64659551661462
1040.5, 67.9287977949254
1041, 67.9287977949254
1041.5, 68.07235733926325
1042, 68.07235733926325
1042.5, 68.27334070133622
1043, 68.27334070133622
1043.5, 68.44561215454164
1044, 68.44561215454164
1044.5, 68.6753074254822
1045, 68.7614431520849
1045.5, 68.7614431520849
1046, 69.1346979673633
1046.5, 69.1346979673633
1047, 69.36439323830385
1047.5, 69.36439323830385
1048, 69.42181705603899
1048.5, 69.70893614471467
1049, 69.70893614471467
1049.5, 69.82378378018495
1050, 69.82378378018495
1050.5, 69.8812075979201
1051, 69.8812075979201
1051.5, 70.02476714225794
1052, 70.02476714225794
1052.5, 70.31188623093362
1053, 70.39802195753634
1053.5, 70.39802195753634
1054, 70.62771722847688
1054.5, 70.62771722847688
1055, 70.68514104621202
1055.5, 70.68514104621202
1056, 70.68514104621202
1056.5, 70.68514104621202
1057, 70.74256486394717
1057.5, 70.77127677281473
1058, 70.77127677281473
1058.5, 70.91483631715258
1059, 70.91483631715258
1059.5, 70.88612440828501
1060, 70.88612440828501
1060.5, 70.85741249941744
1061, 70.85741249941744
1061.5, 70.85741249941744
1062, 71.02968395262286
1062.5, 71.02968395262286
1063, 71.08710777035799
1063.5, 71.08710777035799
1064, 71.14453158809313
1064.5, 71.14453158809313
1065, 71.1732434969607
1065.5, 71.08710777035799
1066, 71.08710777035799
1066.5, 71.11581967922555
1067, 71.11581967922555
1067.5, 71.14453158809313
1068, 71.14453158809313
1068.5, 71.11581967922555
1069, 71.11581967922555
1069.5, 70.94354822602014
1070, 70.91483631715258
1070.5, 70.91483631715258
1071, 70.97226013488772
1071.5, 70.97226013488772
1072, 70.94354822602014
1072.5, 70.94354822602014
1073, 70.91483631715258
1073.5, 70.91483631715258
1074, 70.74256486394717
1074.5, 70.51286959300661
1075, 70.51286959300661
1075.5, 70.51286959300661
1076, 70.51286959300661
1076.5, 70.42673386640391
1077, 70.42673386640391
1077.5, 70.31188623093362
1078, 70.11090286886065
1078.5, 70.11090286886065
1079, 70.08219095999308
1079.5, 70.08219095999308
1080, 70.11090286886065
1080.5, 70.11090286886065
1081, 69.93863141565524
1081.5, 69.93863141565524
1082, 69.82378378018495
1082.5, 69.5940885092444
1083, 69.5940885092444
1083.5, 69.42181705603899
1084, 69.42181705603899
1084.5, 69.24954560283358
1085, 69.24954560283358
1085.5, 69.04856224076059
1086, 69.04856224076059
1086.5, 68.93371460529032
1087, 68.73273124321733
1087.5, 68.73273124321733
1088, 68.53174788114436
1088.5, 68.53174788114436
1089, 68.24462879246866
1089.5, 68.24462879246866
1090, 68.04364543039567
1090.5, 67.75652634171999
1091, 67.75652634171999
1091.5, 67.6416787062497
1092, 67.6416787062497
1092.5, 67.35455961757401
1093, 67.35455961757401
1093.5, 67.15357625550104
1094, 67.15357625550104
1094.5, 66.95259289342806
1095, 66.55062616928208
1095.5, 66.55062616928208
1096, 66.23479517173882
1096.5, 66.23479517173882
1097, 66.80903334909021
1097, 64.94275927269823
1097.5, 66.80903334909021
1097.5, 64.94275927269823
1098, 66.57933807814965
1098, 64.71306400175766
1098.5, 66.57933807814965
1098.5, 64.71306400175766
1099, 66.40706662494424
1099, 64.54079254855225
1099.5, 65.11503072590364
1100, 65.11503072590364
1100.5, 64.6843520928901
1101, 64.6843520928901
1101.5, 64.51208063968468
1102, 64.51208063968468
1102.5, 64.36852109534684
1103, 64.36852109534684
1103.5, 64.11011391553872
1104, 63.736859100260325
1104.5, 63.736859100260325
1105, 64.05269009780358
1105.5, 64.05269009780358
1106, 63.019061378571095
1106.5, 63.019061378571095
1107, 62.76065419876298
1107.5, 63.42102810271706
1108, 63.42102810271706
1108.5, 63.19133283177652
1108.5, 61.325058755384525
1109, 63.19133283177652
1109, 61.325058755384525
1109.5, 61.75573738839806
1110, 61.75573738839806
1110.5, 61.640889752927784
1111, 61.640889752927784
1111.5, 61.296346846516954
1112, 60.693396760298015
1112.5, 60.693396760298015
1113, 61.3537706642521
1113, 59.430072770124966
1113.5, 61.3537706642521
1113.5, 59.430072770124966
1114, 61.009227757841266
1114, 59.11424177258171
1114.5, 61.009227757841266
1114.5, 59.11424177258171
1115, 60.89438012237099
1115, 58.79841077503845
1115.5, 60.89438012237099
1115.5, 58.79841077503845
1116, 60.66468485143044
1116, 58.597427412965466
1116.5, 59.91817522087364
1116.5, 57.96576541787895
1117, 59.91817522087364
1117, 57.96576541787895
1117.5, 58.396444050892484
1118, 58.396444050892484
1118.5, 59.22908940805198
1118.5, 57.247967696189725
1119, 59.22908940805198
1119, 57.247967696189725
1119.5, 58.65485123070061
1119.5, 56.78857715430862
1120, 58.597427412965466
1120, 56.67372951883834
1120.5, 58.597427412965466
1120.5, 56.67372951883834
1121, 57.133120060719456
1121.5, 57.133120060719456
1122, 56.70244142770592
1122.5, 56.70244142770592
1123, 56.44403424789779
1123.5, 56.44403424789779
1124, 55.927219888281556
1124.5, 55.7836603439437
1125, 55.7836603439437
1125.5, 55.55396507300315
1126, 55.55396507300315
1126.5, 55.95593179714912
1126.5, 54.06094581188956
1127, 55.95593179714912
1127, 54.06094581188956
1127.5, 55.668812708473425
1127.5, 53.68769099661117
1128, 55.668812708473425
1128, 53.68769099661117
1128.5, 55.38169361979774
1128.5, 53.42928381680304
1129, 55.09457453112204
1129, 53.142164728127355
1129.5, 55.09457453112204
1129.5, 53.142164728127355
1130, 54.807455442446354
1130, 52.82633373058409
1130.5, 54.807455442446354
1130.5, 52.82633373058409
1131, 54.1183696296247
1131, 52.25209555323272
1131.5, 54.1183696296247
1131.5, 52.25209555323272
1132, 54.06094581188956
1132, 52.165959826630015
1132.5, 54.06094581188956
1132.5, 52.165959826630015
1133, 54.00352199415443
1133, 52.05111219115974
1133.5, 52.22338364436514
1134, 52.22338364436514
1134.5, 51.93626455568946
1135, 51.93626455568946
1135.5, 51.64914546701376
1136, 51.64914546701376
1136.5, 51.36202637833807
1137, 51.16104301626509
1137.5, 51.16104301626509
1138, 50.78778820098669
1138.5, 50.78778820098669
1139, 50.44324529457587
1139.5, 50.44324529457587
1140, 51.247178742867796
1140.5, 51.247178742867796
1141, 49.98385475269477
1141.5, 49.63931184628393
1142, 49.63931184628393
1142.5, 49.32348084874067
1143, 49.32348084874067
1143.5, 49.00764985119742
1144, 49.00764985119742
1144.5, 48.80666648912444
1145, 48.80666648912444
1145.5, 48.347275947243325
1146, 48.031444949700074
1146.5, 48.031444949700074
1147, 47.85917349649465
1147.5, 47.85917349649465
1148, 48.49083549158118
1148, 46.624561415189184
1148.5, 48.49083549158118
1148.5, 46.624561415189184
1149, 47.28493531914328
1149.5, 46.99781623046758
1150, 46.99781623046758
1150.5, 46.65327332405676
1151, 46.65327332405676
1151.5, 46.3374423265135
1152, 46.3374423265135
1152.5, 46.13645896444051
1153, 46.13645896444051
1153.5, 45.84933987576482
1154, 45.677068422559415
1154.5, 45.677068422559415
1155, 45.36123742501615
1155.5, 45.36123742501615
1156, 45.045406427472884
1156.5, 45.045406427472884
1157, 44.8444230653999
1157.5, 44.8444230653999
1158, 44.64343970332692
1158.5, 44.35632061465124
1159, 44.35632061465124
1159.5, 44.04048961710798
1160, 44.04048961710798
1160.5, 43.78208243729985
1161, 43.78208243729985
1161.5, 43.609810984094445
1162, 43.380115713153884
1162.5, 43.380115713153884
1163, 42.949437080140356
1163.5, 42.949437080140356
1164, 42.83458944467007
1164.5, 42.83458944467007
1165, 42.719741809199796
1165.5, 42.719741809199796
1166, 42.432622720524115
1166.5, 42.23163935845112
1167, 42.23163935845112
1167.5, 41.91580836090786
1168, 41.91580836090786
1168.5, 41.77224881657003
1169, 41.77224881657003
1169.5, 41.62868927223217
1170, 41.62868927223217
1170.5, 41.39899400129162
1171, 41.169298730351066
1171.5, 41.169298730351066
1172, 40.88217964167538
1172.5, 40.88217964167538
1173, 40.79604391507267
1173.5, 40.79604391507267
1174, 40.73862009733753
1174.5, 40.73862009733753
1175, 40.652484370734825
1175.5, 39.36044847169422
1176, 39.36044847169422
1176.5, 39.274312745091514
1177, 39.274312745091514
1177.5, 39.99211046678074
1178, 39.99211046678074
1178.5, 39.819839013575326
1179, 39.50400801603207
1179.5, 39.50400801603207
1180, 39.18817701848881
1180.5, 39.18817701848881
1181, 39.07332938301853
1181.5, 39.07332938301853
1182, 38.90105792981311
1182.5, 38.90105792981311
1183, 38.67136265887256
1183.5, 38.556515023402284
1184, 38.556515023402284
1184.5, 38.3555316613293
1185, 38.3555316613293
1185.5, 38.269395934726596
1186, 38.269395934726596
1186.5, 38.097124481521185
1187, 38.097124481521185
1187.5, 37.95356493718334
1188, 37.8961411194482
1188.5, 37.8961411194482
1189, 37.723869666242784
1189.5, 37.723869666242784
1190, 37.5228863041698
1190.5, 37.5228863041698
1191, 37.35061485096439
1191.5, 37.235767215494114
1192, 37.235767215494114
1192.5, 37.17834339775897
1193, 37.17834339775897
1193.5, 37.09220767115627
1194, 37.09220767115627
1194.5, 37.00607194455356
1195, 37.00607194455356
1195.5, 36.919936217950855
1196, 36.718952855877866
1196.5, 36.718952855877866
1197, 36.66152903814273
1197.5, 36.66152903814273
1198, 36.6041052204076
1198.5, 36.6041052204076
1199, 36.34569804059947
1199.5, 36.34569804059947
1200, 36.2308504051292
1200.5, 36.25956231399677
1201, 36.25956231399677
1201.5, 36.25956231399677
1202, 36.25956231399677
1202.5, 36.14471467852648
1203, 36.14471467852648
1203.5, 35.8575955898508
1204, 35.88630749871837
1204.5, 35.88630749871837
1205, 35.88630749871837
1205.5, 35.88630749871837
1206, 35.88630749871837
1206.5, 35.88630749871837
1207, 35.77145986324811
1207.5, 35.77145986324811
1208, 35.62790031891025
1208.5, 35.45562886570485
1209, 35.45562886570485
1209.5, 35.36949313910212
1210, 35.36949313910212
1210.5, 35.28335741249941
1211, 35.28335741249941
1211.5, 35.16850977702914
1212, 35.16850977702914
1212.5, 35.13979786816158
1213, 35.08237405042644
1213.5, 35.08237405042644
1214, 35.05366214155886
1214.5, 35.05366214155886
1215, 35.111085959294
1215.5, 35.111085959294
1216, 35.2259335947643
1216.5, 35.2259335947643
1217, 35.13979786816158
1217.5, 35.08237405042644
1218, 35.08237405042644
1218.5, 35.13979786816158
1219, 35.13979786816158
1219.5, 35.16850977702914
1220, 35.16850977702914
1220.5, 34.996238323823746
1221, 34.91010259722104
1221.5, 34.91010259722104
1222, 34.852678779485885
1222.5, 34.852678779485885
1223, 34.88139068835345
1223.5, 34.88139068835345
1224, 34.88139068835345
1224.5, 34.88139068835345
1225, 34.88139068835345
1225.5, 34.852678779485885
1226, 34.852678779485885
1226.5, 34.82396687061832
1227, 34.82396687061832
1227.5, 34.852678779485885
1228, 34.852678779485885
1228.5, 34.76654305288318
1229, 34.76654305288318
1229.5, 34.7378311440156
1230, 34.70911923514804
1230.5, 34.70911923514804
1231, 34.68040732628049
1231.5, 34.68040732628049
1232, 34.651695417412895
1232.5, 34.651695417412895
1233, 34.651695417412895
1233.5, 34.56555969081019
1234, 34.56555969081019
1234.5, 34.536847781942626
1235, 34.536847781942626
1235.5, 34.50813587307505
1236, 34.50813587307505
1236.5, 34.50813587307505
1237, 34.50813587307505
1238, 35.024950232691296
1238.5, 35.024950232691296
1239, 34.93881450608859
1239.5, 34.93881450608859
1240, 34.82396687061832
1240.5, 34.82396687061832
1241, 34.996238323823746
1241.5, 34.996238323823746
1242, 34.996238323823746
1242.5, 34.93881450608859
1243, 34.93881450608859
1243.5, 34.62298350854533
1244, 34.62298350854533
1244.5, 34.56555969081019
1245, 34.56555969081019
1245.5, 34.479423964207484
1246, 34.479423964207484
1246.5, 34.45071205533992
1247, 34.45071205533992
1247.5, 34.45071205533992
1248, 34.50813587307505
1248.5, 34.50813587307505
1249, 34.536847781942626
1249.5, 34.536847781942626
1250, 34.56555969081019
1250.5, 34.56555969081019
1251, 34.56555969081019
1251.5, 34.56555969081019
1252, 34.56555969081019
1252.5, 34.651695417412895
1253, 34.651695417412895
1253.5, 34.651695417412895
1254, 34.651695417412895
1254.5, 34.651695417412895
1255, 34.62298350854533
1255.5, 34.62298350854533
1256, 34.59427159967777
1256.5, 34.59427159967777
1257, 34.59427159967777
1257.5, 34.59427159967777
1258, 34.479423964207484
1258.5, 34.479423964207484
1259, 34.45071205533992
1259.5, 34.45071205533992
1260, 34.45071205533992
1260.5, 34.45071205533992
1261, 34.45071205533992
1261.5, 34.45071205533992
1262, 34.45071205533992
1262.5, 34.42200014647234
1263, 34.39328823760478
1263.5, 34.39328823760478
1264, 34.36457632873723
1264.5, 34.36457632873723
1265, 34.27844060213451
1265.5, 34.27844060213451
1266, 34.22101678439937
1266.5, 34.22101678439937
1267, 34.19230487553179
1267.5, 34.19230487553179
1268, 34.19230487553179
1268.5, 34.22101678439937
1269, 34.22101678439937
1269.5, 34.22101678439937
1270, 34.22101678439937
1270.5, 34.163592966664226
1271, 34.163592966664226
1271.5, 34.134881057796676
1272, 34.134881057796676
1272.5, 34.134881057796676
1273, 34.22101678439937
1273.5, 34.22101678439937
1274, 34.27844060213451
1274.5, 34.27844060213451
1275, 34.30715251100207
1275.5, 34.39328823760478
1276, 34.39328823760478
1276.5, 34.42200014647234
1277, 34.42200014647234
1277.5, 34.39328823760478
1278, 34.39328823760478
1278.5, 34.39328823760478
1279, 34.39328823760478
1279.5, 34.42200014647234
1280, 34.39328823760478
1280.5, 34.39328823760478
1281, 34.39328823760478
1281.5, 34.39328823760478
1282, 34.42200014647234
1282.5, 34.42200014647234
1283, 34.45071205533992
1283.5, 34.45071205533992
1283.9999999999998, 34.50813587307505
1284.5, 34.536847781942626
1285, 34.536847781942626
1285.5, 34.536847781942626
1286, 34.536847781942626
1286.5, 34.536847781942626
1287, 34.536847781942626
1287.5, 34.56555969081019
1288, 34.56555969081019
1288.5, 34.59427159967777
1289, 34.68040732628049
1289.5, 34.68040732628049
1290, 34.70911923514804
1290.5, 34.70911923514804
1291, 34.88139068835345
1291.5, 34.88139068835345
1292, 34.93881450608859
1292.5, 34.91010259722104
1293, 34.91010259722104
1293.5, 34.967526414956154
1294, 34.967526414956154
1294.5, 34.967526414956154
1295, 34.967526414956154
1295.5, 34.93881450608859
1296, 34.93881450608859
1296.5, 34.88139068835345
1297, 34.852678779485885
1297.5, 34.852678779485885
1298, 34.88139068835345
1298.5, 34.88139068835345
1299, 34.91010259722104
1299.5, 34.91010259722104
1300, 34.88139068835345
1300.5, 34.88139068835345
1301, 34.68040732628049
1301.4999999999998, 34.59427159967777
1302, 34.59427159967777
1302.5, 34.536847781942626
1303, 34.536847781942626
1303.5, 34.479423964207484
1304, 34.479423964207484
1304.5, 34.45071205533992
1305, 34.479423964207484
1305.5, 34.479423964207484
1306, 34.50813587307505
1306.5, 34.50813587307505
1307, 34.59427159967777
1307.5, 34.59427159967777
1308, 34.62298350854533
1308.5, 34.62298350854533
1309, 34.45071205533992
1309.5, 34.36457632873723
1310, 34.36457632873723
1310.4999999999998, 34.30715251100207
1311, 34.30715251100207
1311.4999999999998, 34.27844060213451
1312, 34.27844060213451
1312.4999999999998, 34.22101678439937
1313, 34.22101678439937
1313.5, 34.22101678439937
1314, 34.163592966664226
1314.5, 34.163592966664226
1315, 34.134881057796676
1315.5, 34.134881057796676
1315.9999999999998, 34.07745724006152
1316.5, 34.07745724006152
1316.9999999999998, 34.04874533119397
1317.5, 34.134881057796676
1317.9999999999998, 34.134881057796676
1318.5, 34.134881057796676
1319, 34.134881057796676
1319.5, 34.134881057796676
1320, 34.134881057796676
1320.5, 34.07745724006152
1321, 34.07745724006152
1321.4999999999998, 34.106169148929084
1322, 34.163592966664226
1322.4999999999998, 34.163592966664226
1323, 34.24972869326693
1323.4999999999998, 34.24972869326693
1324, 34.24972869326693
1324.4999999999998, 34.24972869326693
1325, 34.19230487553179
1325.5, 34.19230487553179
1326, 34.22101678439937
1326.5, 34.27844060213451
1327, 34.27844060213451
1327.5, 34.36457632873723
1327.9999999999998, 34.36457632873723
1328.5, 34.36457632873723
1328.9999999999998, 34.36457632873723
1329.5, 34.36457632873723
1329.9999999999998, 34.36457632873723
1330.5, 34.24972869326693
1331, 34.22101678439937
1331.5, 34.22101678439937
1332, 34.22101678439937
1332.5, 34.22101678439937
1333, 34.19230487553179
1333.4999999999998, 34.19230487553179
1334, 34.163592966664226
1334.4999999999998, 34.163592966664226
1335, 34.163592966664226
1335.4999999999998, 34.22101678439937
1336, 34.22101678439937
1336.5, 34.22101678439937
1337, 34.22101678439937
1337.5, 34.22101678439937
1338, 34.22101678439937
1338.5, 34.22101678439937
1338.9999999999998, 34.27844060213451
1339.5, 34.27844060213451
1339.9999999999998, 34.27844060213451
1340.5, 34.27844060213451
1340.9999999999998, 34.22101678439937
1341.5, 34.22101678439937
1341.9999999999998, 34.106169148929084
1342.5, 34.106169148929084
1343, 34.106169148929084
1343.5, 34.106169148929084
1344, 34.106169148929084
1344.4999999999998, 34.163592966664226
1345, 34.163592966664226
1345.4999999999998, 34.19230487553179
1346, 34.19230487553179
1346.4999999999998, 34.19230487553179
1347, 34.163592966664226
1347.4999999999998, 34.163592966664226
1348, 34.134881057796676
1348.5, 34.134881057796676
1349, 34.106169148929084
1349.5, 34.106169148929084
1350, 34.07745724006152
1350.5, 34.07745724006152
1350.9999999999998, 34.04874533119397
1351.5, 34.04874533119397
1351.9999999999998, 34.04874533119397
1352.5, 34.106169148929084
1352.9999999999998, 34.106169148929084
1353.5, 34.134881057796676
1354, 34.134881057796676
1354.5, 34.134881057796676
1355, 34.134881057796676
1355.5, 34.134881057796676
1356, 34.106169148929084
1356.4999999999998, 34.106169148929084
1357, 34.106169148929084
1357.4999999999998, 34.106169148929084
1358, 34.02003342232638
1358.4999999999998, 34.02003342232638
1359, 33.93389769572367
1359.4999999999998, 33.93389769572367
1360, 33.93389769572367
1360.5, 33.962609604591236
1361, 33.962609604591236
1361.5, 34.163592966664226
1361.9999999999998, 34.163592966664226
1362.5, 34.163592966664226
1362.9999999999998, 34.163592966664226
1363.5, 34.163592966664226
1363.9999999999998, 34.106169148929084
1364.5, 34.106169148929084
1364.9999999999998, 34.106169148929084
1365.5, 34.106169148929084
1366, 34.134881057796676
1366.5, 34.134881057796676
1367, 34.19230487553179
1367.5, 34.19230487553179
1368, 34.24972869326693
1368.4999999999998, 34.163592966664226
1369, 34.163592966664226
1369.4999999999998, 34.106169148929084
1370, 34.106169148929084
1370.4999999999998, 34.106169148929084
1371, 34.106169148929084
1371.5, 34.106169148929084
1372, 34.106169148929084
1372.5, 34.106169148929084
1373, 34.07745724006152
1373.5, 34.07745724006152
1373.9999999999998, 34.07745724006152
1374.5, 34.07745724006152
1374.9999999999998, 34.02003342232638
1375.5, 34.02003342232638
1375.9999999999998, 34.02003342232638
1376.5, 34.04874533119397
1376.9999999999998, 34.04874533119397
1377.5, 34.106169148929084
1378, 34.106169148929084
1378.5, 34.19230487553179
1379, 34.19230487553179
1379.4999999999998, 34.27844060213451
1380, 34.27844060213451
1380.4999999999998, 34.33586441986964
1381, 34.30715251100207
1381.4999999999998, 34.30715251100207
1382, 34.24972869326693
1382.4999999999998, 34.24972869326693
1383, 34.19230487553179
1383.5, 34.19230487553179
1384, 34.36457632873723
1384.5, 34.36457632873723
1385, 34.45071205533992
1385.5, 34.39328823760478
1385.9999999999998, 34.39328823760478
1386.5, 34.24972869326693
1386.9999999999998, 34.24972869326693
1387.5, 34.19230487553179
1387.9999999999998, 34.19230487553179
1388.5, 34.33586441986964
1389, 34.33586441986964
1389.5, 34.33586441986964
1390, 34.24972869326693
1390.5, 34.24972869326693
1391, 34.24972869326693
1391.4999999999998, 34.24972869326693
1392, 34.27844060213451
1392.4999999999998, 34.27844060213451
1393, 34.30715251100207
1393.4999999999998, 34.24972869326693
1394, 34.24972869326693
1394.4999999999998, 34.19230487553179
1395, 34.19230487553179
1395.5, 34.163592966664226
1396, 34.163592966664226
1396.5, 34.22101678439937
1396.9999999999998, 34.22101678439937
1397.5, 34.33586441986964
1397.9999999999998, 34.36457632873723
1398.5, 34.36457632873723
1398.9999999999998, 34.42200014647234
1399.5, 34.42200014647234
1399.9999999999998, 34.45071205533992
