300, 59.155168457494035
300.5, 59.18385162571209
301, 59.18385162571209
301.5, 59.21253479393014
302, 59.21253479393014
302.5, 59.24121796214819
303, 59.24121796214819
303.5, 59.298584298584295
304, 59.298584298584295
304.5, 59.298584298584295
305, 59.32726746680235
305.5, 59.32726746680235
306, 59.3559506350204
306.5, 59.4133169714565
307, 59.4133169714565
307.5, 59.4133169714565
308, 59.4133169714565
308.5, 59.47068330789261
309, 59.47068330789261
309.5, 59.52804964432871
310, 59.585415980764814
310.5, 59.585415980764814
311, 59.614099148982866
311.5, 59.614099148982866
312, 59.64278231720092
312.5, 59.67146548541897
313, 59.67146548541897
313.5, 59.70014865363702
314, 59.70014865363702
314.5, 59.757514990073126
315, 59.78619815829118
315.5, 59.78619815829118
316, 59.84356449472728
316.5, 59.84356449472728
317, 59.900930831163386
317.5, 59.900930831163386
318, 59.92961399938144
318.5, 59.95829716759949
319, 59.95829716759949
319.5, 60.015663504035594
320, 60.015663504035594
320.5, 60.044346672253646
321, 60.0730298404717
321.5, 60.0730298404717
322, 60.10171300868975
322.5, 60.10171300868975
323, 60.15907934512585
323.5, 60.15907934512585
324, 60.15907934512585
324.5, 60.187762513343905
325, 60.187762513343905
325.5, 60.24512884978001
326, 60.24512884978001
326.5, 60.30249518621611
327, 60.331178354434165
327.5, 60.331178354434165
328, 60.38854469087027
328.5, 60.38854469087027
329, 60.38854469087027
329.5, 60.38854469087027
330, 60.44591102730637
330.5, 60.474594195524425
331, 60.474594195524425
331.5, 60.50327736374248
332, 60.50327736374248
332.5, 60.53196053196053
333, 60.56064370017858
333.5, 60.56064370017858
334, 60.58932686839663
334.5, 60.58932686839663
335, 60.67537637305079
335.5, 60.73274270948689
336, 60.73274270948689
336.5, 60.81879221414105
337, 60.81879221414105
337.5, 60.87615855057715
338, 60.87615855057715
338.5, 60.87615855057715
339, 60.933524887013256
339.5, 60.933524887013256
340, 60.96220805523131
340.5, 60.96220805523131
341, 61.01957439166741
341.5, 61.048257559885464
342, 61.048257559885464
342.5, 61.076940728103516
343, 61.076940728103516
343.5, 61.13430706453962
344, 61.13430706453962
344.5, 61.16299023275767
345, 61.220356569193775
345.5, 61.220356569193775
346, 61.33508924206598
346.5, 61.33508924206598
347, 61.33508924206598
347.5, 61.363772410284035
348, 61.363772410284035
348.5, 61.42113874672014
349, 61.42113874672014
349.5, 61.47850508315624
350, 61.47850508315624
350.5, 61.5645545878104
351, 61.6219209242465
351.5, 61.6219209242465
352, 61.67928726068261
352.5, 61.67928726068261
353, 61.67928726068261
353.5, 61.70797042890066
354, 61.70797042890066
354.5, 61.794019933554814
355, 61.794019933554814
355.5, 61.85138626999092
356, 61.85138626999092
356.5, 61.85138626999092
357, 61.85138626999092
357.5, 61.85138626999092
358, 61.937435774645074
358.5, 61.937435774645074
359, 61.966118942863126
359.5, 62.02348527929923
360, 62.02348527929923
360.5, 62.109534783953386
361, 62.109534783953386
361.5, 62.13821795217144
362, 62.19558428860754
362.5, 62.19558428860754
363, 62.224267456825594
363.5, 62.224267456825594
364, 62.252950625043646
364.5, 62.252950625043646
365, 62.3390001296978
365.5, 62.36768329791585
366, 62.36768329791585
366.5, 62.48241597078806
367, 62.48241597078806
367.5, 62.56846547544222
368, 62.59714864366027
368.5, 62.59714864366027
369, 62.683198148314425
369.5, 62.683198148314425
370, 62.74056448475053
370.5, 62.74056448475053
371, 62.826613989404684
371.5, 62.88398032584079
372, 62.88398032584079
372.5, 62.91266349405884
373, 62.91266349405884
373.5, 62.94134666227689
374, 62.998712998712996
374.5, 62.998712998712996
375, 63.02739616693105
375.5, 63.02739616693105
376, 63.113445671585204
376.5, 63.113445671585204
377, 63.19949517623936
377.5, 63.256861512675464
378, 63.256861512675464
378.5, 63.31422784911157
379, 63.31422784911157
379.5, 63.34291101732962
380, 63.428960521983775
380.5, 63.428960521983775
381, 63.48632685841988
381.5, 63.48632685841988
382, 63.51501002663793
382.5, 63.51501002663793
383, 63.572376363074035
383.5, 63.62974269951014
384, 63.62974269951014
384.5, 63.68710903594624
385, 63.68710903594624
385.5, 63.7731585406004
386, 63.859208045254555
386.5, 63.859208045254555
387, 63.94525754990871
387.5, 63.94525754990871
388, 64.00262388634482
388.5, 64.08867339099896
389, 64.08867339099896
389.5, 64.14603972743507
390, 64.14603972743507
390.5, 64.20340606387117
391, 64.20340606387117
391.5, 64.26077240030727
392, 64.37550507317948
392.5, 64.37550507317948
393, 64.46155457783365
393.5, 64.46155457783365
394, 64.57628725070586
394.5, 64.66233675536
395, 64.66233675536
395.5, 64.7197030917961
396, 64.7197030917961
396.5, 64.77706942823221
397, 64.77706942823221
397.5, 64.80575259645028
398, 64.86311893288638
398.5, 64.86311893288638
399, 64.94916843754052
399.5, 64.94916843754052
400, 65.03521794219469
400.5, 65.0925842786308
401, 65.0925842786308
401.5, 65.17863378328494
402, 65.17863378328494
402.5, 65.23600011972104
403, 65.23600011972104
403.5, 65.29336645615714
404, 65.40809912902935
404.5, 65.40809912902935
405, 65.46546546546546
405.5, 65.46546546546546
406, 65.58019813833766
406.5, 65.60888130655573
407, 65.60888130655573
407.5, 65.63756447477377
408, 65.63756447477377
408.5, 65.69493081120987
409, 65.69493081120987
409.5, 65.75229714764598
410, 65.80966348408208
410.5, 65.80966348408208
411, 65.92439615695429
411.5, 65.92439615695429
412, 66.01044566160846
412.5, 66.0964951662626
413, 66.0964951662626
413.5, 66.1538615026987
414, 66.1538615026987
414.5, 66.23991100735287
415, 66.32596051200701
415.5, 66.32596051200701
416, 66.38332684844312
416.5, 66.38332684844312
417, 66.52674268953339
417.5, 66.52674268953339
418, 66.5841090259695
418.5, 66.6414753624056
419, 66.6414753624056
419.5, 66.72752486705974
420, 66.72752486705974
420.5, 66.87094070815002
421, 66.92830704458612
421.5, 66.92830704458612
422, 67.07172288567637
422.5, 67.07172288567637
423, 67.12908922211247
423.5, 67.12908922211247
424, 67.18645555854857
424.5, 67.24382189498468
425, 67.24382189498468
425.5, 67.35855456785688
426, 67.35855456785688
426.5, 67.44460407251105
427, 67.5306535771652
427.5, 67.5306535771652
428, 67.6453862500374
428.5, 67.6453862500374
429, 67.73143575469157
429.5, 67.73143575469157
430, 67.84616842756378
430.5, 67.96090110043599
431, 67.96090110043599
431.5, 68.10431694152624
432, 68.10431694152624
432.5, 68.1903664461804
433, 68.30509911905261
433.5, 68.30509911905261
434, 68.39114862370675
434.5, 68.39114862370675
435, 68.50588129657896
435.5, 68.62061396945117
436, 68.62061396945117
436.5, 68.73534664232338
437, 68.73534664232338
437.5, 68.82139614697755
438, 68.82139614697755
438.5, 68.93612881984976
439, 68.9648119880678
439.5, 68.9648119880678
440, 69.05086149272196
440.5, 69.05086149272196
441, 69.16559416559417
441.5, 69.28032683846638
442, 69.28032683846638
442.5, 69.39505951133859
443, 69.39505951133859
443.5, 69.5097921842108
444, 69.5097921842108
444.5, 69.624524857083
445, 69.76794069817325
445.5, 69.76794069817325
446, 69.88267337104546
446.5, 69.88267337104546
447, 69.99740604391766
447.5, 70.08345554857183
448, 70.08345554857183
448.5, 70.19818822144404
449, 70.19818822144404
449.5, 70.31292089431625
450, 70.31292089431625
450.5, 70.48501990362456
451, 70.59975257649677
451.5, 70.59975257649677
452, 70.71448524936898
452.5, 70.71448524936898
453, 70.77185158580508
453.5, 70.85790109045922
454, 70.85790109045922
454.5, 70.97263376333143
455, 70.97263376333143
455.5, 71.08736643620364
456, 71.08736643620364
456.5, 71.20209910907585
457, 71.34551495016612
457.5, 71.34551495016612
458, 71.43156445482026
458.5, 71.43156445482026
459, 71.51761395947443
459.5, 71.66102980056468
460, 71.66102980056468
460.5, 71.77576247343688
461, 71.77576247343688
461.5, 71.86181197809105
462, 72.0052278191813
462.5, 72.0052278191813
463, 72.09127732383547
463.5, 72.09127732383547
464, 72.26337633314378
464.5, 72.26337633314378
465, 72.37810900601599
465.5, 72.52152484710624
466, 72.52152484710624
466.5, 72.69362385641455
467, 72.69362385641455
467.5, 72.80835652928675
468, 72.98045553859507
468.5, 72.98045553859507
469, 73.15255454790338
469.5, 73.15255454790338
470, 73.23860405255755
470.5, 73.23860405255755
471, 73.41070306186586
471.5, 73.52543573473807
472, 73.52543573473807
472.5, 73.61148523939221
473, 73.61148523939221
473.5, 73.75490108048248
474, 73.89831692157273
474.5, 73.89831692157273
475, 73.9843664262269
475.5, 73.9843664262269
476, 74.24251494018935
476.5, 74.24251494018935
477, 74.38593078127963
477.5, 74.52934662236987
478, 74.52934662236987
478.5, 74.73012879989625
479, 74.73012879989625
479.5, 74.81617830455039
480, 74.9309109774226
480.5, 74.9309109774226
481, 75.10300998673091
481.5, 75.10300998673091
482, 75.21774265960312
482.5, 75.21774265960312
483, 75.38984166891143
483.5, 75.56194067821974
484, 75.56194067821974
484.5, 75.73403968752805
485, 75.73403968752805
485.5, 75.82008919218222
486, 75.90613869683636
486.5, 75.90613869683636
487, 76.04955453792664
487.5, 76.04955453792664
488, 76.22165354723495
488.5, 76.33638622010716
489, 76.33638622010716
489.5, 76.45111889297937
490, 76.45111889297937
490.5, 76.56585156585157
491, 76.56585156585157
491.5, 76.65190107050572
492, 76.76663374337792
492.5, 76.76663374337792
493, 76.82400007981403
493.5, 76.82400007981403
494, 76.93873275268624
494.5, 77.05346542555844
495, 77.05346542555844
495.5, 77.0247822573404
496, 77.0247822573404
496.5, 76.99609908912234
497, 76.99609908912234
497.5, 77.0247822573404
498, 77.08214859377651
498.5, 77.08214859377651
499, 77.11083176199455
499.5, 77.11083176199455
500, 77.11083176199455
500.5, 77.0247822573404
501, 77.0247822573404
501.5, 77.05346542555844
502, 77.05346542555844
502.5, 77.0247822573404
503, 77.0247822573404
503.5, 77.0247822573404
504, 77.0247822573404
504.5, 77.0247822573404
505, 76.99609908912234
505.5, 76.99609908912234
506, 76.82400007981403
506.5, 76.73795057515989
507, 76.73795057515989
507.5, 76.62321790228768
508, 76.62321790228768
508.5, 76.56585156585157
509, 76.56585156585157
509.5, 76.4798020611974
510, 76.33638622010716
510.5, 76.33638622010716
511, 76.16428721079885
511.5, 76.16428721079885
512, 76.04955453792664
512.5, 75.76272285574612
513, 75.76272285574612
513.5, 75.56194067821974
514, 75.56194067821974
514.5, 75.38984166891143
515, 75.13169315494898
515.5, 75.13169315494898
516, 74.9882773138587
516.5, 74.9882773138587
517, 74.75881196811429
517.5, 74.75881196811429
518, 74.50066345415183
518.5, 74.38593078127963
519, 74.38593078127963
519.5, 74.12778226731714
520, 74.12778226731714
520.5, 73.9843664262269
521, 73.75490108048248
521.5, 73.75490108048248
522, 73.58280207117417
522.5, 73.58280207117417
523, 73.49675256652
523.5, 73.49675256652
524, 73.18123771612144
524.5, 73.06650504324924
525, 73.06650504324924
525.5, 72.98045553859507
526, 72.98045553859507
526.5, 72.77967336106872
527, 72.6075743517604
527.5, 72.6075743517604
528, 72.52152484710624
528.5, 72.52152484710624
529, 72.26337633314378
529.5, 72.26337633314378
530, 72.11996049205351
530.5, 71.97654465096326
531, 71.97654465096326
531.5, 71.80444564165495
532, 71.80444564165495
532.5, 71.71839613700078
533, 71.54629712769247
533.5, 71.54629712769247
534, 71.40288128660222
534.5, 71.40288128660222
535, 71.31683178194805
535.5, 71.31683178194805
536, 71.17341594085781
536.5, 71.08736643620364
537, 71.08736643620364
537.5, 71.03000009976753
538, 71.03000009976753
538.5, 71.03000009976753
539, 70.97263376333143
539.5, 70.97263376333143
540, 70.88658425867729
540.5, 70.88658425867729
541, 70.77185158580508
541.5, 70.71448524936898
542, 70.71448524936898
542.5, 70.68580208115091
543, 70.68580208115091
543.5, 70.65711891293287
544, 70.65711891293287
544.5, 70.6284357447148
545, 70.6284357447148
545.5, 70.6284357447148
546, 70.65711891293287
546.5, 70.65711891293287
547, 70.68580208115091
547.5, 70.74316841758701
548, 70.74316841758701
548.5, 70.80053475402312
549, 70.80053475402312
549.5, 70.77185158580508
550, 70.77185158580508
550.5, 70.71448524936898
551, 70.65711891293287
551.5, 70.65711891293287
552, 70.68580208115091
552.5, 70.68580208115091
553, 70.80053475402312
553.5, 70.91526742689533
554, 70.91526742689533
554.5, 71.0013169315495
555, 71.0013169315495
555.5, 71.14473277263974
556, 71.14473277263974
556.5, 71.20209910907585
557, 71.28814861373002
557.5, 71.28814861373002
558, 71.28814861373002
558.5, 71.28814861373002
559, 71.31683178194805
559.5, 71.46024762303833
560, 71.46024762303833
560.5, 71.48893079125637
561, 71.48893079125637
561.5, 71.68971296878274
562, 71.80444564165495
562.5, 71.80444564165495
563, 71.91917831452716
563.5, 71.91917831452716
564, 72.0052278191813
564.5, 72.0052278191813
565, 72.0625941556174
565.5, 72.0625941556174
566, 72.0625941556174
566.5, 72.20600999670768
567, 72.20600999670768
567.5, 72.26337633314378
568, 72.4928416788882
568.5, 72.4928416788882
569, 72.46415851067013
569.5, 72.46415851067013
570, 72.4928416788882
570.5, 72.4928416788882
571, 72.4354753424521
571.5, 72.37810900601599
572, 72.37810900601599
572.5, 72.34942583779792
573, 72.34942583779792
573.5, 72.29205950136182
574, 72.20600999670768
574.5, 72.20600999670768
575, 72.09127732383547
575.5, 72.09127732383547
576, 72.0052278191813
576.5, 72.0052278191813
577, 71.86181197809105
577.5, 71.83312880987299
578, 71.83312880987299
578.5, 71.74707930521885
579, 71.74707930521885
579.5, 71.66102980056468
580, 71.54629712769247
580.5, 71.54629712769247
581, 71.43156445482026
581.5, 71.43156445482026
582, 71.28814861373002
582.5, 71.28814861373002
583, 71.08736643620364
583.5, 70.91526742689533
584, 70.91526742689533
584.5, 70.74316841758701
585, 70.74316841758701
585.5, 70.6284357447148
586, 70.39897039897039
586.5, 70.39897039897039
587, 70.22687138966208
587.5, 70.22687138966208
588, 70.08345554857183
588.5, 69.85399020282742
589, 69.85399020282742
589.5, 69.6818911935191
590, 69.6818911935191
590.5, 69.53847535242883
591, 69.53847535242883
591.5, 69.30901000668442
592, 69.19427733381221
592.5, 69.19427733381221
593, 69.0221783245039
593.5, 69.0221783245039
594, 68.79271297875948
594.5, 68.67798030588727
595, 68.67798030588727
595.5, 68.50588129657896
596, 68.50588129657896
596.5, 68.33378228727065
597, 68.33378228727065
597.5, 68.21904961439844
598, 67.98958426865403
598.5, 67.98958426865403
599, 67.81748525934572
599.5, 67.81748525934572
600, 67.6453862500374
600.5, 67.41592090429299
601, 67.41592090429299
601.5, 67.27250506320274
602, 67.27250506320274
602.5, 67.04303971745833
603, 67.04303971745833
603.5, 66.89962387636805
604, 66.78489120349585
604.5, 66.78489120349585
605, 66.61279219418753
605.5, 66.61279219418753
606, 66.38332684844312
606.5, 66.26859417557091
607, 66.26859417557091
607.5, 66.18254467091677
608, 66.18254467091677
608.5, 66.1538615026987
609, 66.1538615026987
609.5, 66.06781199804456
610, 65.92439615695429
610.5, 65.92439615695429
611, 65.83834665230015
611.5, 65.83834665230015
612, 65.66624764299183
612.5, 65.52283180190156
613, 65.52283180190156
613.5, 65.43678229724742
614, 65.43678229724742
614.5, 65.37941596081131
615, 65.32204962437521
615.5, 65.32204962437521
616, 65.17863378328494
616.5, 65.17863378328494
617, 65.0925842786308
617.5, 65.0925842786308
618, 65.03521794219469
618.5, 64.92048526932248
619, 64.92048526932248
619.5, 64.89180210110442
620, 64.89180210110442
620.5, 64.80575259645028
621, 64.77706942823221
621.5, 64.77706942823221
622, 64.7197030917961
622.5, 64.7197030917961
623, 64.69101992357807
623.5, 64.69101992357807
624, 64.63365358714196
624.5, 64.5476040824878
625, 64.5476040824878
625.5, 64.46155457783365
626, 64.46155457783365
626.5, 64.43287140961559
627, 64.43287140961559
627.5, 64.43287140961559
628, 64.46155457783365
628.5, 64.46155457783365
629, 64.46155457783365
629.5, 64.46155457783365
630, 64.43287140961559
630.5, 64.34682190496144
631, 64.34682190496144
631.5, 64.28945556852534
632, 64.28945556852534
632.5, 64.23208923208924
633, 64.14603972743507
633.5, 64.14603972743507
634, 64.11735655921703
634.5, 64.11735655921703
635, 64.11735655921703
635.5, 64.11735655921703
636, 64.11735655921703
636.5, 64.11735655921703
637, 64.11735655921703
637.5, 64.08867339099896
638, 64.08867339099896
638.5, 64.08867339099896
639, 64.08867339099896
639.5, 64.08867339099896
640, 64.05999022278093
640.5, 64.05999022278093
641, 64.05999022278093
641.5, 64.11735655921703
642, 64.11735655921703
642.5, 64.14603972743507
643, 64.14603972743507
643.5, 64.14603972743507
644, 64.14603972743507
644.5, 64.08867339099896
645, 64.03130705456286
645.5, 64.03130705456286
646, 63.97394071812676
646.5, 63.97394071812676
647, 63.94525754990871
647.5, 63.91657438169066
648, 63.91657438169066
648.5, 63.91657438169066
649, 63.91657438169066
649.5, 63.97394071812676
650, 63.97394071812676
650.5, 64.00262388634482
651, 64.05999022278093
651.5, 64.05999022278093
652, 64.14603972743507
652.5, 64.14603972743507
653, 64.14603972743507
653.5, 64.14603972743507
654, 64.14603972743507
654.5, 64.11735655921703
655, 64.11735655921703
655.5, 64.08867339099896
656, 64.08867339099896
656.5, 64.14603972743507
657, 64.17472289565313
657.5, 64.17472289565313
658, 64.23208923208924
658.5, 64.23208923208924
659, 64.37550507317948
659.5, 64.40418824139755
660, 64.40418824139755
660.5, 64.46155457783365
661, 64.46155457783365
661.5, 64.34682190496144
662, 64.34682190496144
662.5, 64.31813873674338
663, 64.37550507317948
663.5, 64.37550507317948
664, 64.43287140961559
664.5, 64.43287140961559
665, 64.49023774605169
665.5, 64.46155457783365
666, 64.46155457783365
666.5, 64.46155457783365
667, 64.46155457783365
667.5, 64.40418824139755
668, 64.31813873674338
668.5, 64.31813873674338
669, 64.26077240030727
669.5, 64.26077240030727
670, 64.17472289565313
670.5, 64.17472289565313
671, 64.14603972743507
671.5, 64.17472289565313
672, 64.17472289565313
672.5, 64.23208923208924
673, 64.23208923208924
673.5, 64.28945556852534
674, 64.31813873674338
674.5, 64.31813873674338
675, 64.40418824139755
675.5, 64.40418824139755
676, 64.43287140961559
676.5, 64.43287140961559
677, 64.5476040824878
677.5, 64.5476040824878
678, 64.5476040824878
678.5, 64.51892091426976
679, 64.51892091426976
679.5, 64.49023774605169
680, 64.49023774605169
680.5, 64.49023774605169
681, 64.57628725070586
681.5, 64.57628725070586
682, 64.6049704189239
682.5, 64.6049704189239
683, 64.6049704189239
683.5, 64.6049704189239
684, 64.6049704189239
684.5, 64.66233675536
685, 64.66233675536
685.5, 64.69101992357807
686, 64.69101992357807
686.5, 64.69101992357807
687, 64.69101992357807
687.5, 64.69101992357807
688, 64.69101992357807
688.5, 64.7197030917961
689, 64.7197030917961
689.5, 64.77706942823221
690, 64.77706942823221
690.5, 64.80575259645028
691, 64.80575259645028
691.5, 64.77706942823221
692, 64.77706942823221
692.5, 64.77706942823221
693, 64.69101992357807
693.5, 64.69101992357807
694, 64.77706942823221
694.5, 64.77706942823221
695, 64.77706942823221
695.5, 64.80575259645028
696, 64.80575259645028
696.5, 64.77706942823221
697, 64.77706942823221
697.5, 64.77706942823221
698, 64.86311893288638
698.5, 64.86311893288638
699, 64.86311893288638
699.5, 64.86311893288638
700, 64.80575259645028
700.5, 64.77706942823221
701, 64.77706942823221
701.5, 64.77706942823221
702, 64.77706942823221
702.5, 64.83443576466831
703, 64.83443576466831
703.5, 64.86311893288638
704, 64.89180210110442
704.5, 64.89180210110442
705, 64.80575259645028
705.5, 64.80575259645028
706, 64.83443576466831
706.5, 64.89180210110442
707, 64.89180210110442
707.5, 64.77706942823221
708, 64.77706942823221
708.5, 64.74838626001417
709, 64.74838626001417
709.5, 64.80575259645028
710, 64.86311893288638
710.5, 64.86311893288638
711, 64.92048526932248
711.5, 64.92048526932248
712, 64.80575259645028
712.5, 64.77706942823221
713, 64.77706942823221
713.5, 64.77706942823221
714, 64.77706942823221
714.5, 64.74838626001417
715, 64.74838626001417
715.5, 64.74838626001417
716, 64.66233675536
716.5, 64.66233675536
717, 64.63365358714196
717.5, 64.63365358714196
718, 64.6049704189239
718.5, 64.6049704189239
719, 64.6049704189239
719.5, 64.6049704189239
720, 64.6049704189239
720.5, 64.57628725070586
721, 64.51892091426976
721.5, 64.51892091426976
722, 64.5476040824878
722.5, 64.5476040824878
723, 64.6049704189239
723.5, 64.6049704189239
724, 64.5476040824878
724.5, 64.51892091426976
725, 64.51892091426976
725.5, 64.57628725070586
726, 64.57628725070586
726.5, 64.57628725070586
727, 64.57628725070586
727.5, 64.57628725070586
728, 64.66233675536
728.5, 64.66233675536
729, 64.66233675536
729.5, 64.66233675536
730, 64.6049704189239
730.5, 64.57628725070586
731, 64.57628725070586
731.5, 64.57628725070586
732, 64.57628725070586
732.5, 64.5476040824878
733, 64.49023774605169
733.5, 64.49023774605169
734, 64.43287140961559
734.5, 64.43287140961559
735, 64.40418824139755
735.5, 64.40418824139755
736, 64.43287140961559
736.5, 64.43287140961559
737, 64.43287140961559
737.5, 64.37550507317948
738, 64.37550507317948
738.5, 64.34682190496144
739, 64.37550507317948
739.5, 64.37550507317948
740, 64.26077240030727
740.5, 64.26077240030727
741, 64.23208923208924
741.5, 64.17472289565313
742, 64.17472289565313
742.5, 64.37550507317948
743, 64.37550507317948
743.5, 64.46155457783365
744, 64.46155457783365
744.5, 64.31813873674338
745, 64.26077240030727
745.5, 64.26077240030727
746, 64.17472289565313
746.5, 64.17472289565313
747, 64.08867339099896
747.5, 64.03130705456286
748, 64.03130705456286
748.5, 63.91657438169066
749, 63.91657438169066
749.5, 63.97394071812676
750, 63.97394071812676
750.5, 63.94525754990871
751, 63.859208045254555
751.5, 63.859208045254555
752, 63.80184170881845
752.5, 63.80184170881845
753, 63.7731585406004
753.5, 63.7731585406004
754, 63.7731585406004
754.5, 63.74447537238235
755, 63.74447537238235
755.5, 63.65842586772819
756, 63.65842586772819
756.5, 63.51501002663793
757, 63.51501002663793
757.5, 63.51501002663793
758, 63.60105953129209
758.5, 63.60105953129209
759, 63.60105953129209
759.5, 63.572376363074035
760, 63.572376363074035
760.5, 63.54369319485598
761, 63.54369319485598
761.5, 63.572376363074035
762, 63.572376363074035
762.5, 63.60105953129209
763, 63.48632685841988
763.5, 63.48632685841988
764, 63.45764369020183
764.5, 63.45764369020183
765, 63.45764369020183
765.5, 63.428960521983775
766, 63.428960521983775
766.5, 63.45764369020183
767, 63.45764369020183
767.5, 63.428960521983775
768, 63.40027735376572
768.5, 63.40027735376572
769, 63.31422784911157
769.5, 63.31422784911157
770, 63.19949517623936
770.5, 63.19949517623936
771, 63.08476250336715
771.5, 62.970029830494944
772, 62.970029830494944
772.5, 62.91266349405884
773, 62.91266349405884
773.5, 62.88398032584079
774, 62.855297157622736
774.5, 62.855297157622736
775, 62.88398032584079
775.5, 62.88398032584079
776, 62.88398032584079
776.5, 62.88398032584079
777, 62.826613989404684
777.5, 62.826613989404684
778, 62.826613989404684
778.5, 62.826613989404684
779, 62.826613989404684
779.5, 62.79793082118663
780, 62.74056448475053
780.5, 62.74056448475053
781, 62.59714864366027
781.5, 62.59714864366027
782, 62.51109913900611
782.5, 62.51109913900611
783, 62.42504963435196
783.5, 62.31031696147975
784, 62.31031696147975
784.5, 62.252950625043646
785, 62.252950625043646
785.5, 62.19558428860754
786, 62.13821795217144
786.5, 62.13821795217144
787, 62.109534783953386
787.5, 62.109534783953386
788, 62.05216844751728
788.5, 61.90875260642702
789, 61.90875260642702
789.5, 61.822703101772866
790, 61.822703101772866
790.5, 61.794019933554814
791, 61.794019933554814
791.5, 61.59323775602845
792.0000000000002, 61.5645545878104
792.5, 61.5645545878104
793.0000000000002, 61.53587141959235
793.5, 61.53587141959235
794, 61.42113874672014
794.5, 61.363772410284035
795, 61.363772410284035
795.5000000000002, 61.16299023275767
796, 61.16299023275767
796.5000000000002, 61.076940728103516
797, 61.076940728103516
797.5000000000002, 61.01957439166741
798, 60.96220805523131
798.5, 60.96220805523131
799, 60.904841718795204
799.5, 60.904841718795204
800.0000000000002, 60.790109045922996
800.5, 61.01957439166741
801.0000000000002, 61.01957439166741
801.5, 61.076940728103516
802, 61.076940728103516
802.5, 61.30640607384793
803, 61.30640607384793
803.5000000000002, 61.39245557850209
804, 61.220356569193775
804.5000000000002, 61.220356569193775
805, 60.99089122344936
805.5000000000002, 60.99089122344936
806, 60.904841718795204
806.5, 60.15907934512585
807.0000000000002, 60.15907934512585
807.5, 60.0730298404717
808.0000000000002, 60.0730298404717
808.5, 60.0730298404717
809.0000000000002, 60.0730298404717
809.5, 59.900930831163386
810, 59.900930831163386
810.5, 59.900930831163386
811, 59.872247662945334
811.5000000000002, 59.872247662945334
812, 59.78619815829118
812.5000000000002, 59.728831821855074
813, 59.728831821855074
813.5, 59.55673281254676
814, 59.55673281254676
814.5, 59.49936647611066
815.0000000000002, 59.47068330789261
815.5, 59.47068330789261
816.0000000000002, 59.47068330789261
816.5, 59.47068330789261
817.0000000000002, 59.47068330789261
817.5, 59.47068330789261
818, 59.55673281254676
818.5, 59.614099148982866
819, 59.614099148982866
819.5000000000002, 59.585415980764814
820, 59.585415980764814
820.5000000000002, 59.47068330789261
821, 59.32726746680235
821.5, 59.32726746680235
822, 59.26990113036624
822.5, 59.26990113036624
823.0000000000002, 59.18385162571209
823.5, 59.18385162571209
824.0000000000002, 59.4133169714565
824.5, 59.4133169714565
825.0000000000002, 59.4133169714565
825.5, 59.4133169714565
826, 59.4133169714565
826.5000000000002, 59.4133169714565
830.5, 59.442000139674555
831.0000000000002, 59.442000139674555
859.5000000000002, 59.872247662945334
860, 59.872247662945334
860.5, 59.900930831163386
861, 59.900930831163386
861.5, 59.900930831163386
862.0000000000002, 59.900930831163386
862.5, 59.872247662945334
863.0000000000002, 59.872247662945334
863.5, 59.872247662945334
864.0000000000002, 59.872247662945334
864.5, 59.872247662945334
865, 59.92961399938144
865.5000000000002, 60.015663504035594
866, 60.015663504035594
866.5000000000002, 60.044346672253646
867, 60.044346672253646
867.5000000000002, 59.98698033581754
868, 59.98698033581754
868.5, 59.98698033581754
869, 59.98698033581754
869.5, 59.98698033581754
870.0000000000002, 60.0730298404717
870.5, 60.0730298404717
871.0000000000002, 60.187762513343905
871.5, 60.30249518621611
872, 60.30249518621611
872.5, 60.331178354434165
873, 60.331178354434165
873.5000000000002, 60.35986152265222
874, 60.41722785908832
874.5000000000002, 60.41722785908832
875, 60.474594195524425
875.5000000000002, 60.474594195524425
876, 60.53196053196053
876.5, 60.53196053196053
877.0000000000002, 60.618010036614685
877.5, 60.67537637305079
878.0000000000002, 60.67537637305079
878.5, 60.790109045922996
879.0000000000002, 60.790109045922996
879.5, 60.87615855057715
880, 60.904841718795204
880.5, 60.904841718795204
881, 60.99089122344936
881.5000000000002, 60.99089122344936
882, 61.076940728103516
882.5000000000002, 61.076940728103516
883, 61.10562389632157
883.5000000000002, 61.076940728103516
884, 61.076940728103516
884.5, 61.13430706453962
885.0000000000002, 61.13430706453962
885.5, 61.19167340097572
886.0000000000002, 61.33508924206598
886.5, 61.33508924206598
887.0000000000002, 61.363772410284035
887.5, 61.363772410284035
888, 61.30640607384793
888.5000000000002, 61.30640607384793
889, 61.16299023275767
889.5000000000002, 61.076940728103516
890, 61.076940728103516
890.5000000000002, 61.30640607384793
891, 61.30640607384793
891.5, 61.39245557850209
892, 61.39245557850209
892.5, 61.39245557850209
893.0000000000002, 61.67928726068261
893.5, 61.67928726068261
894.0000000000002, 61.76533676533676
894.5, 61.937435774645074
895.0000000000002, 61.937435774645074
895.5, 62.02348527929923
896, 62.02348527929923
896.5000000000002, 62.109534783953386
897, 62.109534783953386
897.5000000000002, 62.224267456825594
898, 62.252950625043646
898.5000000000002, 62.252950625043646
899, 62.3390001296978
899.5, 62.3390001296978
900, 62.539782307224165
900.5, 62.683198148314425
901.0000000000002, 62.683198148314425
901.5, 62.88398032584079
902.0000000000002, 62.88398032584079
902.5, 63.02739616693105
903.0000000000002, 63.02739616693105
903.5, 63.113445671585204
904, 63.256861512675464
904.5000000000002, 63.256861512675464
905, 63.48632685841988
905.5000000000002, 63.48632685841988
906, 63.60105953129209
906.5000000000002, 63.8305248770365
907, 63.8305248770365
907.5, 63.88789121347261
908.0000000000002, 63.88789121347261
908.5, 63.97394071812676
909.0000000000002, 63.97394071812676
909.5, 64.17472289565313
910.0000000000002, 64.43287140961559
910.5, 64.43287140961559
911, 64.7197030917961
911.5, 64.7197030917961
912, 65.06390111041273
912.5000000000002, 65.40809912902935
913, 65.40809912902935
913.5000000000002, 65.63756447477377
914, 65.63756447477377
914.5000000000002, 65.86702982051818
915, 66.0391288298265
915.5, 66.0391288298265
916.0000000000002, 66.2112278391348
916.5, 66.2112278391348
917.0000000000002, 66.5841090259695
917.5, 66.5841090259695
918.0000000000002, 66.6988416988417
918.5, 66.87094070815002
919, 66.87094070815002
919.5000000000002, 67.01435654924026
920, 67.01435654924026
920.5000000000002, 67.07172288567637
921, 67.15777239033054
921.5000000000002, 67.15777239033054
922, 67.41592090429299
922.5000000000002, 67.41592090429299
923, 67.55933674538326
923.5, 67.55933674538326
924.0000000000002, 67.87485159578182
924.5, 68.04695060509013
925.0000000000002, 68.04695060509013
925.5, 68.33378228727065
926.0000000000002, 68.33378228727065
926.5, 68.62061396945117
927, 68.76402981054144
927.5000000000002, 68.76402981054144
928, 68.90744565163169
928.5000000000002, 68.90744565163169
929, 69.07954466094
929.5000000000002, 69.07954466094
930, 69.42374267955663
930.5, 69.65320802530104
931, 69.65320802530104
931.5, 69.91135653926352
932.0000000000002, 69.91135653926352
932.5, 70.05477238035377
933.0000000000002, 70.16950505322598
933.5, 70.16950505322598
934.0000000000002, 70.31292089431625
934.5, 70.31292089431625
935, 70.5137030718426
935.5000000000002, 70.5137030718426
936, 70.6284357447148
936.5000000000002, 70.88658425867729
937, 70.88658425867729
937.5000000000002, 71.14473277263974
938, 71.14473277263974
938.5, 71.46024762303833
939.0000000000002, 71.91917831452716
939.5, 71.91917831452716
940.0000000000002, 72.14864366027157
940.5, 72.14864366027157
941.0000000000002, 72.4354753424521
941.5, 72.72230702463261
942.0000000000002, 72.72230702463261
942.5, 72.83703969750482
943, 72.83703969750482
943.5000000000002, 73.06650504324924
944, 73.06650504324924
944.5000000000002, 73.23860405255755
945, 73.3820198936478
945.5000000000002, 73.3820198936478
946, 73.61148523939221
946.5, 73.61148523939221
947.0000000000002, 73.75490108048248
947.5, 74.041732762663
948.0000000000002, 74.041732762663
948.5, 74.24251494018935
949.0000000000002, 74.24251494018935
949.5, 74.44329711771573
950, 74.44329711771573
950.5, 74.84486147276846
951, 75.01696048207677
951.5000000000002, 75.01696048207677
952, 75.27510899603922
952.5000000000002, 75.27510899603922
953, 75.50457434178364
953.5000000000002, 75.67667335109195
954, 75.67667335109195
954.5, 75.76272285574612
955.0000000000002, 75.76272285574612
955.5, 76.02087136970857
956.0000000000002, 76.02087136970857
956.5, 76.4798020611974
957.0000000000002, 76.53716839763351
957.5, 76.53716839763351
958, 77.05346542555844
958.5000000000002, 77.05346542555844
959, 77.11083176199455
959.5000000000002, 77.19688126664872
960, 77.19688126664872
960.5000000000002, 77.48371294882924
961, 77.48371294882924
961.5000000000002, 77.71317829457365
962, 77.71317829457365
962.5, 78.08605948140831
963.0000000000002, 78.37289116358883
963.5, 78.37289116358883
964.0000000000002, 78.71708918220546
964.5, 78.71708918220546
965.0000000000002, 79.00392086438598
965.5, 79.14733670547623
966, 79.14733670547623
966.5000000000002, 79.52021789231091
967, 79.52021789231091
967.5000000000002, 79.72100006983727
968, 79.83573274270948
968.5000000000002, 79.83573274270948
969, 80.32334660241636
969.5, 80.32334660241636
970.0000000000002, 80.29466343419831
970.5, 80.29466343419831
971.0000000000002, 80.29466343419831
971.5, 80.8396436303413
972.0000000000002, 80.8396436303413
972.5, 81.01174263964961
973.0000000000002, 81.01174263964961
973.5, 81.21252481717598
974, 81.70013867688286
974.5000000000002, 81.70013867688286
975, 81.78618818153701
975.5000000000002, 81.78618818153701
976, 82.30248520946195
976.5000000000002, 82.30248520946195
977, 82.53195055520636
977.5, 82.58931689164247
978.0000000000002, 82.58931689164247
978.5, 82.96219807847714
979.0000000000002, 82.96219807847714
979.5, 83.16298025600351
980.0000000000002, 83.47849510640208
980.5, 83.47849510640208
981.0000000000002, 83.96610896610896
981.5, 83.96610896610896
982, 84.08084163898117
982.5000000000002, 84.08084163898117
983, 84.31030698472559
983.5000000000002, 84.68318817156026
984, 84.68318817156026
984.5000000000002, 84.91265351730468
985, 84.91265351730468
985.5, 85.11343569483104
986.0000000000002, 85.37158420879351
986.5, 85.37158420879351
987.0000000000002, 85.60104955453792
987.5, 85.60104955453792
988.0000000000002, 85.94524757315455
988.5, 85.94524757315455
989.0000000000002, 86.14602975068091
989.5000000000002, 86.34681192820727
990, 86.34681192820727
990.5000000000002, 86.89179212435026
991, 86.89179212435026
991.5000000000002, 86.97784162900442
992, 87.32203964762104
992.5000000000002, 87.32203964762104
993, 87.75228717089182
993.5, 87.75228717089182
994.0000000000002, 88.01043568485429
994.5, 88.26858419881675
995.0000000000002, 88.26858419881675
995.5, 88.55541588099727
996.0000000000002, 88.55541588099727
996.5, 88.64146538565143
997, 88.64146538565143
997.5000000000002, 88.87093073139584
998, 89.24381191823052
998.5000000000002, 89.24381191823052
999, 89.38722775932078
999.5000000000002, 89.38722775932078
1000, 89.64537627328325
1000.5000000000002, 89.87484161902766
1001.0000000000002, 89.87484161902766
1001.5, 90.21903963764429
1002.0000000000002, 90.21903963764429
1002.5, 90.3911386469526
1003.0000000000002, 90.3911386469526
1003.5, 90.56323765626091
1004.0000000000002, 91.05085151596779
1004.5, 91.05085151596779
1005, 91.19426735705805
1005.5000000000002, 91.19426735705805
1006, 91.45241587102052
1006.5000000000002, 92.08344557181766
1007, 92.08344557181766
1007.5000000000002, 92.16949507647182
1008, 92.16949507647182
1008.5000000000002, 92.5997425997426
1009.0000000000002, 92.5997425997426
1009.5, 93.05867329123143
1010.0000000000002, 93.17340596410364
1010.5, 93.17340596410364
1011.0000000000002, 93.71838616024662
1011.5, 93.71838616024662
1012.0000000000002, 93.94785150599104
1012.5, 94.1486336835174
1013, 94.1486336835174
1013.5000000000002, 94.46414853391597
1014, 94.46414853391597
1014.5000000000002, 94.55019803857013
1015, 94.63624754322429
1015.5000000000002, 94.63624754322429
1016, 95.06649506649507
1016.5, 95.06649506649507
1017.0000000000002, 95.18122773936727
1017.5, 95.18122773936727
1018.0000000000002, 95.35332674867558
1018.5, 95.86962377660052
1019.0000000000002, 95.86962377660052
1019.5, 96.04172278590883
1020.0000000000002, 96.04172278590883
1020.5000000000002, 96.4146039727435
1021, 96.70143565492403
1021.5000000000002, 96.70143565492403
1022, 96.9595841688865
1022.5000000000002, 96.9595841688865
1023, 96.90221783245039
1023.5000000000002, 96.90221783245039
1024, 96.90221783245039
1024.5, 97.04563367354065
1025.0000000000002, 97.04563367354065
1025.5, 97.16036634641286
1026.0000000000002, 97.16036634641286
1026.5, 97.36114852393922
1027.0000000000002, 97.76271287899195
1027.5, 97.76271287899195
1028.0000000000002, 97.82007921542805
1028.5000000000002, 97.82007921542805
1029, 97.90612872008221
1029.5000000000002, 97.90612872008221
1030, 97.96349505651831
1030.5000000000002, 98.07822772939052
1031, 98.07822772939052
1034.0000000000002, 99.25423762633065
1034.5, 99.25423762633065
1035.0000000000002, 99.25423762633065
1035.5, 99.25423762633065
1036, 99.2255544581126
1036.5000000000002, 99.2255544581126
1037, 99.2255544581126
1037.5000000000002, 99.31160396276675
1038, 99.31160396276675
1038.5000000000002, 99.45501980385701
1039, 99.42633663563896
1039.5000000000002, 99.42633663563896
1040.0000000000002, 99.45501980385701
1040.5, 99.45501980385701
1041.0000000000002, 99.65580198138338
1041.5, 99.74185148603753
1042.0000000000002, 99.74185148603753
1042.5, 99.74185148603753
1043.0000000000002, 99.74185148603753
1043.5, 99.71316831781948
1044, 99.71316831781948
1044.5000000000002, 99.68448514960143
1045, 99.62711881316532
1045.5000000000002, 99.62711881316532
1046, 99.48370297207506
1046.5000000000002, 99.48370297207506
1047, 99.45501980385701
1047.5000000000002, 99.45501980385701
1048.0000000000002, 99.45501980385701
1048.5, 99.62711881316532
1049.0000000000002, 99.62711881316532
1049.5, 99.62711881316532
1050.0000000000002, 99.62711881316532
1050.5, 99.62711881316532
1051.0000000000002, 99.2255544581126
1051.5000000000002, 99.2255544581126
1052, 99.42633663563896
1052.5000000000002, 99.42633663563896
1053, 99.1681881216765
1053.5000000000002, 99.13950495345844
1054, 99.13950495345844
1054.5000000000002, 99.11082178524039
1055, 99.11082178524039
1055.5, 99.11082178524039
1056.0000000000002, 99.11082178524039
1056.5, 99.48370297207506
1056.5, 98.10691089760857
1057.0000000000002, 97.90612872008221
1057.5, 97.90612872008221
1058.0000000000002, 97.90612872008221
1058.5, 97.90612872008221
1059.0000000000002, 97.90612872008221
1059.5000000000002, 97.79139604721
1060, 97.79139604721
1060.5000000000002, 97.50456436502948
1061, 97.50456436502948
1061.5000000000002, 97.24641585106701
1062, 97.24641585106701
1062.5000000000002, 96.98826733710455
1063.0000000000002, 96.90221783245039
1063.5, 96.90221783245039
1064.0000000000002, 96.81616832779623
1064.5, 96.81616832779623
1065.0000000000002, 96.61538615026987
1065.5, 96.44328714096156
1066.0000000000002, 96.44328714096156
1066.5, 96.12777229056299
1067.0000000000002, 96.12777229056299
1067.5000000000002, 95.61147526263805
1068, 95.32464358045753
1068.5000000000002, 95.32464358045753
1069, 95.29596041223948
1069.5000000000002, 95.29596041223948
1070, 95.26727724402143
1070.5000000000002, 95.26727724402143
1071.0000000000002, 95.15254457114922
1071.5, 94.9230792254048
1072.0000000000002, 94.9230792254048
1072.5, 94.77966338431455
1073.0000000000002, 94.77966338431455
1073.5, 94.32073269282571
1074.0000000000002, 94.0339010106452
1074.5, 94.0339010106452
1075, 93.97653467420909
1075.5000000000002, 93.97653467420909
1076, 93.63233665559247
1076.5000000000002, 93.63233665559247
1077, 93.74706932846468
1077.5000000000002, 93.71838616024662
1078, 93.71838616024662
1078.5000000000002, 93.3168218051939
1079.0000000000002, 93.3168218051939
1079.5, 93.00130695479533
1080.0000000000002, 92.48500992687039
1080.5, 92.48500992687039
1081.0000000000002, 91.79661388963714
1081.5, 91.79661388963714
1082.0000000000002, 91.42373270280247
1082.5000000000002, 91.42373270280247
1083, 90.99348517953169
1083.5000000000002, 90.87875250665948
1084, 90.87875250665948
1084.5000000000002, 90.87875250665948
1085, 90.87875250665948
1085.5000000000002, 90.3911386469526
1086, 90.07562379655403
1086.5000000000002, 90.07562379655403
1087.0000000000002, 89.81747528259156
1087.5, 89.81747528259156
1088.0000000000002, 89.35854459110273
1088.5, 89.35854459110273
1089.0000000000002, 89.15776241357636
1089.5, 88.78488122674169
1090.0000000000002, 88.78488122674169
1090.5000000000002, 88.52673271277922
1091, 88.52673271277922
1091.5000000000002, 88.35463370347091
1092, 87.80965350732792
1092.5000000000002, 87.80965350732792
1093, 87.5228218251474
1093.5000000000002, 87.5228218251474
1094, 87.26467331118494
1094.5, 86.71969311504195
1095.0000000000002, 86.71969311504195
1095.5, 86.43286143286143
1096.0000000000002, 86.43286143286143
1096.5, 86.14602975068091
1097.0000000000002, 86.14602975068091
1097.5, 85.80183173206429
1098.0000000000002, 85.51500004988377
1098.5000000000002, 85.51500004988377
1099, 85.3142178723574
1099.5000000000002, 85.3142178723574
1100, 85.22816836770325
1100.5000000000002, 84.97001985374078
1101, 84.97001985374078
1101.5000000000002, 84.5971386669061
1102.0000000000002, 84.5971386669061
1102.5, 84.25294064828948
1103.0000000000002, 84.25294064828948
1103.5, 83.90874262967286
1104.0000000000002, 83.44981193818403
1104.5, 83.44981193818403
1105.0000000000002, 83.19166342422156
1105.5, 83.19166342422156
1106.0000000000002, 82.90483174204104
1106.5000000000002, 82.70404956451468
1107, 82.70404956451468
1107.5000000000002, 82.47458421877026
1108, 82.47458421877026
1108.5000000000002, 81.92960402262727
1109, 81.92960402262727
1109.5000000000002, 81.52803966757455
1110.0000000000002, 81.09779214430377
1110.5, 81.09779214430377
1111.0000000000002, 80.58149511637883
1111.5, 80.58149511637883
1112.0000000000002, 80.46676244350662
1112.5, 80.26598026598026
1113.0000000000002, 80.26598026598026
1113.5000000000002, 80.0078317520178
1114, 80.0078317520178
1114.5000000000002, 79.89309907914559
1115, 79.89309907914559
1115.5000000000002, 79.43416838765675
1116, 78.83182185507766
1116.5000000000002, 78.83182185507766
1117, 78.5736733411152
1117.5000000000002, 78.5736733411152
1118.0000000000002, 78.22947532249857
1118.5, 77.82791096744586
1119.0000000000002, 77.82791096744586
1119.5, 77.68449512635559
1120.0000000000002, 77.68449512635559
1120.5, 77.51239611704727
1121.0000000000002, 77.28293077130286
1121.5000000000002, 77.28293077130286
1122, 76.73795057515989
1122.5000000000002, 76.73795057515989
1123, 76.50848522941547
1123.5000000000002, 76.50848522941547
1124, 76.02087136970857
1124.5000000000002, 76.04955453792664
1125, 76.04955453792664
1125.5000000000002, 75.73403968752805
1126.0000000000002, 75.73403968752805
1126.5, 75.38984166891143
1127.0000000000002, 74.81617830455039
1127.5, 74.81617830455039
1128.0000000000002, 74.52934662236987
1128.5, 74.52934662236987
1129.0000000000002, 74.041732762663
1129.5000000000002, 74.041732762663
1130, 73.75490108048248
1130.5000000000002, 73.5541189029561
1131, 73.5541189029561
1131.5000000000002, 73.4393862300839
1132, 73.4393862300839
1132.5000000000002, 73.26728722077559
1133.0000000000002, 73.00913870681313
1133.5, 73.00913870681313
1134.0000000000002, 72.63625751997844
1134.5, 72.63625751997844
1135.0000000000002, 72.40679217423403
1135.5, 72.40679217423403
1136.0000000000002, 72.09127732383547
1136.5, 71.89049514630909
1137.0000000000002, 71.89049514630909
1137.5000000000002, 71.83312880987299
1138, 71.83312880987299
1138.5000000000002, 71.48893079125637
1139, 71.20209910907585
1139.5000000000002, 71.20209910907585
1140, 70.94395059511339
1140.5000000000002, 70.94395059511339
1141.0000000000002, 70.5710694082787
1141.5, 70.39897039897039
1142.0000000000002, 70.39897039897039
1142.5, 69.88267337104546
1143.0000000000002, 69.88267337104546
1143.5, 69.5671585206469
1144.0000000000002, 69.5671585206469
1144.5000000000002, 69.39505951133859
1145.0000000000002, 69.1369109973761
1145.5000000000002, 69.1369109973761
1146, 68.93612881984976
1146.5000000000002, 68.93612881984976
1147, 68.73534664232338
1147.5000000000002, 68.47719812836093
1148, 68.47719812836093
1148.5000000000002, 68.39114862370675
1149.0000000000002, 68.39114862370675
1149.5, 68.21904961439844
1150.0000000000002, 68.21904961439844
1150.5, 67.84616842756378
1151.0000000000002, 67.5880199136013
1151.5, 67.5880199136013
1152.0000000000002, 67.30118823142078
1152.5000000000002, 67.30118823142078
1153, 67.12908922211247
1153.5000000000002, 67.04303971745833
1154, 67.04303971745833
1154.5000000000002, 66.89962387636805
1155, 66.89962387636805
1155.5000000000002, 66.6414753624056
1156.0000000000002, 66.6414753624056
1156.5000000000002, 66.41201001666118
1157, 66.35464368022508
1157.5, 66.35464368022508
1158.0000000000002, 66.29727734378898
1158.5000000000002, 66.29727734378898
1159, 66.18254467091677
1159.5, 65.78098031586404
1160.0000000000002, 65.78098031586404
1160.5000000000002, 65.35073279259325
1161.0000000000002, 65.35073279259325
1161.5, 65.0925842786308
1162, 65.0925842786308
1162.5000000000002, 64.94916843754052
1163.0000000000002, 64.77706942823221
1163.5, 64.77706942823221
1164, 64.57628725070586
1164.5000000000002, 64.57628725070586
1165.0000000000002, 64.43287140961559
1165.5000000000002, 64.26077240030727
1166, 64.26077240030727
1166.5, 64.03130705456286
1167.0000000000002, 64.03130705456286
1167.5000000000002, 63.94525754990871
1168.0000000000002, 63.74447537238235
1168.5, 63.74447537238235
1169, 63.572376363074035
1169.5000000000002, 63.572376363074035
1170.0000000000002, 63.428960521983775
1170.5, 63.428960521983775
1171, 63.31422784911157
1171.5000000000002, 63.08476250336715
1172.0000000000002, 63.08476250336715
1172.5000000000002, 62.683198148314425
1173, 62.683198148314425
1173.5, 62.51109913900611
1174.0000000000002, 62.45373280257001
1174.5000000000002, 62.45373280257001
1175, 62.45373280257001
1175.5, 62.45373280257001
1176.0000000000002, 62.31031696147975
1176.5000000000002, 62.31031696147975
1177.0000000000002, 62.13821795217144
1177.5, 61.937435774645074
1178, 61.937435774645074
1178.5000000000002, 61.822703101772866
1179.0000000000002, 61.822703101772866
1179.5000000000002, 61.70797042890066
1180, 61.67928726068261
1180.5, 61.67928726068261
1181.0000000000002, 61.59323775602845
1181.5000000000002, 61.59323775602845
1182, 61.363772410284035
1182.5, 61.363772410284035
1183.0000000000002, 61.220356569193775
1183.5000000000002, 61.13430706453962
1184.0000000000002, 61.13430706453962
1184.5, 61.01957439166741
1185, 61.01957439166741
1185.5000000000002, 60.87615855057715
1186.0000000000002, 60.81879221414105
1186.5, 60.81879221414105
1187, 60.58932686839663
1187.5000000000002, 60.58932686839663
1188.0000000000002, 60.58932686839663
1188.5000000000002, 60.58932686839663
1189, 60.56064370017858
1189.5, 60.474594195524425
1190.0000000000002, 60.474594195524425
1190.5000000000002, 60.474594195524425
1191.0000000000002, 60.474594195524425
1191.5, 60.50327736374248
1192, 60.38854469087027
1192.5000000000002, 60.38854469087027
1193.0000000000002, 60.41722785908832
1193.5, 60.41722785908832
1194, 60.44591102730637
1194.5000000000002, 60.30249518621611
1195.0000000000002, 60.30249518621611
1195.5000000000002, 60.187762513343905
1196, 60.187762513343905
1196.5, 60.044346672253646
1197.0000000000002, 60.044346672253646
1197.5000000000002, 59.92961399938144
1198, 59.872247662945334
1198.5, 59.872247662945334
1199.0000000000002, 59.70014865363702
1199.5000000000002, 59.70014865363702
1200.0000000000002, 59.614099148982866
1200.5, 59.52804964432871
1201, 59.52804964432871
1201.5000000000002, 59.585415980764814
1202.0000000000002, 59.585415980764814
1202.5, 59.614099148982866
1203, 59.614099148982866
1203.5000000000002, 59.585415980764814
1204.0000000000002, 59.55673281254676
1204.5000000000002, 59.55673281254676
1205, 59.614099148982866
1205.5, 59.614099148982866
1206.0000000000002, 59.64278231720092
1206.5000000000002, 59.585415980764814
1207.0000000000002, 59.585415980764814
1207.5, 59.49936647611066
1208, 59.49936647611066
1208.5000000000002, 59.55673281254676
1209.0000000000002, 59.55673281254676
1209.5, 59.614099148982866
1210, 59.67146548541897
1210.5000000000002, 59.67146548541897
1211.0000000000002, 59.55673281254676
1211.5000000000002, 59.55673281254676
1212, 59.47068330789261
1212.5, 59.26990113036624
1213.0000000000002, 59.26990113036624
1213.5000000000002, 59.12648528927598
1214, 59.12648528927598
1214.5, 59.04043578462183
1215.0000000000002, 59.04043578462183
1215.5000000000002, 59.06911895283988
1216.0000000000002, 59.298584298584295
1216.5, 59.298584298584295
1217, 59.442000139674555
1217.5000000000002, 59.442000139674555
1218.0000000000002, 59.442000139674555
1218.5000000000002, 59.38463380323845
1219, 59.38463380323845
1219.5, 59.24121796214819
1220.0000000000002, 59.24121796214819
1220.5000000000002, 59.18385162571209
1221, 59.155168457494035
1221.5, 59.155168457494035
1222.0000000000002, 59.21253479393014
1222.5000000000002, 59.21253479393014
1223.0000000000002, 59.24121796214819
1223.5, 59.24121796214819
1224, 59.21253479393014
1224.5000000000002, 59.155168457494035
1225.0000000000002, 59.155168457494035
1225.5, 59.12648528927598
1226, 59.12648528927598
1226.5000000000002, 59.18385162571209
1227.0000000000002, 59.09780212105793
1227.5000000000002, 59.09780212105793
1228, 59.06911895283988
1228.5, 59.06911895283988
1229.0000000000002, 59.155168457494035
1229.5000000000002, 59.155168457494035
1230.0000000000002, 59.12648528927598
1230.5, 59.12648528927598
1231, 59.12648528927598
1231.5000000000002, 59.155168457494035
1232.0000000000002, 59.155168457494035
1232.5, 59.06911895283988
1233, 59.06911895283988
1233.5000000000002, 59.06911895283988
1234.0000000000002, 58.696237766005204
1234.5000000000002, 58.696237766005204
1235, 58.696237766005204
1235.5, 58.696237766005204
1236.0000000000002, 58.92570311174962
1236.5000000000002, 59.09780212105793
1237, 59.09780212105793
1237.5, 59.21253479393014
1238.0000000000002, 59.21253479393014
1238.5000000000002, 59.06911895283988
1239.0000000000002, 59.155168457494035
1239.5, 59.155168457494035
1240, 59.21253479393014
1240.5000000000002, 59.21253479393014
1241.0000000000002, 59.21253479393014
1241.5000000000002, 59.21253479393014
1242, 59.21253479393014
1242.5000000000002, 59.18385162571209
1243.0000000000002, 59.18385162571209
1243.5000000000002, 59.155168457494035
1244, 59.155168457494035
1244.5, 59.155168457494035
1245.0000000000002, 59.155168457494035
1245.5000000000002, 59.155168457494035
1246.0000000000002, 59.155168457494035
1246.5, 59.155168457494035
1247, 59.21253479393014
1247.5000000000002, 59.32726746680235
1248.0000000000002, 59.32726746680235
1248.5, 59.38463380323845
1249, 59.38463380323845
1249.5000000000002, 59.32726746680235
1250.0000000000002, 59.32726746680235
1250.5000000000002, 59.4133169714565
1251, 59.4133169714565
1251.5, 59.4133169714565
1252.0000000000002, 59.4133169714565
1252.5000000000002, 59.4133169714565
1253, 59.298584298584295
1253.5, 59.06911895283988
1254.0000000000002, 59.06911895283988
1254.5000000000002, 59.04043578462183
1255.0000000000002, 59.04043578462183
1255.5, 59.06911895283988
1256, 59.06911895283988
1256.5000000000002, 59.12648528927598
1257.0000000000002, 59.18385162571209
1257.5000000000002, 59.18385162571209
1258, 59.18385162571209
1258.5, 59.18385162571209
1259.0000000000002, 59.06911895283988
1259.5000000000002, 59.011752616403776
1260, 59.011752616403776
1260.5, 58.983069448185724
1261.0000000000002, 58.983069448185724
1261.5000000000002, 59.12648528927598
1262.0000000000002, 59.12648528927598
1262.5, 59.21253479393014
1263, 59.298584298584295
1263.5000000000002, 59.298584298584295
1264.0000000000002, 59.21253479393014
1264.5, 59.21253479393014
1265, 59.12648528927598
1265.5000000000002, 59.06911895283988
1266.0000000000002, 59.06911895283988
1266.5000000000002, 59.09780212105793
1267, 59.09780212105793
1267.5, 59.09780212105793
1268.0000000000002, 59.12648528927598
1268.5000000000002, 59.12648528927598
1269.0000000000002, 58.95438627996767
1269.5, 58.95438627996767
1270, 58.92570311174962
1270.5000000000002, 58.92570311174962
1271.0000000000002, 58.89701994353157
1271.5, 59.09780212105793
1272, 59.09780212105793
1272.5000000000002, 59.09780212105793
1273.0000000000002, 59.09780212105793
1273.5000000000002, 59.155168457494035
1274, 59.18385162571209
1274.5, 59.18385162571209
1275.0000000000002, 59.47068330789261
1275.5000000000002, 59.47068330789261
1276, 59.38463380323845
1276.5, 59.38463380323845
1277.0000000000002, 59.298584298584295
1277.5000000000002, 59.3559506350204
1278.0000000000002, 59.3559506350204
1278.5, 59.298584298584295
1279, 59.298584298584295
1279.5000000000002, 59.24121796214819
1280.0000000000002, 59.24121796214819
1280.5000000000002, 59.24121796214819
1281, 59.4133169714565
1281.5000000000002, 59.4133169714565
1282.0000000000002, 59.64278231720092
1282.5000000000002, 59.64278231720092
1283, 59.728831821855074
1283.5, 59.757514990073126
1284.0000000000002, 59.757514990073126
1284.5000000000002, 59.64278231720092
1285.0000000000002, 59.64278231720092
1285.5, 59.614099148982866
1286, 59.614099148982866
1286.5000000000002, 59.614099148982866
1287.0000000000002, 59.64278231720092
1287.5, 59.64278231720092
1288, 59.84356449472728
1288.5000000000002, 59.84356449472728
1295.5000000000002, 59.92961399938144
1296.0000000000002, 59.92961399938144
1296.5000000000002, 59.900930831163386
1297, 59.900930831163386
1297.5, 59.900930831163386
1298.0000000000002, 59.872247662945334
1298.5000000000002, 59.872247662945334
1299, 59.900930831163386
1299.5, 59.900930831163386
1300.0000000000002, 59.900930831163386
1300.5000000000002, 59.84356449472728
1301.0000000000002, 59.84356449472728
1301.5, 59.78619815829118
1302, 59.78619815829118
1302.5000000000002, 59.757514990073126
1303.0000000000002, 59.757514990073126
1303.5000000000002, 59.70014865363702
1304, 59.70014865363702
1304.5, 59.70014865363702
1305, 59.70014865363702
1305.5000000000002, 59.70014865363702
1306, 59.442000139674555
1306.5, 59.4133169714565
1307, 59.4133169714565
1307.5000000000002, 59.3559506350204
1308.0000000000002, 59.3559506350204
1308.5, 59.26990113036624
1309, 59.26990113036624
1309.5, 59.155168457494035
1310.0000000000002, 59.011752616403776
1310.5, 59.011752616403776
1311, 59.155168457494035
1311.5, 59.155168457494035
1312.0000000000002, 59.26990113036624
1312.5000000000002, 59.21253479393014
1313, 59.21253479393014
1313.5, 59.18385162571209
1314, 59.18385162571209
1314.5000000000002, 59.155168457494035
1315, 59.155168457494035
1315.5, 59.04043578462183
1316, 59.011752616403776
1316.5, 59.011752616403776
1317.0000000000002, 59.32726746680235
1317.5, 59.32726746680235
1318, 59.32726746680235
1318.5, 59.32726746680235
1319.0000000000002, 59.32726746680235
1319.5000000000002, 59.32726746680235
1320, 59.32726746680235
1320.5, 59.3559506350204
1321, 59.4133169714565
1321.5000000000002, 59.4133169714565
1322, 59.18385162571209
1322.5, 59.18385162571209
1323, 59.12648528927598
1323.5000000000002, 59.12648528927598
1324.0000000000002, 59.18385162571209
1324.5, 59.298584298584295
1325, 59.298584298584295
1325.5, 59.3559506350204
1326.0000000000002, 59.3559506350204
1326.5, 59.55673281254676
1327, 59.49936647611066
1327.5, 59.49936647611066
1328, 59.442000139674555
1328.5000000000002, 59.442000139674555
1329, 59.4133169714565
1329.5, 59.4133169714565
1330, 59.4133169714565
1330.5000000000002, 59.47068330789261
1331.0000000000002, 59.47068330789261
1331.5, 59.55673281254676
1332, 59.55673281254676
1332.5, 59.585415980764814
1333.0000000000002, 59.55673281254676
1333.5, 59.55673281254676
1334, 59.55673281254676
1334.5, 59.55673281254676
1335.0000000000002, 59.55673281254676
1335.5000000000002, 59.55673281254676
1336, 59.47068330789261
1336.5, 59.442000139674555
1337, 59.442000139674555
1337.5000000000002, 59.49936647611066
1338, 59.49936647611066
1338.5, 59.52804964432871
1339, 59.614099148982866
1339.5000000000002, 59.614099148982866
1340.0000000000002, 59.67146548541897
1340.5, 59.67146548541897
1341, 59.64278231720092
1341.5, 59.64278231720092
1342.0000000000002, 59.55673281254676
1342.5000000000002, 59.298584298584295
1343, 59.298584298584295
1343.5, 59.24121796214819
1344, 59.24121796214819
1344.5000000000002, 59.24121796214819
1345, 59.155168457494035
1345.5, 59.155168457494035
1346, 59.298584298584295
1346.5000000000002, 59.298584298584295
1347.0000000000002, 59.26990113036624
1347.5, 59.21253479393014
1348, 59.21253479393014
1348.5, 59.155168457494035
1349.0000000000002, 59.155168457494035
1349.5, 59.155168457494035
1350, 59.155168457494035
1350.5, 59.21253479393014
1351.0000000000002, 59.26990113036624
1351.5000000000002, 59.26990113036624
1352, 59.21253479393014
1352.5, 59.21253479393014
1353, 59.155168457494035
1353.5000000000002, 59.04043578462183
1354.0000000000002, 59.04043578462183
1354.5, 59.09780212105793
1355, 59.09780212105793
1355.5, 59.26990113036624
1356.0000000000002, 59.26990113036624
1356.5, 59.442000139674555
1357, 59.38463380323845
1357.5, 59.38463380323845
1358.0000000000002, 59.24121796214819
1358.5000000000002, 59.24121796214819
1359, 59.21253479393014
1359.5, 59.21253479393014
1360, 59.21253479393014
1360.5000000000002, 59.24121796214819
1361, 59.24121796214819
1361.5, 59.4133169714565
1362, 59.4133169714565
1362.5000000000002, 59.55673281254676
1363.0000000000002, 59.614099148982866
1363.5, 59.614099148982866
1364, 59.47068330789261
1364.5, 59.47068330789261
1365.0000000000002, 59.3559506350204
1365.5, 59.04043578462183
1366, 59.04043578462183
1366.5, 59.09780212105793
1367, 59.09780212105793
1367.5000000000002, 59.4133169714565
1368, 59.26990113036624
1368.5, 59.26990113036624
1369, 59.12648528927598
1369.5000000000002, 59.12648528927598
1370.0000000000002, 59.06911895283988
1370.5, 59.06911895283988
1371, 59.155168457494035
1371.5, 59.21253479393014
1372.0000000000002, 59.21253479393014
1372.5, 59.298584298584295
1373, 59.298584298584295
1373.5, 59.26990113036624
1374.0000000000002, 59.24121796214819
1374.5000000000002, 59.24121796214819
1375, 59.298584298584295
1375.5, 59.298584298584295
1376, 59.38463380323845
1376.5000000000002, 59.38463380323845
1377, 59.442000139674555
1377.5, 59.4133169714565
1378, 59.4133169714565
1378.5000000000002, 59.4133169714565
1379.0000000000002, 59.4133169714565
1379.5, 59.52804964432871
1380, 59.55673281254676
1380.5, 59.55673281254676
1381.0000000000002, 59.55673281254676
1381.5000000000002, 59.55673281254676
1382, 59.49936647611066
1382.5, 59.49936647611066
1383, 59.47068330789261
1383.5000000000002, 59.3559506350204
1384, 59.3559506350204
1384.5, 59.4133169714565
1385, 59.4133169714565
1385.5000000000002, 59.47068330789261
1386.0000000000002, 59.55673281254676
1386.5, 59.55673281254676
1387, 59.614099148982866
1387.5, 59.614099148982866
1388.0000000000002, 59.52804964432871
1388.5, 59.52804964432871
1389, 59.4133169714565
1389.5, 59.38463380323845
1390.0000000000002, 59.38463380323845
1390.5000000000002, 59.4133169714565
1391, 59.4133169714565
1391.5, 59.24121796214819
1392, 59.21253479393014
1392.5000000000002, 59.21253479393014
1393.0000000000002, 59.155168457494035
1393.5, 59.155168457494035
1394, 59.24121796214819
1394.5, 59.26990113036624
1395.0000000000002, 59.26990113036624
1395.5, 59.4133169714565
1396, 59.4133169714565
1396.5, 60.0730298404717
1396.5, 58.15125756986222
1397.0000000000002, 60.0730298404717
1397.0000000000002, 58.15125756986222
1397.5000000000002, 60.0730298404717
1397.5000000000002, 58.15125756986222
1034.601043997017, 98.54854854854854
1033.109619686801, 98.84884884884885
1055.4809843400446, 98.64864864864865
1055.4809843400446, 98.64864864864865
1055.4809843400446, 98.44844844844845
842.2073079791201, 59.409409409409406
849.6644295302015, 59.609609609609606
854.1387024608503, 59.709709709709706
836.2416107382551, 59.3093093093093
845.1901565995527, 59.509509509509506
