300, 19.887911166980928
300.5, 19.94527750341703
301, 19.94527750341703
301.5, 19.973960671635083
302, 19.973960671635083
302.5, 19.973960671635083
303, 19.973960671635083
303.5, 19.973960671635083
304, 20.031327008071187
304.5, 20.031327008071187
305, 20.06001017628924
305.5, 20.06001017628924
306, 20.117376512725343
306.5, 20.117376512725343
307, 20.117376512725343
307.5, 20.146059680943395
308, 20.146059680943395
308.5, 20.2034260173795
309, 20.2034260173795
309.5, 20.289475522033655
310, 20.34684185846976
310.5, 20.34684185846976
311, 20.37552502668781
311.5, 20.37552502668781
312, 20.432891363123915
312.5, 20.432891363123915
313, 20.432891363123915
313.5, 20.49025769956002
314, 20.49025769956002
314.5, 20.51894086777807
315, 20.547624035996122
315.5, 20.547624035996122
316, 20.604990372432226
316.5, 20.604990372432226
317, 20.66235670886833
317.5, 20.66235670886833
318, 20.777089381740538
318.5, 20.777089381740538
319, 20.777089381740538
319.5, 20.834455718176642
320, 20.834455718176642
320.5, 20.891822054612746
321, 20.891822054612746
321.5, 20.891822054612746
322, 20.94918839104885
322.5, 20.94918839104885
323, 21.006554727484954
323.5, 21.006554727484954
324, 21.006554727484954
324.5, 21.09260423213911
325, 21.09260423213911
325.5, 21.12128740035716
326, 21.12128740035716
326.5, 21.178653736793265
327, 21.207336905011317
327.5, 21.207336905011317
328, 21.322069577883525
328.5, 21.322069577883525
329, 21.37943591431963
329.5, 21.37943591431963
330, 21.40811908253768
330.5, 21.436802250755733
331, 21.436802250755733
331.5, 21.465485418973785
332, 21.465485418973785
332.5, 21.494168587191837
333, 21.52285175540989
333.5, 21.52285175540989
334, 21.608901260064044
334.5, 21.608901260064044
335, 21.66626759650015
335.5, 21.6949507647182
336, 21.6949507647182
336.5, 21.781000269372356
337, 21.781000269372356
337.5, 21.83836660580846
338, 21.83836660580846
338.5, 21.953099278680668
339, 21.98178244689872
339.5, 21.98178244689872
340, 22.01046561511677
340.5, 22.01046561511677
341, 22.096515119770928
341.5, 22.182564624425083
342, 22.182564624425083
342.5, 22.239930960861187
343, 22.239930960861187
343.5, 22.239930960861187
344, 22.239930960861187
344.5, 22.239930960861187
345, 22.26861412907924
345.5, 22.26861412907924
346, 22.4120299701695
346.5, 22.4120299701695
347, 22.44071313838755
347.5, 22.526762643041707
348, 22.526762643041707
348.5, 22.58412897947781
349, 22.58412897947781
349.5, 22.612812147695863
350, 22.612812147695863
350.5, 22.72754482056807
351, 22.756227988786122
351.5, 22.756227988786122
352, 22.813594325222226
352.5, 22.813594325222226
353, 22.957010166312486
353.5, 22.985693334530538
354, 22.985693334530538
354.5, 23.01437650274859
355, 23.01437650274859
355.5, 23.04305967096664
356, 23.04305967096664
356.5, 23.100426007402746
357, 23.15779234383885
357.5, 23.15779234383885
358, 23.215158680274953
358.5, 23.215158680274953
359, 23.30120818492911
359.5, 23.358574521365213
360, 23.358574521365213
360.5, 23.387257689583265
361, 23.387257689583265
361.5, 23.415940857801317
362, 23.501990362455473
362.5, 23.501990362455473
363, 23.530673530673525
363.5, 23.530673530673525
364, 23.559356698891577
364.5, 23.559356698891577
365, 23.645406203545733
365.5, 23.73145570819989
366, 23.73145570819989
366.5, 23.846188381072096
367, 23.846188381072096
367.5, 23.9035547175082
368, 23.932237885726252
368.5, 23.932237885726252
369, 24.04697055859846
369.5, 24.04697055859846
370, 24.133020063252616
370.5, 24.133020063252616
371, 24.247752736124824
371.5, 24.33380224077898
372, 24.33380224077898
372.5, 24.391168577215083
373, 24.391168577215083
373.5, 24.47721808186924
374, 24.534584418305343
374.5, 24.534584418305343
375, 24.591950754741447
375.5, 24.591950754741447
376, 24.6206339229595
376.5, 24.6206339229595
377, 24.678000259395603
377.5, 24.76404976404976
378, 24.76404976404976
378.5, 24.878782436921966
379, 24.878782436921966
379.5, 24.93614877335807
380, 25.050881446230278
380.5, 25.050881446230278
381, 25.136930950884434
381.5, 25.136930950884434
382, 25.194297287320538
382.5, 25.194297287320538
383, 25.22298045553859
383.5, 25.280346791974694
384, 25.280346791974694
384.5, 25.423762633064953
385, 25.423762633064953
385.5, 25.53849530593716
386, 25.65322797880937
386.5, 25.65322797880937
387, 25.710594315245473
387.5, 25.710594315245473
388, 25.79664381989963
388.5, 25.854010156335733
389, 25.854010156335733
389.5, 25.96874282920794
390, 25.96874282920794
390.5, 26.054792333862096
391, 26.054792333862096
391.5, 26.140841838516252
392, 26.226891343170408
392.5, 26.226891343170408
393, 26.341624016042616
393.5, 26.341624016042616
394, 26.42767352069677
394.5, 26.456356688914823
395, 26.456356688914823
395.5, 26.456356688914823
396, 26.456356688914823
396.5, 26.57108936178703
397, 26.57108936178703
397.5, 26.71450520287729
398, 26.886604212185603
398.5, 26.886604212185603
399, 27.030020053275862
399.5, 27.030020053275862
400, 27.116069557930018
400.5, 27.173435894366122
401, 27.173435894366122
401.5, 27.259485399020278
402, 27.259485399020278
402.5, 27.374218071892486
403, 27.374218071892486
403.5, 27.46026757654664
404, 27.57500024941885
404.5, 27.57500024941885
405, 27.6036834176369
405.5, 27.6036834176369
406, 27.804465595163265
406.5, 27.89051509981742
407, 27.89051509981742
407.5, 27.947881436253525
408, 27.947881436253525
408.5, 27.976564604471577
409, 27.976564604471577
409.5, 28.03393094090768
410, 28.17734678199794
410.5, 28.17734678199794
411, 28.349445791306252
411.5, 28.349445791306252
412, 28.406812127742356
412.5, 28.49286163239651
413, 28.49286163239651
413.5, 28.521544800614564
414, 28.521544800614564
414.5, 28.664960641704823
415, 28.89442598744924
415.5, 28.89442598744924
416, 29.0378418285395
416.5, 29.0378418285395
417, 29.095208164975602
417.5, 29.095208164975602
418, 29.18125766962976
418.5, 29.324673510720018
419, 29.324673510720018
419.5, 29.468089351810278
420, 29.468089351810278
420.5, 29.52545568824638
421, 29.554138856464434
421.5, 29.554138856464434
422, 29.66887152933664
422.5, 29.66887152933664
423, 29.754921033990797
423.5, 29.754921033990797
424, 29.898336875081057
424.5, 30.041752716171317
425, 30.041752716171317
425.5, 30.127802220825473
426, 30.127802220825473
426.5, 30.24253489369768
427, 30.328584398351836
427.5, 30.328584398351836
428, 30.443317071224044
428.5, 30.443317071224044
429, 30.67278241696846
429.5, 30.67278241696846
430, 30.873564594494823
430.5, 31.016980435585083
431, 31.016980435585083
431.5, 31.160396276675343
432, 31.160396276675343
432.5, 31.27512894954755
433, 31.41854479063781
433.5, 31.41854479063781
434, 31.590643799946122
434.5, 31.590643799946122
435, 31.619326968164174
435.5, 31.648010136382226
436, 31.648010136382226
436.5, 31.791425977472485
437, 31.791425977472485
437.5, 31.906158650344693
438, 31.906158650344693
438.5, 32.0208913232169
439, 32.10694082787106
439.5, 32.10694082787106
440, 32.25035666896132
440.5, 32.25035666896132
441, 32.45113884648768
441.5, 32.537188351141836
442, 32.537188351141836
442.5, 32.62323785579599
443, 32.62323785579599
443.5, 32.70928736045015
444, 32.70928736045015
444.5, 32.824020033322356
445, 33.02480221084872
445.5, 33.02480221084872
446, 33.13953488372093
446.5, 33.13953488372093
447, 33.22558438837508
447.5, 33.36900022946534
448, 33.36900022946534
448.5, 33.4550497341195
449, 33.4550497341195
449.5, 33.65583191164586
450, 33.65583191164586
450.5, 33.827930920954174
451, 33.91398042560833
451.5, 33.91398042560833
452, 33.97134676204443
452.5, 33.97134676204443
453, 33.97134676204443
453.5, 34.000029930262485
454, 34.000029930262485
454.5, 34.1721289395708
455, 34.1721289395708
455.5, 34.286861612443005
456, 34.286861612443005
456.5, 34.430277453533265
457, 34.51632695818742
457.5, 34.51632695818742
458, 34.573693294623524
458.5, 34.573693294623524
459, 34.68842596749573
459.5, 34.80315864036794
460, 34.80315864036794
460.5, 34.889208145022096
461, 34.889208145022096
461.5, 35.08999032254846
462, 35.29077250007482
462.5, 35.29077250007482
463, 35.40550517294703
463.5, 35.40550517294703
464, 35.54892101403729
464.5, 35.54892101403729
465, 35.634970518691446
465.5, 35.69233685512755
466, 35.69233685512755
466.5, 35.749703191563654
467, 35.749703191563654
467.5, 35.83575269621781
468, 36.03653487374417
468.5, 36.03653487374417
469, 36.15126754661638
469.5, 36.15126754661638
470, 36.208633883052485
470.5, 36.208633883052485
471, 36.29468338770664
471.5, 36.3807328923608
472, 36.3807328923608
472.5, 36.46678239701495
473, 36.46678239701495
473.5, 36.55283190166911
474, 36.667564574541316
474.5, 36.667564574541316
475, 36.83966358384963
475.5, 36.83966358384963
476, 37.069128929594044
476.5, 37.069128929594044
477, 37.1551784342482
477.5, 37.29859427533846
478, 37.29859427533846
478.5, 37.41332694821067
479, 37.41332694821067
479.5, 37.55674278930093
480, 37.61410912573703
480.5, 37.61410912573703
481, 37.671475462173134
481.5, 37.671475462173134
482, 37.700158630391186
482.5, 37.700158630391186
483, 37.75752496682729
483.5, 37.814891303263394
484, 37.814891303263394
484.5, 37.9296239761356
485, 37.9296239761356
485.5, 38.07303981722586
486, 38.130406153661966
486.5, 38.130406153661966
487, 38.101722985443914
487.5, 38.101722985443914
488, 38.130406153661966
488.5, 38.15908932188002
489, 38.15908932188002
489.5, 38.35987149940638
490, 38.35987149940638
490.5, 38.417237835842485
491, 38.417237835842485
491.5, 38.50328734049664
492, 38.5893368451508
492.5, 38.5893368451508
493, 38.6467031815869
493.5, 38.6467031815869
494, 38.73275268624106
494.5, 38.704069518023005
495, 38.704069518023005
495.5, 38.847485359113264
496, 38.847485359113264
496.5, 38.79011902267716
497, 38.79011902267716
497.5, 38.704069518023005
498, 38.560653676932745
498.5, 38.560653676932745
499, 38.50328734049664
499.5, 38.50328734049664
500, 38.47460417227859
500.5, 38.50328734049664
501, 38.50328734049664
501.5, 38.44592100406054
502, 38.44592100406054
502.5, 38.33118833118833
503, 38.33118833118833
503.5, 38.21645565831612
504, 38.15908932188002
504.5, 38.15908932188002
505, 38.15908932188002
505.5, 38.15908932188002
506, 37.958307144353654
506.5, 37.90094080791755
507, 37.90094080791755
507.5, 37.90094080791755
508, 37.90094080791755
508.5, 37.814891303263394
509, 37.814891303263394
509.5, 37.671475462173134
510, 37.29859427533846
510.5, 37.29859427533846
511, 37.1551784342482
511.5, 37.1551784342482
512, 36.954396256721836
512.5, 36.810980415631576
513, 36.810980415631576
513.5, 36.69624774275937
514, 36.69624774275937
514.5, 36.495465565233005
515, 36.23731705127054
515.5, 36.23731705127054
516, 36.065218041962225
516.5, 36.065218041962225
517, 35.80706952799976
517.5, 35.80706952799976
518, 35.57760418225534
518.5, 35.462871509383135
519, 35.462871509383135
519.5, 35.319455668292875
520, 35.319455668292875
520.5, 35.20472299542067
521, 35.032623986112355
521.5, 35.032623986112355
522, 34.80315864036794
522.5, 34.80315864036794
523, 34.65974279927768
523.5, 34.65974279927768
524, 34.48764378996937
524.5, 34.31554478066106
525, 34.31554478066106
525.5, 34.20081210778885
526, 34.20081210778885
526.5, 33.97134676204443
527, 33.827930920954174
527.5, 33.827930920954174
528, 33.77056458451807
528.5, 33.77056458451807
529, 33.684515079863914
529.5, 33.684515079863914
530, 33.59846557520976
530.5, 33.541099238773654
531, 33.541099238773654
531.5, 33.426366565901446
532, 33.426366565901446
532.5, 33.34031706124729
533, 33.16821805193898
533.5, 33.16821805193898
534, 33.02480221084872
534.5, 33.02480221084872
535, 32.91006953797651
535.5, 32.91006953797651
536, 32.824020033322356
536.5, 32.7379705286682
537, 32.7379705286682
537.5, 32.62323785579599
538, 32.62323785579599
538.5, 32.45113884648768
539, 32.365089341833524
539.5, 32.365089341833524
540, 32.33640617361547
540.5, 32.33640617361547
541, 32.365089341833524
541.5, 32.365089341833524
542, 32.365089341833524
542.5, 32.42245567826963
543, 32.42245567826963
543.5, 32.42245567826963
544, 32.42245567826963
544.5, 32.47982201470573
545, 32.59455468757794
545.5, 32.59455468757794
546, 32.59455468757794
546.5, 32.59455468757794
547, 32.45113884648768
547.5, 32.45113884648768
548, 32.45113884648768
548.5, 32.47982201470573
549, 32.47982201470573
549.5, 32.508505182923784
550, 32.508505182923784
550.5, 32.56587151935989
551, 32.59455468757794
551.5, 32.59455468757794
552, 32.651921024014044
552.5, 32.651921024014044
553, 32.680604192232096
553.5, 32.824020033322356
554, 32.824020033322356
554.5, 32.967435874412615
555, 32.967435874412615
555.5, 33.02480221084872
556, 33.02480221084872
556.5, 33.13953488372093
557, 33.28295072481119
557.5, 33.28295072481119
558, 33.36900022946534
558.5, 33.36900022946534
559, 33.62714874342781
559.5, 33.77056458451807
560, 33.77056458451807
560.5, 33.91398042560833
561, 33.91398042560833
561.5, 34.08607943491664
562, 34.143445771352745
562.5, 34.143445771352745
563, 34.20081210778885
563.5, 34.20081210778885
564, 34.143445771352745
564.5, 34.143445771352745
565, 34.143445771352745
565.5, 34.31554478066106
566, 34.31554478066106
566.5, 34.51632695818742
567, 34.51632695818742
567.5, 34.65974279927768
568, 34.889208145022096
568.5, 34.889208145022096
569, 34.9465744814582
569.5, 34.9465744814582
570, 34.97525764967625
570.5, 34.97525764967625
571, 34.97525764967625
571.5, 35.032623986112355
572, 35.032623986112355
572.5, 35.06130715433041
573, 35.06130715433041
573.5, 35.032623986112355
574, 35.032623986112355
574.5, 35.032623986112355
575, 35.0039408178943
575.5, 35.0039408178943
576, 35.0039408178943
576.5, 35.0039408178943
577, 34.97525764967625
577.5, 34.83184180858599
578, 34.83184180858599
578.5, 34.745792303931836
579, 34.745792303931836
579.5, 34.68842596749573
580, 34.54501012640547
580.5, 34.54501012640547
581, 34.51632695818742
581.5, 34.51632695818742
582, 34.48764378996937
582.5, 34.48764378996937
583, 34.45896062175132
583.5, 34.34422794887911
584, 34.34422794887911
584.5, 34.05739626669859
585, 34.05739626669859
585.5, 33.91398042560833
586, 33.77056458451807
586.5, 33.77056458451807
587, 33.62714874342781
587.5, 33.62714874342781
588, 33.5124160705556
588.5, 33.36900022946534
589, 33.36900022946534
589.5, 33.22558438837508
590, 33.22558438837508
590.5, 33.110851715502875
591, 33.110851715502875
591.5, 32.795336865104304
592, 32.651921024014044
592.5, 32.651921024014044
593, 32.537188351141836
593.5, 32.537188351141836
594, 32.33640617361547
594.5, 32.221673500743265
595, 32.221673500743265
595.5, 31.963524986780797
596, 31.963524986780797
596.5, 31.762742809254433
597, 31.762742809254433
597.5, 31.70537647281833
598, 31.533277463510018
598.5, 31.533277463510018
599, 31.361178454201706
599.5, 31.361178454201706
600, 31.303812117765602
600.5, 31.074346772021187
601, 31.074346772021187
601.5, 30.902247762712875
602, 30.902247762712875
602.5, 30.758831921622615
603, 30.758831921622615
603.5, 30.70146558518651
604, 30.615416080532356
604.5, 30.615416080532356
605, 30.414633903005992
605.5, 30.414633903005992
606, 30.24253489369768
606.5, 30.156485389043524
607, 30.156485389043524
607.5, 30.07043588438937
608, 30.07043588438937
608.5, 29.840970538644953
609, 29.840970538644953
609.5, 29.726237865772745
610, 29.611505192900538
610.5, 29.611505192900538
611, 29.52545568824638
611.5, 29.52545568824638
612, 29.439406183592226
612.5, 29.324673510720018
613, 29.324673510720018
613.5, 29.238624006065862
614, 29.238624006065862
614.5, 29.152574501411706
615, 29.095208164975602
615.5, 29.095208164975602
616, 29.06652499675755
616.5, 29.06652499675755
617, 28.865742819231187
617.5, 28.865742819231187
618, 28.664960641704823
618.5, 28.521544800614564
619, 28.521544800614564
619.5, 28.521544800614564
620, 28.521544800614564
620.5, 28.521544800614564
621, 28.435495295960408
621.5, 28.435495295960408
622, 28.3207626230882
622.5, 28.3207626230882
623, 28.263396286652096
623.5, 28.263396286652096
624, 28.119980445561836
624.5, 28.00524777268963
625, 28.00524777268963
625.5, 27.86183193159937
626, 27.86183193159937
626.5, 27.74709925872716
627, 27.74709925872716
627.5, 27.74709925872716
628, 27.71841609050911
628.5, 27.71841609050911
629, 27.632366585854953
629.5, 27.632366585854953
630, 27.546317081200797
630.5, 27.374218071892486
631, 27.374218071892486
631.5, 27.28816856723833
632, 27.28816856723833
632.5, 27.14475272614807
633, 27.030020053275862
633.5, 27.030020053275862
634, 26.943970548621706
634.5, 26.943970548621706
635, 26.85792104396755
635.5, 26.85792104396755
636, 26.71450520287729
636.5, 26.628455698223135
637, 26.628455698223135
637.5, 26.485039857132875
638, 26.485039857132875
638.5, 26.39899035247872
639, 26.312940847824564
639.5, 26.312940847824564
640, 26.169525006734304
640.5, 26.169525006734304
641, 26.169525006734304
641.5, 26.169525006734304
642, 26.169525006734304
642.5, 26.054792333862096
643, 26.054792333862096
643.5, 25.94005966098989
644, 25.94005966098989
644.5, 25.82532698811768
645, 25.82532698811768
645.5, 25.82532698811768
646, 25.767960651681577
646.5, 25.767960651681577
647, 25.65322797880937
647.5, 25.452445801283005
648, 25.452445801283005
648.5, 25.3950794648469
649, 25.3950794648469
649.5, 25.280346791974694
650, 25.280346791974694
650.5, 25.194297287320538
651, 25.136930950884434
651.5, 25.136930950884434
652, 25.25166362375664
652.5, 25.25166362375664
653, 25.280346791974694
653.5, 25.25166362375664
654, 25.25166362375664
654.5, 25.07956461444833
655, 25.07956461444833
655.5, 24.93614877335807
656, 24.93614877335807
656.5, 24.878782436921966
657, 24.878782436921966
657.5, 24.878782436921966
658, 24.878782436921966
658.5, 24.878782436921966
659, 24.878782436921966
659.5, 24.878782436921966
660, 24.878782436921966
660.5, 24.850099268703914
661, 24.850099268703914
661.5, 24.850099268703914
662, 24.850099268703914
662.5, 24.90746560514002
663, 24.93614877335807
663.5, 24.93614877335807
664, 24.878782436921966
664.5, 24.878782436921966
665, 24.79273293226781
665.5, 24.706683427613655
666, 24.706683427613655
666.5, 24.706683427613655
667, 24.706683427613655
667.5, 24.76404976404976
668, 24.678000259395603
668.5, 24.678000259395603
669, 24.6206339229595
669.5, 24.6206339229595
670, 24.6206339229595
670.5, 24.6206339229595
671, 24.6206339229595
671.5, 24.591950754741447
672, 24.591950754741447
672.5, 24.591950754741447
673, 24.591950754741447
673.5, 24.591950754741447
674, 24.6206339229595
674.5, 24.6206339229595
675, 24.706683427613655
675.5, 24.706683427613655
676, 24.850099268703914
676.5, 24.850099268703914
677, 24.964831941576122
677.5, 24.964831941576122
678, 24.964831941576122
678.5, 24.964831941576122
679, 24.964831941576122
679.5, 25.050881446230278
680, 25.108247782666382
680.5, 25.108247782666382
681, 25.108247782666382
681.5, 25.108247782666382
682, 25.108247782666382
682.5, 25.108247782666382
683, 25.108247782666382
683.5, 25.07956461444833
684, 25.07956461444833
684.5, 25.108247782666382
685, 25.108247782666382
685.5, 25.136930950884434
686, 25.194297287320538
686.5, 25.194297287320538
687, 25.194297287320538
687.5, 25.194297287320538
688, 25.194297287320538
688.5, 25.136930950884434
689, 25.136930950884434
689.5, 25.22298045553859
690, 25.22298045553859
690.5, 25.423762633064953
691, 25.423762633064953
691.5, 25.309029960192746
692, 25.309029960192746
692.5, 25.309029960192746
693, 25.3950794648469
693.5, 25.3950794648469
694, 25.423762633064953
694.5, 25.50981213771911
695, 25.50981213771911
695.5, 25.65322797880937
696, 25.65322797880937
696.5, 25.624544810591317
697, 25.624544810591317
697.5, 25.65322797880937
698, 25.710594315245473
698.5, 25.710594315245473
699, 25.710594315245473
699.5, 25.710594315245473
700, 25.710594315245473
700.5, 25.882693324553784
701, 25.882693324553784
701.5, 25.911376492771836
702, 25.911376492771836
702.5, 25.882693324553784
703, 25.882693324553784
703.5, 25.96874282920794
704, 25.96874282920794
704.5, 25.96874282920794
705, 25.94005966098989
705.5, 25.94005966098989
706, 25.96874282920794
706.5, 25.96874282920794
707, 25.96874282920794
707.5, 25.96874282920794
708, 25.96874282920794
708.5, 25.96874282920794
709, 25.96874282920794
709.5, 25.997425997425992
710, 25.94005966098989
710.5, 25.94005966098989
711, 25.94005966098989
711.5, 25.94005966098989
712, 25.997425997425992
712.5, 26.026109165644044
713, 26.026109165644044
713.5, 26.026109165644044
714, 26.026109165644044
714.5, 25.997425997425992
715, 25.94005966098989
715.5, 25.94005966098989
716, 25.94005966098989
716.5, 25.94005966098989
717, 25.997425997425992
717.5, 25.997425997425992
718, 25.997425997425992
718.5, 25.96874282920794
719, 25.96874282920794
719.5, 25.94005966098989
720, 25.94005966098989
720.5, 25.854010156335733
721, 25.68191114702742
721.5, 25.68191114702742
722, 25.710594315245473
722.5, 25.710594315245473
723, 25.79664381989963
723.5, 25.79664381989963
724, 25.882693324553784
724.5, 25.911376492771836
725, 25.911376492771836
725.5, 25.882693324553784
726, 25.882693324553784
726.5, 25.997425997425992
727, 25.997425997425992
727.5, 25.997425997425992
728, 25.882693324553784
728.5, 25.882693324553784
729, 25.854010156335733
729.5, 25.854010156335733
730, 25.882693324553784
730.5, 25.854010156335733
731, 25.854010156335733
731.5, 25.854010156335733
732, 25.854010156335733
732.5, 25.854010156335733
733, 25.911376492771836
733.5, 25.911376492771836
734, 25.911376492771836
734.5, 25.911376492771836
735, 25.82532698811768
735.5, 25.82532698811768
736, 25.710594315245473
736.5, 25.68191114702742
737, 25.68191114702742
737.5, 25.624544810591317
738, 25.624544810591317
738.5, 25.595861642373265
739, 25.567178474155213
739.5, 25.567178474155213
740, 25.767960651681577
740.5, 25.767960651681577
741, 25.82532698811768
741.5, 25.82532698811768
742, 25.82532698811768
742.5, 25.739277483463525
743, 25.739277483463525
743.5, 25.65322797880937
744, 25.65322797880937
744.5, 25.595861642373265
745, 25.65322797880937
745.5, 25.65322797880937
746, 25.68191114702742
746.5, 25.68191114702742
747, 25.739277483463525
747.5, 25.710594315245473
748, 25.710594315245473
748.5, 25.624544810591317
749, 25.624544810591317
749.5, 25.3950794648469
750, 25.3950794648469
750.5, 25.36639629662885
751, 25.280346791974694
751.5, 25.280346791974694
752, 25.165614119102486
752.5, 25.165614119102486
753, 25.108247782666382
753.5, 25.07956461444833
754, 25.07956461444833
754.5, 25.108247782666382
755, 25.108247782666382
755.5, 25.165614119102486
756, 25.165614119102486
756.5, 25.22298045553859
757, 25.280346791974694
757.5, 25.280346791974694
758, 25.3950794648469
758.5, 25.3950794648469
759, 25.3950794648469
759.5, 25.3950794648469
760, 25.3950794648469
760.5, 25.165614119102486
761, 25.165614119102486
761.5, 25.022198278012226
762, 25.022198278012226
762.5, 24.993515109794174
763, 25.022198278012226
763.5, 25.022198278012226
764, 25.022198278012226
764.5, 25.022198278012226
765, 24.993515109794174
765.5, 25.022198278012226
766, 25.022198278012226
766.5, 24.993515109794174
767, 24.993515109794174
767.5, 24.993515109794174
768, 24.964831941576122
768.5, 24.964831941576122
769, 24.93614877335807
769.5, 24.93614877335807
770, 24.90746560514002
770.5, 24.90746560514002
771, 24.850099268703914
771.5, 24.678000259395603
772, 24.678000259395603
772.5, 24.64931709117755
773, 24.64931709117755
773.5, 24.64931709117755
774, 24.706683427613655
774.5, 24.706683427613655
775, 24.735366595831707
775.5, 24.735366595831707
776, 24.735366595831707
776.5, 24.735366595831707
777, 24.591950754741447
777.5, 24.534584418305343
778, 24.534584418305343
778.5, 24.448534913651187
779, 24.448534913651187
779.5, 24.391168577215083
780, 24.391168577215083
780.5, 24.391168577215083
781, 24.36248540899703
781.5, 24.36248540899703
782, 24.21906956790677
782.5, 24.21906956790677
783, 24.133020063252616
783.5, 23.989604222162356
784, 23.989604222162356
784.5, 23.874871549290148
785, 23.874871549290148
785.5, 23.817505212854044
786, 23.788822044635992
786.5, 23.788822044635992
787, 23.73145570819989
787.5, 23.73145570819989
788, 23.674089371763785
788.5, 23.61672303532768
789, 23.61672303532768
789.5, 23.559356698891577
790, 23.559356698891577
790.5, 23.415940857801317
791, 23.415940857801317
791.5, 23.415940857801317
792.0000000000002, 23.387257689583265
792.5, 23.387257689583265
793.0000000000002, 23.243841848493005
793.5, 23.243841848493005
794, 23.129109175620798
794.5, 22.985693334530538
795, 22.985693334530538
795.5000000000002, 22.813594325222226
796, 22.813594325222226
796.5000000000002, 22.72754482056807
797, 22.72754482056807
797.5000000000002, 22.612812147695863
798, 22.55544581125976
798.5, 22.55544581125976
799, 22.526762643041707
799.5, 22.526762643041707
800.0000000000002, 22.469396306605603
800.5, 22.325980465515343
801.0000000000002, 22.325980465515343
801.5, 22.182564624425083
802, 22.182564624425083
802.5, 21.924416110462616
803, 21.924416110462616
803.5000000000002, 21.867049774026512
804, 21.83836660580846
804.5000000000002, 21.83836660580846
805, 21.781000269372356
805.5000000000002, 21.781000269372356
806, 21.580218091845992
806.5, 21.436802250755733
807.0000000000002, 21.436802250755733
807.5, 21.37943591431963
808.0000000000002, 21.37943591431963
808.5, 21.293386409665473
809.0000000000002, 21.293386409665473
809.5, 21.09260423213911
810, 21.035237895703006
810.5, 21.035237895703006
811, 20.94918839104885
811.5000000000002, 20.94918839104885
812, 20.719723045304434
812.5000000000002, 20.66235670886833
813, 20.66235670886833
813.5, 20.576307204214174
814, 20.576307204214174
814.5, 20.604990372432226
815.0000000000002, 20.604990372432226
815.5, 20.604990372432226
816.0000000000002, 20.432891363123915
816.5, 20.432891363123915
817.0000000000002, 20.260792353815603
817.5, 20.260792353815603
818, 20.2034260173795
818.5, 20.2034260173795
819, 20.2034260173795
819.5000000000002, 20.146059680943395
820, 20.146059680943395
820.5000000000002, 20.117376512725343
821, 20.117376512725343
821.5, 20.117376512725343
822, 20.06001017628924
822.5, 20.06001017628924
824.5, 20.06001017628924
825.0000000000002, 20.06001017628924
827, 20.06001017628924
827.5000000000002, 20.06001017628924
828, 20.117376512725343
828.5000000000002, 20.117376512725343
829, 20.08869334450729
829.5, 20.08869334450729
865.5000000000002, 20.174742849161447
866, 20.174742849161447
866.5000000000002, 20.174742849161447
867, 20.174742849161447
867.5000000000002, 20.146059680943395
868, 20.146059680943395
868.5, 20.146059680943395
869, 20.174742849161447
869.5, 20.174742849161447
870.0000000000002, 20.2034260173795
870.5, 20.2034260173795
871.0000000000002, 20.2034260173795
871.5, 20.174742849161447
872, 20.174742849161447
872.5, 20.174742849161447
873, 20.174742849161447
873.5000000000002, 20.2034260173795
874, 20.260792353815603
874.5000000000002, 20.260792353815603
875, 20.37552502668781
875.5000000000002, 20.37552502668781
876, 20.51894086777807
876.5, 20.51894086777807
877.0000000000002, 20.719723045304434
877.5, 20.719723045304434
878.0000000000002, 20.719723045304434
878.5, 20.691039877086382
879.0000000000002, 20.691039877086382
879.5, 20.719723045304434
880, 20.777089381740538
880.5, 20.777089381740538
881, 20.863138886394694
881.5000000000002, 20.863138886394694
882, 20.94918839104885
882.5000000000002, 20.94918839104885
883, 21.006554727484954
883.5000000000002, 21.09260423213911
884, 21.09260423213911
884.5, 21.178653736793265
885.0000000000002, 21.178653736793265
885.5, 21.207336905011317
886.0000000000002, 21.207336905011317
886.5, 21.207336905011317
887.0000000000002, 21.26470324144742
887.5, 21.26470324144742
888, 21.436802250755733
888.5000000000002, 21.436802250755733
889, 21.207336905011317
889.5000000000002, 21.12128740035716
890, 21.12128740035716
890.5000000000002, 21.178653736793265
891, 21.178653736793265
891.5, 21.293386409665473
892, 21.37943591431963
892.5, 21.37943591431963
893.0000000000002, 21.436802250755733
893.5, 21.436802250755733
894.0000000000002, 21.465485418973785
894.5, 21.55153492362794
895.0000000000002, 21.55153492362794
895.5, 21.723633932936252
896, 21.723633932936252
896.5000000000002, 21.781000269372356
897, 21.781000269372356
897.5000000000002, 21.867049774026512
898, 21.98178244689872
898.5000000000002, 21.98178244689872
899, 22.01046561511677
899.5, 22.01046561511677
900, 22.211247792643135
900.5, 22.26861412907924
901.0000000000002, 22.26861412907924
901.5, 22.44071313838755
902.0000000000002, 22.44071313838755
902.5, 22.612812147695863
903.0000000000002, 22.612812147695863
903.5, 22.69886165235002
904, 22.928326998094434
904.5000000000002, 22.928326998094434
905, 23.100426007402746
905.5000000000002, 23.100426007402746
906, 23.243841848493005
906.5000000000002, 23.32989135314716
907, 23.32989135314716
907.5, 23.415940857801317
908.0000000000002, 23.415940857801317
908.5, 23.674089371763785
909.0000000000002, 23.674089371763785
909.5, 23.989604222162356
910.0000000000002, 24.104336895034564
910.5, 24.104336895034564
911, 24.47721808186924
911.5, 24.47721808186924
912, 24.850099268703914
912.5000000000002, 25.050881446230278
913, 25.050881446230278
913.5000000000002, 25.337713128410797
914, 25.337713128410797
914.5000000000002, 25.567178474155213
915, 25.739277483463525
915.5, 25.739277483463525
916.0000000000002, 25.997425997425992
916.5, 25.997425997425992
917.0000000000002, 26.083475502080148
917.5, 26.083475502080148
918.0000000000002, 26.28425767960651
918.5, 26.341624016042616
919, 26.341624016042616
919.5000000000002, 26.456356688914823
920, 26.456356688914823
920.5000000000002, 26.800554707531447
921, 26.97265371683976
921.5000000000002, 26.97265371683976
922, 27.14475272614807
922.5000000000002, 27.14475272614807
923, 27.517633912982745
923.5, 27.517633912982745
924.0000000000002, 27.74709925872716
924.5, 28.03393094090768
925.0000000000002, 28.03393094090768
925.5, 28.378128959524304
926.0000000000002, 28.378128959524304
926.5, 28.46417846417846
927, 28.521544800614564
927.5000000000002, 28.521544800614564
928, 28.92310915566729
928.5000000000002, 28.92310915566729
929, 29.0378418285395
929.5000000000002, 29.0378418285395
930, 29.439406183592226
930.5, 29.52545568824638
931, 29.52545568824638
931.5, 29.754921033990797
932.0000000000002, 29.754921033990797
932.5, 29.840970538644953
933.0000000000002, 30.041752716171317
933.5, 30.041752716171317
934.0000000000002, 30.443317071224044
934.5, 30.443317071224044
935, 30.758831921622615
935.5000000000002, 30.758831921622615
936, 30.930930930930927
936.5000000000002, 31.2464457813295
937, 31.2464457813295
937.5000000000002, 31.676693304600278
938, 31.676693304600278
938.5, 31.84879231390859
939.0000000000002, 32.10694082787106
939.5, 32.10694082787106
940.0000000000002, 32.19299033252521
940.5, 32.19299033252521
941.0000000000002, 32.508505182923784
941.5, 32.91006953797651
942.0000000000002, 32.91006953797651
942.5, 33.02480221084872
943, 33.02480221084872
943.5000000000002, 33.13953488372093
944, 33.13953488372093
944.5000000000002, 33.31163389302924
945, 33.4550497341195
945.5000000000002, 33.4550497341195
946, 33.713198248081966
946.5, 33.713198248081966
947.0000000000002, 33.91398042560833
947.5, 34.143445771352745
948.0000000000002, 34.143445771352745
948.5, 34.40159428531521
949.0000000000002, 34.40159428531521
949.5, 34.51632695818742
950, 34.51632695818742
950.5, 34.9465744814582
951, 35.43418834116508
951.5000000000002, 35.43418834116508
952, 35.52023784581924
952.5000000000002, 35.52023784581924
953, 35.54892101403729
953.5000000000002, 35.778386359781706
954, 35.778386359781706
954.5, 35.95048536909002
955.0000000000002, 35.95048536909002
955.5, 36.29468338770664
956.0000000000002, 36.29468338770664
956.5, 36.52414873345106
957.0000000000002, 36.667564574541316
957.5, 36.667564574541316
958, 37.04044576137599
958.5000000000002, 37.04044576137599
959, 37.1551784342482
959.5000000000002, 37.29859427533846
960, 37.29859427533846
960.5000000000002, 37.47069328464677
961, 37.47069328464677
961.5000000000002, 37.61410912573703
962, 37.61410912573703
962.5, 37.814891303263394
963.0000000000002, 37.9296239761356
963.5, 37.9296239761356
964.0000000000002, 38.101722985443914
964.5, 38.101722985443914
965.0000000000002, 38.38855466762443
965.5, 38.44592100406054
966, 38.44592100406054
966.5000000000002, 38.5893368451508
967, 38.5893368451508
967.5000000000002, 38.96221803198547
968, 39.163000209511836
968.5000000000002, 39.163000209511836
969, 39.4211487234743
969.5, 39.4211487234743
970.0000000000002, 39.62193090100067
970.5, 39.62193090100067
971.0000000000002, 39.880079414963134
971.5, 39.99481208783534
972.0000000000002, 39.99481208783534
972.5, 40.166911097143654
973.0000000000002, 40.166911097143654
973.5, 40.36769327467002
974, 40.74057446150469
974.5000000000002, 40.74057446150469
975, 40.8553071343769
975.5000000000002, 40.8553071343769
976, 41.056089311903264
976.5000000000002, 41.056089311903264
977, 41.371604162301836
977.5, 41.515020003392095
978.0000000000002, 41.515020003392095
978.5, 41.5723863398282
979.0000000000002, 41.5723863398282
979.5, 41.658435844482355
980.0000000000002, 41.88790119022677
980.5, 41.88790119022677
981.0000000000002, 42.20341604062534
981.5, 42.20341604062534
982, 42.404198218151706
982.5000000000002, 42.404198218151706
983, 42.49024772280586
983.5000000000002, 42.71971306855028
984, 42.71971306855028
984.5000000000002, 42.77707940498638
985, 42.77707940498638
985.5, 42.977861582512745
986.0000000000002, 43.0639110871669
986.5, 43.0639110871669
987.0000000000002, 43.09259425538495
987.5, 43.09259425538495
988.0000000000002, 43.264693264693264
988.5, 43.264693264693264
989.0000000000002, 43.408109105783524
989.5000000000002, 43.49415861043768
990, 43.49415861043768
990.5000000000002, 43.580208115091835
991, 43.580208115091835
991.5000000000002, 43.63757445152794
992, 43.723623956182095
992.5000000000002, 43.723623956182095
993, 44.12518831123482
993.5, 44.12518831123482
994.0000000000002, 44.26860415232508
994.5, 44.297287320543134
995.0000000000002, 44.297287320543134
995.5, 44.35465365697924
996.0000000000002, 44.35465365697924
996.5, 44.5554358345056
997, 44.5554358345056
997.5000000000002, 44.95700018955833
998, 45.043049694212485
998.5000000000002, 45.043049694212485
999, 45.15778236708469
999.5000000000002, 45.15778236708469
1000, 45.329881376393004
1000.5000000000002, 45.358564544611056
1001.0000000000002, 45.358564544611056
1001.5, 45.38724771282911
1002.0000000000002, 45.38724771282911
1002.5, 45.645396226791576
1003.0000000000002, 45.645396226791576
1003.5, 45.932227908972095
1004.0000000000002, 45.9895942454082
1004.5, 45.9895942454082
1005, 46.075643750062355
1005.5000000000002, 46.075643750062355
1006, 46.13301008649846
1006.5000000000002, 46.362475432242874
1007, 46.362475432242874
1007.5000000000002, 46.391158600460926
1008, 46.391158600460926
1008.5000000000002, 46.41984176867898
1009.0000000000002, 46.41984176867898
1009.5, 46.7640397872956
1010.0000000000002, 46.93613879660391
1010.5, 46.93613879660391
1011.0000000000002, 47.30901998343859
1011.5, 47.30901998343859
1012.0000000000002, 47.395069488092744
1012.5, 47.567168497401056
1013, 47.567168497401056
1013.5000000000002, 47.681901170273264
1014, 47.681901170273264
1014.5000000000002, 47.681901170273264
1015, 47.73926750670937
1015.5000000000002, 47.73926750670937
1016, 48.140831861762095
1016.5, 48.140831861762095
1017.0000000000002, 48.284247702852355
1017.5, 48.284247702852355
1018.0000000000002, 48.599762553250926
1018.5, 48.714495226123134
1019.0000000000002, 48.714495226123134
1019.5, 48.9152774036495
1020.0000000000002, 48.9152774036495
1020.5000000000002, 49.05869324473976
1021, 49.05869324473976
1021.5000000000002, 49.05869324473976
1022, 49.030010076521705
1022.5000000000002, 49.030010076521705
1023, 49.173425917611965
1023.5000000000002, 49.173425917611965
1024, 49.28815859048417
1024.5, 49.460257599792484
1025.0000000000002, 49.460257599792484
1025.5, 49.57499027266469
1026.0000000000002, 49.57499027266469
1026.5, 49.919188291281316
1027.0000000000002, 50.03392096415352
1027.5, 50.03392096415352
1028.0000000000002, 50.03392096415352
1028.5000000000002, 50.03392096415352
1029, 50.062604132371575
1029.5000000000002, 50.062604132371575
1030, 50.37811898277015
1030.5000000000002, 50.492851655642355
1031, 50.492851655642355
1031.5000000000002, 50.492851655642355
1032.0000000000002, 50.492851655642355
1032.5, 50.72231700138677
1033.0000000000002, 50.86573284247703
1033.5, 50.86573284247703
1034.0000000000002, 51.095198188221445
1034.5, 51.095198188221445
1035.0000000000002, 51.15256452465755
1035.5, 51.15256452465755
1036, 51.1812476928756
1036.5000000000002, 51.43939620683807
1037, 51.43939620683807
1037.5000000000002, 51.55412887971028
1038, 51.55412887971028
1038.5000000000002, 51.75491105723664
1039, 52.099109075853264
1039.5000000000002, 52.099109075853264
1040.0000000000002, 52.271208085161575
1040.5, 52.271208085161575
1041.0000000000002, 52.32857442159768
1041.5, 52.32857442159768
1042.0000000000002, 52.32857442159768
1042.5, 52.29989125337963
1043.0000000000002, 52.29989125337963
1043.5, 52.15647541228937
1044, 52.15647541228937
1044.5000000000002, 52.38594075803378
1045, 52.414623926251835
1045.5000000000002, 52.414623926251835
1046, 52.414623926251835
1046.5000000000002, 52.414623926251835
1047, 52.44330709446989
1047.5000000000002, 52.47199026268794
1048.0000000000002, 52.47199026268794
1048.5, 52.47199026268794
1049.0000000000002, 52.47199026268794
1049.5, 52.558039767342095
1050.0000000000002, 52.558039767342095
1050.5, 52.6727724402143
1051.0000000000002, 52.6727724402143
1051.5000000000002, 52.6727724402143
1052, 52.701455608432354
1052.5000000000002, 52.701455608432354
1053, 52.844871449522614
1053.5000000000002, 52.81618828130456
1054, 52.81618828130456
1054.5000000000002, 52.64408927199625
1055, 52.64408927199625
1055.5, 52.6154061037782
1056.0000000000002, 52.6154061037782
1056.5, 52.558039767342095
1057.0000000000002, 52.29989125337963
1057.5, 52.29989125337963
1058.0000000000002, 52.47199026268794
1058.5, 52.47199026268794
1059.0000000000002, 52.701455608432354
1059.5000000000002, 52.90223778595872
1060, 52.90223778595872
1060.5000000000002, 52.78750511308651
1061, 52.78750511308651
1061.5000000000002, 52.6154061037782
1062, 52.6154061037782
1062.5000000000002, 52.271208085161575
1063.0000000000002, 52.15647541228937
1063.5, 52.15647541228937
1064.0000000000002, 52.01305957119911
1064.5, 52.01305957119911
1065.0000000000002, 51.92701006654495
1065.5, 51.86964373010885
1066.0000000000002, 51.86964373010885
1066.5, 51.668861552582484
1067.0000000000002, 51.668861552582484
1067.5000000000002, 51.46807937505612
1068, 51.41071303862002
1068.5000000000002, 51.41071303862002
1069, 51.525445711492225
1069.5000000000002, 51.525445711492225
1070, 51.61149521614638
1070.5000000000002, 51.61149521614638
1071.0000000000002, 51.668861552582484
1071.5, 51.1812476928756
1072.0000000000002, 51.1812476928756
1072.5, 51.06651502000339
1073.0000000000002, 51.06651502000339
1073.5, 50.98046551534924
1074.0000000000002, 50.86573284247703
1074.5, 50.86573284247703
1075, 50.75100016960482
1075.5000000000002, 50.75100016960482
1076, 50.75100016960482
1076.5000000000002, 50.75100016960482
1077, 50.69363383316872
1077.5000000000002, 50.52153482386041
1078, 50.52153482386041
1078.5000000000002, 50.23470314167989
1079.0000000000002, 50.23470314167989
1079.5, 50.09128730058963
1080.0000000000002, 49.890505123063264
1080.5, 49.890505123063264
1081.0000000000002, 49.747089281973004
1081.5, 49.747089281973004
1082.0000000000002, 49.54630710444664
1082.5000000000002, 49.54630710444664
1083, 49.11605958117586
1083.5000000000002, 48.886594235431446
1084, 48.886594235431446
1084.5000000000002, 48.82922789899534
1085, 48.82922789899534
1085.5000000000002, 48.80054473077729
1086, 48.68581205790508
1086.5000000000002, 48.68581205790508
1087.0000000000002, 48.39898037572456
1087.5, 48.39898037572456
1088.0000000000002, 47.82531701136352
1088.5, 47.82531701136352
1089.0000000000002, 47.59585166561911
1089.5, 47.50980216096495
1090.0000000000002, 47.50980216096495
1090.5000000000002, 47.13692097413028
1091, 47.13692097413028
1091.5000000000002, 46.99350513304002
1092, 47.05087146947612
1092.5000000000002, 47.05087146947612
1093, 46.99350513304002
1093.5000000000002, 46.99350513304002
1094, 46.505891273333134
1094.5, 46.30510909580677
1095.0000000000002, 46.30510909580677
1095.5, 46.19037642293456
1096.0000000000002, 46.19037642293456
1096.5, 45.90354474075404
1097.0000000000002, 45.90354474075404
1097.5, 45.645396226791576
1098.0000000000002, 45.55934672213742
1098.5000000000002, 45.55934672213742
1099, 45.329881376393004
1099.5000000000002, 45.329881376393004
1100, 45.186465535302744
1100.5000000000002, 44.98568335777638
1101, 44.98568335777638
1101.5000000000002, 44.440703161633394
1102.0000000000002, 44.440703161633394
1102.5, 44.153871479452874
1103.0000000000002, 44.153871479452874
1103.5, 43.80967346083625
1104.0000000000002, 43.7809902926182
1104.5, 43.7809902926182
1105.0000000000002, 43.75230712440015
1105.5, 43.75230712440015
1106.0000000000002, 43.580208115091835
1106.5000000000002, 43.17864376003911
1107, 43.17864376003911
1107.5000000000002, 42.691029900332225
1108, 42.691029900332225
1108.5000000000002, 42.404198218151706
1109, 42.404198218151706
1109.5000000000002, 42.31814871349755
1110.0000000000002, 42.232099208843394
1110.5, 42.232099208843394
1111.0000000000002, 42.00263386309898
1111.5, 42.00263386309898
1112.0000000000002, 41.658435844482355
1112.5, 41.31423782586573
1113.0000000000002, 41.31423782586573
1113.5000000000002, 41.084772480121316
1114, 41.084772480121316
1114.5000000000002, 41.02740614368521
1115, 41.02740614368521
1115.5000000000002, 40.482425947542225
1116, 40.42505961110612
1116.5000000000002, 40.42505961110612
1117, 40.1382279289256
1117.5000000000002, 40.1382279289256
1118.0000000000002, 40.052178424271446
1118.5, 39.93744575139924
1119.0000000000002, 39.93744575139924
1119.5, 39.70798040565482
1120.0000000000002, 39.70798040565482
1120.5, 39.449831891692355
1121.0000000000002, 39.39246555525625
1121.5000000000002, 39.39246555525625
1122, 38.90485169554937
1122.5000000000002, 38.90485169554937
1123, 38.67538634980495
1123.5000000000002, 38.67538634980495
1124, 38.101722985443914
1124.5000000000002, 37.78620813504534
1125, 37.78620813504534
1125.5000000000002, 37.49937645286482
1126.0000000000002, 37.49937645286482
1126.5, 37.29859427533846
1127.0000000000002, 37.04044576137599
1127.5, 37.04044576137599
1128.0000000000002, 36.89702992028573
1128.5, 36.89702992028573
1129.0000000000002, 36.52414873345106
1129.5000000000002, 36.52414873345106
1130, 36.12258437839833
1130.5000000000002, 35.97916853730807
1131, 35.97916853730807
1131.5000000000002, 35.7210200233456
1132, 35.7210200233456
1132.5000000000002, 35.43418834116508
1133.0000000000002, 35.23340616363872
1133.5, 35.23340616363872
1134.0000000000002, 34.65974279927768
1134.5, 34.65974279927768
1135.0000000000002, 34.54501012640547
1135.5, 34.54501012640547
1136.0000000000002, 34.34422794887911
1136.5, 34.286861612443005
1137.0000000000002, 34.286861612443005
1137.5000000000002, 34.000029930262485
1138, 34.000029930262485
1138.5000000000002, 33.5124160705556
1139, 33.36900022946534
1139.5000000000002, 33.36900022946534
1140, 33.34031706124729
1140.5000000000002, 33.34031706124729
1141.0000000000002, 32.967435874412615
1141.5, 32.824020033322356
1142.0000000000002, 32.824020033322356
1142.5, 32.795336865104304
1143.0000000000002, 32.795336865104304
1143.5, 32.508505182923784
1144.0000000000002, 32.508505182923784
1144.5000000000002, 32.221673500743265
1145.0000000000002, 31.820109145690537
1145.5000000000002, 31.820109145690537
1146, 31.619326968164174
1146.5000000000002, 31.619326968164174
1147, 31.619326968164174
1147.5000000000002, 31.389861622419758
1148, 31.389861622419758
1148.5000000000002, 31.217762613111447
1149.0000000000002, 31.217762613111447
1149.5, 31.016980435585083
1150.0000000000002, 31.016980435585083
1150.5, 30.357267566569888
1151.0000000000002, 30.299901230133784
1151.5, 30.299901230133784
1152.0000000000002, 30.328584398351836
1152.5000000000002, 30.328584398351836
1153, 30.07043588438937
1153.5000000000002, 29.8122873704269
1154, 29.8122873704269
1154.5000000000002, 29.267307174283914
1155, 29.267307174283914
1155.5000000000002, 28.89442598744924
1156.0000000000002, 28.89442598744924
1156.5000000000002, 28.77969331457703
1157, 28.951792323885343
1157.5, 28.951792323885343
1158.0000000000002, 28.865742819231187
1158.5000000000002, 28.865742819231187
1159, 28.60759430526872
1159.5, 28.14866361377989
1160.0000000000002, 28.14866361377989
1160.5000000000002, 27.89051509981742
1161.0000000000002, 27.89051509981742
1161.5, 27.632366585854953
1162, 27.632366585854953
1162.5000000000002, 27.46026757654664
1163.0000000000002, 27.402901240110538
1163.5, 27.402901240110538
1164, 27.28816856723833
1164.5000000000002, 27.28816856723833
1165.0000000000002, 27.230802230802226
1165.5000000000002, 27.173435894366122
1166, 27.173435894366122
1166.5, 26.599772530005083
1167.0000000000002, 26.599772530005083
1167.5000000000002, 26.42767352069677
1168.0000000000002, 26.1121586702982
1168.5, 26.1121586702982
1169, 25.911376492771836
1169.5000000000002, 25.911376492771836
1170.0000000000002, 25.854010156335733
1170.5, 25.854010156335733
1171, 25.68191114702742
1171.5000000000002, 25.423762633064953
1172.0000000000002, 25.423762633064953
1172.5000000000002, 25.25166362375664
1173, 25.25166362375664
1173.5, 25.022198278012226
1174.0000000000002, 24.735366595831707
1174.5000000000002, 24.735366595831707
1175, 24.50590125008729
1175.5, 24.50590125008729
1176.0000000000002, 24.47721808186924
1176.5000000000002, 24.47721808186924
1177.0000000000002, 24.448534913651187
1177.5, 24.018287390380408
1178, 24.018287390380408
1178.5000000000002, 23.674089371763785
1179.0000000000002, 23.674089371763785
1179.5000000000002, 23.559356698891577
1180, 23.58803986710963
1180.5, 23.58803986710963
1181.0000000000002, 23.559356698891577
1181.5000000000002, 23.559356698891577
1182, 23.32989135314716
1182.5, 23.32989135314716
1183.0000000000002, 23.243841848493005
1183.5000000000002, 23.15779234383885
1184.0000000000002, 23.15779234383885
1184.5, 23.01437650274859
1185, 23.01437650274859
1185.5000000000002, 22.670178484131966
1186.0000000000002, 22.526762643041707
1186.5, 22.526762643041707
1187, 22.182564624425083
1187.5000000000002, 22.182564624425083
1188.0000000000002, 22.182564624425083
1188.5000000000002, 22.182564624425083
1189, 22.29729729729729
1189.5, 22.44071313838755
1190.0000000000002, 22.44071313838755
1190.5000000000002, 22.211247792643135
1191.0000000000002, 22.211247792643135
1191.5, 22.067831951552876
1192, 21.83836660580846
1192.5000000000002, 21.83836660580846
1193.0000000000002, 21.781000269372356
1193.5, 21.781000269372356
1194, 21.465485418973785
1194.5000000000002, 21.350752746101577
1195.0000000000002, 21.350752746101577
1195.5000000000002, 21.322069577883525
1196, 21.322069577883525
1196.5, 21.26470324144742
1197.0000000000002, 21.26470324144742
1197.5000000000002, 21.26470324144742
1198, 21.23602007322937
1198.5, 21.23602007322937
1199.0000000000002, 21.035237895703006
1199.5000000000002, 21.035237895703006
1200.0000000000002, 20.94918839104885
1200.5, 20.891822054612746
1201, 20.891822054612746
1201.5000000000002, 20.719723045304434
1202.0000000000002, 20.719723045304434
1202.5, 20.547624035996122
1203, 20.547624035996122
1203.5000000000002, 20.318158690251707
1204.0000000000002, 20.318158690251707
1204.5000000000002, 20.318158690251707
1205, 20.34684185846976
1205.5, 20.34684185846976
1206.0000000000002, 20.461574531341967
1206.5000000000002, 20.51894086777807
1207.0000000000002, 20.51894086777807
1207.5, 20.49025769956002
1208, 20.49025769956002
1208.5000000000002, 20.547624035996122
1209.0000000000002, 20.547624035996122
1209.5, 20.461574531341967
1210, 20.318158690251707
1210.5000000000002, 20.318158690251707
1211.0000000000002, 20.146059680943395
1211.5000000000002, 20.146059680943395
1212, 20.06001017628924
1212.5, 20.08869334450729
1213.0000000000002, 20.08869334450729
1213.5000000000002, 20.08869334450729
1214, 20.08869334450729
1214.5, 20.08869334450729
1215.0000000000002, 20.08869334450729
1215.5000000000002, 20.117376512725343
1216.0000000000002, 20.08869334450729
1216.5, 20.08869334450729
1217, 20.002643839853135
1217.5000000000002, 20.002643839853135
1218.0000000000002, 19.94527750341703
1218.5000000000002, 19.94527750341703
1219, 19.94527750341703
1219.5, 20.031327008071187
1220.0000000000002, 20.031327008071187
1220.5000000000002, 19.859227998762876
1221, 19.687128989454564
1221.5, 19.687128989454564
1222.0000000000002, 19.687128989454564
1222.5000000000002, 19.687128989454564
1223.0000000000002, 19.744495325890668
1223.5, 19.744495325890668
1224, 19.77317849410872
1224.5000000000002, 19.801861662326772
1225.0000000000002, 19.801861662326772
1225.5, 19.94527750341703
1226, 19.94527750341703
1226.5000000000002, 19.973960671635083
1227.0000000000002, 19.94527750341703
1227.5000000000002, 19.94527750341703
1228, 19.91659433519898
1228.5, 19.91659433519898
1229.0000000000002, 19.830544830544824
1229.5000000000002, 19.830544830544824
1230.0000000000002, 19.715812157672616
1230.5, 19.658445821236512
1231, 19.658445821236512
1231.5000000000002, 19.687128989454564
1232.0000000000002, 19.687128989454564
1232.5, 19.62976265301846
1233, 19.543713148364304
1233.5000000000002, 19.543713148364304
1234.0000000000002, 19.45766364371015
1234.5000000000002, 19.45766364371015
1235, 19.31424780261989
1235.5, 19.31424780261989
1236.0000000000002, 19.02741612043937
1236.5000000000002, 19.113465625093525
1237, 19.113465625093525
1237.5, 19.17083196152963
1238.0000000000002, 19.17083196152963
1238.5000000000002, 19.285564634401837
1239.0000000000002, 19.428980475492097
1239.5, 19.428980475492097
1240, 19.543713148364304
1240.5000000000002, 19.543713148364304
1241.0000000000002, 19.801861662326772
1241.5000000000002, 19.801861662326772
1242, 19.830544830544824
1242.5000000000002, 19.801861662326772
1243.0000000000002, 19.801861662326772
1243.5000000000002, 19.801861662326772
1244, 19.801861662326772
1244.5, 19.801861662326772
1245.0000000000002, 19.859227998762876
1245.5000000000002, 19.859227998762876
1246.0000000000002, 19.859227998762876
1246.5, 19.859227998762876
1247, 19.77317849410872
1247.5000000000002, 19.715812157672616
1248.0000000000002, 19.715812157672616
1248.5, 19.744495325890668
1249, 19.744495325890668
1249.5000000000002, 19.830544830544824
1250.0000000000002, 19.830544830544824
1250.5000000000002, 19.801861662326772
1251, 19.744495325890668
1251.5, 19.744495325890668
1252.0000000000002, 19.687128989454564
1252.5000000000002, 19.687128989454564
1253, 19.658445821236512
1253.5, 19.601079484800408
1254.0000000000002, 19.601079484800408
1254.5000000000002, 19.572396316582356
1255.0000000000002, 19.572396316582356
1255.5, 19.515029980146252
1256, 19.515029980146252
1256.5000000000002, 19.45766364371015
1257.0000000000002, 19.744495325890668
1257.5000000000002, 19.744495325890668
1258, 19.830544830544824
1258.5, 19.830544830544824
1259.0000000000002, 19.830544830544824
1259.5000000000002, 20.002643839853135
1260, 20.002643839853135
1260.5, 20.031327008071187
1261.0000000000002, 20.031327008071187
1261.5000000000002, 19.94527750341703
1262.0000000000002, 19.94527750341703
1262.5, 19.658445821236512
1263, 19.62976265301846
1263.5000000000002, 19.62976265301846
1264.0000000000002, 19.4863468119282
1264.5, 19.4863468119282
1265, 19.543713148364304
1265.5000000000002, 19.77317849410872
1266.0000000000002, 19.77317849410872
1266.5000000000002, 19.887911166980928
1267, 19.887911166980928
1267.5, 19.91659433519898
1268.0000000000002, 19.744495325890668
1268.5000000000002, 19.744495325890668
1269.0000000000002, 19.715812157672616
1269.5, 19.715812157672616
1270, 19.715812157672616
1270.5000000000002, 19.715812157672616
1271.0000000000002, 19.744495325890668
1271.5, 19.801861662326772
1272, 19.801861662326772
1272.5000000000002, 19.77317849410872
1273.0000000000002, 19.77317849410872
1273.5000000000002, 19.658445821236512
1274, 19.62976265301846
1274.5, 19.62976265301846
1275.0000000000002, 19.62976265301846
1275.5000000000002, 19.62976265301846
1276, 19.687128989454564
1276.5, 19.687128989454564
1277.0000000000002, 19.77317849410872
1277.5000000000002, 19.572396316582356
1278.0000000000002, 19.572396316582356
1278.5, 19.4863468119282
1279, 19.4863468119282
1279.5000000000002, 19.515029980146252
1280.0000000000002, 19.801861662326772
1280.5000000000002, 19.801861662326772
1281, 19.94527750341703
1281.5000000000002, 19.94527750341703
1282.0000000000002, 19.973960671635083
1282.5000000000002, 19.973960671635083
1283, 20.08869334450729
1283.5, 20.117376512725343
1284.0000000000002, 20.117376512725343
1284.5000000000002, 20.08869334450729
1285.0000000000002, 20.08869334450729
1285.5, 20.2034260173795
1286, 20.432891363123915
1286.5000000000002, 20.432891363123915
1287.0000000000002, 20.63367354065028
1287.5, 20.63367354065028
1292.0000000000002, 20.63367354065028
1292.5, 20.63367354065028
1293.0000000000002, 20.604990372432226
1293.5000000000002, 20.604990372432226
1294.0000000000002, 20.604990372432226
1294.5, 20.63367354065028
1295, 20.63367354065028
1295.5000000000002, 20.63367354065028
1296.0000000000002, 20.63367354065028
1296.5000000000002, 20.51894086777807
1297, 20.51894086777807
1297.5, 20.49025769956002
1298.0000000000002, 20.23210918559755
1298.5000000000002, 20.23210918559755
1299, 20.34684185846976
1299.5, 20.34684185846976
1300.0000000000002, 20.318158690251707
1300.5000000000002, 20.146059680943395
1301.0000000000002, 20.146059680943395
1301.5, 20.174742849161447
1302, 20.174742849161447
1302.5000000000002, 20.23210918559755
1303.0000000000002, 20.23210918559755
1303.5000000000002, 20.146059680943395
1304, 20.174742849161447
1304.5, 20.174742849161447
1305, 20.2034260173795
1305.5000000000002, 20.2034260173795
1306, 20.2034260173795
1306.5, 20.2034260173795
1307, 20.2034260173795
1307.5000000000002, 20.34684185846976
1308.0000000000002, 20.34684185846976
1308.5, 20.031327008071187
1309, 20.031327008071187
1309.5, 19.77317849410872
1310.0000000000002, 19.285564634401837
1310.5, 19.285564634401837
1311, 19.371614139055993
1311.5, 19.371614139055993
1312.0000000000002, 19.45766364371015
1312.5000000000002, 19.515029980146252
1313, 19.515029980146252
1313.5, 19.543713148364304
1314, 19.543713148364304
1314.5000000000002, 19.543713148364304
1315, 19.543713148364304
1315.5, 19.687128989454564
1316, 19.830544830544824
1316.5, 19.830544830544824
1317.0000000000002, 20.06001017628924
1317.5, 20.06001017628924
1318, 20.031327008071187
1318.5, 19.94527750341703
1319.0000000000002, 19.94527750341703
1319.5000000000002, 19.77317849410872
1320, 19.77317849410872
1320.5, 19.744495325890668
1321, 19.859227998762876
1321.5000000000002, 19.859227998762876
1322, 20.002643839853135
1322.5, 20.002643839853135
1323, 20.08869334450729
1323.5000000000002, 20.08869334450729
1324.0000000000002, 20.461574531341967
1324.5, 20.49025769956002
1325, 20.49025769956002
1325.5, 20.432891363123915
1326.0000000000002, 20.432891363123915
1326.5, 20.146059680943395
1327, 20.146059680943395
1327.5, 20.146059680943395
1328, 20.117376512725343
1328.5000000000002, 20.117376512725343
1329, 20.34684185846976
1329.5, 20.34684185846976
1330, 20.404208194905863
1330.5000000000002, 20.34684185846976
1331.0000000000002, 20.34684185846976
1331.5, 20.34684185846976
1332, 20.34684185846976
1332.5, 20.318158690251707
1333.0000000000002, 20.146059680943395
1333.5, 20.146059680943395
1334, 20.289475522033655
1334.5, 20.289475522033655
1335.0000000000002, 20.37552502668781
1335.5000000000002, 20.37552502668781
1336, 20.37552502668781
1336.5, 20.37552502668781
1337, 20.37552502668781
1337.5000000000002, 20.51894086777807
1338, 20.51894086777807
1338.5, 20.146059680943395
1339, 20.08869334450729
1339.5000000000002, 20.08869334450729
1340.0000000000002, 20.2034260173795
1340.5, 20.2034260173795
1341, 20.117376512725343
1341.5, 20.117376512725343
1342.0000000000002, 20.06001017628924
1342.5000000000002, 20.002643839853135
1343, 20.002643839853135
1343.5, 19.973960671635083
1344, 19.973960671635083
1344.5000000000002, 20.06001017628924
1345, 20.23210918559755
1345.5, 20.23210918559755
1346, 20.289475522033655
1346.5000000000002, 20.289475522033655
1347.0000000000002, 20.174742849161447
1347.5, 20.2034260173795
1348, 20.2034260173795
1348.5, 20.23210918559755
1349.0000000000002, 20.23210918559755
1349.5, 20.146059680943395
1350, 20.146059680943395
1350.5, 19.94527750341703
1351.0000000000002, 19.91659433519898
1351.5000000000002, 19.91659433519898
1352, 19.830544830544824
1352.5, 19.830544830544824
1353, 19.887911166980928
1353.5000000000002, 20.031327008071187
1354.0000000000002, 20.031327008071187
1354.5, 20.031327008071187
1355, 20.031327008071187
1355.5, 20.06001017628924
1356.0000000000002, 20.06001017628924
1356.5, 20.117376512725343
1357, 20.08869334450729
1357.5, 20.08869334450729
1358.0000000000002, 20.06001017628924
1358.5000000000002, 20.06001017628924
1359, 19.887911166980928
1359.5, 19.859227998762876
1360, 19.859227998762876
1360.5000000000002, 19.830544830544824
1361, 19.830544830544824
1361.5, 20.174742849161447
1362, 20.174742849161447
1362.5000000000002, 20.146059680943395
1363.0000000000002, 19.94527750341703
1363.5, 19.94527750341703
1364, 19.77317849410872
1364.5, 19.77317849410872
1365.0000000000002, 19.715812157672616
1365.5, 19.543713148364304
1366, 19.543713148364304
1366.5, 19.572396316582356
1367, 19.572396316582356
1367.5000000000002, 19.62976265301846
1368, 19.228198297965733
1368.5, 19.228198297965733
1369, 19.17083196152963
1369.5000000000002, 19.17083196152963
1370.0000000000002, 19.228198297965733
1370.5, 19.228198297965733
1371, 19.428980475492097
1371.5, 19.572396316582356
1372.0000000000002, 19.572396316582356
1372.5, 19.94527750341703
1373, 19.94527750341703
1373.5, 20.06001017628924
1374.0000000000002, 20.117376512725343
1374.5000000000002, 20.117376512725343
1375, 20.031327008071187
1375.5, 20.031327008071187
1376, 19.887911166980928
1376.5000000000002, 19.887911166980928
1377, 19.77317849410872
1377.5, 19.601079484800408
1378, 19.601079484800408
1378.5000000000002, 19.572396316582356
1379.0000000000002, 19.572396316582356
1379.5, 19.601079484800408
1380, 19.830544830544824
1380.5, 19.830544830544824
1381.0000000000002, 19.887911166980928
1381.5000000000002, 19.887911166980928
1382, 19.543713148364304
1382.5, 19.543713148364304
1383, 19.45766364371015
1383.5000000000002, 19.371614139055993
1384, 19.371614139055993
1384.5, 19.515029980146252
1385, 19.515029980146252
1385.5000000000002, 19.4863468119282
1386.0000000000002, 19.400297307274045
1386.5, 19.400297307274045
1387, 19.34293097083794
1387.5, 19.34293097083794
1388.0000000000002, 19.31424780261989
1388.5, 19.31424780261989
1389, 19.371614139055993
1389.5, 19.658445821236512
1390.0000000000002, 19.658445821236512
1390.5000000000002, 19.830544830544824
1391, 19.830544830544824
1391.5, 19.973960671635083
1392, 19.859227998762876
1392.5000000000002, 19.859227998762876
1393.0000000000002, 19.601079484800408
1393.5, 19.601079484800408
1394, 19.19951512974768
1394.5, 19.19951512974768
1395.0000000000002, 19.19951512974768
1395.5, 19.228198297965733
1396, 19.228198297965733
1396.5, 20.66235670886833
1396.5, 18.74058443825885
1397.0000000000002, 20.66235670886833
1397.0000000000002, 18.74058443825885
1397.5000000000002, 20.66235670886833
1397.5000000000002, 18.74058443825885
852.6472781506338, 19.969969969969966
860.1043997017152, 19.969969969969966
842.2073079791201, 19.969969969969966
836.2416107382551, 19.969969969969966
848.173005219985, 19.969969969969966
