302.5, 26.93477526191282
303, 26.93477526191282
303.5, 26.96716232961589
304, 26.96716232961589
304.5, 27.03193646502197
305, 27.03193646502197
305.5, 27.096710600428082
306, 27.096710600428082
306.5, 27.129097668131152
307, 27.129097668131152
307.5, 27.161484735834193
308, 27.161484735834193
308.5, 27.161484735834193
309, 27.161484735834193
309.5, 27.291033006646416
310, 27.291033006646416
310.5, 27.355807142052498
311, 27.355807142052498
311.5, 27.42058127745861
312, 27.42058127745861
312.5, 27.45296834516168
313, 27.45296834516168
313.5, 27.51774248056776
314, 27.51774248056776
314.5, 27.51774248056776
315, 27.582516615973873
315.5, 27.582516615973873
316, 27.67967781908304
316.5, 27.67967781908304
317, 27.744451954489136
317.5, 27.744451954489136
318, 27.776839022192192
318.5, 27.776839022192192
319, 27.841613157598303
319.5, 27.841613157598303
320, 27.9063872930044
320.5, 27.9063872930044
321, 27.971161428410525
321.5, 27.971161428410525
322, 28.003548496113567
322.5, 28.003548496113567
323, 28.068322631519663
323.5, 28.068322631519663
324, 28.13309676692579
324.5, 28.13309676692579
325, 28.16548383462883
325.5, 28.16548383462883
326, 28.262645037737983
326.5, 28.262645037737983
327, 28.359806240847135
327.5, 28.359806240847135
328, 28.424580376253246
328.5, 28.456967443956316
329, 28.456967443956316
329.5, 28.456967443956316
330, 28.456967443956316
330.5, 28.521741579362413
331, 28.521741579362413
331.5, 28.58651571476851
332, 28.58651571476851
332.5, 28.651289850174635
333, 28.651289850174635
333.5, 28.716063985580718
334, 28.716063985580718
334.5, 28.78083812098683
335, 28.78083812098683
335.5, 28.84561225639294
336, 28.84561225639294
336.5, 28.942773459502092
337, 28.942773459502092
337.5, 29.039934662611245
338, 29.039934662611245
338.5, 29.0723217303143
339, 29.0723217303143
339.5, 29.16948293342348
340, 29.16948293342348
340.5, 29.234257068829564
341, 29.234257068829564
341.5, 29.299031204235675
342, 29.299031204235675
342.5, 29.363805339641786
343, 29.363805339641786
343.5, 29.428579475047883
344, 29.493353610454008
344.5, 29.493353610454008
345, 29.55812774586009
345.5, 29.55812774586009
346, 29.687676016672313
346.5, 29.687676016672313
347, 29.720063084375354
347.5, 29.720063084375354
348, 29.75245015207841
348.5, 29.75245015207841
349, 29.84961135518759
349.5, 29.84961135518759
350, 29.9791596259998
350.5, 29.9791596259998
351, 30.04393376140588
351.5, 30.04393376140588
352, 30.108707896811993
352.5, 30.108707896811993
353, 30.2382561676242
353.5, 30.2382561676242
354, 30.33541737073338
354.5, 30.33541737073338
355, 30.367804438436423
355.5, 30.367804438436423
356, 30.464965641545575
356.5, 30.464965641545575
357, 30.5297397769517
357.5, 30.5297397769517
358, 30.594513912357783
358.5, 30.594513912357783
359, 30.62690098006084
359.5, 30.691675115466964
360, 30.691675115466964
360.5, 30.788836318576102
361, 30.788836318576102
361.5, 30.853610453982228
362, 30.853610453982228
362.5, 30.950771657091366
363, 30.950771657091366
363.5, 31.01554579249749
364, 31.01554579249749
364.5, 31.145094063309685
365, 31.145094063309685
365.5, 31.209868198715796
366, 31.209868198715796
366.5, 31.30702940182495
367, 31.30702940182495
367.5, 31.436577672637156
368, 31.436577672637156
368.5, 31.50135180804328
369, 31.50135180804328
369.5, 31.630900078855475
370, 31.630900078855475
370.5, 31.6956742142616
371, 31.6956742142616
371.5, 31.760448349667683
372, 31.760448349667683
372.5, 31.857609552776864
373, 31.857609552776864
373.5, 31.987157823589058
374, 32.08431902669821
374.5, 32.08431902669821
375, 32.14909316210432
375.5, 32.14909316210432
376, 32.21386729751045
376.5, 32.21386729751045
377, 32.311028500619585
377.5, 32.311028500619585
378, 32.37580263602571
378.5, 32.37580263602571
379, 32.47296383913485
379.5, 32.47296383913485
380, 32.537737974540974
380.5, 32.537737974540974
381, 32.63489917765011
381.5, 32.63489917765011
382, 32.76444744846232
382.5, 32.76444744846232
383, 32.89399571927456
383.5, 32.89399571927456
384, 32.991156922383695
384.5, 32.991156922383695
385, 33.05593105778982
385.5, 33.05593105778982
386, 33.18547932860203
386.5, 33.18547932860203
387, 33.282640531711166
387.5, 33.282640531711166
388, 33.44457587022643
388.5, 33.44457587022643
389, 33.50935000563254
389.5, 33.574124141038666
390, 33.574124141038666
390.5, 33.703672411850874
391, 33.703672411850874
391.5, 33.76844654725696
392, 33.76844654725696
392.5, 33.89799481806919
393, 33.89799481806919
393.5, 33.99515602117833
394, 33.99515602117833
394.5, 34.0923172242875
395, 34.0923172242875
395.5, 34.18947842739665
396, 34.18947842739665
396.5, 34.31902669820886
397, 34.31902669820886
397.5, 34.51334910442718
398, 34.51334910442718
398.5, 34.61051030753633
399, 34.61051030753633
399.5, 34.7076715106455
400, 34.7076715106455
400.5, 34.80483271375465
401, 34.80483271375465
401.5, 34.96676805226991
402, 34.96676805226991
402.5, 35.06392925537908
403, 35.06392925537908
403.5, 35.19347752619129
404, 35.323025797003496
404.5, 35.323025797003496
405, 35.38779993240961
405.5, 35.38779993240961
406, 35.48496113551876
406.5, 35.48496113551876
407, 35.61450940633097
407.5, 35.61450940633097
408, 35.711670609440134
408.5, 35.711670609440134
409, 35.808831812549286
409.5, 35.808831812549286
410, 35.93838008336152
410.5, 35.93838008336152
411, 36.03554128647066
411.5, 36.03554128647066
412, 36.16508955728287
412.5, 36.16508955728287
413, 36.26225076039202
413.5, 36.26225076039202
414, 36.488960234313396
414.5, 36.488960234313396
415, 36.61850850512563
415.5, 36.61850850512563
416, 36.780443843640896
416.5, 36.780443843640896
417, 36.90999211445309
417.5, 36.90999211445309
418, 37.00715331756224
418.5, 37.00715331756224
419, 37.1043145206714
419.5, 37.233862791483624
420, 37.233862791483624
420.5, 37.39579812999889
421, 37.39579812999889
421.5, 37.52534640081109
422, 37.52534640081109
422.5, 37.68728173932635
423, 37.68728173932635
423.5, 37.849217077841615
424, 37.849217077841615
424.5, 37.97876534865384
425, 37.97876534865384
425.5, 38.075926551763
426, 38.075926551763
426.5, 38.23786189027826
427, 38.23786189027826
427.5, 38.399797228793524
428, 38.399797228793524
428.5, 38.529345499605725
429, 38.529345499605725
429.5, 38.65889377041795
430, 38.65889377041795
430.5, 38.853216176636266
431, 38.853216176636266
431.5, 39.079925650557634
432, 39.079925650557634
432.5, 39.2418609890729
433, 39.2418609890729
433.5, 39.46857046299426
434, 39.46857046299426
434.5, 39.63050580150952
435, 39.792441140024785
435.5, 39.792441140024785
436, 39.95437647854006
436.5, 39.95437647854006
437, 40.08392474935227
437.5, 40.08392474935227
438, 40.27824715557059
438.5, 40.27824715557059
439, 40.343021290976694
439.5, 40.343021290976694
440, 40.50495662949196
440.5, 40.50495662949196
441, 40.66689196800722
441.5, 40.66689196800722
442, 40.828827306522484
442.5, 40.828827306522484
443, 40.99076264503774
443.5, 40.99076264503774
444, 41.152697983553004
444.5, 41.152697983553004
445, 41.34702038977133
445.5, 41.34702038977133
446, 41.41179452517743
446.5, 41.41179452517743
447, 41.57372986369269
447.5, 41.57372986369269
448, 41.80043933761407
448.5, 41.80043933761407
449, 41.962374676129336
449.5, 42.09192294694154
450, 42.09192294694154
450.5, 42.2538582854568
451, 42.2538582854568
451.5, 42.38340655626902
452, 42.38340655626902
452.5, 42.48056775937818
453, 42.48056775937818
453.5, 42.642503097893446
454, 42.642503097893446
454.5, 42.83682550411175
455, 42.83682550411175
455.5, 42.96637377492397
456, 42.96637377492397
456.5, 43.06353497803313
457, 43.06353497803313
457.5, 43.19308324884534
458, 43.19308324884534
458.5, 43.257857384251444
459, 43.257857384251444
459.5, 43.322631519657556
460, 43.322631519657556
460.5, 43.38740565506366
461, 43.38740565506366
461.5, 43.54934099357892
462, 43.54934099357892
462.5, 43.64650219668808
463, 43.64650219668808
463.5, 43.77605046750028
464, 43.77605046750028
464.5, 43.905598738312506
465, 44.06753407682777
465.5, 44.06753407682777
466, 44.13230821223387
466.5, 44.13230821223387
467, 44.22946941534303
467.5, 44.22946941534303
468, 44.391404753858296
468.5, 44.391404753858296
469, 44.488565956967456
469.5, 44.488565956967456
470, 44.61811422777966
470.5, 44.61811422777966
471, 44.74766249859188
471.5, 44.74766249859188
472, 44.90959783710714
472.5, 44.90959783710714
473, 44.97437197251325
473.5, 44.97437197251325
474, 45.071533175622406
474.5, 45.071533175622406
475, 45.265855581840725
475.5, 45.265855581840725
476, 45.33062971724683
476.5, 45.33062971724683
477, 45.39540385265293
477.5, 45.39540385265293
478, 45.5573391911682
478.5, 45.5573391911682
479, 45.71927452968345
479.5, 45.81643573279262
480, 45.81643573279262
480.5, 46.04314520671399
481, 46.04314520671399
481.5, 46.20508054522925
482, 46.20508054522925
482.5, 46.20508054522925
483, 46.20508054522925
483.5, 46.20508054522925
484, 46.20508054522925
484.5, 46.20508054522925
485, 46.20508054522925
485.5, 46.237467612932306
486, 46.237467612932306
486.5, 46.26985468063536
487, 46.26985468063536
487.5, 46.334628816041466
488, 46.334628816041466
488.5, 46.431790019150625
489, 46.431790019150625
489.5, 46.49656415455673
490, 46.49656415455673
490.5, 46.561338289962826
491, 46.561338289962826
491.5, 46.49656415455673
492, 46.49656415455673
492.5, 46.431790019150625
493, 46.431790019150625
493.5, 46.36701588374452
494, 46.36701588374452
494.5, 46.334628816041466
495, 46.1726934775262
495.5, 46.1726934775262
496, 46.01075813901094
496.5, 46.01075813901094
497, 45.848822800495675
497.5, 45.848822800495675
498, 45.6221133265743
498.5, 45.6221133265743
499, 45.46017798805903
499.5, 45.46017798805903
500, 45.298242649543766
500.5, 45.298242649543766
501, 45.03914610791934
501.5, 45.03914610791934
502, 44.74766249859188
502.5, 44.74766249859188
503, 44.520953024670504
503.5, 44.520953024670504
504, 44.32663061845219
504.5, 44.32663061845219
505, 44.002759941421665
505.5, 44.002759941421665
506, 43.74366339979724
506.5, 43.74366339979724
507, 43.48456685817282
507.5, 43.48456685817282
508, 43.12830911343924
508.5, 43.12830911343924
509, 42.80443843640871
509.5, 42.80443843640871
510, 42.48056775937818
510.5, 42.09192294694154
511, 42.09192294694154
511.5, 41.67089106680185
512, 41.67089106680185
512.5, 41.282246254365226
513, 41.282246254365226
513.5, 40.99076264503774
514, 40.99076264503774
514.5, 40.634504900304165
515, 40.634504900304165
515.5, 40.27824715557059
516, 40.27824715557059
516.5, 40.01915061394617
517, 40.01915061394617
517.5, 39.76005407232174
518, 39.76005407232174
518.5, 39.50095753069732
519, 39.50095753069732
519.5, 39.2418609890729
520, 39.2418609890729
520.5, 39.01515151515153
521, 39.01515151515153
521.5, 38.626506702714885
522, 38.626506702714885
522.5, 38.270248957981316
523, 38.270248957981316
523.5, 38.01115241635689
524, 38.01115241635689
524.5, 37.78444294243551
525, 37.52534640081109
525.5, 37.52534640081109
526, 37.33102399459278
526.5, 37.33102399459278
527, 37.16908865607752
527.5, 37.16908865607752
528, 37.00715331756224
528.5, 37.00715331756224
529, 36.780443843640896
529.5, 36.780443843640896
530, 36.61850850512563
530.5, 36.61850850512563
531, 36.424186098907285
531.5, 36.424186098907285
532, 36.22986369268898
532.5, 36.22986369268898
533, 36.10031542187677
533.5, 36.10031542187677
534, 36.003154218767605
534.5, 36.003154218767605
535, 35.84121888025234
535.5, 35.84121888025234
536, 35.711670609440134
536.5, 35.711670609440134
537, 35.61450940633097
537.5, 35.61450940633097
538, 35.48496113551876
538.5, 35.48496113551876
539, 35.35541286470655
539.5, 35.35541286470655
540, 35.25825166159741
540.5, 35.16109045848823
541, 35.16109045848823
541.5, 35.12870339078518
542, 35.12870339078518
542.5, 35.06392925537908
543, 35.06392925537908
543.5, 35.031542187676024
544, 35.031542187676024
544.5, 34.93438098456687
545, 34.93438098456687
545.5, 34.93438098456687
546, 34.93438098456687
546.5, 34.96676805226991
547, 34.96676805226991
547.5, 34.901993916863816
548, 34.901993916863816
548.5, 34.901993916863816
549, 34.901993916863816
549.5, 34.86960684916076
550, 34.86960684916076
550.5, 34.86960684916076
551, 34.86960684916076
551.5, 34.901993916863816
552, 34.901993916863816
552.5, 34.901993916863816
553, 34.901993916863816
553.5, 34.93438098456687
554, 34.93438098456687
554.5, 34.96676805226991
555, 35.06392925537908
555.5, 35.06392925537908
556, 35.09631632308215
556.5, 35.09631632308215
557, 35.09631632308215
557.5, 35.09631632308215
558, 35.19347752619129
558.5, 35.19347752619129
559, 35.29063872930044
559.5, 35.29063872930044
560, 35.35541286470655
560.5, 35.35541286470655
561, 35.38779993240961
561.5, 35.38779993240961
562, 35.48496113551876
562.5, 35.48496113551876
563, 35.64689647403402
563.5, 35.64689647403402
564, 35.77644474484626
564.5, 35.77644474484626
565, 35.90599301565845
565.5, 35.90599301565845
566, 36.03554128647066
566.5, 36.03554128647066
567, 36.10031542187677
567.5, 36.10031542187677
568, 36.22986369268898
568.5, 36.22986369268898
569, 36.32702489579813
569.5, 36.32702489579813
570, 36.26225076039202
570.5, 36.29463782809509
571, 36.29463782809509
571.5, 36.39179903120424
572, 36.39179903120424
572.5, 36.456573166610355
573, 36.456573166610355
573.5, 36.488960234313396
574, 36.488960234313396
574.5, 36.488960234313396
575, 36.488960234313396
575.5, 36.488960234313396
576, 36.488960234313396
576.5, 36.488960234313396
577, 36.488960234313396
577.5, 36.488960234313396
578, 36.488960234313396
578.5, 36.424186098907285
579, 36.424186098907285
579.5, 36.488960234313396
580, 36.488960234313396
580.5, 36.456573166610355
581, 36.456573166610355
581.5, 36.424186098907285
582, 36.424186098907285
582.5, 36.424186098907285
583, 36.424186098907285
583.5, 36.39179903120424
584, 36.39179903120424
584.5, 36.39179903120424
585, 36.39179903120424
585.5, 36.3594119635012
586, 36.26225076039202
586.5, 36.26225076039202
587, 36.19747662498594
587.5, 36.19747662498594
588, 36.19747662498594
588.5, 36.19747662498594
589, 36.16508955728287
589.5, 36.16508955728287
590, 36.10031542187677
590.5, 36.10031542187677
591, 36.03554128647066
591.5, 36.03554128647066
592, 35.97076715106455
592.5, 35.97076715106455
593, 36.067928354173716
593.5, 36.067928354173716
594, 36.067928354173716
594.5, 36.067928354173716
595, 35.90599301565845
595.5, 35.90599301565845
596, 35.61450940633097
596.5, 35.61450940633097
597, 35.38779993240961
597.5, 35.38779993240961
598, 35.29063872930044
598.5, 35.29063872930044
599, 35.19347752619129
599.5, 35.19347752619129
600, 35.031542187676024
600.5, 34.86960684916076
601, 34.86960684916076
601.5, 34.7076715106455
602, 34.7076715106455
602.5, 34.51334910442718
603, 34.51334910442718
603.5, 34.41618790131804
604, 34.41618790131804
604.5, 34.2866396305058
605, 34.2866396305058
605.5, 34.12470429199054
606, 34.12470429199054
606.5, 33.962768953475276
607, 33.962768953475276
607.5, 33.83322068266307
608, 33.83322068266307
608.5, 33.671285344147805
609, 33.671285344147805
609.5, 33.476962937929486
610, 33.476962937929486
610.5, 33.34741466711728
611, 33.34741466711728
611.5, 33.217866396305084
612, 33.217866396305084
612.5, 33.08831812549285
613, 33.08831812549285
613.5, 32.926382786977584
614, 32.926382786977584
614.5, 32.796834516165376
615, 32.796834516165376
615.5, 32.63489917765011
616, 32.537737974540974
616.5, 32.537737974540974
617, 32.40818970372874
617.5, 32.40818970372874
618, 32.27864143291653
618.5, 32.27864143291653
619, 32.14909316210432
619.5, 32.14909316210432
620, 32.05193195899518
620.5, 32.05193195899518
621, 31.922383688182947
621.5, 31.922383688182947
622, 31.857609552776864
622.5, 31.857609552776864
623, 31.728061281964642
623.5, 31.728061281964642
624, 31.66328714655853
624.5, 31.66328714655853
625, 31.566125943449364
625.5, 31.566125943449364
626, 31.436577672637156
626.5, 31.436577672637156
627, 31.4041906049341
627.5, 31.4041906049341
628, 31.371803537231074
628.5, 31.371803537231074
629, 31.30702940182495
629.5, 31.30702940182495
630, 31.242255266418837
630.5, 31.145094063309685
631, 31.145094063309685
631.5, 31.01554579249749
632, 31.01554579249749
632.5, 30.853610453982228
633, 30.853610453982228
633.5, 30.821223386279172
634, 30.821223386279172
634.5, 30.756449250873047
635, 30.756449250873047
635.5, 30.691675115466964
636, 30.691675115466964
636.5, 30.594513912357783
637, 30.594513912357783
637.5, 30.497352709248645
638, 30.497352709248645
638.5, 30.400191506139464
639, 30.400191506139464
639.5, 30.367804438436423
640, 30.367804438436423
640.5, 30.400191506139464
641, 30.400191506139464
641.5, 30.400191506139464
642, 30.400191506139464
642.5, 30.367804438436423
643, 30.367804438436423
643.5, 30.30303030303031
644, 30.30303030303031
644.5, 30.20586909992116
645, 30.20586909992116
645.5, 30.108707896811993
646, 30.108707896811993
646.5, 30.108707896811993
647, 30.04393376140588
647.5, 30.04393376140588
648, 30.04393376140588
648.5, 30.04393376140588
649, 29.9791596259998
649.5, 29.9791596259998
650, 29.9791596259998
650.5, 29.9791596259998
651, 29.94677255829673
651.5, 29.94677255829673
652, 29.881998422890618
652.5, 29.881998422890618
653, 29.784837219781465
653.5, 29.784837219781465
654, 29.720063084375354
654.5, 29.720063084375354
655, 29.720063084375354
655.5, 29.720063084375354
656, 29.687676016672313
656.5, 29.687676016672313
657, 29.687676016672313
657.5, 29.687676016672313
658, 29.75245015207841
658.5, 29.75245015207841
659, 29.75245015207841
659.5, 29.75245015207841
660, 29.720063084375354
660.5, 29.720063084375354
661, 29.687676016672313
661.5, 29.687676016672313
662, 29.687676016672313
662.5, 29.622901881266202
663, 29.622901881266202
663.5, 29.590514813563146
664, 29.590514813563146
664.5, 29.52574067815705
665, 29.52574067815705
665.5, 29.493353610454008
666, 29.493353610454008
666.5, 29.46096654275094
667, 29.46096654275094
667.5, 29.52574067815705
668, 29.52574067815705
668.5, 29.493353610454008
669, 29.493353610454008
669.5, 29.46096654275094
670, 29.46096654275094
670.5, 29.363805339641786
671, 29.363805339641786
671.5, 29.299031204235675
672, 29.299031204235675
672.5, 29.234257068829564
673, 29.234257068829564
673.5, 29.299031204235675
674, 29.299031204235675
674.5, 29.26664413653262
675, 29.26664413653262
675.5, 29.26664413653262
676, 29.299031204235675
676.5, 29.299031204235675
677, 29.396192407344827
677.5, 29.396192407344827
678, 29.428579475047883
678.5, 29.428579475047883
679, 29.428579475047883
679.5, 29.428579475047883
680, 29.428579475047883
680.5, 29.428579475047883
681, 29.428579475047883
681.5, 29.428579475047883
682, 29.428579475047883
682.5, 29.428579475047883
683, 29.428579475047883
683.5, 29.428579475047883
684, 29.396192407344827
684.5, 29.396192407344827
685, 29.396192407344827
685.5, 29.396192407344827
686, 29.396192407344827
686.5, 29.396192407344827
687, 29.428579475047883
687.5, 29.428579475047883
688, 29.46096654275094
688.5, 29.46096654275094
689, 29.493353610454008
689.5, 29.493353610454008
690, 29.493353610454008
690.5, 29.493353610454008
691, 29.428579475047883
691.5, 29.396192407344827
692, 29.396192407344827
692.5, 29.396192407344827
693, 29.396192407344827
693.5, 29.428579475047883
694, 29.428579475047883
694.5, 29.428579475047883
695, 29.428579475047883
695.5, 29.46096654275094
696, 29.46096654275094
696.5, 29.493353610454008
697, 29.493353610454008
697.5, 29.428579475047883
698, 29.428579475047883
698.5, 29.493353610454008
699, 29.493353610454008
699.5, 29.55812774586009
700, 29.55812774586009
700.5, 29.590514813563146
701, 29.590514813563146
701.5, 29.590514813563146
702, 29.590514813563146
702.5, 29.622901881266202
703, 29.622901881266202
703.5, 29.622901881266202
704, 29.622901881266202
704.5, 29.55812774586009
705, 29.55812774586009
705.5, 29.55812774586009
706, 29.55812774586009
706.5, 29.55812774586009
707, 29.590514813563146
707.5, 29.590514813563146
708, 29.590514813563146
708.5, 29.590514813563146
709, 29.590514813563146
709.5, 29.590514813563146
710, 29.590514813563146
710.5, 29.590514813563146
711, 29.622901881266202
711.5, 29.622901881266202
712, 29.622901881266202
712.5, 29.622901881266202
713, 29.622901881266202
713.5, 29.622901881266202
714, 29.687676016672313
714.5, 29.687676016672313
715, 29.687676016672313
715.5, 29.687676016672313
716, 29.687676016672313
716.5, 29.687676016672313
717, 29.65528894896927
717.5, 29.65528894896927
718, 29.687676016672313
718.5, 29.687676016672313
719, 29.75245015207841
719.5, 29.75245015207841
720, 29.784837219781465
720.5, 29.784837219781465
721, 29.784837219781465
721.5, 29.784837219781465
722, 29.784837219781465
722.5, 29.784837219781465
723, 29.784837219781465
723.5, 29.784837219781465
724, 29.784837219781465
724.5, 29.784837219781465
725, 29.784837219781465
725.5, 29.817224287484535
726, 29.817224287484535
726.5, 29.784837219781465
727, 29.784837219781465
727.5, 29.817224287484535
728, 29.817224287484535
728.5, 29.881998422890618
729, 29.881998422890618
729.5, 29.914385490593673
730, 29.914385490593673
730.5, 29.9791596259998
731, 29.9791596259998
731.5, 30.04393376140588
732, 30.04393376140588
732.5, 30.04393376140588
733, 30.04393376140588
733.5, 30.076320829108937
734, 30.076320829108937
734.5, 30.108707896811993
735, 30.108707896811993
735.5, 30.108707896811993
736, 30.108707896811993
736.5, 30.108707896811993
737, 30.076320829108937
737.5, 30.076320829108937
738, 30.141094964515048
738.5, 30.141094964515048
739, 30.20586909992116
739.5, 30.20586909992116
740, 30.2382561676242
740.5, 30.2382561676242
741, 30.20586909992116
741.5, 30.20586909992116
742, 30.20586909992116
742.5, 30.20586909992116
743, 30.2382561676242
743.5, 30.2382561676242
744, 30.367804438436423
744.5, 30.367804438436423
745, 30.400191506139464
745.5, 30.400191506139464
746, 30.400191506139464
746.5, 30.400191506139464
747, 30.33541737073338
747.5, 30.33541737073338
748, 30.367804438436423
748.5, 30.367804438436423
749, 30.400191506139464
749.5, 30.400191506139464
750, 30.400191506139464
750.5, 30.400191506139464
751, 30.400191506139464
751.5, 30.367804438436423
752, 30.367804438436423
752.5, 30.33541737073338
753, 30.33541737073338
753.5, 30.367804438436423
754, 30.367804438436423
754.5, 30.43257857384252
755, 30.43257857384252
755.5, 30.464965641545575
756, 30.464965641545575
756.5, 30.562126844654728
757, 30.562126844654728
757.5, 30.65928804776391
758, 30.65928804776391
758.5, 30.72406218316999
759, 30.72406218316999
759.5, 30.756449250873047
760, 30.756449250873047
760.5, 30.756449250873047
761, 30.756449250873047
761.5, 30.788836318576102
762, 30.788836318576102
762.5, 30.853610453982228
763, 30.853610453982228
763.5, 30.950771657091366
764, 30.950771657091366
764.5, 31.047932860200532
765, 31.047932860200532
765.5, 31.047932860200532
766, 31.047932860200532
766.5, 31.11270699560663
767, 31.145094063309685
767.5, 31.145094063309685
768, 31.145094063309685
768.5, 31.145094063309685
769, 31.177481131012755
769.5, 31.177481131012755
770, 31.209868198715796
770.5, 31.209868198715796
771, 31.339416469528018
771.5, 31.339416469528018
772, 31.339416469528018
772.5, 31.339416469528018
773, 31.339416469528018
773.5, 31.339416469528018
774, 31.371803537231074
774.5, 31.371803537231074
775, 31.533738875746337
775.5, 31.533738875746337
776, 31.59851301115242
776.5, 31.59851301115242
777, 31.630900078855475
777.5, 31.630900078855475
778, 31.630900078855475
778.5, 31.630900078855475
779, 31.6956742142616
779.5, 31.6956742142616
780, 31.728061281964642
780.5, 31.728061281964642
781, 31.6956742142616
781.5, 31.760448349667683
782, 31.760448349667683
782.5, 31.825222485073795
783, 31.825222485073795
783.5, 31.825222485073795
784, 31.825222485073795
784.5, 31.922383688182947
785, 31.922383688182947
785.5, 31.954770755886003
786, 31.954770755886003
786.5, 31.954770755886003
787, 31.954770755886003
787.5, 31.954770755886003
788, 31.954770755886003
788.5, 31.922383688182947
789, 31.922383688182947
789.5, 31.987157823589058
790, 31.987157823589058
790.5, 32.01954489129213
791, 32.01954489129213
791.5, 31.954770755886003
792, 31.954770755886003
792.5, 32.01954489129213
793, 32.01954489129213
793.5, 32.01954489129213
794, 32.01954489129213
794.5, 31.954770755886003
795, 31.954770755886003
795.5, 31.889996620479906
796, 31.889996620479906
796.5, 31.889996620479906
797, 31.889996620479906
797.5, 31.889996620479906
798, 31.987157823589058
798.5, 31.987157823589058
799, 31.954770755886003
799.5, 31.954770755886003
800, 31.889996620479906
800.5, 31.889996620479906
801, 31.857609552776864
801.5, 31.857609552776864
802, 31.760448349667683
802.5, 31.760448349667683
803, 31.6956742142616
803.5, 31.6956742142616
804, 31.6956742142616
804.5, 31.6956742142616
805, 31.66328714655853
805.5, 31.66328714655853
806, 31.566125943449364
806.5, 31.566125943449364
807, 31.533738875746337
807.5, 31.533738875746337
808, 31.468964740340212
808.5, 31.468964740340212
809, 31.468964740340212
809.5, 31.468964740340212
810, 31.436577672637156
810.5, 31.436577672637156
811, 31.371803537231074
811.5, 31.371803537231074
812, 31.274642334121893
812.5, 31.177481131012755
813, 31.177481131012755
813.5, 31.080319927903574
814, 31.080319927903574
814.5, 30.88599752168527
815, 30.88599752168527
815.5, 30.821223386279172
816, 30.821223386279172
816.5, 30.72406218316999
817, 30.72406218316999
817.5, 30.62690098006084
818, 30.62690098006084
818.5, 30.562126844654728
819, 30.562126844654728
819.5, 30.497352709248645
820, 30.497352709248645
820.5, 30.43257857384252
821, 30.43257857384252
821.5, 30.367804438436423
822, 30.367804438436423
822.5, 30.108707896811993
823, 30.108707896811993
823.5, 30.04393376140588
824, 30.04393376140588
824.5, 29.817224287484535
825, 29.817224287484535
825.5, 29.720063084375354
826, 29.720063084375354
826.5, 29.590514813563146
827, 29.46096654275094
827.5, 29.46096654275094
828, 29.363805339641786
828.5, 29.363805339641786
829, 29.234257068829564
829.5, 29.234257068829564
830, 29.16948293342348
830.5, 29.16948293342348
831, 29.039934662611245
831.5, 29.039934662611245
832, 28.84561225639294
832.5, 28.84561225639294
833, 28.78083812098683
833.5, 28.78083812098683
834, 28.78083812098683
834.5, 28.78083812098683
835, 28.78083812098683
835.5, 28.78083812098683
836, 28.78083812098683
836.5, 28.78083812098683
837, 28.8132251886899
837.5, 28.8132251886899
838, 28.8132251886899
838.5, 28.8132251886899
839, 28.78083812098683
839.5, 28.78083812098683
840, 28.78083812098683
840.5, 28.78083812098683
841, 28.651289850174635
841.5, 28.651289850174635
842, 28.48935451165937
842.5, 28.262645037737983
843, 28.262645037737983
843.5, 28.13309676692579
844, 28.13309676692579
844.5, 27.9063872930044
845, 27.9063872930044
845.5, 27.80922608989526
846, 27.80922608989526
846.5, 27.744451954489136
847, 27.744451954489136
847.5, 27.71206488678608
848, 27.71206488678608
848.5, 27.71206488678608
849, 27.71206488678608
849.5, 27.614903683676943
850, 27.614903683676943
850.5, 27.550129548270817
851, 27.550129548270817
851.5, 27.45296834516168
852, 27.45296834516168
852.5, 27.355807142052498
853, 27.355807142052498
853.5, 27.291033006646416
854, 27.291033006646416
854.5, 27.193871803537235
855, 27.193871803537235
855.5, 27.03193646502197
856, 27.03193646502197
856.5, 26.93477526191282
857, 26.902388194209763
857.5, 26.902388194209763
858, 26.93477526191282
858.5, 26.93477526191282
859, 26.93477526191282
859.5, 26.93477526191282
860, 26.902388194209763
860.5, 26.902388194209763
861, 26.870001126506708
861.5, 26.870001126506708
862, 26.870001126506708
862.5, 26.870001126506708
863, 26.837614058803652
863.5, 26.837614058803652
864, 26.902388194209763
864.5, 26.902388194209763
865, 26.93477526191282
865.5, 26.93477526191282
866, 26.902388194209763
866.5, 26.902388194209763
867, 26.902388194209763
867.5, 26.902388194209763
868, 26.96716232961589
868.5, 26.96716232961589
869, 26.902388194209763
869.5, 26.902388194209763
870, 26.870001126506708
870.5, 26.870001126506708
871, 26.870001126506708
871.5, 26.870001126506708
872, 26.870001126506708
872.5, 26.93477526191282
873, 26.93477526191282
873.5, 26.96716232961589
874, 26.96716232961589
874.5, 26.96716232961589
875, 26.96716232961589
875.5, 26.96716232961589
876, 26.96716232961589
876.5, 27.03193646502197
877, 27.03193646502197
877.5, 27.096710600428082
878, 27.096710600428082
878.5, 27.096710600428082
879, 27.096710600428082
879.5, 27.096710600428082
880, 27.096710600428082
880.5, 27.064323532725027
881, 27.064323532725027
881.5, 27.064323532725027
882, 27.064323532725027
882.5, 27.064323532725027
883, 27.064323532725027
883.5, 27.096710600428082
884, 27.096710600428082
884.5, 27.161484735834193
885, 27.161484735834193
885.5, 27.193871803537235
886, 27.193871803537235
886.5, 27.22625887124029
887, 27.22625887124029
887.5, 27.258645938943346
888, 27.258645938943346
888.5, 27.258645938943346
889, 27.258645938943346
889.5, 27.258645938943346
890, 27.22625887124029
890.5, 27.22625887124029
891, 27.22625887124029
891.5, 27.22625887124029
892, 27.258645938943346
892.5, 27.258645938943346
893, 27.291033006646416
893.5, 27.291033006646416
894, 27.355807142052498
894.5, 27.355807142052498
895, 27.355807142052498
895.5, 27.355807142052498
896, 27.42058127745861
896.5, 27.42058127745861
897, 27.388194209755554
897.5, 27.388194209755554
898, 27.388194209755554
898.5, 27.388194209755554
899, 27.355807142052498
899.5, 27.355807142052498
900, 27.42058127745861
900.5, 27.42058127745861
901, 27.485355412864735
901.5, 27.485355412864735
902, 27.550129548270817
902.5, 27.550129548270817
903, 27.550129548270817
903.5, 27.582516615973873
904, 27.582516615973873
904.5, 27.582516615973873
905, 27.582516615973873
905.5, 27.582516615973873
906, 27.582516615973873
906.5, 27.647290751379998
907, 27.647290751379998
907.5, 27.67967781908304
908, 27.67967781908304
908.5, 27.71206488678608
909, 27.71206488678608
909.5, 27.80922608989526
910, 27.80922608989526
910.5, 27.9063872930044
911, 27.9063872930044
911.5, 28.003548496113567
912, 28.003548496113567
912.5, 28.10070969922272
913, 28.10070969922272
913.5, 28.230257970034927
914, 28.230257970034927
914.5, 28.327419173144108
915, 28.327419173144108
915.5, 28.424580376253246
916, 28.424580376253246
916.5, 28.683676917877676
917, 28.683676917877676
917.5, 28.716063985580718
918, 28.78083812098683
918.5, 28.78083812098683
919, 28.78083812098683
919.5, 28.78083812098683
920, 28.683676917877676
920.5, 28.683676917877676
921, 28.618902782471565
921.5, 28.618902782471565
922, 28.683676917877676
922.5, 28.683676917877676
923, 28.8132251886899
923.5, 28.8132251886899
924, 28.910386391799037
924.5, 28.910386391799037
925, 29.0723217303143
925.5, 29.0723217303143
926, 29.201870001126508
926.5, 29.201870001126508
927, 29.234257068829564
927.5, 29.234257068829564
928, 29.299031204235675
928.5, 29.299031204235675
929, 29.396192407344827
929.5, 29.396192407344827
930, 29.46096654275094
930.5, 29.46096654275094
931, 29.46096654275094
931.5, 29.46096654275094
932, 29.493353610454008
932.5, 29.622901881266202
933, 29.622901881266202
933.5, 29.784837219781465
934, 29.784837219781465
934.5, 29.84961135518759
935, 29.84961135518759
935.5, 29.94677255829673
936, 29.94677255829673
936.5, 30.141094964515048
937, 30.141094964515048
937.5, 30.270643235327256
938, 30.270643235327256
938.5, 30.33541737073338
939, 30.33541737073338
939.5, 30.464965641545575
940, 30.464965641545575
940.5, 30.62690098006084
941, 30.62690098006084
941.5, 30.756449250873047
942, 30.756449250873047
942.5, 30.950771657091366
943, 30.950771657091366
943.5, 31.11270699560663
944, 31.11270699560663
944.5, 31.242255266418837
945, 31.242255266418837
945.5, 31.4041906049341
946, 31.4041906049341
946.5, 31.630900078855475
947, 31.630900078855475
947.5, 31.6956742142616
948, 31.825222485073795
948.5, 31.825222485073795
949, 32.01954489129213
949.5, 32.01954489129213
950, 32.18148022980739
950.5, 32.18148022980739
951, 32.21386729751045
951.5, 32.21386729751045
952, 32.40818970372874
952.5, 32.40818970372874
953, 32.73206038075929
953.5, 32.73206038075929
954, 32.89399571927456
954.5, 32.89399571927456
955, 32.95876985468064
955.5, 32.95876985468064
956, 33.15309226089896
956.5, 33.15309226089896
957, 33.34741466711728
957.5, 33.34741466711728
958, 33.476962937929486
958.5, 33.476962937929486
959, 33.60651120874169
959.5, 33.60651120874169
960, 33.89799481806919
960.5, 33.89799481806919
961, 33.99515602117833
961.5, 33.99515602117833
962, 34.0923172242875
962.5, 34.22186549509972
963, 34.22186549509972
963.5, 34.383800833614984
964, 34.383800833614984
964.5, 34.54573617213025
965, 34.54573617213025
965.5, 34.901993916863816
966, 34.901993916863816
966.5, 35.22586459389434
967, 35.22586459389434
967.5, 35.35541286470655
968, 35.35541286470655
968.5, 35.38779993240961
969, 35.38779993240961
969.5, 35.582122338627926
970, 35.582122338627926
970.5, 35.74405767714319
971, 35.74405767714319
971.5, 35.8736059479554
972, 35.8736059479554
972.5, 35.97076715106455
973, 35.97076715106455
973.5, 36.10031542187677
974, 36.10031542187677
974.5, 36.22986369268898
975, 36.22986369268898
975.5, 36.32702489579813
976, 36.32702489579813
976.5, 36.55373436971951
977, 36.55373436971951
977.5, 36.748056775937826
978, 36.90999211445309
978.5, 36.90999211445309
979, 37.07192745296836
979.5, 37.07192745296836
980, 37.233862791483624
980.5, 37.233862791483624
981, 37.39579812999889
981.5, 37.39579812999889
982, 37.590120536217206
982.5, 37.590120536217206
983, 37.88160414554468
983.5, 37.88160414554468
984, 37.91399121324773
984.5, 37.91399121324773
985, 37.946378280950775
985.5, 37.946378280950775
986, 38.01115241635689
986.5, 38.01115241635689
987, 38.1407006871691
987.5, 38.1407006871691
988, 38.2054748225752
988.5, 38.2054748225752
989, 38.270248957981316
989.5, 38.270248957981316
990, 38.399797228793524
990.5, 38.399797228793524
991, 38.65889377041795
991.5, 38.65889377041795
992, 38.691280838121
992.5, 38.691280838121
993, 38.853216176636266
993.5, 38.982764447448474
994, 38.982764447448474
994.5, 39.17708685366679
995, 39.17708685366679
995.5, 39.2418609890729
996, 39.2418609890729
996.5, 39.27424805677595
997, 39.27424805677595
997.5, 39.33902219218206
998, 39.33902219218206
998.5, 39.46857046299426
999, 39.46857046299426
999.5, 39.72766700461868
1000, 39.72766700461868
1000.5, 39.92198941083701
1001, 39.92198941083701
1001.5, 40.05153768164921
1002, 40.05153768164921
1002.5, 40.14869888475837
1003, 40.14869888475837
1003.5, 40.14869888475837
1004, 40.14869888475837
1004.5, 40.245860087867534
1005, 40.245860087867534
1005.5, 40.37540835867975
1006, 40.37540835867975
1006.5, 40.50495662949196
1007, 40.50495662949196
1007.5, 40.569730764898054
1008, 40.60211783260112
1008.5, 40.60211783260112
1009, 40.634504900304165
1009.5, 40.634504900304165
1010, 40.66689196800722
1010.5, 40.66689196800722
1011, 40.76405317111638
1011.5, 40.76405317111638
1012, 40.925988509631644
1012.5, 40.925988509631644
1013, 41.08792384814691
1013.5, 41.08792384814691
1014, 41.21747211895912
1014.5, 41.21747211895912
1015, 41.24985918666217
1015.5, 41.24985918666217
1016, 41.476568660583546
1016.5, 41.476568660583546
1017, 41.63850399909881
1017.5, 41.63850399909881
1018, 41.70327813450491
1018.5, 41.70327813450491
1019, 41.76805226991102
1019.5, 41.76805226991102
1020, 41.86521347302018
1020.5, 41.86521347302018
1021, 42.189084150050704
1021.5, 42.189084150050704
1022, 42.28624535315986
1022.5, 42.28624535315986
1023, 42.38340655626902
1023.5, 42.44818069167513
1024, 42.44818069167513
1024.5, 42.642503097893446
1025, 42.642503097893446
1025.5, 42.86921257181481
1026, 42.86921257181481
1026.5, 42.93398670722091
1027, 42.93398670722091
1027.5, 43.03114791033008
1028, 43.03114791033008
1028.5, 43.12830911343924
1029, 43.12830911343924
1029.5, 43.16069618114229
1030, 43.16069618114229
1030.5, 43.322631519657556
1031, 43.322631519657556
1031.5, 43.45217979046976
1032, 43.45217979046976
1032.5, 43.58172806128198
1033, 43.58172806128198
1033.5, 43.64650219668808
1034, 43.64650219668808
1034.5, 43.64650219668808
1035, 43.64650219668808
1035.5, 43.71127633209419
1036, 43.71127633209419
1036.5, 43.808437535203346
1037, 43.808437535203346
1037.5, 44.03514700912471
1038, 44.22946941534303
1038.5, 44.22946941534303
1039, 44.35901768615524
1039.5, 44.35901768615524
1040, 44.45617888926439
1040.5, 44.45617888926439
1041, 44.55334009237356
1041.5, 44.55334009237356
1042, 44.74766249859188
1042.5, 44.74766249859188
1043, 44.90959783710714
1043.5, 44.90959783710714
1044, 45.03914610791934
1044.5, 45.03914610791934
1045, 45.265855581840725
1045.5, 45.265855581840725
1046, 45.46017798805903
1046.5, 45.46017798805903
1047, 45.68688746198041
1047.5, 45.68688746198041
1048, 45.751661597386516
1048.5, 45.751661597386516
1049, 45.848822800495675
1049.5, 45.848822800495675
1050, 45.978371071307876
1050.5, 45.978371071307876
1051, 46.237467612932306
1051.5, 46.237467612932306
1052, 46.464177086853674
1052.5, 46.464177086853674
1053, 46.62611242536894
1053.5, 46.82043483158725
1054, 46.82043483158725
1054.5, 46.85282189929031
1055, 46.85282189929031
1055.5, 47.014757237805576
1056, 47.014757237805576
1056.5, 47.27385377943
1057, 47.27385377943
1057.5, 47.43578911794526
1058, 47.43578911794526
1058.5, 47.56533738875747
1059, 47.56533738875747
1059.5, 47.694885659569685
1060, 47.694885659569685
1060.5, 47.889208065788004
1061, 47.889208065788004
1061.5, 48.05114340430327
1062, 48.05114340430327
1062.5, 48.180691675115476
1063, 48.180691675115476
1063.5, 48.4397882167399
1064, 48.4397882167399
1064.5, 48.60172355525516
1065, 48.60172355525516
1065.5, 48.66649769066127
1066, 48.66649769066127
1066.5, 48.82843302917653
1067, 48.82843302917653
1067.5, 49.152303706207064
1068, 49.152303706207064
1068.5, 49.540948518643695
1069, 49.6704967894559
1069.5, 49.6704967894559
1070, 49.86481919567422
1070.5, 49.86481919567422
1071, 49.99436746648644
1071.5, 49.99436746648644
1072, 50.123915737298645
1072.5, 50.123915737298645
1073, 50.35062521122001
1073.5, 50.35062521122001
1074, 50.54494761743833
1074.5, 50.54494761743833
1075, 50.609721752844436
1075.5, 50.609721752844436
1076, 50.70688295595359
1076.5, 50.70688295595359
1077, 50.901205362171915
1077.5, 50.901205362171915
1078, 51.289850174608546
1078.5, 51.289850174608546
1079, 51.45178551312381
1079.5, 51.45178551312381
1080, 51.54894671623297
1080.5, 51.54894671623297
1081, 51.80804325785739
1081.5, 51.80804325785739
1082, 52.03475273177876
1082.5, 52.03475273177876
1083, 52.261462205700134
1083.5, 52.358623408809294
1084, 52.358623408809294
1084.5, 52.32623634110624
1085, 52.32623634110624
1085.5, 52.4881716796215
1086, 52.4881716796215
1086.5, 52.747268221245925
1087, 52.747268221245925
1087.5, 52.941590627464244
1088, 52.941590627464244
1088.5, 52.81204235665203
1089, 52.81204235665203
1089.5, 52.87681649205813
1090, 52.87681649205813
1090.5, 52.941590627464244
1091, 52.941590627464244
1091.5, 53.10352596597951
1092, 53.10352596597951
1092.5, 53.233074236791715
1093, 53.233074236791715
1093.5, 53.39500957530698
1094, 53.39500957530698
1094.5, 53.39500957530698
1095, 53.39500957530698
1095.5, 53.49217077841614
1096, 53.49217077841614
1096.5, 53.55694491382224
1097, 53.55694491382224
1097.5, 53.718880252337506
1098, 53.718880252337506
1098.5, 53.88081559085278
1099, 53.913202658555825
1099.5, 53.913202658555825
1100, 53.94558972625888
1100.5, 53.94558972625888
1101, 54.172299200180255
1101.5, 54.172299200180255
1102, 54.30184747099246
1102.5, 54.30184747099246
1103, 54.36662160639857
1103.5, 54.36662160639857
1104, 54.33423453869551
1104.5, 54.33423453869551
1105, 54.26946040328941
1105.5, 54.26946040328941
1106, 54.204686267883304
1106.5, 54.204686267883304
1107, 54.04275092936804
1107.5, 54.04275092936804
1108, 54.07513799707109
1108.5, 54.07513799707109
1109, 54.23707333558635
1109.5, 54.23707333558635
1110, 54.33423453869551
1110.5, 54.33423453869551
1111, 54.496169877210775
1111.5, 54.496169877210775
1112, 54.43139574180467
1112.5, 54.43139574180467
1113, 54.23707333558635
1113.5, 54.07513799707109
1114, 54.07513799707109
1114.5, 53.84842852314972
1115, 53.84842852314972
1115.5, 54.010363861664985
1116, 54.010363861664985
1116.5, 54.04275092936804
1117, 54.04275092936804
1117.5, 53.816041455446666
1118, 53.816041455446666
1118.5, 53.75126732004057
1119, 53.75126732004057
1119.5, 53.75126732004057
1120, 53.75126732004057
1120.5, 53.68649318463446
1121, 53.68649318463446
1121.5, 53.6541061169314
1122, 53.6541061169314
1122.5, 53.39500957530698
1123, 53.39500957530698
1123.5, 53.26546130449477
1124, 53.26546130449477
1124.5, 53.39500957530698
1125, 53.39500957530698
1125.5, 53.20068716908867
1126, 53.20068716908867
1126.5, 52.87681649205813
1127, 52.87681649205813
1127.5, 52.552945815027606
1128, 52.552945815027606
1128.5, 52.32623634110624
1129, 52.39101047651234
1129.5, 52.39101047651234
1130, 52.4233975442154
1130.5, 52.4233975442154
1131, 52.229075137997086
1131.5, 52.229075137997086
1132, 52.19668807029402
1132.5, 52.19668807029402
1133, 52.13191393488792
1133.5, 52.13191393488792
1134, 51.93759152866961
1134.5, 51.93759152866961
1135, 51.64610791934213
1135.5, 51.64610791934213
1136, 51.51655964852992
1136.5, 51.51655964852992
1137, 51.41939844542076
1137.5, 51.41939844542076
1138, 51.2574631069055
1138.5, 51.2574631069055
1139, 50.96597949757802
1139.5, 50.96597949757802
1140, 50.67449588825055
1140.5, 50.67449588825055
1141, 50.64210882054749
1141.5, 50.64210882054749
1142, 50.57733468514139
1142.5, 50.57733468514139
1143, 50.44778641432917
1143.5, 50.44778641432917
1144, 50.221076940407805
1144.5, 49.99436746648644
1145, 49.99436746648644
1145.5, 49.76765799256506
1146, 49.76765799256506
1146.5, 49.540948518643695
1147, 49.540948518643695
1147.5, 49.346626112425376
1148, 49.346626112425376
1148.5, 49.28185197701927
1149, 49.28185197701927
1149.5, 48.990368367691794
1150, 48.990368367691794
1150.5, 48.82843302917653
1151, 48.82843302917653
1151.5, 48.63411062295822
1152, 48.63411062295822
1152.5, 48.60172355525516
1153, 48.60172355525516
1153.5, 48.472175284442955
1154, 48.472175284442955
1154.5, 47.95398220119411
1155, 47.95398220119411
1155.5, 47.82443393038189
1156, 47.82443393038189
1156.5, 47.727272727272734
1157, 47.727272727272734
1157.5, 47.40340205024221
1158, 47.40340205024221
1158.5, 47.209079644023895
1159, 47.111918440914735
1159.5, 47.111918440914735
1160, 46.94998310239947
1160.5, 46.94998310239947
1161, 46.62611242536894
1161.5, 46.62611242536894
1162, 46.20508054522925
1162.5, 46.20508054522925
1163, 45.978371071307876
1163.5, 45.978371071307876
1164, 45.654500394277356
1164.5, 45.654500394277356
1165, 45.46017798805903
1165.5, 45.46017798805903
1166, 45.298242649543766
1166.5, 45.298242649543766
1167, 45.168694378731566
1167.5, 45.168694378731566
1168, 45.071533175622406
1168.5, 45.071533175622406
1169, 44.74766249859188
1169.5, 44.74766249859188
1170, 44.488565956967456
1170.5, 44.488565956967456
1171, 44.16469527993693
1171.5, 44.16469527993693
1172, 43.74366339979724
1172.5, 43.74366339979724
1173, 43.51695392587586
1173.5, 43.51695392587586
1174, 43.2902444519545
1174.5, 43.03114791033008
1175, 43.03114791033008
1175.5, 42.772051368705654
1176, 42.772051368705654
1176.5, 42.512954827081224
1177, 42.512954827081224
1177.5, 42.189084150050704
1178, 42.189084150050704
1178.5, 41.89760054072323
1179, 41.89760054072323
1179.5, 41.80043933761407
1180, 41.80043933761407
1180.5, 41.476568660583546
1181, 41.476568660583546
1181.5, 41.34702038977133
1182, 41.34702038977133
1182.5, 41.05553678044385
1183, 41.05553678044385
1183.5, 40.76405317111638
1184, 40.76405317111638
1184.5, 40.4077954263828
1185, 40.4077954263828
1185.5, 40.05153768164921
1186, 40.05153768164921
1186.5, 39.792441140024785
1187, 39.792441140024785
1187.5, 39.565731666103424
1188, 39.565731666103424
1188.5, 39.3714092598851
1189, 39.17708685366679
1189.5, 39.17708685366679
1190, 39.04753858285457
1190.5, 39.04753858285457
1191, 38.95037737974541
1191.5, 38.95037737974541
1192, 38.36741016109046
1192.5, 38.36741016109046
1193, 38.10831361946604
1193.5, 38.10831361946604
1194, 37.97876534865384
1194.5, 37.97876534865384
1195, 37.78444294243551
1195.5, 37.78444294243551
1196, 37.55773346851415
1196.5, 37.55773346851415
1197, 37.363411062295825
1197.5, 37.363411062295825
1198, 37.07192745296836
1198.5, 37.07192745296836
1199, 36.780443843640896
1199.5, 36.780443843640896
1200, 36.521347302016466
1200.5, 36.521347302016466
1201, 36.3594119635012
1201.5, 36.3594119635012
1202, 35.97076715106455
1202.5, 35.97076715106455
1203, 35.711670609440134
1203.5, 35.711670609440134
1204, 35.38779993240961
1204.5, 35.16109045848823
1205, 35.16109045848823
1205.5, 34.93438098456687
1206, 34.93438098456687
1206.5, 34.74005857834855
1207, 34.74005857834855
1207.5, 34.54573617213025
1208, 34.54573617213025
1208.5, 34.254252562802776
1209, 34.254252562802776
1209.5, 34.0923172242875
1210, 34.0923172242875
1210.5, 33.83322068266307
1211, 33.83322068266307
1211.5, 33.73605947955393
1212, 33.73605947955393
1212.5, 33.574124141038666
1213, 33.574124141038666
1213.5, 33.282640531711166
1214, 33.282640531711166
1214.5, 33.08831812549285
1215, 33.08831812549285
1215.5, 32.76444744846232
1216, 32.76444744846232
1216.5, 32.570125042244015
1217, 32.570125042244015
1217.5, 32.44057677143179
1218, 32.44057677143179
1218.5, 32.246254365213474
1219, 32.246254365213474
1219.5, 32.14909316210432
1220, 31.987157823589058
1220.5, 31.987157823589058
1221, 31.760448349667683
1221.5, 31.760448349667683
1222, 31.468964740340212
1222.5, 31.468964740340212
1223, 31.209868198715796
1223.5, 31.209868198715796
1224, 30.98315872479442
1224.5, 30.98315872479442
1225, 30.821223386279172
1225.5, 30.821223386279172
1226, 30.62690098006084
1226.5, 30.62690098006084
1227, 30.562126844654728
1227.5, 30.562126844654728
1228, 30.497352709248645
1228.5, 30.497352709248645
1229, 30.400191506139464
1229.5, 30.400191506139464
1230, 30.108707896811993
1230.5, 30.108707896811993
1233, 29.493353610454008
1233.5, 29.493353610454008
1234, 29.396192407344827
1234.5, 29.363805339641786
1235, 29.363805339641786
1235.5, 29.234257068829564
1236, 29.234257068829564
1236.5, 28.910386391799037
1237, 28.910386391799037
1237.5, 28.84561225639294
1238, 28.84561225639294
1238.5, 28.8132251886899
1239, 28.8132251886899
1239.5, 28.651289850174635
1240, 28.651289850174635
1240.5, 28.618902782471565
1241, 28.618902782471565
1241.5, 28.618902782471565
1242, 28.618902782471565
1242.5, 28.683676917877676
1243, 28.683676917877676
1243.5, 28.651289850174635
1244, 28.651289850174635
1244.5, 28.651289850174635
1245, 28.651289850174635
1245.5, 28.683676917877676
1246, 28.683676917877676
1246.5, 28.716063985580718
1247, 28.716063985580718
1247.5, 28.651289850174635
1248, 28.651289850174635
1248.5, 28.48935451165937
1249, 28.48935451165937
1249.5, 28.262645037737983
1250, 28.262645037737983
1250.5, 28.262645037737983
1251, 28.262645037737983
1251.5, 28.262645037737983
1252, 28.230257970034927
1252.5, 28.230257970034927
1253, 28.19787090233187
1253.5, 28.19787090233187
1254, 28.19787090233187
1254.5, 28.19787090233187
1255, 28.19787090233187
1255.5, 28.19787090233187
1256, 28.13309676692579
1256.5, 28.13309676692579
1257, 28.10070969922272
1257.5, 28.10070969922272
1258, 28.13309676692579
1258.5, 28.13309676692579
1259, 28.13309676692579
1259.5, 28.13309676692579
1260, 28.035935563816608
1260.5, 28.035935563816608
1261, 27.938774360707455
1261.5, 27.938774360707455
1262, 27.874000225301344
1262.5, 27.874000225301344
1263, 27.938774360707455
1263.5, 27.938774360707455
1264, 27.938774360707455
1264.5, 27.938774360707455
1265, 27.938774360707455
1265.5, 27.841613157598303
1266, 27.841613157598303
1266.5, 27.841613157598303
1267, 27.841613157598303
1267.5, 27.80922608989526
1267.9999999999998, 27.80922608989526
1268.5, 27.71206488678608
1269, 27.71206488678608
1269.5, 27.647290751379998
1269.9999999999998, 27.647290751379998
1270.5, 27.67967781908304
1271, 27.67967781908304
1271.5, 27.744451954489136
1271.9999999999998, 27.744451954489136
1272.5, 27.744451954489136
1273, 27.744451954489136
1273.5, 27.744451954489136
1273.9999999999998, 27.744451954489136
1274.5, 27.744451954489136
1275, 27.744451954489136
1275.5, 27.744451954489136
1275.9999999999998, 27.744451954489136
1276.5, 27.744451954489136
1277, 27.744451954489136
1277.5, 27.744451954489136
1277.9999999999998, 27.744451954489136
1278.5, 27.71206488678608
1279, 27.71206488678608
1279.5, 27.744451954489136
1279.9999999999998, 27.80922608989526
1280.5, 27.80922608989526
1281, 27.80922608989526
1281.5, 27.80922608989526
1281.9999999999998, 27.80922608989526
1282.5, 27.80922608989526
1283, 27.80922608989526
1283.5, 27.80922608989526
1283.9999999999998, 27.874000225301344
1284.5, 27.874000225301344
1285, 27.971161428410525
1285.5, 27.971161428410525
1285.9999999999998, 28.003548496113567
1286.5, 28.003548496113567
1287, 28.003548496113567
1287.5, 28.003548496113567
1287.9999999999998, 28.003548496113567
1288.5, 28.003548496113567
1289, 28.10070969922272
1289.5, 28.10070969922272
1289.9999999999998, 28.16548383462883
1290.5, 28.16548383462883
1291, 28.295032105441052
1291.5, 28.295032105441052
1291.9999999999998, 28.359806240847135
1292.5, 28.359806240847135
1293, 28.295032105441052
1293.5, 28.295032105441052
1293.9999999999998, 28.295032105441052
1294.5, 28.295032105441052
1295, 28.295032105441052
1295.5, 28.262645037737983
1295.9999999999998, 28.262645037737983
1296.5, 28.230257970034927
1297, 28.230257970034927
1297.5, 28.19787090233187
1297.9999999999998, 28.19787090233187
1298.5, 28.16548383462883
1299, 28.16548383462883
1299.5, 28.10070969922272
1299.9999999999998, 28.10070969922272
1300.5, 28.10070969922272
1301, 28.10070969922272
1301.5, 28.068322631519663
1302, 28.068322631519663
1302.5, 28.003548496113567
1303, 28.003548496113567
1303.5, 27.841613157598303
1304, 27.841613157598303
1304.5, 27.647290751379998
1305, 27.647290751379998
1305.5, 27.550129548270817
1306, 27.550129548270817
1306.5, 27.550129548270817
1307, 27.550129548270817
1307.5, 27.647290751379998
1308, 27.647290751379998
1308.5, 27.582516615973873
1309, 27.582516615973873
1309.5, 27.485355412864735
1310, 27.42058127745861
1310.5, 27.42058127745861
1311, 27.388194209755554
1311.5, 27.388194209755554
1312, 27.323420074349457
1312.5, 27.323420074349457
1313, 27.129097668131152
1313.5, 27.129097668131152
1314, 26.96716232961589
1314.5, 26.96716232961589
1315, 26.99954939731893
1315.5, 26.99954939731893
1316, 27.258645938943346
1316.5, 27.258645938943346
1317, 27.291033006646416
1317.5, 27.291033006646416
1318, 27.258645938943346
1318.5, 27.258645938943346
1319, 27.22625887124029
1319.5, 27.22625887124029
1320, 27.129097668131152
1320.5, 27.129097668131152
1321, 27.161484735834193
1321.5, 27.161484735834193
1322, 27.258645938943346
1322.5, 27.258645938943346
1323, 27.355807142052498
1323.5, 27.355807142052498
1324, 27.258645938943346
1324.5, 27.258645938943346
1325, 27.193871803537235
1325.5, 27.193871803537235
1326, 27.193871803537235
1326.5, 27.193871803537235
1327, 27.193871803537235
1327.5, 27.291033006646416
1328, 27.291033006646416
1328.5, 27.388194209755554
1329, 27.388194209755554
1329.5, 27.45296834516168
1330, 27.45296834516168
1330.5, 27.388194209755554
1331, 27.388194209755554
1331.5, 27.323420074349457
1332, 27.323420074349457
1332.5, 27.258645938943346
1333, 27.258645938943346
1333.5, 27.258645938943346
1334, 27.258645938943346
1334.5, 27.258645938943346
1335, 27.258645938943346
1335.5, 27.258645938943346
1336, 27.258645938943346
1336.5, 27.258645938943346
1337, 27.258645938943346
1337.5, 27.291033006646416
1338, 27.291033006646416
1338.5, 27.22625887124029
1339, 27.22625887124029
1339.5, 27.193871803537235
1340, 27.258645938943346
1340.5, 27.258645938943346
1341, 27.22625887124029
1341.5, 27.22625887124029
1342, 27.22625887124029
1342.5, 27.22625887124029
1343, 27.258645938943346
1343.5, 27.258645938943346
1344, 27.03193646502197
1344.5, 27.03193646502197
1345, 26.99954939731893
1345.5, 26.99954939731893
1346, 27.03193646502197
1346.5, 27.03193646502197
1347, 27.193871803537235
1347.5, 27.193871803537235
1348, 27.193871803537235
1348.5, 27.193871803537235
1349, 27.193871803537235
1349.5, 27.193871803537235
1350, 27.161484735834193
1350.5, 27.161484735834193
1351, 27.03193646502197
1351.5, 27.03193646502197
1352, 26.99954939731893
1352.5, 26.99954939731893
1353, 26.99954939731893
1353.5, 26.99954939731893
1354, 27.064323532725027
1354.5, 27.064323532725027
1355, 26.93477526191282
1355.5, 26.805226991100625
1356, 26.805226991100625
1356.5, 26.837614058803652
1357, 26.837614058803652
1357.5, 26.77283992339757
1358, 26.77283992339757
1358.5, 26.77283992339757
1359, 26.77283992339757
1359.5, 26.805226991100625
1360, 26.805226991100625
1360.5, 26.870001126506708
1361, 26.870001126506708
1361.5, 26.93477526191282
1362, 26.93477526191282
1362.5, 26.96716232961589
1363, 26.96716232961589
1363.5, 26.99954939731893
1364, 26.99954939731893
1364.5, 27.03193646502197
1365, 27.03193646502197
1365.5, 26.96716232961589
1366, 26.96716232961589
1366.5, 26.902388194209763
1367, 26.902388194209763
1367.5, 26.77283992339757
1368, 26.77283992339757
1368.5, 26.870001126506708
1369, 26.870001126506708
1369.5, 26.902388194209763
1370, 26.902388194209763
1370.5, 26.805226991100625
1371, 26.837614058803652
1371.5, 26.837614058803652
1372, 26.902388194209763
1372.5, 26.902388194209763
1373, 26.902388194209763
1373.5, 26.902388194209763
1374, 26.805226991100625
1374.5, 26.805226991100625
1375, 26.837614058803652
1375.5, 26.837614058803652
1376, 26.837614058803652
1376.5, 26.837614058803652
1377, 26.870001126506708
1377.5, 26.870001126506708
1378, 26.805226991100625
1378.5, 26.805226991100625
1379, 26.837614058803652
1379.5, 26.837614058803652
1380, 26.870001126506708
1380.5, 26.870001126506708
1381, 26.870001126506708
1381.5, 26.870001126506708
1382, 26.902388194209763
1382.5, 26.902388194209763
1383, 26.93477526191282
1383.5, 26.93477526191282
1384, 26.99954939731893
1384.5, 26.99954939731893
1385, 26.93477526191282
1385.5, 26.837614058803652
1386, 26.837614058803652
1386.5, 26.837614058803652
1387, 26.837614058803652
1387.5, 26.93477526191282
1388, 26.93477526191282
1388.5, 26.93477526191282
1389, 26.93477526191282
1389.5, 26.870001126506708
1390, 26.870001126506708
1390.5, 26.837614058803652
1391, 26.837614058803652
1391.5, 26.7404528556945
1392, 26.7404528556945
1392.5, 26.7404528556945
1393, 26.7404528556945
1393.5, 26.837614058803652
1394, 26.837614058803652
1394.5, 26.902388194209763
1395, 26.902388194209763
1395.5, 26.870001126506708
1396, 26.870001126506708
1396.5, 26.805226991100625
1397, 26.805226991100625
1397.5, 26.837614058803652
1398, 26.837614058803652
1398.5, 26.93477526191282
1399, 26.93477526191282
