300, 61.6213247718824
300.5, 61.6213247718824
301, 61.6213247718824
301.5, 61.6213247718824
302, 61.6213247718824
302.5, 61.6213247718824
303, 61.6213247718824
303.5, 61.65371183958545
304, 61.65371183958545
304.5, 61.6860989072885
305, 61.6860989072885
305.5, 61.71848597499156
306, 61.71848597499156
306.5, 61.75087304269461
307, 61.75087304269461
307.5, 61.78326011039767
308, 61.78326011039767
308.5, 61.81564717810071
309, 61.81564717810071
309.5, 61.81564717810071
310, 61.81564717810071
310.5, 61.81564717810071
311, 61.81564717810071
311.5, 61.88042131350682
312, 61.88042131350682
312.5, 61.88042131350682
313, 61.88042131350682
313.5, 61.94519544891293
314, 61.97758251661598
314.5, 61.97758251661598
315, 62.04235665202209
315.5, 62.04235665202209
316, 62.074743719725134
316.5, 62.074743719725134
317, 62.074743719725134
317.5, 62.074743719725134
318, 62.10713078742819
318.5, 62.10713078742819
319, 62.171904922834294
319.5, 62.171904922834294
320, 62.2366790582404
320.5, 62.2366790582404
321, 62.2366790582404
321.5, 62.2366790582404
322, 62.26906612594345
322.5, 62.26906612594345
323, 62.26906612594345
323.5, 62.26906612594345
324, 62.30145319364651
324.5, 62.30145319364651
325, 62.33384026134956
325.5, 62.33384026134956
326, 62.36622732905262
326.5, 62.36622732905262
327, 62.36622732905262
327.5, 62.36622732905262
328, 62.43100146445872
328.5, 62.49577559986482
329, 62.49577559986482
329.5, 62.56054973527093
330, 62.56054973527093
330.5, 62.59293680297398
331, 62.59293680297398
331.5, 62.62532387067704
332, 62.62532387067704
332.5, 62.69009800608314
333, 62.69009800608314
333.5, 62.754872141489244
334, 62.754872141489244
334.5, 62.754872141489244
335, 62.754872141489244
335.5, 62.78725920919231
336, 62.78725920919231
336.5, 62.819646276895355
337, 62.819646276895355
337.5, 62.884420412301466
338, 62.884420412301466
338.5, 62.94919454770756
339, 62.94919454770756
339.5, 62.98158161541062
340, 62.98158161541062
340.5, 63.04635575081673
341, 63.04635575081673
341.5, 63.04635575081673
342, 63.04635575081673
342.5, 63.07874281851978
343, 63.07874281851978
343.5, 63.14351695392589
344, 63.20829108933199
344.5, 63.20829108933199
345, 63.24067815703504
345.5, 63.24067815703504
346, 63.27306522473809
346.5, 63.27306522473809
347, 63.337839360144194
347.5, 63.337839360144194
348, 63.402613495550305
348.5, 63.402613495550305
349, 63.435000563253354
349.5, 63.435000563253354
350, 63.53216176636251
350.5, 63.53216176636251
351, 63.59693590176862
351.5, 63.59693590176862
352, 63.62932296947167
352.5, 63.62932296947167
353, 63.66171003717473
353.5, 63.66171003717473
354, 63.72648417258084
354.5, 63.72648417258084
355, 63.72648417258084
355.5, 63.72648417258084
356, 63.791258307986936
356.5, 63.791258307986936
357, 63.85603244339304
357.5, 63.85603244339304
358, 63.92080657879915
358.5, 63.92080657879915
359, 63.98558071420526
359.5, 64.05035484961135
360, 64.05035484961135
360.5, 64.08274191731442
361, 64.08274191731442
361.5, 64.11512898501746
362, 64.11512898501746
362.5, 64.14751605272053
363, 64.14751605272053
363.5, 64.21229018812662
364, 64.21229018812662
364.5, 64.27706432353273
365, 64.27706432353273
365.5, 64.3094513912358
366, 64.3094513912358
366.5, 64.40661259434495
367, 64.40661259434495
367.5, 64.47138672975106
368, 64.47138672975106
368.5, 64.53616086515714
369, 64.53616086515714
369.5, 64.60093500056325
370, 64.60093500056325
370.5, 64.66570913596937
371, 64.66570913596937
371.5, 64.73048327137548
372, 64.73048327137548
372.5, 64.79525740678159
373, 64.79525740678159
373.5, 64.86003154218767
374, 64.95719274529685
374.5, 64.95719274529685
375, 64.98957981299989
375.5, 64.98957981299989
376, 65.054353948406
376.5, 65.054353948406
377, 65.054353948406
377.5, 65.054353948406
378, 65.08674101610906
378.5, 65.08674101610906
379, 65.18390221921823
379.5, 65.18390221921823
380, 65.24867635462432
380.5, 65.24867635462432
381, 65.31345049003042
381.5, 65.31345049003042
382, 65.37822462543653
382.5, 65.37822462543653
383, 65.44299876084264
383.5, 65.44299876084264
384, 65.5401599639518
384.5, 65.5401599639518
385, 65.57254703165484
385.5, 65.57254703165484
386, 65.66970823476402
386.5, 65.66970823476402
387, 65.76686943787317
387.5, 65.76686943787317
388, 65.83164357327928
388.5, 65.83164357327928
389, 65.86403064098232
389.5, 65.92880477638843
390, 65.92880477638843
390.5, 65.99357891179454
391, 65.99357891179454
391.5, 66.05835304720063
392, 66.05835304720063
392.5, 66.12312718260674
393, 66.12312718260674
393.5, 66.22028838571589
394, 66.22028838571589
394.5, 66.285062521122
395, 66.285062521122
395.5, 66.31744958882507
396, 66.31744958882507
396.5, 66.41461079193422
397, 66.41461079193422
397.5, 66.51177199504338
398, 66.51177199504338
398.5, 66.60893319815254
399, 66.60893319815254
399.5, 66.73848146896475
400, 66.73848146896475
400.5, 66.8356426720739
401, 66.8356426720739
401.5, 66.86802973977697
402, 66.86802973977697
402.5, 66.93280387518307
403, 66.93280387518307
403.5, 66.96519094288612
404, 67.06235214599528
404.5, 67.06235214599528
405, 67.12712628140139
405.5, 67.12712628140139
406, 67.1919004168075
406.5, 67.1919004168075
407, 67.25667455221358
407.5, 67.25667455221358
408, 67.3214486876197
408.5, 67.3214486876197
409, 67.3862228230258
409.5, 67.3862228230258
410, 67.45099695843192
410.5, 67.45099695843192
411, 67.58054522924411
411.5, 67.58054522924411
412, 67.67770643235329
412.5, 67.67770643235329
413, 67.74248056775937
413.5, 67.74248056775937
414, 67.8720288385716
414.5, 67.8720288385716
415, 67.96919004168075
415.5, 67.96919004168075
416, 68.03396417708686
416.5, 68.03396417708686
417, 68.16351244789908
417.5, 68.16351244789908
418, 68.22828658330516
418.5, 68.22828658330516
419, 68.32544778641434
419.5, 68.39022192182043
420, 68.39022192182043
420.5, 68.48738312492961
421, 68.48738312492961
421.5, 68.5521572603357
422, 68.5521572603357
422.5, 68.64931846344487
423, 68.64931846344487
423.5, 68.77886673425706
424, 68.77886673425706
424.5, 68.90841500506929
425, 68.90841500506929
425.5, 69.00557620817844
426, 69.00557620817844
426.5, 69.1027374112876
427, 69.1027374112876
427.5, 69.23228568209981
428, 69.23228568209981
428.5, 69.29705981750593
429, 69.29705981750593
429.5, 69.42660808831812
430, 69.42660808831812
430.5, 69.55615635913034
431, 69.55615635913034
431.5, 69.65331756223951
432, 69.65331756223951
432.5, 69.75047876534866
433, 69.75047876534866
433.5, 69.88002703616087
434, 69.88002703616087
434.5, 69.97718823927002
435, 70.07434944237919
435.5, 70.07434944237919
436, 70.17151064548835
436.5, 70.17151064548835
437, 70.30105891630056
437.5, 70.30105891630056
438, 70.39822011940973
438.5, 70.39822011940973
439, 70.52776839022192
439.5, 70.52776839022192
440, 70.59254252562803
440.5, 70.59254252562803
441, 70.72209079644026
441.5, 70.72209079644026
442, 70.81925199954941
442.5, 70.81925199954941
443, 70.88402613495552
443.5, 70.88402613495552
444, 71.04596147347078
444.5, 71.04596147347078
445, 71.24028387968909
445.5, 71.24028387968909
446, 71.33744508279824
446.5, 71.33744508279824
447, 71.53176748901657
447.5, 71.53176748901657
448, 71.59654162442267
448.5, 71.59654162442267
449, 71.62892869212573
449.5, 71.69370282753184
450, 71.69370282753184
450.5, 71.82325109834404
451, 71.82325109834404
451.5, 71.88802523375014
452, 71.88802523375014
452.5, 72.01757350456236
453, 72.01757350456236
453.5, 72.08234763996848
454, 72.08234763996848
454.5, 72.21189591078068
455, 72.21189591078068
455.5, 72.34144418159289
456, 72.34144418159289
456.5, 72.43860538470204
457, 72.43860538470204
457.5, 72.53576658781121
458, 72.53576658781121
458.5, 72.63292779092036
459, 72.63292779092036
459.5, 72.73008899402953
460, 72.73008899402953
460.5, 72.76247606173257
461, 72.76247606173257
461.5, 72.89202433254479
462, 72.89202433254479
462.5, 72.98918553565395
463, 72.98918553565395
463.5, 73.11873380646615
464, 73.11873380646615
464.5, 73.21589500957532
465, 73.34544328038753
465.5, 73.34544328038753
466, 73.44260448349667
466.5, 73.44260448349667
467, 73.53976568660585
467.5, 73.53976568660585
468, 73.636926889715
468.5, 73.636926889715
469, 73.70170102512111
469.5, 73.70170102512111
470, 73.79886222823026
470.5, 73.79886222823026
471, 73.89602343133943
471.5, 73.89602343133943
472, 74.0579587698547
472.5, 74.0579587698547
473, 74.12273290526079
473.5, 74.12273290526079
474, 74.21989410836996
474.5, 74.21989410836996
475, 74.34944237918216
475.5, 74.34944237918216
476, 74.47899064999437
476.5, 74.47899064999437
477, 74.54376478540047
477.5, 74.54376478540047
478, 74.64092598850964
478.5, 74.64092598850964
479, 74.77047425932184
479.5, 74.83524839472796
480, 74.83524839472796
480.5, 74.90002253013407
481, 74.90002253013407
481.5, 75.02957080094627
482, 75.02957080094627
482.5, 75.12673200405544
483, 75.12673200405544
483.5, 75.2238932071646
484, 75.2238932071646
484.5, 75.38582854567986
485, 75.38582854567986
485.5, 75.38582854567986
486, 75.38582854567986
486.5, 75.48298974878901
487, 75.48298974878901
487.5, 75.51537681649205
488, 75.51537681649205
488.5, 75.70969922271038
489, 75.70969922271038
489.5, 75.70969922271038
490, 75.70969922271038
490.5, 75.70969922271038
491, 75.70969922271038
491.5, 75.70969922271038
492, 75.70969922271038
492.5, 75.70969922271038
493, 75.70969922271038
493.5, 75.70969922271038
494, 75.70969922271038
494.5, 75.7744733581165
495, 75.67731215500733
495.5, 75.67731215500733
496, 75.64492508730427
496.5, 75.64492508730427
497, 75.58015095189818
497.5, 75.58015095189818
498, 75.3534414779768
498.5, 75.3534414779768
499, 75.2886673425707
499.5, 75.2886673425707
500, 75.19150613946154
500.5, 75.19150613946154
501, 75.12673200405544
501.5, 75.12673200405544
502, 74.99718373324322
502.5, 74.99718373324322
503, 74.86763546243101
503.5, 74.86763546243101
504, 74.70570012391575
504.5, 74.70570012391575
505, 74.51137771769743
505.5, 74.51137771769743
506, 74.31705531147911
506.5, 74.31705531147911
507, 74.12273290526079
507.5, 74.12273290526079
508, 73.92841049904249
508.5, 73.92841049904249
509, 73.73408809282417
509.5, 73.73408809282417
510, 73.53976568660585
510.5, 73.34544328038753
511, 73.34544328038753
511.5, 73.11873380646615
512, 73.11873380646615
512.5, 72.89202433254479
513, 72.89202433254479
513.5, 72.69770192632647
514, 72.69770192632647
514.5, 72.43860538470204
515, 72.43860538470204
515.5, 72.24428297848374
516, 72.24428297848374
516.5, 72.08234763996848
517, 72.08234763996848
517.5, 71.88802523375014
518, 71.88802523375014
518.5, 71.62892869212573
519, 71.62892869212573
519.5, 71.46699335361046
520, 71.46699335361046
520.5, 71.36983215050131
521, 71.36983215050131
521.5, 71.11073560887688
522, 71.11073560887688
522.5, 70.88402613495552
523, 70.88402613495552
523.5, 70.7544778641433
524, 70.7544778641433
524.5, 70.59254252562803
525, 70.46299425481583
525.5, 70.46299425481583
526, 70.33344598400362
526.5, 70.33344598400362
527, 70.23628478089444
527.5, 70.23628478089444
528, 70.07434944237919
528.5, 70.07434944237919
529, 69.94480117156698
529.5, 69.94480117156698
530, 69.81525290075476
530.5, 69.81525290075476
531, 69.68570462994256
531.5, 69.68570462994256
532, 69.55615635913034
532.5, 69.55615635913034
533, 69.45899515602119
533.5, 69.45899515602119
534, 69.36183395291204
534.5, 69.36183395291204
535, 69.29705981750593
535.5, 69.29705981750593
536, 69.16751154669372
536.5, 69.16751154669372
537, 69.1027374112876
537.5, 69.1027374112876
538, 69.03796327588151
538.5, 69.03796327588151
539, 68.94080207277233
539.5, 68.94080207277233
540, 68.90841500506929
540.5, 68.84364086966318
541, 68.84364086966318
541.5, 68.84364086966318
542, 68.84364086966318
542.5, 68.87602793736625
543, 68.87602793736625
543.5, 68.84364086966318
544, 68.84364086966318
544.5, 68.77886673425706
545, 68.77886673425706
545.5, 68.71409259885095
546, 68.71409259885095
546.5, 68.71409259885095
547, 68.71409259885095
547.5, 68.71409259885095
548, 68.71409259885095
548.5, 68.68170553114791
549, 68.68170553114791
549.5, 68.68170553114791
550, 68.68170553114791
550.5, 68.68170553114791
551, 68.68170553114791
551.5, 68.64931846344487
552, 68.64931846344487
552.5, 68.6169313957418
553, 68.6169313957418
553.5, 68.64931846344487
554, 68.64931846344487
554.5, 68.64931846344487
555, 68.6169313957418
555.5, 68.6169313957418
556, 68.64931846344487
556.5, 68.64931846344487
557, 68.68170553114791
557.5, 68.68170553114791
558, 68.74647966655402
558.5, 68.74647966655402
559, 68.71409259885095
559.5, 68.71409259885095
560, 68.71409259885095
560.5, 68.71409259885095
561, 68.77886673425706
561.5, 68.77886673425706
562, 68.77886673425706
562.5, 68.77886673425706
563, 68.77886673425706
563.5, 68.77886673425706
564, 68.84364086966318
564.5, 68.84364086966318
565, 68.87602793736625
565.5, 68.87602793736625
566, 69.00557620817844
566.5, 69.00557620817844
567, 69.00557620817844
567.5, 69.00557620817844
568, 68.9731891404754
568.5, 68.9731891404754
569, 69.00557620817844
569.5, 69.00557620817844
570, 69.03796327588151
570.5, 69.03796327588151
571, 69.03796327588151
571.5, 69.07035034358455
572, 69.07035034358455
572.5, 69.1027374112876
573, 69.1027374112876
573.5, 69.13512447899066
574, 69.13512447899066
574.5, 69.13512447899066
575, 69.13512447899066
575.5, 69.13512447899066
576, 69.13512447899066
576.5, 69.13512447899066
577, 69.13512447899066
577.5, 69.13512447899066
578, 69.13512447899066
578.5, 69.13512447899066
579, 69.13512447899066
579.5, 69.16751154669372
580, 69.16751154669372
580.5, 69.16751154669372
581, 69.16751154669372
581.5, 69.16751154669372
582, 69.16751154669372
582.5, 69.1027374112876
583, 69.1027374112876
583.5, 69.07035034358455
584, 69.07035034358455
584.5, 69.07035034358455
585, 69.07035034358455
585.5, 69.07035034358455
586, 69.1027374112876
586.5, 69.1027374112876
587, 69.1027374112876
587.5, 69.1027374112876
588, 69.1027374112876
588.5, 69.1027374112876
589, 69.1027374112876
589.5, 69.1027374112876
590, 69.07035034358455
590.5, 69.07035034358455
591, 69.03796327588151
591.5, 69.03796327588151
592, 68.9731891404754
592.5, 68.9731891404754
593, 68.9731891404754
593.5, 68.9731891404754
594, 68.94080207277233
594.5, 68.94080207277233
595, 68.90841500506929
595.5, 68.90841500506929
596, 68.84364086966318
596.5, 68.84364086966318
597, 68.77886673425706
597.5, 68.77886673425706
598, 68.74647966655402
598.5, 68.74647966655402
599, 68.64931846344487
599.5, 68.64931846344487
600, 68.51977019263265
600.5, 68.48738312492961
601, 68.48738312492961
601.5, 68.39022192182043
602, 68.39022192182043
602.5, 68.32544778641434
603, 68.32544778641434
603.5, 68.19589951560212
604, 68.19589951560212
604.5, 68.09873831249297
605, 68.09873831249297
605.5, 67.96919004168075
606, 67.96919004168075
606.5, 67.83964177086855
607, 67.83964177086855
607.5, 67.74248056775937
608, 67.74248056775937
608.5, 67.61293229694718
609, 67.61293229694718
609.5, 67.51577109383803
610, 67.51577109383803
610.5, 67.41860989072885
611, 67.41860989072885
611.5, 67.3214486876197
612, 67.3214486876197
612.5, 67.22428748451054
613, 67.22428748451054
613.5, 67.15951334910443
614, 67.15951334910443
614.5, 67.06235214599528
615, 67.06235214599528
615.5, 66.99757801058917
616, 66.86802973977697
616.5, 66.86802973977697
617, 66.7708685366678
617.5, 66.7708685366678
618, 66.70609440126171
618.5, 66.70609440126171
619, 66.60893319815254
619.5, 66.60893319815254
620, 66.54415906274642
620.5, 66.54415906274642
621, 66.51177199504338
621.5, 66.51177199504338
622, 66.41461079193422
622.5, 66.41461079193422
623, 66.285062521122
623.5, 66.285062521122
624, 66.25267545341896
624.5, 66.25267545341896
625, 66.1555142503098
625.5, 66.1555142503098
626, 66.05835304720063
626.5, 66.05835304720063
627, 66.02596597949758
627.5, 66.02596597949758
628, 65.99357891179454
628.5, 65.99357891179454
629, 65.96119184409147
629.5, 65.96119184409147
630, 65.89641770868536
630.5, 65.79925650557621
631, 65.79925650557621
631.5, 65.7344823701701
632, 65.7344823701701
632.5, 65.66970823476402
633, 65.66970823476402
633.5, 65.57254703165484
634, 65.57254703165484
634.5, 65.5401599639518
635, 65.5401599639518
635.5, 65.47538582854568
636, 65.47538582854568
636.5, 65.41061169313959
637, 65.41061169313959
637.5, 65.41061169313959
638, 65.41061169313959
638.5, 65.34583755773349
639, 65.34583755773349
639.5, 65.24867635462432
640, 65.24867635462432
640.5, 65.21628928692127
641, 65.21628928692127
641.5, 65.21628928692127
642, 65.21628928692127
642.5, 65.18390221921823
643, 65.18390221921823
643.5, 65.08674101610906
644, 65.08674101610906
644.5, 65.054353948406
645, 65.054353948406
645.5, 64.95719274529685
646, 64.92480567759378
646.5, 64.92480567759378
647, 64.89241860989074
647.5, 64.89241860989074
648, 64.86003154218767
648.5, 64.86003154218767
649, 64.82764447448463
649.5, 64.82764447448463
650, 64.79525740678159
650.5, 64.79525740678159
651, 64.76287033907852
651.5, 64.76287033907852
652, 64.73048327137548
652.5, 64.73048327137548
653, 64.66570913596937
653.5, 64.66570913596937
654, 64.60093500056325
654.5, 64.60093500056325
655, 64.56854793286021
655.5, 64.56854793286021
656, 64.5037737974541
656.5, 64.5037737974541
657, 64.5037737974541
657.5, 64.5037737974541
658, 64.43899966204799
658.5, 64.43899966204799
659, 64.43899966204799
659.5, 64.43899966204799
660, 64.40661259434495
660.5, 64.40661259434495
661, 64.34183845893884
661.5, 64.27706432353273
662, 64.27706432353273
662.5, 64.27706432353273
663, 64.27706432353273
663.5, 64.24467725582969
664, 64.24467725582969
664.5, 64.17990312042357
665, 64.17990312042357
665.5, 64.14751605272053
666, 64.14751605272053
666.5, 64.14751605272053
667, 64.14751605272053
667.5, 64.11512898501746
668, 64.11512898501746
668.5, 64.05035484961135
669, 64.05035484961135
669.5, 63.98558071420526
670, 63.98558071420526
670.5, 63.92080657879915
671, 63.92080657879915
671.5, 63.8884195110961
672, 63.8884195110961
672.5, 63.82364537568999
673, 63.82364537568999
673.5, 63.791258307986936
674, 63.791258307986936
674.5, 63.72648417258084
675, 63.72648417258084
675.5, 63.72648417258084
676, 63.75887124028388
676.5, 63.75887124028388
677, 63.75887124028388
677.5, 63.75887124028388
678, 63.75887124028388
678.5, 63.75887124028388
679, 63.75887124028388
679.5, 63.75887124028388
680, 63.75887124028388
680.5, 63.75887124028388
681, 63.72648417258084
681.5, 63.72648417258084
682, 63.72648417258084
682.5, 63.72648417258084
683, 63.75887124028388
683.5, 63.75887124028388
684, 63.69409710487778
684.5, 63.69409710487778
685, 63.62932296947167
685.5, 63.62932296947167
686, 63.59693590176862
686.5, 63.59693590176862
687, 63.59693590176862
687.5, 63.59693590176862
688, 63.59693590176862
688.5, 63.59693590176862
689, 63.59693590176862
689.5, 63.59693590176862
690, 63.59693590176862
690.5, 63.59693590176862
691, 63.499774698659465
691.5, 63.499774698659465
692, 63.499774698659465
692.5, 63.467387630956416
693, 63.467387630956416
693.5, 63.435000563253354
694, 63.435000563253354
694.5, 63.435000563253354
695, 63.435000563253354
695.5, 63.435000563253354
696, 63.435000563253354
696.5, 63.435000563253354
697, 63.435000563253354
697.5, 63.467387630956416
698, 63.467387630956416
698.5, 63.467387630956416
699, 63.467387630956416
699.5, 63.402613495550305
700, 63.402613495550305
700.5, 63.37022642784725
701, 63.37022642784725
701.5, 63.402613495550305
702, 63.402613495550305
702.5, 63.402613495550305
703, 63.402613495550305
703.5, 63.435000563253354
704, 63.435000563253354
704.5, 63.435000563253354
705, 63.435000563253354
705.5, 63.467387630956416
706, 63.435000563253354
706.5, 63.435000563253354
707, 63.402613495550305
707.5, 63.402613495550305
708, 63.37022642784725
708.5, 63.37022642784725
709, 63.37022642784725
709.5, 63.37022642784725
710, 63.402613495550305
710.5, 63.402613495550305
711, 63.435000563253354
711.5, 63.435000563253354
712, 63.402613495550305
712.5, 63.402613495550305
713, 63.402613495550305
713.5, 63.402613495550305
714, 63.402613495550305
714.5, 63.402613495550305
715, 63.337839360144194
715.5, 63.337839360144194
716, 63.337839360144194
716.5, 63.337839360144194
717, 63.30545229244115
717.5, 63.30545229244115
718, 63.337839360144194
718.5, 63.337839360144194
719, 63.37022642784725
719.5, 63.37022642784725
720, 63.402613495550305
720.5, 63.402613495550305
721, 63.402613495550305
721.5, 63.402613495550305
722, 63.402613495550305
722.5, 63.402613495550305
723, 63.402613495550305
723.5, 63.37022642784725
724, 63.37022642784725
724.5, 63.37022642784725
725, 63.37022642784725
725.5, 63.402613495550305
726, 63.402613495550305
726.5, 63.435000563253354
727, 63.435000563253354
727.5, 63.467387630956416
728, 63.467387630956416
728.5, 63.467387630956416
729, 63.467387630956416
729.5, 63.499774698659465
730, 63.499774698659465
730.5, 63.499774698659465
731, 63.499774698659465
731.5, 63.467387630956416
732, 63.467387630956416
732.5, 63.499774698659465
733, 63.499774698659465
733.5, 63.499774698659465
734, 63.499774698659465
734.5, 63.499774698659465
735, 63.499774698659465
735.5, 63.499774698659465
736, 63.499774698659465
736.5, 63.53216176636251
737, 63.564548834065576
737.5, 63.564548834065576
738, 63.62932296947167
738.5, 63.62932296947167
739, 63.69409710487778
739.5, 63.69409710487778
740, 63.75887124028388
740.5, 63.75887124028388
741, 63.75887124028388
741.5, 63.75887124028388
742, 63.75887124028388
742.5, 63.75887124028388
743, 63.75887124028388
743.5, 63.75887124028388
744, 63.82364537568999
744.5, 63.82364537568999
745, 63.8884195110961
745.5, 63.8884195110961
746, 63.9531936465022
746.5, 63.9531936465022
747, 63.92080657879915
747.5, 63.92080657879915
748, 63.8884195110961
748.5, 63.8884195110961
749, 63.8884195110961
749.5, 63.8884195110961
750, 63.9531936465022
750.5, 63.9531936465022
751, 63.98558071420526
751.5, 63.98558071420526
752, 63.98558071420526
752.5, 63.98558071420526
753, 63.98558071420526
753.5, 64.01796778190831
754, 64.01796778190831
754.5, 64.05035484961135
755, 64.05035484961135
755.5, 64.14751605272053
756, 64.14751605272053
756.5, 64.21229018812662
757, 64.21229018812662
757.5, 64.27706432353273
758, 64.27706432353273
758.5, 64.34183845893884
759, 64.34183845893884
759.5, 64.37422552664188
760, 64.37422552664188
760.5, 64.43899966204799
761, 64.43899966204799
761.5, 64.47138672975106
762, 64.47138672975106
762.5, 64.5037737974541
763, 64.5037737974541
763.5, 64.56854793286021
764, 64.56854793286021
764.5, 64.63332206826632
765, 64.63332206826632
765.5, 64.73048327137548
766, 64.73048327137548
766.5, 64.76287033907852
767, 64.76287033907852
767.5, 64.76287033907852
768, 64.82764447448463
768.5, 64.82764447448463
769, 64.89241860989074
769.5, 64.89241860989074
770, 64.95719274529685
770.5, 64.95719274529685
771, 65.02196688070293
771.5, 65.02196688070293
772, 65.08674101610906
772.5, 65.08674101610906
773, 65.11912808381211
773.5, 65.11912808381211
774, 65.18390221921823
774.5, 65.18390221921823
775, 65.24867635462432
775.5, 65.24867635462432
776, 65.28106342232738
776.5, 65.28106342232738
777, 65.34583755773349
777.5, 65.34583755773349
778, 65.37822462543653
778.5, 65.37822462543653
779, 65.44299876084264
779.5, 65.44299876084264
780, 65.41061169313959
780.5, 65.41061169313959
781, 65.41061169313959
781.5, 65.47538582854568
782, 65.47538582854568
782.5, 65.50777289624875
783, 65.50777289624875
783.5, 65.5401599639518
784, 65.5401599639518
784.5, 65.50777289624875
785, 65.50777289624875
785.5, 65.50777289624875
786, 65.50777289624875
786.5, 65.5401599639518
787, 65.5401599639518
787.5, 65.50777289624875
788, 65.50777289624875
788.5, 65.5401599639518
789, 65.5401599639518
789.5, 65.57254703165484
790, 65.57254703165484
790.5, 65.6049340993579
791, 65.6049340993579
791.5, 65.63732116706095
792, 65.63732116706095
792.5, 65.6049340993579
793, 65.6049340993579
793.5, 65.6049340993579
794, 65.6049340993579
794.5, 65.6049340993579
795, 65.6049340993579
795.5, 65.50777289624875
796, 65.50777289624875
796.5, 65.5401599639518
797, 65.5401599639518
797.5, 65.5401599639518
798, 65.5401599639518
798.5, 65.5401599639518
799, 65.5401599639518
799.5, 65.5401599639518
800, 65.5401599639518
800.5, 65.5401599639518
801, 65.50777289624875
801.5, 65.50777289624875
802, 65.47538582854568
802.5, 65.47538582854568
803, 65.41061169313959
803.5, 65.41061169313959
804, 65.37822462543653
804.5, 65.37822462543653
805, 65.31345049003042
805.5, 65.31345049003042
806, 65.24867635462432
806.5, 65.24867635462432
807, 65.21628928692127
807.5, 65.21628928692127
808, 65.24867635462432
808.5, 65.24867635462432
809, 65.15151515151516
809.5, 65.15151515151516
810, 65.11912808381211
810.5, 65.11912808381211
811, 65.054353948406
811.5, 65.054353948406
812, 64.95719274529685
812.5, 64.82764447448463
813, 64.82764447448463
813.5, 64.73048327137548
814, 64.73048327137548
814.5, 64.63332206826632
815, 64.63332206826632
815.5, 64.56854793286021
816, 64.56854793286021
816.5, 64.5037737974541
817, 64.5037737974541
817.5, 64.40661259434495
818, 64.40661259434495
818.5, 64.3094513912358
819, 64.3094513912358
819.5, 64.24467725582969
820, 64.24467725582969
820.5, 64.17990312042357
821, 64.17990312042357
821.5, 64.08274191731442
822, 64.08274191731442
822.5, 64.01796778190831
823, 64.01796778190831
823.5, 63.85603244339304
824, 63.85603244339304
824.5, 63.791258307986936
825, 63.791258307986936
825.5, 63.62932296947167
826, 63.62932296947167
826.5, 63.53216176636251
827, 63.499774698659465
827.5, 63.499774698659465
828, 63.337839360144194
828.5, 63.337839360144194
829, 63.30545229244115
829.5, 63.30545229244115
830, 63.20829108933199
830.5, 63.20829108933199
831, 63.14351695392589
831.5, 63.14351695392589
832, 63.04635575081673
832.5, 63.04635575081673
833, 62.98158161541062
833.5, 62.98158161541062
834, 62.91680748000451
834.5, 62.91680748000451
835, 62.852033344598404
835.5, 62.852033344598404
836, 62.884420412301466
836.5, 62.884420412301466
837, 62.884420412301466
837.5, 62.884420412301466
838, 62.94919454770756
838.5, 62.94919454770756
839, 62.91680748000451
839.5, 62.91680748000451
840, 62.884420412301466
840.5, 62.884420412301466
841, 62.819646276895355
841.5, 62.819646276895355
842, 62.65771093838009
842.5, 62.56054973527093
843, 62.56054973527093
843.5, 62.46338853216178
844, 62.46338853216178
844.5, 62.36622732905262
845, 62.36622732905262
845.5, 62.2366790582404
846, 62.2366790582404
846.5, 62.20429199053736
847, 62.20429199053736
847.5, 62.139517855131245
848, 62.139517855131245
848.5, 62.10713078742819
849, 62.10713078742819
849.5, 62.00996958431903
850, 62.00996958431903
850.5, 61.97758251661598
851, 61.97758251661598
851.5, 61.91280838120987
852, 61.91280838120987
852.5, 61.88042131350682
853, 61.88042131350682
853.5, 61.81564717810071
854, 61.81564717810071
854.5, 61.75087304269461
855, 61.75087304269461
855.5, 61.71848597499156
856, 61.71848597499156
856.5, 61.65371183958545
857, 61.65371183958545
857.5, 61.65371183958545
858, 61.6860989072885
858.5, 61.6860989072885
859, 61.6213247718824
859.5, 61.6213247718824
860, 61.65371183958545
860.5, 61.65371183958545
861, 61.65371183958545
861.5, 61.65371183958545
862, 61.65371183958545
862.5, 61.65371183958545
863, 61.65371183958545
863.5, 61.65371183958545
864, 61.65371183958545
864.5, 61.65371183958545
865, 61.65371183958545
865.5, 61.65371183958545
866, 61.6213247718824
866.5, 61.6213247718824
867, 61.6213247718824
867.5, 61.6213247718824
868, 61.65371183958545
868.5, 61.65371183958545
869, 61.6860989072885
869.5, 61.6860989072885
870, 61.71848597499156
870.5, 61.71848597499156
871, 61.71848597499156
871.5, 61.71848597499156
872, 61.6860989072885
872.5, 61.75087304269461
873, 61.75087304269461
873.5, 61.78326011039767
874, 61.78326011039767
874.5, 61.78326011039767
875, 61.78326011039767
875.5, 61.78326011039767
876, 61.78326011039767
876.5, 61.78326011039767
877, 61.78326011039767
877.5, 61.81564717810071
878, 61.81564717810071
878.5, 61.91280838120987
879, 61.91280838120987
879.5, 61.91280838120987
880, 61.91280838120987
880.5, 61.91280838120987
881, 61.91280838120987
881.5, 61.91280838120987
882, 61.91280838120987
882.5, 61.94519544891293
883, 61.94519544891293
883.5, 62.00996958431903
884, 62.00996958431903
884.5, 62.074743719725134
885, 62.074743719725134
885.5, 62.04235665202209
886, 62.04235665202209
886.5, 62.10713078742819
887, 62.10713078742819
887.5, 62.10713078742819
888, 62.171904922834294
888.5, 62.171904922834294
889, 62.171904922834294
889.5, 62.171904922834294
890, 62.171904922834294
890.5, 62.171904922834294
891, 62.171904922834294
891.5, 62.171904922834294
892, 62.20429199053736
892.5, 62.20429199053736
893, 62.2366790582404
893.5, 62.2366790582404
894, 62.30145319364651
894.5, 62.30145319364651
895, 62.33384026134956
895.5, 62.33384026134956
896, 62.33384026134956
896.5, 62.33384026134956
897, 62.36622732905262
897.5, 62.36622732905262
898, 62.39861439675567
898.5, 62.39861439675567
899, 62.43100146445872
899.5, 62.43100146445872
900, 62.43100146445872
900.5, 62.43100146445872
901, 62.46338853216178
901.5, 62.46338853216178
902, 62.49577559986482
902.5, 62.56054973527093
903, 62.56054973527093
903.5, 62.56054973527093
904, 62.56054973527093
904.5, 62.56054973527093
905, 62.56054973527093
905.5, 62.56054973527093
906, 62.56054973527093
906.5, 62.62532387067704
907, 62.62532387067704
907.5, 62.69009800608314
908, 62.69009800608314
908.5, 62.722485073786196
909, 62.722485073786196
909.5, 62.78725920919231
910, 62.78725920919231
910.5, 62.852033344598404
911, 62.852033344598404
911.5, 62.884420412301466
912, 62.884420412301466
912.5, 62.98158161541062
913, 62.98158161541062
913.5, 63.04635575081673
914, 63.04635575081673
914.5, 63.07874281851978
915, 63.07874281851978
915.5, 63.24067815703504
916, 63.24067815703504
916.5, 63.402613495550305
917, 63.402613495550305
917.5, 63.499774698659465
918, 63.564548834065576
918.5, 63.564548834065576
919, 63.59693590176862
919.5, 63.59693590176862
920, 63.62932296947167
920.5, 63.62932296947167
921, 63.62932296947167
921.5, 63.62932296947167
922, 63.62932296947167
922.5, 63.62932296947167
923, 63.62932296947167
923.5, 63.62932296947167
924, 63.69409710487778
924.5, 63.69409710487778
925, 63.72648417258084
925.5, 63.72648417258084
926, 63.8884195110961
926.5, 63.8884195110961
927, 63.92080657879915
927.5, 63.92080657879915
928, 63.98558071420526
928.5, 63.98558071420526
929, 64.08274191731442
929.5, 64.08274191731442
930, 64.14751605272053
930.5, 64.14751605272053
931, 64.14751605272053
931.5, 64.14751605272053
932, 64.17990312042357
932.5, 64.21229018812662
933, 64.21229018812662
933.5, 64.34183845893884
934, 64.34183845893884
934.5, 64.37422552664188
935, 64.37422552664188
935.5, 64.47138672975106
936, 64.47138672975106
936.5, 64.56854793286021
937, 64.56854793286021
937.5, 64.6980962036724
938, 64.6980962036724
938.5, 64.79525740678159
939, 64.79525740678159
939.5, 64.89241860989074
940, 64.89241860989074
940.5, 65.18390221921823
941, 65.18390221921823
941.5, 65.37822462543653
942, 65.37822462543653
942.5, 65.47538582854568
943, 65.47538582854568
943.5, 65.44299876084264
944, 65.44299876084264
944.5, 65.50777289624875
945, 65.50777289624875
945.5, 65.57254703165484
946, 65.57254703165484
946.5, 65.63732116706095
947, 65.63732116706095
947.5, 65.66970823476402
948, 65.7344823701701
948.5, 65.7344823701701
949, 65.92880477638843
949.5, 65.92880477638843
950, 66.02596597949758
950.5, 66.02596597949758
951, 66.0907401149037
951.5, 66.0907401149037
952, 66.22028838571589
952.5, 66.22028838571589
953, 66.31744958882507
953.5, 66.31744958882507
954, 66.41461079193422
954.5, 66.41461079193422
955, 66.51177199504338
955.5, 66.51177199504338
956, 66.6413202658556
956.5, 66.6413202658556
957, 66.80325560437086
957.5, 66.80325560437086
958, 66.90041680748001
958.5, 66.90041680748001
959, 66.96519094288612
959.5, 66.96519094288612
960, 67.06235214599528
960.5, 67.06235214599528
961, 67.15951334910443
961.5, 67.15951334910443
962, 67.1919004168075
962.5, 67.35383575532276
963, 67.35383575532276
963.5, 67.48338402613496
964, 67.48338402613496
964.5, 67.58054522924411
965, 67.58054522924411
965.5, 67.77486763546244
966, 67.77486763546244
966.5, 67.90441590627464
967, 67.90441590627464
967.5, 68.03396417708686
968, 68.03396417708686
968.5, 68.16351244789908
969, 68.16351244789908
969.5, 68.29306071871127
970, 68.29306071871127
970.5, 68.45499605722654
971, 68.45499605722654
971.5, 68.58454432803876
972, 68.58454432803876
972.5, 68.68170553114791
973, 68.68170553114791
973.5, 68.84364086966318
974, 68.84364086966318
974.5, 68.94080207277233
975, 68.94080207277233
975.5, 69.07035034358455
976, 69.07035034358455
976.5, 69.26467274980286
977, 69.26467274980286
977.5, 69.42660808831812
978, 69.62093049453645
978.5, 69.62093049453645
979, 69.75047876534866
979.5, 69.75047876534866
980, 69.88002703616087
980.5, 69.88002703616087
981, 70.00957530697309
981.5, 70.00957530697309
982, 70.17151064548835
982.5, 70.17151064548835
983, 70.2686718485975
983.5, 70.2686718485975
984, 70.39822011940973
984.5, 70.39822011940973
985, 70.49538132251888
985.5, 70.49538132251888
986, 70.62492959333109
986.5, 70.62492959333109
987, 70.78686493184634
987.5, 70.78686493184634
988, 70.91641320265856
988.5, 70.91641320265856
989, 71.01357440576773
989.5, 71.01357440576773
990, 71.20789681198605
990.5, 71.20789681198605
991, 71.3050580150952
991.5, 71.3050580150952
992, 71.40221921820435
992.5, 71.40221921820435
993, 71.59654162442267
993.5, 71.72608989523488
994, 71.72608989523488
994.5, 71.92041230145318
995, 71.92041230145318
995.5, 72.08234763996848
996, 72.08234763996848
996.5, 72.21189591078068
997, 72.21189591078068
997.5, 72.47099245240508
998, 72.47099245240508
998.5, 72.69770192632647
999, 72.69770192632647
999.5, 72.79486312943563
1000, 72.79486312943563
1000.5, 72.92441140024783
1001, 72.92441140024783
1001.5, 73.05395967106006
1002, 73.05395967106006
1002.5, 73.21589500957532
1003, 73.21589500957532
1003.5, 73.37783034809058
1004, 73.37783034809058
1004.5, 73.636926889715
1005, 73.636926889715
1005.5, 73.79886222823026
1006, 73.79886222823026
1006.5, 74.02557170215164
1007, 74.02557170215164
1007.5, 74.31705531147911
1008, 74.54376478540047
1008.5, 74.54376478540047
1009, 74.7380871916188
1009.5, 74.7380871916188
1010, 75.19150613946154
1010.5, 75.19150613946154
1011, 75.38582854567986
1011.5, 75.38582854567986
1012, 75.54776388419512
1012.5, 75.54776388419512
1013, 76.03356989974091
1013.5, 76.03356989974091
1014, 76.26027937366229
1014.5, 76.26027937366229
1015, 76.5193759152867
1015.5, 76.5193759152867
1016, 76.81085952461419
1016.5, 76.81085952461419
1017, 77.16711726934776
1017.5, 77.16711726934776
1018, 77.49098794637828
1018.5, 77.49098794637828
1019, 77.75008448800271
1019.5, 77.75008448800271
1020, 78.07395516503324
1020.5, 78.07395516503324
1021, 78.46259997746986
1021.5, 78.46259997746986
1022, 78.75408358679735
1022.5, 78.75408358679735
1023, 79.07795426382788
1023.5, 79.49898614396756
1024, 79.49898614396756
1024.5, 79.92001802410725
1025, 79.92001802410725
1025.5, 80.24388870113778
1026, 80.24388870113778
1026.5, 80.69730764898051
1027, 80.69730764898051
1027.5, 81.24788779993241
1028, 81.24788779993241
1028.5, 81.63653261236905
1029, 81.63653261236905
1029.5, 82.08995156021179
1030, 82.08995156021179
1030.5, 82.47859637264843
1031, 82.47859637264843
1031.5, 82.8996282527881
1032, 82.8996282527881
1032.5, 83.35304720063085
1033, 83.35304720063085
1033.5, 83.77407908077053
1034, 83.77407908077053
1034.5, 84.13033682550412
1035, 84.13033682550412
1035.5, 84.5513687056438
1036, 84.5513687056438
1036.5, 85.0371747211896
1037.5, 85.52298073673539
1038, 85.87923848146897
1038.5, 85.87923848146897
1039, 86.2678832939056
1039.5, 86.2678832939056
1040, 86.78607637715444
1040.5, 86.78607637715444
1041, 87.30426946040329
1041.5, 87.30426946040329
1042, 87.59575306973076
1042.5, 87.59575306973076
1043, 87.9843978821674
1043.5, 87.9843978821674
1044, 88.4054297623071
1044.5, 88.4054297623071
1045, 88.79407457474372
1045.5, 88.79407457474372
1046, 89.1503323194773
1046.5, 89.1503323194773
1047, 89.60375126732005
1047.5, 89.60375126732005
1048, 90.1219443505689
1048.5, 90.1219443505689
1049, 90.38104089219331
1049.5, 90.38104089219331
1050, 90.76968570462995
1050.5, 90.76968570462995
1051, 91.2878787878788
1051.5, 91.2878787878788
1052, 91.64413653261238
1052.5, 91.64413653261238
1053, 91.93562014193985
1053.5, 92.38903908978259
1054, 92.38903908978259
1054.5, 92.90723217303143
1055, 92.90723217303143
1055.5, 93.1987157823589
1056, 93.1987157823589
1056.5, 93.52258645938943
1057, 93.52258645938943
1057.5, 93.84645713641996
1058, 93.84645713641996
1058.5, 94.10555367804439
1059, 94.10555367804439
1059.5, 94.46181142277797
1060, 94.46181142277797
1060.5, 94.81806916751155
1061, 94.81806916751155
1061.5, 95.01239157372987
1062, 95.01239157372987
1062.5, 95.30387518305734
1063, 95.30387518305734
1063.5, 95.59535879238481
1064, 95.59535879238481
1064.5, 95.91922946941534
1065, 95.91922946941534
1065.5, 96.04877774022755
1066, 96.04877774022755
1066.5, 96.34026134955504
1067, 96.34026134955504
1067.5, 96.43742255266419
1068, 96.43742255266419
1068.5, 96.79368029739777
1069, 96.95561563591303
1069.5, 96.95561563591303
1070, 97.2470992452405
1070.5, 97.2470992452405
1071, 97.44142165145882
1071.5, 97.44142165145882
1072, 97.60335698997409
1072.5, 97.60335698997409
1073, 97.7329052607863
1073.5, 97.7329052607863
1077.5, 98.96361383350231
1078, 99.09316210431452
1078.5, 99.09316210431452
1079, 99.25509744282978
1079.5, 99.25509744282978
1080.5, 99.35225864593895
1081, 99.35225864593895
1081.5, 99.35225864593895
1082, 99.384645713642
1082.5, 99.384645713642
1083, 99.41703278134504
1083.5, 99.61135518756336
1084, 99.61135518756336
1084.5, 99.5789681198603
1085, 99.5789681198603
1085.5, 99.5789681198603
1086, 99.5789681198603
1086.5, 99.54658105215726
1087, 99.54658105215726
1087.5, 99.4494198490481
1088, 99.4494198490481
1088.5, 99.4494198490481
1089, 99.4494198490481
1089.5, 99.41703278134504
1090, 99.41703278134504
1090.5, 99.384645713642
1091, 99.384645713642
1091.5, 99.41703278134504
1092, 99.41703278134504
1092.5, 99.48180691675115
1093, 99.48180691675115
1093.5, 99.51419398445421
1094, 99.51419398445421
1094.5, 99.48180691675115
1095, 99.48180691675115
1095.5, 99.41703278134504
1096, 99.41703278134504
1096.5, 99.384645713642
1097, 99.384645713642
1097.5, 99.22271037512674
1098, 99.22271037512674
1098.5, 99.15793623972063
1099, 99.12554917201757
1099.5, 99.12554917201757
1100, 99.09316210431452
1106, 97.7329052607863
1106.5, 97.7329052607863
1107, 97.70051819308325
1107.5, 97.70051819308325
1108, 97.50619578686494
1108.5, 97.50619578686494
1109, 97.37664751605273
1109.5, 97.37664751605273
1110, 97.2470992452405
1110.5, 97.2470992452405
1111, 96.98800270361609
1111.5, 96.98800270361609
1112, 96.76129322969472
1112.5, 96.76129322969472
1113, 96.59935789117945
1113.5, 96.46980962036724
1114, 96.46980962036724
1114.5, 96.14593894333672
1115, 96.14593894333672
1115.5, 95.88684240171229
1116, 95.88684240171229
1116.5, 95.72490706319702
1117, 95.72490706319702
1117.5, 95.56297172468176
1118, 95.56297172468176
1118.5, 95.30387518305734
1119, 95.30387518305734
1119.5, 95.20671397994818
1120, 95.20671397994818
1120.5, 94.9152303706207
1121, 94.9152303706207
1121.5, 94.72090796440239
1122, 94.72090796440239
1122.5, 94.65613382899629
1123, 94.65613382899629
1123.5, 94.20271488115354
1124, 94.20271488115354
1124.5, 93.6845217979047
1125, 93.6845217979047
1125.5, 93.58736059479554
1126, 93.58736059479554
1126.5, 93.23110285006196
1127, 93.23110285006196
1127.5, 92.97200630843754
1128, 92.97200630843754
1128.5, 92.5833614960009
1129, 92.29187788667343
1129.5, 92.29187788667343
1130, 92.12994254815817
1130.5, 92.12994254815817
1131, 91.67652360031542
1131.5, 91.67652360031542
1132, 91.51458826180016
1132.5, 91.51458826180016
1133, 91.2878787878788
1133.5, 91.2878787878788
1134, 91.09355638166048
1134.5, 91.09355638166048
1135, 90.7372986369269
1135.5, 90.7372986369269
1136, 90.38104089219331
1136.5, 90.38104089219331
1137, 90.18671848597499
1137.5, 90.18671848597499
1138, 89.79807367353837
1138.5, 89.79807367353837
1139, 89.47420299650783
1139.5, 89.47420299650783
1140, 89.31226765799256
1140.5, 89.31226765799256
1141, 88.82646164244677
1141.5, 88.82646164244677
1142, 88.56736510082236
1142.5, 88.56736510082236
1143, 88.30826855919793
1143.5, 88.30826855919793
1144, 87.85484961135519
1144.5, 87.53097893432466
1145, 87.53097893432466
1145.5, 87.17472118959108
1146, 87.17472118959108
1146.5, 86.94801171566971
1147, 86.94801171566971
1147.5, 86.65652810634224
1148, 86.65652810634224
1148.5, 86.30027036160865
1149, 86.30027036160865
1149.5, 86.04117381998424
1150, 86.04117381998424
1150.5, 85.78207727835981
1151, 85.78207727835981
1151.5, 85.52298073673539
1152, 85.52298073673539
1152.5, 85.16672299200181
1153, 85.16672299200181
1153.5, 84.97240058578349
1154, 84.97240058578349
1154.5, 84.68091697645602
1155, 84.68091697645602
1155.5, 84.16272389320717
1156, 84.16272389320717
1156.5, 84.00078855469191
1157, 84.00078855469191
1157.5, 83.8712402838797
1158, 83.8712402838797
1158.5, 83.3206601329278
1159, 83.12633772670948
1159.5, 83.12633772670948
1160, 82.99678945589727
1160.5, 82.99678945589727
1161, 82.57575757575758
1161.5, 82.57575757575758
1162, 82.219499831024
1162.5, 82.219499831024
1163, 81.92801622169652
1163.5, 81.92801622169652
1164, 81.63653261236905
1164.5, 81.63653261236905
1165, 81.24788779993241
1165.5, 81.24788779993241
1166, 80.79446885208968
1166.5, 80.79446885208968
1167, 80.60014644587136
1167.5, 80.60014644587136
1168, 80.34104990424694
1168.5, 80.34104990424694
1169, 80.04956629491946
1169.5, 80.04956629491946
1170, 79.82285682099808
1170.5, 79.82285682099808
1171, 79.59614734707672
1171.5, 79.59614734707672
1172, 79.17511546693703
1172.5, 79.17511546693703
1173, 78.75408358679735
1173.5, 78.75408358679735
1174, 78.46259997746986
1174.5, 78.17111636814239
1175, 78.17111636814239
1175.5, 77.71769742029966
1176, 77.71769742029966
1176.5, 77.52337501408134
1177, 77.52337501408134
1177.5, 77.36143967556607
1178, 77.36143967556607
1178.5, 76.90802072772334
1179, 76.90802072772334
1179.5, 76.71369832150502
1180, 76.71369832150502
1180.5, 76.5193759152867
1181, 76.5193759152867
1181.5, 76.19550523825617
1182, 76.19550523825617
1182.5, 75.93640869663176
1183, 75.93640869663176
1183.5, 75.80686042581954
1184, 75.80686042581954
1184.5, 75.51537681649205
1185, 75.51537681649205
1185.5, 75.12673200405544
1186, 75.12673200405544
1186.5, 74.86763546243101
1187, 74.86763546243101
1187.5, 74.60853892080658
1188, 74.60853892080658
1188.5, 74.1875070406669
1189, 73.86363636363637
1189.5, 73.86363636363637
1190, 73.636926889715
1190.5, 73.636926889715
1191, 73.44260448349667
1191.5, 73.44260448349667
1192, 73.11873380646615
1192.5, 73.11873380646615
1193, 72.95679846795089
1193.5, 72.95679846795089
1194, 72.76247606173257
1194.5, 72.76247606173257
1195, 72.43860538470204
1195.5, 72.43860538470204
1196, 72.14712177537457
1196.5, 72.14712177537457
1197, 71.88802523375014
1197.5, 71.88802523375014
1198, 71.66131575982878
1198.5, 71.66131575982878
1199, 71.40221921820435
1199.5, 71.40221921820435
1200, 71.14312267657994
1200.5, 71.14312267657994
1201, 71.01357440576773
1201.5, 71.01357440576773
1202, 70.6897037287372
1202.5, 70.6897037287372
1203, 70.36583305170666
1203.5, 70.36583305170666
1204, 70.17151064548835
1204.5, 69.88002703616087
1205, 69.88002703616087
1205.5, 69.62093049453645
1206, 69.62093049453645
1206.5, 69.39422102061508
1207, 69.39422102061508
1207.5, 69.16751154669372
1208, 69.16751154669372
1208.5, 68.94080207277233
1209, 68.94080207277233
1209.5, 68.71409259885095
1210, 68.71409259885095
1210.5, 68.5521572603357
1211, 68.5521572603357
1211.5, 68.32544778641434
1212, 68.32544778641434
1212.5, 68.16351244789908
1213, 68.16351244789908
1213.5, 67.96919004168075
1214, 67.96919004168075
1214.5, 67.83964177086855
1215, 67.83964177086855
1215.5, 67.61293229694718
1216, 67.61293229694718
1216.5, 67.3214486876197
1217, 67.3214486876197
1217.5, 67.22428748451054
1218, 67.22428748451054
1218.5, 67.02996507829224
1219, 67.02996507829224
1219.5, 66.86802973977697
1220, 66.60893319815254
1220.5, 66.60893319815254
1221, 66.44699785963726
1221.5, 66.44699785963726
1222, 66.18790131801285
1222.5, 66.18790131801285
1223, 65.96119184409147
1223.5, 65.96119184409147
1224, 65.76686943787317
1224.5, 65.76686943787317
1225, 65.6049340993579
1225.5, 65.6049340993579
1226, 65.50777289624875
1226.5, 65.50777289624875
1227, 65.34583755773349
1227.5, 65.34583755773349
1228, 65.24867635462432
1228.5, 65.24867635462432
1229, 65.08674101610906
1229.5, 65.08674101610906
1230, 64.86003154218767
1230.5, 64.86003154218767
1231, 64.66570913596937
1231.5, 64.66570913596937
1232, 64.56854793286021
1232.5, 64.56854793286021
1233, 64.40661259434495
1233.5, 64.40661259434495
1234, 64.27706432353273
1234.5, 64.21229018812662
1235, 64.21229018812662
1235.5, 64.08274191731442
1236, 64.08274191731442
1236.5, 63.8884195110961
1237, 63.8884195110961
1237.5, 63.791258307986936
1238, 63.791258307986936
1238.5, 63.66171003717473
1239, 63.66171003717473
1239.5, 63.564548834065576
1240, 63.564548834065576
1240.5, 63.53216176636251
1241, 63.53216176636251
1241.5, 63.499774698659465
1242, 63.499774698659465
1242.5, 63.499774698659465
1243, 63.499774698659465
1243.5, 63.467387630956416
1244, 63.467387630956416
1244.5, 63.435000563253354
1245, 63.435000563253354
1245.5, 63.435000563253354
1246, 63.435000563253354
1246.5, 63.337839360144194
1247, 63.337839360144194
1247.5, 63.27306522473809
1248, 63.27306522473809
1248.5, 63.20829108933199
1249, 63.20829108933199
1249.5, 63.11112988622283
1250, 63.07874281851978
1250.5, 63.07874281851978
1251, 63.11112988622283
1251.5, 63.11112988622283
1252, 63.07874281851978
1252.5, 63.07874281851978
1253, 62.98158161541062
1253.5, 62.98158161541062
1254, 63.01396868311367
1254.5, 63.01396868311367
1255, 63.01396868311367
1255.5, 63.01396868311367
1256, 62.94919454770756
1256.5, 62.94919454770756
1257, 62.884420412301466
1257.5, 62.884420412301466
1258, 62.819646276895355
1258.5, 62.819646276895355
1259, 62.754872141489244
1259.5, 62.754872141489244
1260, 62.69009800608314
1260.5, 62.69009800608314
1261, 62.69009800608314
1261.5, 62.69009800608314
1262, 62.722485073786196
1262.5, 62.722485073786196
1263, 62.65771093838009
1263.5, 62.65771093838009
1264, 62.62532387067704
1264.5, 62.62532387067704
1265, 62.62532387067704
1265.5, 62.62532387067704
1266, 62.62532387067704
1266.5, 62.65771093838009
1267, 62.65771093838009
1267.5, 62.59293680297398
1267.9999999999998, 62.59293680297398
1268.5, 62.43100146445872
1269, 62.43100146445872
1269.5, 62.33384026134956
1269.9999999999998, 62.33384026134956
1270.5, 62.46338853216178
1271, 62.46338853216178
1271.5, 62.49577559986482
1271.9999999999998, 62.49577559986482
1272.5, 62.49577559986482
1273, 62.49577559986482
1273.5, 62.46338853216178
1273.9999999999998, 62.46338853216178
1274.5, 62.39861439675567
1275, 62.39861439675567
1275.5, 62.36622732905262
1275.9999999999998, 62.36622732905262
1276.5, 62.36622732905262
1277, 62.36622732905262
1277.5, 62.36622732905262
1277.9999999999998, 62.36622732905262
1278.5, 62.39861439675567
1279, 62.39861439675567
1279.5, 62.36622732905262
1279.9999999999998, 62.36622732905262
1280.5, 62.36622732905262
1281, 62.39861439675567
1281.5, 62.39861439675567
1281.9999999999998, 62.36622732905262
1282.5, 62.36622732905262
1283, 62.43100146445872
1283.5, 62.43100146445872
1283.9999999999998, 62.46338853216178
1284.5, 62.46338853216178
1285, 62.49577559986482
1285.5, 62.49577559986482
1285.9999999999998, 62.59293680297398
1286.5, 62.59293680297398
1287, 62.62532387067704
1287.5, 62.62532387067704
1287.9999999999998, 62.62532387067704
1288.5, 62.62532387067704
1289, 62.62532387067704
1289.5, 62.62532387067704
1289.9999999999998, 62.65771093838009
1290.5, 62.65771093838009
1291, 62.65771093838009
1291.5, 62.65771093838009
1291.9999999999998, 62.69009800608314
1292.5, 62.69009800608314
1293, 62.754872141489244
1293.5, 62.754872141489244
1293.9999999999998, 62.754872141489244
1294.5, 62.754872141489244
1295, 62.754872141489244
1295.5, 62.754872141489244
1295.9999999999998, 62.754872141489244
1296.5, 62.78725920919231
1297, 62.78725920919231
1297.5, 62.69009800608314
1297.9999999999998, 62.69009800608314
1298.5, 62.65771093838009
1299, 62.65771093838009
1299.5, 62.62532387067704
1299.9999999999998, 62.62532387067704
1300.5, 62.56054973527093
1301, 62.56054973527093
1301.5, 62.49577559986482
1302, 62.49577559986482
1302.5, 62.46338853216178
1303, 62.46338853216178
1303.5, 62.46338853216178
1304, 62.46338853216178
1304.5, 62.46338853216178
1305, 62.46338853216178
1305.5, 62.43100146445872
1306, 62.43100146445872
1306.5, 62.36622732905262
1307, 62.36622732905262
1307.5, 62.36622732905262
1308, 62.36622732905262
1308.5, 62.26906612594345
1309, 62.26906612594345
1309.5, 62.20429199053736
1310, 62.139517855131245
1310.5, 62.139517855131245
1311, 62.10713078742819
1311.5, 62.10713078742819
1312, 62.04235665202209
1312.5, 62.04235665202209
1313, 61.97758251661598
1313.5, 61.97758251661598
1314, 61.91280838120987
1314.5, 61.91280838120987
1315, 61.91280838120987
1315.5, 61.91280838120987
1316, 61.91280838120987
1316.5, 61.91280838120987
1317, 61.94519544891293
1317.5, 61.94519544891293
1318, 62.00996958431903
1318.5, 62.00996958431903
1319, 62.04235665202209
1319.5, 62.04235665202209
1320, 62.04235665202209
1320.5, 62.04235665202209
1321, 62.00996958431903
1321.5, 62.00996958431903
1322, 61.94519544891293
1322.5, 61.94519544891293
1323, 61.91280838120987
1323.5, 61.91280838120987
1324, 62.00996958431903
1324.5, 62.00996958431903
1325, 61.97758251661598
1325.5, 61.97758251661598
1326, 61.97758251661598
1326.5, 61.97758251661598
1327, 61.97758251661598
1327.5, 61.91280838120987
1328, 61.91280838120987
1328.5, 61.88042131350682
1329, 61.88042131350682
1329.5, 61.88042131350682
1330, 61.88042131350682
1330.5, 61.91280838120987
1331, 61.91280838120987
1331.5, 61.91280838120987
1332, 61.91280838120987
1332.5, 61.94519544891293
1333, 61.94519544891293
1333.5, 61.94519544891293
1334, 61.94519544891293
1334.5, 61.94519544891293
1335, 61.94519544891293
1335.5, 61.94519544891293
1336, 61.94519544891293
1336.5, 61.94519544891293
1337, 61.94519544891293
1337.5, 61.94519544891293
1338, 61.94519544891293
1338.5, 61.91280838120987
1339, 61.91280838120987
1339.5, 61.91280838120987
1340, 61.88042131350682
1340.5, 61.88042131350682
1341, 61.88042131350682
1341.5, 61.88042131350682
1342, 61.88042131350682
1342.5, 61.88042131350682
1343, 61.91280838120987
1343.5, 61.91280838120987
1344, 61.84803424580377
1344.5, 61.84803424580377
1345, 61.78326011039767
1345.5, 61.78326011039767
1346, 61.78326011039767
1346.5, 61.78326011039767
1347, 61.78326011039767
1347.5, 61.78326011039767
1348, 61.78326011039767
1348.5, 61.78326011039767
1349, 61.75087304269461
1349.5, 61.75087304269461
1350, 61.75087304269461
1350.5, 61.75087304269461
1351, 61.6860989072885
1351.5, 61.6860989072885
1352, 61.6860989072885
1352.5, 61.6860989072885
1353, 61.71848597499156
1353.5, 61.71848597499156
1354, 61.71848597499156
1354.5, 61.71848597499156
1355, 61.6860989072885
1355.5, 61.65371183958545
1356, 61.65371183958545
1356.5, 61.65371183958545
1357, 61.65371183958545
1357.5, 61.6860989072885
1358, 61.6860989072885
1358.5, 61.6860989072885
1359, 61.6860989072885
1359.5, 61.65371183958545
1360, 61.65371183958545
1360.5, 61.6860989072885
1361, 61.6860989072885
1361.5, 61.65371183958545
1362, 61.65371183958545
1362.5, 61.65371183958545
1363, 61.65371183958545
1363.5, 61.71848597499156
1364, 61.71848597499156
1364.5, 61.71848597499156
1365, 61.71848597499156
1365.5, 61.71848597499156
1366, 61.71848597499156
1366.5, 61.6860989072885
1367, 61.6860989072885
1367.5, 61.6860989072885
1368, 61.6860989072885
1368.5, 61.6860989072885
1369, 61.6860989072885
1369.5, 61.65371183958545
1370, 61.65371183958545
1370.5, 61.6213247718824
1371, 61.65371183958545
1371.5, 61.65371183958545
1372, 61.6860989072885
1372.5, 61.6860989072885
1373, 61.6860989072885
1373.5, 61.6860989072885
1374, 61.6860989072885
1374.5, 61.6860989072885
1375, 61.6860989072885
1375.5, 61.6860989072885
1376, 61.6860989072885
1376.5, 61.6860989072885
1377, 61.6860989072885
1377.5, 61.6860989072885
1378, 61.6213247718824
1378.5, 61.6213247718824
1379, 61.588937704179344
1379.5, 61.588937704179344
1380, 61.6213247718824
1380.5, 61.6213247718824
1381, 61.65371183958545
1381.5, 61.65371183958545
1382, 61.6860989072885
1382.5, 61.6860989072885
1383, 61.6860989072885
1383.5, 61.6860989072885
1384, 61.65371183958545
1384.5, 61.65371183958545
1385, 61.6860989072885
1385.5, 61.71848597499156
1386, 61.71848597499156
1386.5, 61.6860989072885
1387, 61.6860989072885
1387.5, 61.65371183958545
1388, 61.65371183958545
1388.5, 61.65371183958545
1389, 61.65371183958545
1389.5, 61.6213247718824
1390, 61.6213247718824
1390.5, 61.65371183958545
1391, 61.65371183958545
1391.5, 61.6860989072885
1392, 61.6860989072885
1392.5, 61.65371183958545
1393, 61.65371183958545
1393.5, 61.65371183958545
1394, 61.65371183958545
1394.5, 61.6213247718824
1395, 61.6213247718824
1395.5, 61.6213247718824
1396, 61.6213247718824
1396.5, 61.588937704179344
1397, 61.588937704179344
1397.5, 61.588937704179344
1398, 61.588937704179344
1398.5, 61.588937704179344
1399, 61.588937704179344
1399.5, 61.6213247718824
1400, 61.6213247718824
1100.3773584905662, 98.53535353535352
1104.9056603773586, 98.33333333333331
1106.4150943396228, 98.03030303030302
1076.2264150943397, 98.53535353535352
1073.2075471698113, 98.13131313131312
1074.7169811320755, 98.33333333333331
