300, 52.941590627464244
300.5, 52.97397769516729
301, 52.97397769516729
301.5, 53.00636476287035
302, 53.00636476287035
302.5, 53.00636476287035
303, 53.00636476287035
303.5, 53.038751830573396
304, 53.038751830573396
304.5, 53.07113889827645
305, 53.07113889827645
305.5, 53.07113889827645
306, 53.07113889827645
306.5, 53.135913033682556
307, 53.135913033682556
307.5, 53.16830010138561
308, 53.16830010138561
308.5, 53.20068716908867
309, 53.20068716908867
309.5, 53.233074236791715
310, 53.233074236791715
310.5, 53.29784837219782
311, 53.29784837219782
311.5, 53.330235439900875
312, 53.330235439900875
312.5, 53.330235439900875
313, 53.330235439900875
313.5, 53.36262250760393
314, 53.39500957530698
314.5, 53.39500957530698
315, 53.39500957530698
315.5, 53.39500957530698
316, 53.45978371071309
316.5, 53.45978371071309
317, 53.49217077841614
317.5, 53.49217077841614
318, 53.55694491382224
318.5, 53.55694491382224
319, 53.5893319815253
319.5, 53.5893319815253
320, 53.62171904922835
320.5, 53.62171904922835
321, 53.68649318463446
321.5, 53.68649318463446
322, 53.718880252337506
322.5, 53.718880252337506
323, 53.75126732004057
323.5, 53.75126732004057
324, 53.78365438774362
324.5, 53.78365438774362
325, 53.78365438774362
325.5, 53.78365438774362
326, 53.816041455446666
326.5, 53.816041455446666
327, 53.88081559085278
327.5, 53.88081559085278
328, 53.94558972625888
328.5, 53.97797679396193
329, 53.97797679396193
329.5, 54.010363861664985
330, 54.010363861664985
330.5, 54.04275092936804
331, 54.04275092936804
331.5, 54.107525064774144
332, 54.107525064774144
332.5, 54.13991213247719
333, 54.13991213247719
333.5, 54.204686267883304
334, 54.204686267883304
334.5, 54.204686267883304
335, 54.204686267883304
335.5, 54.26946040328941
336, 54.26946040328941
336.5, 54.33423453869551
337, 54.33423453869551
337.5, 54.43139574180467
338, 54.43139574180467
338.5, 54.496169877210775
339, 54.496169877210775
339.5, 54.56094401261688
340, 54.56094401261688
340.5, 54.62571814802299
341, 54.62571814802299
341.5, 54.65810521572604
342, 54.65810521572604
342.5, 54.690492283429094
343, 54.690492283429094
343.5, 54.72287935113215
344, 54.787653486538254
344.5, 54.787653486538254
345, 54.852427621944365
345.5, 54.852427621944365
346, 54.91720175735046
346.5, 54.91720175735046
347, 54.91720175735046
347.5, 54.91720175735046
348, 54.981975892756566
348.5, 54.981975892756566
349, 55.04675002816268
349.5, 55.04675002816268
350, 55.11152416356878
350.5, 55.11152416356878
351, 55.176298298974885
351.5, 55.176298298974885
352, 55.24107243438099
352.5, 55.24107243438099
353, 55.3058465697871
353.5, 55.3058465697871
354, 55.370620705193204
354.5, 55.370620705193204
355, 55.43539484059931
355.5, 55.43539484059931
356, 55.50016897600541
356.5, 55.50016897600541
357, 55.56494311141152
357.5, 55.56494311141152
358, 55.59733017911457
358.5, 55.59733017911457
359, 55.62971724681763
359.5, 55.69449138222374
360, 55.69449138222374
360.5, 55.759265517629835
361, 55.759265517629835
361.5, 55.79165258533289
362, 55.79165258533289
362.5, 55.856426720738995
363, 55.856426720738995
363.5, 55.9212008561451
364, 55.9212008561451
364.5, 55.98597499155121
365, 55.98597499155121
365.5, 56.050749126957314
366, 56.050749126957314
366.5, 56.18029739776952
367, 56.18029739776952
367.5, 56.27745860087868
368, 56.27745860087868
368.5, 56.342232736284785
369, 56.342232736284785
369.5, 56.407006871690896
370, 56.407006871690896
370.5, 56.50416807480005
371, 56.50416807480005
371.5, 56.56894221020616
372, 56.56894221020616
372.5, 56.633716345612264
373, 56.633716345612264
373.5, 56.73087754872142
374, 56.76326461642447
374.5, 56.76326461642447
375, 56.82803875183058
375.5, 56.82803875183058
376, 56.86042581953363
376.5, 56.86042581953363
377, 56.925199954939735
377.5, 56.925199954939735
378, 56.98997409034585
378.5, 56.98997409034585
379, 56.98997409034585
379.5, 56.98997409034585
380, 57.087135293455006
380.5, 57.087135293455006
381, 57.15190942886111
381.5, 57.15190942886111
382, 57.24907063197027
382.5, 57.24907063197027
383, 57.34623183507942
383.5, 57.34623183507942
384, 57.44339303818858
384.5, 57.44339303818858
385, 57.50816717359469
385.5, 57.50816717359469
386, 57.5729413090008
386.5, 57.5729413090008
387, 57.670102512109956
387.5, 57.670102512109956
388, 57.73487664751606
388.5, 57.73487664751606
389, 57.799650782922164
389.5, 57.92919905373438
390, 57.92919905373438
390.5, 58.02636025684353
391, 58.02636025684353
391.5, 58.12352145995269
392, 58.12352145995269
392.5, 58.188295595358795
393, 58.188295595358795
393.5, 58.22068266306185
394, 58.22068266306185
394.5, 58.285456798467955
395, 58.285456798467955
395.5, 58.350230933874066
396, 58.350230933874066
396.5, 58.44739213698322
397, 58.44739213698322
397.5, 58.57694040779543
398, 58.57694040779543
398.5, 58.64171454320154
399, 58.64171454320154
399.5, 58.738875746310704
400, 58.738875746310704
400.5, 58.8036498817168
401, 58.8036498817168
401.5, 58.90081108482597
402, 58.90081108482597
402.5, 58.965585220232065
403, 58.965585220232065
403.5, 59.12752055874733
404, 59.22468176185649
404.5, 59.22468176185649
405, 59.28945589726259
405.5, 59.28945589726259
406, 59.38661710037175
406.5, 59.38661710037175
407, 59.419004168074814
407.5, 59.419004168074814
408, 59.516165371183966
408.5, 59.516165371183966
409, 59.58093950659008
409.5, 59.58093950659008
410, 59.645713641996174
410.5, 59.645713641996174
411, 59.742874845105334
411.5, 59.742874845105334
412, 59.8400360482145
412.5, 59.8400360482145
413, 59.9048101836206
413.5, 59.9048101836206
414, 60.099132589838916
414.5, 60.099132589838916
415, 60.196293792948076
415.5, 60.196293792948076
416, 60.293454996057235
416.5, 60.293454996057235
417, 60.39061619916639
417.5, 60.39061619916639
418, 60.52016446997861
418.5, 60.52016446997861
419, 60.58493860538471
419.5, 60.64971274079081
420, 60.64971274079081
420.5, 60.811648079306075
421, 60.811648079306075
421.5, 60.876422214712186
422, 60.876422214712186
422.5, 61.03835755322745
423, 61.03835755322745
423.5, 61.13551875633661
424, 61.13551875633661
424.5, 61.23267995944576
425, 61.23267995944576
425.5, 61.394615297961025
426, 61.394615297961025
426.5, 61.491776501070184
427, 61.491776501070184
427.5, 61.6213247718824
428, 61.6213247718824
428.5, 61.71848597499156
429, 61.71848597499156
429.5, 61.88042131350682
430, 61.88042131350682
430.5, 62.00996958431903
431, 62.00996958431903
431.5, 62.171904922834294
432, 62.171904922834294
432.5, 62.30145319364651
433, 62.30145319364651
433.5, 62.39861439675567
434, 62.39861439675567
434.5, 62.56054973527093
435, 62.69009800608314
435.5, 62.69009800608314
436, 62.78725920919231
436.5, 62.78725920919231
437, 62.91680748000451
437.5, 62.91680748000451
438, 63.11112988622283
438.5, 63.11112988622283
439, 63.14351695392589
439.5, 63.14351695392589
440, 63.30545229244115
440.5, 63.30545229244115
441, 63.435000563253354
441.5, 63.435000563253354
442, 63.53216176636251
442.5, 63.53216176636251
443, 63.69409710487778
443.5, 63.69409710487778
444, 63.85603244339304
444.5, 63.85603244339304
445, 63.98558071420526
445.5, 63.98558071420526
446, 64.11512898501746
446.5, 64.11512898501746
447, 64.24467725582969
447.5, 64.24467725582969
448, 64.34183845893884
448.5, 64.34183845893884
449, 64.47138672975106
449.5, 64.56854793286021
450, 64.56854793286021
450.5, 64.6980962036724
451, 64.6980962036724
451.5, 64.79525740678159
452, 64.79525740678159
452.5, 64.89241860989074
453, 64.89241860989074
453.5, 64.98957981299989
454, 64.98957981299989
454.5, 65.15151515151516
455, 65.15151515151516
455.5, 65.24867635462432
456, 65.24867635462432
456.5, 65.34583755773349
457, 65.34583755773349
457.5, 65.47538582854568
458, 65.47538582854568
458.5, 65.57254703165484
459, 65.57254703165484
459.5, 65.66970823476402
460, 65.66970823476402
460.5, 65.76686943787317
461, 65.76686943787317
461.5, 65.86403064098232
462, 65.86403064098232
462.5, 66.02596597949758
463, 66.02596597949758
463.5, 66.0907401149037
464, 66.0907401149037
464.5, 66.22028838571589
465, 66.31744958882507
465.5, 66.31744958882507
466, 66.44699785963726
466.5, 66.44699785963726
467, 66.51177199504338
467.5, 66.51177199504338
468, 66.60893319815254
468.5, 66.60893319815254
469, 66.73848146896475
469.5, 66.73848146896475
470, 66.80325560437086
470.5, 66.80325560437086
471, 66.90041680748001
471.5, 66.90041680748001
472, 67.02996507829224
472.5, 67.02996507829224
473, 67.1919004168075
473.5, 67.1919004168075
474, 67.25667455221358
474.5, 67.25667455221358
475, 67.3862228230258
475.5, 67.3862228230258
476, 67.54815816154107
476.5, 67.54815816154107
477, 67.64531936465022
477.5, 67.64531936465022
478, 67.74248056775937
478.5, 67.74248056775937
479, 67.90441590627464
479.5, 68.00157710938382
480, 68.00157710938382
480.5, 68.0663512447899
481, 68.0663512447899
481.5, 68.16351244789908
482, 68.16351244789908
482.5, 68.29306071871127
483, 68.29306071871127
483.5, 68.32544778641434
484, 68.32544778641434
484.5, 68.45499605722654
485, 68.45499605722654
485.5, 68.48738312492961
486, 68.48738312492961
486.5, 68.51977019263265
487, 68.51977019263265
487.5, 68.48738312492961
488, 68.48738312492961
488.5, 68.51977019263265
489, 68.51977019263265
489.5, 68.5521572603357
490, 68.5521572603357
490.5, 68.6169313957418
491, 68.6169313957418
491.5, 68.6169313957418
492, 68.6169313957418
492.5, 68.58454432803876
493, 68.58454432803876
493.5, 68.58454432803876
494, 68.58454432803876
494.5, 68.58454432803876
495, 68.45499605722654
495.5, 68.45499605722654
496, 68.39022192182043
496.5, 68.39022192182043
497, 68.29306071871127
497.5, 68.29306071871127
498, 68.03396417708686
498.5, 68.03396417708686
499, 67.9368029739777
499.5, 67.9368029739777
500, 67.80725470316548
500.5, 67.80725470316548
501, 67.61293229694718
501.5, 67.61293229694718
502, 67.3862228230258
502.5, 67.3862228230258
503, 67.25667455221358
503.5, 67.25667455221358
504, 67.02996507829224
504.5, 67.02996507829224
505, 66.80325560437086
505.5, 66.80325560437086
506, 66.57654613044949
506.5, 66.57654613044949
507, 66.41461079193422
507.5, 66.41461079193422
508, 66.18790131801285
508.5, 66.18790131801285
509, 65.83164357327928
509.5, 65.83164357327928
510, 65.63732116706095
510.5, 65.44299876084264
511, 65.44299876084264
511.5, 65.054353948406
512, 65.054353948406
512.5, 64.76287033907852
513, 64.76287033907852
513.5, 64.56854793286021
514, 64.56854793286021
514.5, 64.34183845893884
515, 64.34183845893884
515.5, 63.9531936465022
516, 63.9531936465022
516.5, 63.791258307986936
517, 63.791258307986936
517.5, 63.59693590176862
518, 63.59693590176862
518.5, 63.30545229244115
519, 63.30545229244115
519.5, 63.07874281851978
520, 63.07874281851978
520.5, 62.884420412301466
521, 62.884420412301466
521.5, 62.62532387067704
522, 62.62532387067704
522.5, 62.30145319364651
523, 62.30145319364651
523.5, 62.171904922834294
524, 62.171904922834294
524.5, 61.91280838120987
525, 61.78326011039767
525.5, 61.78326011039767
526, 61.6213247718824
526.5, 61.6213247718824
527, 61.491776501070184
527.5, 61.491776501070184
528, 61.32984116255492
528.5, 61.32984116255492
529, 61.13551875633661
529.5, 61.13551875633661
530, 61.03835755322745
530.5, 61.03835755322745
531, 60.876422214712186
531.5, 60.876422214712186
532, 60.71448687619692
532.5, 60.71448687619692
533, 60.61732567308776
533.5, 60.61732567308776
534, 60.48777740227555
534.5, 60.48777740227555
535, 60.42300326686945
535.5, 60.42300326686945
536, 60.325842063760284
536.5, 60.325842063760284
537, 60.228680860651124
537.5, 60.228680860651124
538, 60.131519657541965
538.5, 60.131519657541965
539, 60.03435845443281
539.5, 60.03435845443281
540, 59.9695843190267
540.5, 59.87242311591755
541, 59.87242311591755
541.5, 59.8400360482145
542, 59.8400360482145
542.5, 59.77526191280839
543, 59.77526191280839
543.5, 59.742874845105334
544, 59.742874845105334
544.5, 59.71048777740228
545, 59.71048777740228
545.5, 59.67810070969923
546, 59.67810070969923
546.5, 59.71048777740228
547, 59.71048777740228
547.5, 59.742874845105334
548, 59.742874845105334
548.5, 59.71048777740228
549, 59.71048777740228
549.5, 59.645713641996174
550, 59.645713641996174
550.5, 59.613326574293126
551, 59.613326574293126
551.5, 59.58093950659008
552, 59.58093950659008
552.5, 59.613326574293126
553, 59.613326574293126
553.5, 59.613326574293126
554, 59.613326574293126
554.5, 59.613326574293126
555, 59.67810070969923
555.5, 59.67810070969923
556, 59.71048777740228
556.5, 59.71048777740228
557, 59.67810070969923
557.5, 59.67810070969923
558, 59.67810070969923
558.5, 59.67810070969923
559, 59.645713641996174
559.5, 59.645713641996174
560, 59.67810070969923
560.5, 59.67810070969923
561, 59.77526191280839
561.5, 59.77526191280839
562, 59.87242311591755
562.5, 59.87242311591755
563, 59.93719725132365
563.5, 59.93719725132365
564, 59.9695843190267
564.5, 59.9695843190267
565, 60.03435845443281
565.5, 60.03435845443281
566, 60.06674552213586
566.5, 60.06674552213586
567, 60.099132589838916
567.5, 60.099132589838916
568, 60.16390672524502
568.5, 60.16390672524502
569, 60.228680860651124
569.5, 60.228680860651124
570, 60.196293792948076
570.5, 60.196293792948076
571, 60.196293792948076
571.5, 60.16390672524502
572, 60.16390672524502
572.5, 60.196293792948076
573, 60.196293792948076
573.5, 60.26106792835419
574, 60.26106792835419
574.5, 60.26106792835419
575, 60.26106792835419
575.5, 60.26106792835419
576, 60.26106792835419
576.5, 60.293454996057235
577, 60.293454996057235
577.5, 60.293454996057235
578, 60.293454996057235
578.5, 60.26106792835419
579, 60.26106792835419
579.5, 60.26106792835419
580, 60.26106792835419
580.5, 60.26106792835419
581, 60.26106792835419
581.5, 60.26106792835419
582, 60.26106792835419
582.5, 60.26106792835419
583, 60.26106792835419
583.5, 60.26106792835419
584, 60.26106792835419
584.5, 60.228680860651124
585, 60.228680860651124
585.5, 60.196293792948076
586, 60.228680860651124
586.5, 60.228680860651124
587, 60.196293792948076
587.5, 60.196293792948076
588, 60.131519657541965
588.5, 60.131519657541965
589, 60.131519657541965
589.5, 60.131519657541965
590, 60.131519657541965
590.5, 60.131519657541965
591, 60.099132589838916
591.5, 60.099132589838916
592, 60.03435845443281
592.5, 60.03435845443281
593, 59.87242311591755
593.5, 59.87242311591755
594, 59.80764898051144
594.5, 59.80764898051144
595, 59.77526191280839
595.5, 59.77526191280839
596, 59.71048777740228
596.5, 59.71048777740228
597, 59.645713641996174
597.5, 59.645713641996174
598, 59.548552438887015
598.5, 59.548552438887015
599, 59.419004168074814
599.5, 59.419004168074814
600, 59.38661710037175
600.5, 59.28945589726259
601, 59.28945589726259
601.5, 59.25706882955954
602, 59.25706882955954
602.5, 59.062746423341224
603, 59.062746423341224
603.5, 58.99797228793513
604, 58.99797228793513
604.5, 58.90081108482597
605, 58.90081108482597
605.5, 58.8036498817168
606, 58.8036498817168
606.5, 58.70648867860764
607, 58.70648867860764
607.5, 58.60932747549848
608, 58.60932747549848
608.5, 58.51216627238933
609, 58.51216627238933
609.5, 58.41500506928017
610, 58.41500506928017
610.5, 58.350230933874066
611, 58.350230933874066
611.5, 58.285456798467955
612, 58.285456798467955
612.5, 58.188295595358795
613, 58.188295595358795
613.5, 58.02636025684353
614, 58.02636025684353
614.5, 57.89681198603133
615, 57.89681198603133
615.5, 57.799650782922164
616, 57.702489579813005
616.5, 57.702489579813005
617, 57.605328376703845
617.5, 57.605328376703845
618, 57.54055424129774
618.5, 57.54055424129774
619, 57.41100597048553
619.5, 57.41100597048553
620, 57.313844767376374
620.5, 57.313844767376374
621, 57.24907063197027
621.5, 57.24907063197027
622, 57.18429649656416
622.5, 57.18429649656416
623, 57.119522361158054
623.5, 57.119522361158054
624, 57.087135293455006
624.5, 57.087135293455006
625, 56.98997409034585
625.5, 56.98997409034585
626, 56.925199954939735
626.5, 56.925199954939735
627, 56.86042581953363
627.5, 56.86042581953363
628, 56.82803875183058
628.5, 56.82803875183058
629, 56.76326461642447
629.5, 56.76326461642447
630, 56.73087754872142
630.5, 56.66610341331532
631, 56.66610341331532
631.5, 56.56894221020616
632, 56.56894221020616
632.5, 56.471781007097
633, 56.471781007097
633.5, 56.407006871690896
634, 56.407006871690896
634.5, 56.37461980398785
635, 56.37461980398785
635.5, 56.37461980398785
636, 56.37461980398785
636.5, 56.27745860087868
637, 56.27745860087868
637.5, 56.21268446547258
638, 56.21268446547258
638.5, 56.18029739776952
639, 56.18029739776952
639.5, 56.115523262363425
640, 56.115523262363425
640.5, 56.01836205925426
641, 56.01836205925426
641.5, 55.98597499155121
642, 55.98597499155121
642.5, 55.98597499155121
643, 55.98597499155121
643.5, 55.9212008561451
644, 55.9212008561451
644.5, 55.88881378844205
645, 55.88881378844205
645.5, 55.856426720738995
646, 55.82403965303594
646.5, 55.82403965303594
647, 55.759265517629835
647.5, 55.759265517629835
648, 55.72687844992679
648.5, 55.72687844992679
649, 55.69449138222374
649.5, 55.69449138222374
650, 55.69449138222374
650.5, 55.69449138222374
651, 55.62971724681763
651.5, 55.62971724681763
652, 55.59733017911457
652.5, 55.59733017911457
653, 55.50016897600541
653.5, 55.50016897600541
654, 55.43539484059931
654.5, 55.43539484059931
655, 55.40300777289625
655.5, 55.40300777289625
656, 55.40300777289625
656.5, 55.40300777289625
657, 55.40300777289625
657.5, 55.40300777289625
658, 55.370620705193204
658.5, 55.370620705193204
659, 55.370620705193204
659.5, 55.370620705193204
660, 55.370620705193204
660.5, 55.370620705193204
661, 55.3058465697871
661.5, 55.27345950208405
662, 55.27345950208405
662.5, 55.24107243438099
663, 55.24107243438099
663.5, 55.176298298974885
664, 55.176298298974885
664.5, 55.14391123127184
665, 55.14391123127184
665.5, 55.14391123127184
666, 55.14391123127184
666.5, 55.11152416356878
667, 55.11152416356878
667.5, 55.079137095865725
668, 55.079137095865725
668.5, 55.01436296045962
669, 55.01436296045962
669.5, 54.981975892756566
670, 54.981975892756566
670.5, 54.94958882505352
671, 54.94958882505352
671.5, 54.852427621944365
672, 54.852427621944365
672.5, 54.787653486538254
673, 54.787653486538254
673.5, 54.72287935113215
674, 54.72287935113215
674.5, 54.72287935113215
675, 54.72287935113215
675.5, 54.72287935113215
676, 54.72287935113215
676.5, 54.72287935113215
677, 54.7552664188352
677.5, 54.7552664188352
678, 54.7552664188352
678.5, 54.7552664188352
679, 54.787653486538254
679.5, 54.787653486538254
680, 54.7552664188352
680.5, 54.7552664188352
681, 54.72287935113215
681.5, 54.72287935113215
682, 54.72287935113215
682.5, 54.72287935113215
683, 54.7552664188352
683.5, 54.7552664188352
684, 54.72287935113215
684.5, 54.72287935113215
685, 54.72287935113215
685.5, 54.72287935113215
686, 54.72287935113215
686.5, 54.72287935113215
687, 54.7552664188352
687.5, 54.7552664188352
688, 54.7552664188352
688.5, 54.7552664188352
689, 54.72287935113215
689.5, 54.72287935113215
690, 54.690492283429094
690.5, 54.690492283429094
691, 54.690492283429094
691.5, 54.65810521572604
692, 54.65810521572604
692.5, 54.62571814802299
693, 54.62571814802299
693.5, 54.593331080319935
694, 54.593331080319935
694.5, 54.62571814802299
695, 54.62571814802299
695.5, 54.690492283429094
696, 54.690492283429094
696.5, 54.690492283429094
697, 54.690492283429094
697.5, 54.593331080319935
698, 54.593331080319935
698.5, 54.593331080319935
699, 54.593331080319935
699.5, 54.65810521572604
700, 54.65810521572604
700.5, 54.72287935113215
701, 54.72287935113215
701.5, 54.72287935113215
702, 54.72287935113215
702.5, 54.690492283429094
703, 54.690492283429094
703.5, 54.65810521572604
704, 54.65810521572604
704.5, 54.690492283429094
705, 54.690492283429094
705.5, 54.690492283429094
706, 54.72287935113215
706.5, 54.72287935113215
707, 54.65810521572604
707.5, 54.65810521572604
708, 54.65810521572604
708.5, 54.65810521572604
709, 54.62571814802299
709.5, 54.62571814802299
710, 54.65810521572604
710.5, 54.65810521572604
711, 54.593331080319935
711.5, 54.593331080319935
712, 54.593331080319935
712.5, 54.593331080319935
713, 54.62571814802299
713.5, 54.62571814802299
714, 54.62571814802299
714.5, 54.62571814802299
715, 54.72287935113215
715.5, 54.72287935113215
716, 54.7552664188352
716.5, 54.7552664188352
717, 54.787653486538254
717.5, 54.787653486538254
718, 54.787653486538254
718.5, 54.787653486538254
719, 54.72287935113215
719.5, 54.72287935113215
720, 54.72287935113215
720.5, 54.72287935113215
721, 54.690492283429094
721.5, 54.72287935113215
722, 54.72287935113215
722.5, 54.7552664188352
723, 54.7552664188352
723.5, 54.787653486538254
724, 54.787653486538254
724.5, 54.787653486538254
725, 54.787653486538254
725.5, 54.8200405542413
726, 54.8200405542413
726.5, 54.8200405542413
727, 54.8200405542413
727.5, 54.8200405542413
728, 54.8200405542413
728.5, 54.852427621944365
729, 54.852427621944365
729.5, 54.88481468964741
730, 54.88481468964741
730.5, 54.91720175735046
731, 54.91720175735046
731.5, 54.91720175735046
732, 54.91720175735046
732.5, 54.91720175735046
733, 54.91720175735046
733.5, 54.91720175735046
734, 54.91720175735046
734.5, 54.91720175735046
735, 54.91720175735046
735.5, 54.981975892756566
736, 54.981975892756566
736.5, 55.01436296045962
737, 55.11152416356878
737.5, 55.11152416356878
738, 55.14391123127184
738.5, 55.14391123127184
739, 55.176298298974885
739.5, 55.176298298974885
740, 55.176298298974885
740.5, 55.176298298974885
741, 55.20868536667794
741.5, 55.20868536667794
742, 55.24107243438099
742.5, 55.24107243438099
743, 55.27345950208405
743.5, 55.27345950208405
744, 55.27345950208405
744.5, 55.27345950208405
745, 55.3058465697871
745.5, 55.3058465697871
746, 55.370620705193204
746.5, 55.370620705193204
747, 55.40300777289625
747.5, 55.40300777289625
748, 55.43539484059931
748.5, 55.43539484059931
749, 55.43539484059931
749.5, 55.43539484059931
750, 55.43539484059931
750.5, 55.43539484059931
751, 55.43539484059931
751.5, 55.46778190830236
752, 55.46778190830236
752.5, 55.46778190830236
753, 55.46778190830236
753.5, 55.43539484059931
754, 55.43539484059931
754.5, 55.46778190830236
755, 55.46778190830236
755.5, 55.59733017911457
756, 55.59733017911457
756.5, 55.662104314520676
757, 55.662104314520676
757.5, 55.759265517629835
758, 55.759265517629835
758.5, 55.79165258533289
759, 55.79165258533289
759.5, 55.88881378844205
760, 55.88881378844205
760.5, 56.01836205925426
761, 56.01836205925426
761.5, 56.01836205925426
762, 56.01836205925426
762.5, 56.01836205925426
763, 56.01836205925426
763.5, 56.01836205925426
764, 56.01836205925426
764.5, 56.08313619466036
765, 56.08313619466036
765.5, 56.14791033006647
766, 56.14791033006647
766.5, 56.21268446547258
767, 56.27745860087868
767.5, 56.27745860087868
768, 56.30984566858174
768.5, 56.30984566858174
769, 56.342232736284785
769.5, 56.342232736284785
770, 56.407006871690896
770.5, 56.407006871690896
771, 56.439393939393945
771.5, 56.439393939393945
772, 56.50416807480005
772.5, 56.50416807480005
773, 56.56894221020616
773.5, 56.56894221020616
774, 56.633716345612264
774.5, 56.633716345612264
775, 56.633716345612264
775.5, 56.633716345612264
776, 56.66610341331532
776.5, 56.66610341331532
777, 56.76326461642447
777.5, 56.76326461642447
778, 56.795651684127535
778.5, 56.795651684127535
779, 56.86042581953363
779.5, 56.86042581953363
780, 56.925199954939735
780.5, 56.925199954939735
781, 56.89281288723669
781.5, 56.98997409034585
782, 56.98997409034585
782.5, 57.022361158048895
783, 57.022361158048895
783.5, 56.98997409034585
784, 56.98997409034585
784.5, 57.022361158048895
785, 57.022361158048895
785.5, 57.05474822575195
786, 57.05474822575195
786.5, 57.087135293455006
787, 57.087135293455006
787.5, 57.119522361158054
788, 57.119522361158054
788.5, 57.28145769967332
789, 57.28145769967332
789.5, 57.313844767376374
790, 57.313844767376374
790.5, 57.34623183507942
791, 57.34623183507942
791.5, 57.18429649656416
792, 57.18429649656416
792.5, 57.15190942886111
793, 57.15190942886111
793.5, 57.15190942886111
794, 57.15190942886111
794.5, 57.119522361158054
795, 57.119522361158054
795.5, 57.15190942886111
796, 57.15190942886111
796.5, 57.15190942886111
797, 57.119522361158054
797.5, 57.119522361158054
798, 57.087135293455006
798.5, 57.087135293455006
799, 57.022361158048895
799.5, 57.022361158048895
800, 57.022361158048895
800.5, 57.022361158048895
801, 57.087135293455006
801.5, 57.087135293455006
802, 57.05474822575195
802.5, 57.05474822575195
803, 57.022361158048895
803.5, 57.022361158048895
804, 56.95758702264279
804.5, 56.95758702264279
805, 56.89281288723669
805.5, 56.89281288723669
806, 56.82803875183058
806.5, 56.82803875183058
807, 56.76326461642447
807.5, 56.76326461642447
808, 56.76326461642447
808.5, 56.76326461642447
809, 56.69849048101837
809.5, 56.69849048101837
810, 56.66610341331532
810.5, 56.66610341331532
811, 56.60132927790921
811.5, 56.60132927790921
812, 56.53655514250311
812.5, 56.342232736284785
813, 56.342232736284785
813.5, 56.27745860087868
814, 56.27745860087868
814.5, 56.21268446547258
815, 56.21268446547258
815.5, 56.14791033006647
816, 56.14791033006647
816.5, 56.115523262363425
817, 56.115523262363425
817.5, 56.01836205925426
818, 56.01836205925426
818.5, 55.9212008561451
819, 55.9212008561451
819.5, 55.82403965303594
820, 55.82403965303594
820.5, 55.72687844992679
821, 55.72687844992679
821.5, 55.59733017911457
822, 55.59733017911457
822.5, 55.43539484059931
823, 55.43539484059931
823.5, 55.40300777289625
824, 55.40300777289625
824.5, 55.370620705193204
825, 55.370620705193204
825.5, 55.24107243438099
826, 55.24107243438099
826.5, 55.14391123127184
827, 54.981975892756566
827.5, 54.981975892756566
828, 54.88481468964741
828.5, 54.88481468964741
829, 54.7552664188352
829.5, 54.7552664188352
830, 54.65810521572604
830.5, 54.65810521572604
831, 54.56094401261688
831.5, 54.56094401261688
832, 54.43139574180467
832.5, 54.43139574180467
833, 54.36662160639857
833.5, 54.36662160639857
834, 54.30184747099246
834.5, 54.30184747099246
835, 54.36662160639857
835.5, 54.36662160639857
836, 54.399008674101616
836.5, 54.399008674101616
837, 54.43139574180467
837.5, 54.43139574180467
838, 54.43139574180467
838.5, 54.43139574180467
839, 54.43139574180467
839.5, 54.43139574180467
840, 54.399008674101616
840.5, 54.399008674101616
841, 54.23707333558635
841.5, 54.23707333558635
842, 54.13991213247719
842.5, 53.913202658555825
843, 53.913202658555825
843.5, 53.78365438774362
844, 53.78365438774362
844.5, 53.6541061169314
845, 53.6541061169314
845.5, 53.524557846119194
846, 53.524557846119194
846.5, 53.49217077841614
847, 53.49217077841614
847.5, 53.45978371071309
848, 53.45978371071309
848.5, 53.49217077841614
849, 53.49217077841614
849.5, 53.45978371071309
850, 53.45978371071309
850.5, 53.39500957530698
851, 53.39500957530698
851.5, 53.29784837219782
852, 53.29784837219782
852.5, 53.20068716908867
853, 53.20068716908867
853.5, 53.135913033682556
854, 53.135913033682556
854.5, 53.038751830573396
855, 53.038751830573396
855.5, 52.97397769516729
856, 52.97397769516729
856.5, 52.941590627464244
857, 52.941590627464244
857.5, 52.941590627464244
858, 52.97397769516729
858.5, 52.97397769516729
859, 52.941590627464244
859.5, 52.941590627464244
860, 52.941590627464244
860.5, 52.941590627464244
861, 52.941590627464244
861.5, 52.941590627464244
862, 52.90920355976119
862.5, 52.90920355976119
863, 52.87681649205813
863.5, 52.87681649205813
864, 52.87681649205813
864.5, 52.87681649205813
865, 52.90920355976119
865.5, 52.90920355976119
866, 52.941590627464244
866.5, 52.941590627464244
867, 52.941590627464244
867.5, 52.941590627464244
868, 52.97397769516729
868.5, 52.97397769516729
869, 53.00636476287035
869.5, 53.00636476287035
870, 53.038751830573396
870.5, 53.038751830573396
871, 53.07113889827645
871.5, 53.07113889827645
872, 53.07113889827645
872.5, 53.07113889827645
873, 53.07113889827645
873.5, 53.10352596597951
874, 53.10352596597951
874.5, 53.10352596597951
875, 53.10352596597951
875.5, 53.16830010138561
876, 53.16830010138561
876.5, 53.16830010138561
877, 53.16830010138561
877.5, 53.16830010138561
878, 53.16830010138561
878.5, 53.233074236791715
879, 53.233074236791715
879.5, 53.233074236791715
880, 53.233074236791715
880.5, 53.233074236791715
881, 53.233074236791715
881.5, 53.26546130449477
882, 53.26546130449477
882.5, 53.36262250760393
883, 53.36262250760393
883.5, 53.36262250760393
884, 53.36262250760393
884.5, 53.39500957530698
885, 53.39500957530698
885.5, 53.36262250760393
886, 53.36262250760393
886.5, 53.39500957530698
887, 53.39500957530698
887.5, 53.45978371071309
888, 53.524557846119194
888.5, 53.524557846119194
889, 53.524557846119194
889.5, 53.524557846119194
890, 53.524557846119194
890.5, 53.524557846119194
891, 53.49217077841614
891.5, 53.49217077841614
892, 53.524557846119194
892.5, 53.524557846119194
893, 53.5893319815253
893.5, 53.5893319815253
894, 53.5893319815253
894.5, 53.5893319815253
895, 53.55694491382224
895.5, 53.55694491382224
896, 53.68649318463446
896.5, 53.68649318463446
897, 53.75126732004057
897.5, 53.75126732004057
898, 53.75126732004057
898.5, 53.75126732004057
899, 53.78365438774362
899.5, 53.78365438774362
900, 53.78365438774362
900.5, 53.78365438774362
901, 53.84842852314972
901.5, 53.84842852314972
902, 53.816041455446666
902.5, 53.84842852314972
903, 53.84842852314972
903.5, 53.88081559085278
904, 53.88081559085278
904.5, 53.913202658555825
905, 53.913202658555825
905.5, 53.913202658555825
906, 53.913202658555825
906.5, 53.97797679396193
907, 53.97797679396193
907.5, 54.04275092936804
908, 54.04275092936804
908.5, 54.172299200180255
909, 54.172299200180255
909.5, 54.172299200180255
910, 54.172299200180255
910.5, 54.26946040328941
911, 54.26946040328941
911.5, 54.33423453869551
912, 54.33423453869551
912.5, 54.496169877210775
913, 54.496169877210775
913.5, 54.62571814802299
914, 54.62571814802299
914.5, 54.690492283429094
915, 54.690492283429094
915.5, 54.8200405542413
916, 54.8200405542413
916.5, 54.852427621944365
917, 54.852427621944365
917.5, 54.91720175735046
918, 54.981975892756566
918.5, 54.981975892756566
919, 55.04675002816268
919.5, 55.04675002816268
920, 55.04675002816268
920.5, 55.04675002816268
921, 55.01436296045962
921.5, 55.01436296045962
922, 55.04675002816268
922.5, 55.04675002816268
923, 55.079137095865725
923.5, 55.079137095865725
924, 55.176298298974885
924.5, 55.176298298974885
925, 55.27345950208405
925.5, 55.27345950208405
926, 55.33823363749015
926.5, 55.33823363749015
927, 55.43539484059931
927.5, 55.43539484059931
928, 55.50016897600541
928.5, 55.50016897600541
929, 55.62971724681763
929.5, 55.62971724681763
930, 55.59733017911457
930.5, 55.59733017911457
931, 55.59733017911457
931.5, 55.59733017911457
932, 55.59733017911457
932.5, 55.662104314520676
933, 55.662104314520676
933.5, 55.856426720738995
934, 55.856426720738995
934.5, 55.9212008561451
935, 55.9212008561451
935.5, 56.01836205925426
936, 56.01836205925426
936.5, 56.115523262363425
937, 56.115523262363425
937.5, 56.21268446547258
938, 56.21268446547258
938.5, 56.37461980398785
939, 56.37461980398785
939.5, 56.53655514250311
940, 56.53655514250311
940.5, 56.60132927790921
941, 56.60132927790921
941.5, 56.66610341331532
942, 56.66610341331532
942.5, 56.76326461642447
943, 56.76326461642447
943.5, 56.86042581953363
944, 56.86042581953363
944.5, 57.05474822575195
945, 57.05474822575195
945.5, 57.21668356426722
946, 57.21668356426722
946.5, 57.37861890278248
947, 57.37861890278248
947.5, 57.41100597048553
948, 57.44339303818858
948.5, 57.44339303818858
949, 57.44339303818858
949.5, 57.44339303818858
950, 57.63771544440691
950.5, 57.63771544440691
951, 57.799650782922164
951.5, 57.799650782922164
952, 57.96158612143743
952.5, 57.96158612143743
953, 58.12352145995269
953.5, 58.12352145995269
954, 58.350230933874066
954.5, 58.350230933874066
955, 58.47977920468628
955.5, 58.47977920468628
956, 58.57694040779543
956.5, 58.57694040779543
957, 58.70648867860764
957.5, 58.70648867860764
958, 58.77126281401375
958.5, 58.77126281401375
959, 59.03035935563817
959.5, 59.03035935563817
960, 59.15990762645039
960.5, 59.15990762645039
961, 59.28945589726259
961.5, 59.28945589726259
962, 59.419004168074814
962.5, 59.645713641996174
963, 59.645713641996174
963.5, 59.742874845105334
964, 59.742874845105334
964.5, 59.87242311591755
965, 59.87242311591755
965.5, 60.03435845443281
966, 60.03435845443281
966.5, 60.16390672524502
967, 60.16390672524502
967.5, 60.26106792835419
968, 60.26106792835419
968.5, 60.4553903345725
969, 60.4553903345725
969.5, 60.58493860538471
970, 60.58493860538471
970.5, 60.71448687619692
971, 60.71448687619692
971.5, 60.84403514700914
972, 60.84403514700914
972.5, 61.03835755322745
973, 61.03835755322745
973.5, 61.20029289174271
974, 61.20029289174271
974.5, 61.32984116255492
975, 61.32984116255492
975.5, 61.394615297961025
976, 61.394615297961025
976.5, 61.71848597499156
977, 61.71848597499156
977.5, 61.88042131350682
978, 62.04235665202209
978.5, 62.04235665202209
979, 62.2366790582404
979.5, 62.2366790582404
980, 62.46338853216178
980.5, 62.46338853216178
981, 62.56054973527093
981.5, 62.56054973527093
982, 62.754872141489244
982.5, 62.754872141489244
983, 62.852033344598404
983.5, 62.852033344598404
984, 63.04635575081673
984.5, 63.04635575081673
985, 63.14351695392589
985.5, 63.14351695392589
986, 63.30545229244115
986.5, 63.30545229244115
987, 63.53216176636251
987.5, 63.53216176636251
988, 63.66171003717473
988.5, 63.66171003717473
989, 63.72648417258084
989.5, 63.72648417258084
990, 63.8884195110961
990.5, 63.8884195110961
991, 64.01796778190831
991.5, 64.01796778190831
992, 64.17990312042357
992.5, 64.17990312042357
993, 64.27706432353273
993.5, 64.56854793286021
994, 64.56854793286021
994.5, 64.76287033907852
995, 64.76287033907852
995.5, 64.89241860989074
996, 64.89241860989074
996.5, 65.08674101610906
997, 65.08674101610906
997.5, 65.18390221921823
998, 65.18390221921823
998.5, 65.28106342232738
999, 65.28106342232738
999.5, 65.41061169313959
1000, 65.41061169313959
1000.5, 65.63732116706095
1001, 65.63732116706095
1001.5, 65.76686943787317
1002, 65.76686943787317
1002.5, 66.05835304720063
1003, 66.05835304720063
1003.5, 66.25267545341896
1004, 66.25267545341896
1004.5, 66.41461079193422
1005, 66.41461079193422
1005.5, 66.6413202658556
1006, 66.6413202658556
1006.5, 66.86802973977697
1007, 66.86802973977697
1007.5, 67.12712628140139
1008, 67.35383575532276
1008.5, 67.35383575532276
1009, 67.58054522924411
1009.5, 67.58054522924411
1010, 67.90441590627464
1010.5, 67.90441590627464
1011, 68.16351244789908
1011.5, 68.16351244789908
1012, 68.35783485411739
1012.5, 68.35783485411739
1013, 68.64931846344487
1013.5, 68.64931846344487
1014, 68.9731891404754
1014.5, 68.9731891404754
1015, 69.26467274980286
1015.5, 69.26467274980286
1016, 69.49138222372424
1016.5, 69.49138222372424
1017, 69.84763996845783
1017.5, 69.84763996845783
1018, 70.2038977131914
1018.5, 70.2038977131914
1019, 70.36583305170666
1019.5, 70.36583305170666
1020, 70.6897037287372
1020.5, 70.6897037287372
1021, 70.98118733806467
1021.5, 70.98118733806467
1022, 71.33744508279824
1022.5, 71.33744508279824
1023, 71.53176748901657
1023.5, 71.8556381660471
1024, 71.8556381660471
1024.5, 72.30905711388984
1025, 72.30905711388984
1025.5, 72.47099245240508
1026, 72.47099245240508
1026.5, 73.05395967106006
1027, 73.05395967106006
1027.5, 73.41021741579362
1028, 73.41021741579362
1028.5, 73.636926889715
1029, 73.636926889715
1029.5, 74.21989410836996
1030, 74.21989410836996
1030.5, 74.54376478540047
1031, 74.54376478540047
1031.5, 74.96479666554015
1032, 74.96479666554015
1032.5, 75.2238932071646
1033, 75.2238932071646
1033.5, 75.54776388419512
1034, 75.54776388419512
1034.5, 75.93640869663176
1035, 75.93640869663176
1035.5, 76.22789230595923
1036, 76.22789230595923
1036.5, 76.45460177988059
1037, 76.45460177988059
1037.5, 76.81085952461419
1038, 77.10234313394166
1038.5, 77.10234313394166
1039, 77.32905260786302
1039.5, 77.32905260786302
1040, 77.75008448800271
1040.5, 77.75008448800271
1041, 78.04156809733018
1041.5, 78.04156809733018
1042, 78.33305170665767
1042.5, 78.33305170665767
1043, 78.7216965190943
1043.5, 78.7216965190943
1044, 79.17511546693703
1044.5, 79.17511546693703
1045, 79.46659907626452
1045.5, 79.46659907626452
1046, 79.69330855018588
1046.5, 79.69330855018588
1047, 80.08195336262251
1047.5, 80.08195336262251
1048, 80.40582403965304
1048.5, 80.40582403965304
1049, 80.50298524276221
1049.5, 80.50298524276221
1050, 80.72969471668357
1050.5, 80.72969471668357
1051, 80.92401712290189
1051.5, 80.92401712290189
1052, 81.15072659682326
1052.5, 81.15072659682326
1053, 81.34504900304157
1053.5, 81.7336938154782
1054, 81.7336938154782
1054.5, 82.05756449250873
1055, 82.05756449250873
1055.5, 82.25188689872705
1056, 82.25188689872705
1056.5, 82.38143516953926
1057, 82.38143516953926
1057.5, 82.51098344035148
1058, 82.51098344035148
1058.5, 82.80246704967895
1059, 82.80246704967895
1059.5, 82.96440238819422
1060, 82.96440238819422
1060.5, 83.22349892981865
1061, 83.22349892981865
1061.5, 83.45020840374
1062, 83.45020840374
1062.5, 83.51498253914612
1063, 83.51498253914612
1063.5, 83.70930494536444
1064, 83.70930494536444
1064.5, 83.8712402838797
1065, 83.8712402838797
1065.5, 84.09794975780106
1066, 84.09794975780106
1066.5, 84.35704629942549
1067, 84.35704629942549
1067.5, 84.45420750253464
1068, 84.45420750253464
1068.5, 84.71330404415907
1069, 84.84285231497128
1069.5, 84.84285231497128
1070, 85.00478765348655
1070.5, 85.00478765348655
1071, 85.23149712740792
1071.5, 85.23149712740792
1072, 85.32865833051707
1072.5, 85.32865833051707
1073, 85.58775487214149
1073.5, 85.58775487214149
1074, 85.84685141376592
1074.5, 85.84685141376592
1075, 86.00878675228118
1075.5, 86.00878675228118
1076, 86.00878675228118
1076.5, 86.00878675228118
1077, 85.97639968457813
1077.5, 85.97639968457813
1078, 86.04117381998424
1078.5, 86.04117381998424
1079, 86.23549622620254
1079.5, 86.23549622620254
1080, 86.42981863242086
1080.5, 86.42981863242086
1081, 86.46220570012392
1081.5, 86.46220570012392
1082, 86.52697983553003
1082.5, 86.52697983553003
1083, 86.55936690323308
1083.5, 86.68891517404529
1084, 86.68891517404529
1084.5, 86.94801171566971
1085, 86.94801171566971
1085.5, 87.01278585107582
1086, 87.01278585107582
1086.5, 87.07755998648193
1087, 87.07755998648193
1087.5, 87.01278585107582
1088, 87.01278585107582
1088.5, 86.94801171566971
1089, 86.94801171566971
1089.5, 86.91562464796667
1090, 86.91562464796667
1090.5, 86.88323758026361
1091, 86.88323758026361
1091.5, 86.91562464796667
1092, 86.91562464796667
1092.5, 86.98039878337276
1093, 86.98039878337276
1093.5, 87.04517291877887
1094, 87.04517291877887
1094.5, 87.04517291877887
1095, 87.04517291877887
1095.5, 86.94801171566971
1096, 86.94801171566971
1096.5, 86.85085051256056
1097, 86.85085051256056
1097.5, 86.8184634448575
1098, 86.8184634448575
1098.5, 86.94801171566971
1099, 87.04517291877887
1099.5, 87.04517291877887
1100, 87.04517291877887
1100.5, 87.04517291877887
1101, 86.85085051256056
1101.5, 86.85085051256056
1102, 86.8184634448575
1102.5, 86.8184634448575
1103, 86.78607637715444
1103.5, 86.78607637715444
1104, 86.7536893094514
1104.5, 86.7536893094514
1105, 86.52697983553003
1105.5, 86.52697983553003
1106, 86.42981863242086
1106.5, 86.42981863242086
1107, 86.39743156471782
1107.5, 86.39743156471782
1108, 86.2678832939056
1108.5, 86.2678832939056
1109, 86.07356088768728
1109.5, 86.07356088768728
1110, 85.97639968457813
1110.5, 85.97639968457813
1111, 85.81446434606286
1111.5, 85.81446434606286
1112, 85.6525290075476
1112.5, 85.6525290075476
1113, 85.49059366903234
1113.5, 85.42581953362622
1114, 85.42581953362622
1114.5, 85.1019488565957
1115, 85.1019488565957
1115.5, 84.90762645037738
1116, 84.90762645037738
1116.5, 84.84285231497128
1117, 84.84285231497128
1117.5, 84.74569111186212
1118, 84.74569111186212
1118.5, 84.4865945702377
1119, 84.4865945702377
1119.5, 84.38943336712853
1120, 84.38943336712853
1120.5, 84.19511096091023
1121, 84.19511096091023
1121.5, 83.90362735158274
1122, 83.90362735158274
1122.5, 83.8712402838797
1123, 83.8712402838797
1123.5, 83.64453080995833
1124, 83.64453080995833
1124.5, 83.35304720063085
1125, 83.35304720063085
1125.5, 83.09395065900642
1126, 83.09395065900642
1126.5, 82.83485411738201
1127, 82.83485411738201
1127.5, 82.54337050805452
1128, 82.54337050805452
1128.5, 82.34904810183622
1129, 82.12233862791484
1129.5, 82.12233862791484
1130, 81.7336938154782
1130.5, 81.7336938154782
1131, 81.57175847696294
1131.5, 81.57175847696294
1132, 81.21550073222936
1132.5, 81.21550073222936
1133, 81.0535653937141
1133.5, 81.0535653937141
1134, 80.92401712290189
1134.5, 80.92401712290189
1135, 80.5677593781683
1135.5, 80.5677593781683
1136, 80.21150163343472
1136.5, 80.21150163343472
1137, 79.98479215951335
1137.5, 79.98479215951335
1138, 79.82285682099808
1138.5, 79.82285682099808
1139, 79.43421200856146
1139.5, 79.43421200856146
1140, 79.30466373774925
1140.5, 79.30466373774925
1141, 79.14272839923399
1141.5, 79.14272839923399
1142, 78.8512447899065
1142.5, 78.8512447899065
1143, 78.52737411287598
1143.5, 78.52737411287598
1144, 78.3006646389546
1144.5, 77.97679396192407
1145, 77.97679396192407
1145.5, 77.49098794637828
1146, 77.49098794637828
1146.5, 77.36143967556607
1147, 77.36143967556607
1147.5, 77.32905260786302
1148, 77.32905260786302
1148.5, 77.23189140475387
1149, 77.23189140475387
1149.5, 76.90802072772334
1150, 76.90802072772334
1150.5, 76.5193759152867
1151, 76.5193759152867
1151.5, 76.09834403514702
1152, 76.09834403514702
1152.5, 75.67731215500733
1153, 75.67731215500733
1153.5, 75.45060268108597
1154, 75.45060268108597
1154.5, 75.25628027486763
1155, 75.25628027486763
1155.5, 75.06195786864933
1156, 75.06195786864933
1156.5, 74.8028613270249
1157, 74.8028613270249
1157.5, 74.54376478540047
1158, 74.54376478540047
1158.5, 74.1875070406669
1159, 73.89602343133943
1159.5, 73.89602343133943
1160, 73.76647516052722
1160.5, 73.76647516052722
1161, 73.636926889715
1161.5, 73.636926889715
1162, 73.28066914498142
1162.5, 73.28066914498142
1163, 72.92441140024783
1163.5, 72.92441140024783
1164, 72.73008899402953
1164.5, 72.73008899402953
1165, 72.47099245240508
1165.5, 72.47099245240508
1166, 72.08234763996848
1166.5, 72.08234763996848
1167, 71.92041230145318
1167.5, 71.92041230145318
1168, 71.56415455671961
1168.5, 71.56415455671961
1169, 71.17550974428299
1169.5, 71.17550974428299
1170, 70.88402613495552
1170.5, 70.88402613495552
1171, 70.56015545792499
1171.5, 70.56015545792499
1172, 70.1391235777853
1172.5, 70.1391235777853
1173, 69.91241410386392
1173.5, 69.91241410386392
1174, 69.7180916976456
1174.5, 69.49138222372424
1175, 69.49138222372424
1175.5, 69.19989861439677
1176, 69.19989861439677
1176.5, 68.87602793736625
1177, 68.87602793736625
1177.5, 68.58454432803876
1178, 68.58454432803876
1178.5, 68.19589951560212
1179, 68.19589951560212
1179.5, 67.83964177086855
1180, 67.83964177086855
1180.5, 67.64531936465022
1181, 67.64531936465022
1181.5, 67.3862228230258
1182, 67.3862228230258
1182.5, 67.09473921369833
1183, 67.09473921369833
1183.5, 66.99757801058917
1184, 66.99757801058917
1184.5, 66.73848146896475
1185, 66.73848146896475
1185.5, 66.51177199504338
1186, 66.51177199504338
1186.5, 66.22028838571589
1187, 66.22028838571589
1187.5, 65.99357891179454
1188, 65.99357891179454
1188.5, 65.66970823476402
1189, 65.28106342232738
1189.5, 65.28106342232738
1190, 65.054353948406
1190.5, 65.054353948406
1191, 64.82764447448463
1191.5, 64.82764447448463
1192, 64.47138672975106
1192.5, 64.47138672975106
1193, 64.37422552664188
1193.5, 64.37422552664188
1194, 64.21229018812662
1194.5, 64.21229018812662
1195, 63.75887124028388
1195.5, 63.75887124028388
1196, 63.62932296947167
1196.5, 63.62932296947167
1197, 63.402613495550305
1197.5, 63.402613495550305
1198, 63.04635575081673
1198.5, 63.04635575081673
1199, 62.852033344598404
1199.5, 62.852033344598404
1200, 62.59293680297398
1200.5, 62.59293680297398
1201, 62.33384026134956
1201.5, 62.33384026134956
1202, 62.04235665202209
1202.5, 62.04235665202209
1203, 61.88042131350682
1203.5, 61.88042131350682
1204, 61.65371183958545
1204.5, 61.29745409485187
1205, 61.29745409485187
1205.5, 61.0707446209305
1206, 61.0707446209305
1206.5, 60.908809282415234
1207, 60.908809282415234
1207.5, 60.64971274079081
1208, 60.64971274079081
1208.5, 60.4553903345725
1209, 60.4553903345725
1209.5, 60.196293792948076
1210, 60.196293792948076
1210.5, 60.03435845443281
1211, 60.03435845443281
1211.5, 59.77526191280839
1212, 59.77526191280839
1212.5, 59.419004168074814
1213, 59.419004168074814
1213.5, 59.22468176185649
1214, 59.22468176185649
1214.5, 59.09513349104428
1215, 59.09513349104428
1215.5, 58.90081108482597
1216, 58.90081108482597
1216.5, 58.738875746310704
1217, 58.738875746310704
1217.5, 58.54455334009238
1218, 58.54455334009238
1218.5, 58.31784386617102
1219, 58.31784386617102
1219.5, 58.15590852765575
1220, 57.89681198603133
1220.5, 57.89681198603133
1221, 57.702489579813005
1221.5, 57.702489579813005
1222, 57.54055424129774
1222.5, 57.54055424129774
1223, 57.34623183507942
1223.5, 57.34623183507942
1224, 57.119522361158054
1224.5, 57.119522361158054
1225, 56.98997409034585
1225.5, 56.98997409034585
1226, 56.82803875183058
1226.5, 56.82803875183058
1227, 56.66610341331532
1227.5, 56.66610341331532
1228, 56.50416807480005
1228.5, 56.50416807480005
1229, 56.407006871690896
1229.5, 56.407006871690896
1230, 56.18029739776952
1230.5, 56.18029739776952
1231, 56.08313619466036
1231.5, 56.08313619466036
1232, 55.953587923848154
1232.5, 55.953587923848154
1233, 55.759265517629835
1233.5, 55.759265517629835
1234, 55.662104314520676
1234.5, 55.62971724681763
1235, 55.62971724681763
1235.5, 55.50016897600541
1236, 55.50016897600541
1236.5, 55.20868536667794
1237, 55.20868536667794
1237.5, 55.11152416356878
1238, 55.11152416356878
1238.5, 55.01436296045962
1239, 55.01436296045962
1239.5, 54.91720175735046
1240, 54.91720175735046
1240.5, 54.852427621944365
1241, 54.852427621944365
1241.5, 54.852427621944365
1242, 54.852427621944365
1242.5, 54.94958882505352
1243, 54.94958882505352
1243.5, 54.88481468964741
1244, 54.88481468964741
1244.5, 54.852427621944365
1245, 54.852427621944365
1245.5, 54.7552664188352
1246, 54.7552664188352
1246.5, 54.690492283429094
1247, 54.690492283429094
1247.5, 54.62571814802299
1248, 54.62571814802299
1248.5, 54.593331080319935
1249, 54.593331080319935
1249.5, 54.593331080319935
1250, 54.56094401261688
1250.5, 54.56094401261688
1251, 54.52855694491383
1251.5, 54.52855694491383
1252, 54.52855694491383
1252.5, 54.52855694491383
1253, 54.43139574180467
1253.5, 54.43139574180467
1254, 54.399008674101616
1254.5, 54.399008674101616
1255, 54.33423453869551
1255.5, 54.33423453869551
1256, 54.30184747099246
1256.5, 54.30184747099246
1257, 54.13991213247719
1257.5, 54.13991213247719
1258, 54.107525064774144
1258.5, 54.107525064774144
1259, 54.107525064774144
1259.5, 54.107525064774144
1260, 54.13991213247719
1260.5, 54.13991213247719
1261, 54.107525064774144
1261.5, 54.107525064774144
1262, 54.010363861664985
1262.5, 54.010363861664985
1263, 53.913202658555825
1263.5, 53.913202658555825
1264, 53.913202658555825
1264.5, 53.97797679396193
1265, 53.97797679396193
1265.5, 54.010363861664985
1266, 54.010363861664985
1266.5, 53.94558972625888
1267, 53.94558972625888
1267.5, 53.913202658555825
1267.9999999999998, 53.913202658555825
1268.5, 53.913202658555825
1269, 53.913202658555825
1269.5, 53.94558972625888
1269.9999999999998, 53.94558972625888
1270.5, 53.88081559085278
1271, 53.88081559085278
1271.5, 53.84842852314972
1271.9999999999998, 53.84842852314972
1272.5, 53.75126732004057
1273, 53.75126732004057
1273.5, 53.718880252337506
1273.9999999999998, 53.718880252337506
1274.5, 53.816041455446666
1275, 53.816041455446666
1275.5, 53.913202658555825
1275.9999999999998, 53.913202658555825
1276.5, 53.88081559085278
1277, 53.88081559085278
1277.5, 53.84842852314972
1277.9999999999998, 53.84842852314972
1278.5, 53.816041455446666
1279, 53.816041455446666
1279.5, 53.88081559085278
1279.9999999999998, 53.88081559085278
1280.5, 53.88081559085278
1281, 53.88081559085278
1281.5, 53.88081559085278
1281.9999999999998, 53.94558972625888
1282.5, 53.94558972625888
1283, 53.94558972625888
1283.5, 53.94558972625888
1283.9999999999998, 53.913202658555825
1284.5, 53.913202658555825
1285, 53.913202658555825
1285.5, 53.913202658555825
1285.9999999999998, 53.94558972625888
1286.5, 53.94558972625888
1287, 54.010363861664985
1287.5, 54.010363861664985
1287.9999999999998, 54.07513799707109
1288.5, 54.07513799707109
1289, 54.13991213247719
1289.5, 54.13991213247719
1289.9999999999998, 54.172299200180255
1290.5, 54.172299200180255
1291, 54.23707333558635
1291.5, 54.23707333558635
1291.9999999999998, 54.30184747099246
1292.5, 54.30184747099246
1293, 54.30184747099246
1293.5, 54.30184747099246
1293.9999999999998, 54.30184747099246
1294.5, 54.30184747099246
1295, 54.30184747099246
1295.5, 54.30184747099246
1295.9999999999998, 54.30184747099246
1296.5, 54.36662160639857
1297, 54.36662160639857
1297.5, 54.23707333558635
1297.9999999999998, 54.23707333558635
1298.5, 54.04275092936804
1299, 54.04275092936804
1299.5, 54.010363861664985
1299.9999999999998, 54.010363861664985
1300.5, 54.04275092936804
1301, 54.04275092936804
1301.5, 54.010363861664985
1302, 54.010363861664985
1302.5, 53.97797679396193
1303, 53.97797679396193
1303.5, 53.913202658555825
1304, 53.913202658555825
1304.5, 53.84842852314972
1305, 53.84842852314972
1305.5, 53.75126732004057
1306, 53.75126732004057
1306.5, 53.68649318463446
1307, 53.68649318463446
1307.5, 53.55694491382224
1308, 53.55694491382224
1308.5, 53.524557846119194
1309, 53.524557846119194
1309.5, 53.5893319815253
1310, 53.5893319815253
1310.5, 53.5893319815253
1311, 53.5893319815253
1311.5, 53.5893319815253
1312, 53.524557846119194
1312.5, 53.524557846119194
1313, 53.39500957530698
1313.5, 53.39500957530698
1314, 53.29784837219782
1314.5, 53.29784837219782
1315, 53.29784837219782
1315.5, 53.29784837219782
1316, 53.29784837219782
1316.5, 53.29784837219782
1317, 53.427396643010034
1317.5, 53.427396643010034
1318, 53.49217077841614
1318.5, 53.49217077841614
1319, 53.49217077841614
1319.5, 53.49217077841614
1320, 53.39500957530698
1320.5, 53.39500957530698
1321, 53.36262250760393
1321.5, 53.36262250760393
1322, 53.36262250760393
1322.5, 53.36262250760393
1323, 53.36262250760393
1323.5, 53.36262250760393
1324, 53.36262250760393
1324.5, 53.36262250760393
1325, 53.427396643010034
1325.5, 53.427396643010034
1326, 53.427396643010034
1326.5, 53.36262250760393
1327, 53.36262250760393
1327.5, 53.39500957530698
1328, 53.39500957530698
1328.5, 53.39500957530698
1329, 53.39500957530698
1329.5, 53.36262250760393
1330, 53.36262250760393
1330.5, 53.36262250760393
1331, 53.36262250760393
1331.5, 53.39500957530698
1332, 53.39500957530698
1332.5, 53.39500957530698
1333, 53.39500957530698
1333.5, 53.29784837219782
1334, 53.29784837219782
1334.5, 53.26546130449477
1335, 53.26546130449477
1335.5, 53.330235439900875
1336, 53.330235439900875
1336.5, 53.39500957530698
1337, 53.39500957530698
1337.5, 53.36262250760393
1338, 53.36262250760393
1338.5, 53.29784837219782
1339, 53.29784837219782
1339.5, 53.29784837219782
1340, 53.233074236791715
1340.5, 53.233074236791715
1341, 53.29784837219782
1341.5, 53.29784837219782
1342, 53.29784837219782
1342.5, 53.29784837219782
1343, 53.330235439900875
1343.5, 53.330235439900875
1344, 53.16830010138561
1344.5, 53.16830010138561
1345, 53.16830010138561
1345.5, 53.16830010138561
1346, 53.16830010138561
1346.5, 53.16830010138561
1347, 53.10352596597951
1347.5, 53.10352596597951
1348, 53.135913033682556
1348.5, 53.135913033682556
1349, 53.16830010138561
1349.5, 53.16830010138561
1350, 53.10352596597951
1350.5, 53.10352596597951
1351, 53.00636476287035
1351.5, 53.00636476287035
1352, 53.038751830573396
1352.5, 53.038751830573396
1353, 53.00636476287035
1353.5, 53.00636476287035
1354, 52.941590627464244
1354.5, 52.941590627464244
1355, 53.00636476287035
1355.5, 52.97397769516729
1356, 52.97397769516729
1356.5, 52.941590627464244
1357, 52.941590627464244
1357.5, 52.90920355976119
1358, 52.90920355976119
1358.5, 52.97397769516729
1359, 52.97397769516729
1359.5, 53.038751830573396
1360, 53.038751830573396
1360.5, 53.038751830573396
1361, 53.038751830573396
1361.5, 53.10352596597951
1362, 53.10352596597951
1362.5, 53.07113889827645
1363, 53.07113889827645
1363.5, 53.038751830573396
1364, 53.038751830573396
1364.5, 52.97397769516729
1365, 52.97397769516729
1365.5, 52.941590627464244
1366, 52.941590627464244
1366.5, 52.90920355976119
1367, 52.90920355976119
1367.5, 52.87681649205813
1368, 52.87681649205813
1368.5, 53.038751830573396
1369, 53.038751830573396
1369.5, 53.038751830573396
1370, 53.038751830573396
1370.5, 52.941590627464244
1371, 52.90920355976119
1371.5, 52.90920355976119
1372, 52.941590627464244
1372.5, 52.941590627464244
1373, 53.038751830573396
1373.5, 53.038751830573396
1374, 52.941590627464244
1374.5, 52.941590627464244
1375, 52.90920355976119
1375.5, 52.90920355976119
1376, 52.87681649205813
1376.5, 52.87681649205813
1377, 52.941590627464244
1377.5, 52.941590627464244
1378, 52.941590627464244
1378.5, 52.941590627464244
1379, 53.038751830573396
1379.5, 53.038751830573396
1380, 53.10352596597951
1380.5, 53.10352596597951
1381, 53.07113889827645
1381.5, 53.07113889827645
1382, 52.97397769516729
1382.5, 52.97397769516729
1383, 52.941590627464244
1383.5, 52.941590627464244
1384, 52.97397769516729
1384.5, 52.97397769516729
1385, 52.90920355976119
1385.5, 52.90920355976119
1386, 52.90920355976119
1386.5, 52.87681649205813
1387, 52.87681649205813
1387.5, 52.941590627464244
1388, 52.941590627464244
1388.5, 52.97397769516729
1389, 52.97397769516729
1389.5, 53.00636476287035
1390, 53.00636476287035
1390.5, 52.941590627464244
1391, 52.941590627464244
1391.5, 52.97397769516729
1392, 52.97397769516729
1392.5, 52.844429424355084
1393, 52.844429424355084
1393.5, 52.81204235665203
1394, 52.81204235665203
1394.5, 52.941590627464244
1395, 52.941590627464244
1395.5, 53.00636476287035
1396, 53.00636476287035
1396.5, 52.941590627464244
1397, 52.941590627464244
1397.5, 52.81204235665203
1398, 52.81204235665203
1398.5, 52.844429424355084
1399, 52.844429424355084
1399.5, 52.844429424355084
1400, 52.844429424355084
