300, 35.4525740678157
300.5, 35.48496113551876
301, 35.48496113551876
301.5, 35.51734820322183
302, 35.51734820322183
302.5, 35.54973527092487
303, 35.54973527092487
303.5, 35.582122338627926
304, 35.582122338627926
304.5, 35.64689647403402
305, 35.64689647403402
305.5, 35.67928354173709
306, 35.67928354173709
306.5, 35.711670609440134
307, 35.711670609440134
307.5, 35.77644474484626
308, 35.77644474484626
308.5, 35.84121888025234
309, 35.84121888025234
309.5, 35.8736059479554
310, 35.8736059479554
310.5, 35.90599301565845
311, 35.90599301565845
311.5, 35.93838008336152
312, 35.93838008336152
312.5, 36.003154218767605
313, 36.003154218767605
313.5, 36.03554128647066
314, 36.10031542187677
314.5, 36.10031542187677
315, 36.16508955728287
315.5, 36.16508955728287
316, 36.22986369268898
316.5, 36.22986369268898
317, 36.22986369268898
317.5, 36.22986369268898
318, 36.29463782809509
318.5, 36.29463782809509
319, 36.3594119635012
319.5, 36.3594119635012
320, 36.424186098907285
320.5, 36.424186098907285
321, 36.488960234313396
321.5, 36.488960234313396
322, 36.521347302016466
322.5, 36.521347302016466
323, 36.55373436971951
323.5, 36.55373436971951
324, 36.61850850512563
324.5, 36.61850850512563
325, 36.683282640531715
325.5, 36.683282640531715
326, 36.683282640531715
326.5, 36.683282640531715
327, 36.780443843640896
327.5, 36.780443843640896
328, 36.81283091134392
328.5, 36.877605046750034
329, 36.877605046750034
329.5, 36.877605046750034
330, 36.877605046750034
330.5, 36.942379182156145
331, 36.942379182156145
331.5, 37.039540385265305
332, 37.039540385265305
332.5, 37.1043145206714
333, 37.1043145206714
333.5, 37.20147572378057
334, 37.20147572378057
334.5, 37.233862791483624
335, 37.233862791483624
335.5, 37.266249859186665
336, 37.266249859186665
336.5, 37.363411062295825
337, 37.363411062295825
337.5, 37.42818519770193
338, 37.42818519770193
338.5, 37.49295933310805
339, 37.49295933310805
339.5, 37.52534640081109
340, 37.52534640081109
340.5, 37.55773346851415
341, 37.55773346851415
341.5, 37.65489467162331
342, 37.65489467162331
342.5, 37.719668807029414
343, 37.719668807029414
343.5, 37.78444294243551
344, 37.88160414554468
344.5, 37.88160414554468
345, 37.946378280950775
345.5, 37.946378280950775
346, 38.01115241635689
346.5, 38.01115241635689
347, 38.075926551763
347.5, 38.075926551763
348, 38.1407006871691
348.5, 38.1407006871691
349, 38.2054748225752
349.5, 38.2054748225752
350, 38.270248957981316
350.5, 38.270248957981316
351, 38.33502309338742
351.5, 38.33502309338742
352, 38.43218429649658
352.5, 38.43218429649658
353, 38.46457136419963
353.5, 38.46457136419963
354, 38.529345499605725
354.5, 38.529345499605725
355, 38.59411963501184
355.5, 38.59411963501184
356, 38.691280838121
356.5, 38.691280838121
357, 38.78844204123015
357.5, 38.78844204123015
358, 38.885603244339315
358.5, 38.885603244339315
359, 38.95037737974541
359.5, 38.982764447448474
360, 38.982764447448474
360.5, 39.04753858285457
361, 39.04753858285457
361.5, 39.11231271826069
362, 39.11231271826069
362.5, 39.17708685366679
363, 39.17708685366679
363.5, 39.27424805677595
364, 39.27424805677595
364.5, 39.3714092598851
365, 39.3714092598851
365.5, 39.436183395291216
366, 39.436183395291216
366.5, 39.565731666103424
367, 39.565731666103424
367.5, 39.662892869212584
368, 39.662892869212584
368.5, 39.72766700461868
369, 39.72766700461868
369.5, 39.76005407232174
370, 39.76005407232174
370.5, 39.889602343133944
371, 39.889602343133944
371.5, 39.98676354624311
372, 39.98676354624311
372.5, 40.08392474935227
373, 40.08392474935227
373.5, 40.18108595246143
374, 40.27824715557059
374.5, 40.27824715557059
375, 40.27824715557059
375.5, 40.27824715557059
376, 40.4077954263828
376.5, 40.4077954263828
377, 40.472569561788895
377.5, 40.472569561788895
378, 40.569730764898054
378.5, 40.569730764898054
379, 40.66689196800722
379.5, 40.66689196800722
380, 40.699279035710276
380.5, 40.699279035710276
381, 40.828827306522484
381.5, 40.828827306522484
382, 40.89360144192858
382.5, 40.89360144192858
383, 41.0231497127408
383.5, 41.0231497127408
384, 41.12031091584996
384.5, 41.12031091584996
385, 41.21747211895912
385.5, 41.21747211895912
386, 41.282246254365226
386.5, 41.282246254365226
387, 41.379407457474386
387.5, 41.379407457474386
388, 41.41179452517743
388.5, 41.41179452517743
389, 41.508955728286594
389.5, 41.60611693139575
390, 41.60611693139575
390.5, 41.73566520220796
391, 41.73566520220796
391.5, 41.86521347302018
392, 41.86521347302018
392.5, 41.962374676129336
393, 41.962374676129336
393.5, 42.059535879238496
394, 42.059535879238496
394.5, 42.09192294694154
395, 42.09192294694154
395.5, 42.22147121775376
396, 42.22147121775376
396.5, 42.31863242086292
397, 42.31863242086292
397.5, 42.48056775937818
398, 42.48056775937818
398.5, 42.577728962487335
399, 42.577728962487335
399.5, 42.70727723329955
400, 42.70727723329955
400.5, 42.80443843640871
401, 42.80443843640871
401.5, 42.90159963951787
402, 42.90159963951787
402.5, 42.99876084262702
403, 42.99876084262702
403.5, 43.095922045736174
404, 43.19308324884534
404.5, 43.19308324884534
405, 43.2902444519545
405.5, 43.2902444519545
406, 43.41979272276671
406.5, 43.41979272276671
407, 43.51695392587586
407.5, 43.51695392587586
408, 43.58172806128198
408.5, 43.58172806128198
409, 43.64650219668808
409.5, 43.64650219668808
410, 43.840824602906395
410.5, 43.840824602906395
411, 43.93798580601555
411.5, 43.93798580601555
412, 44.06753407682777
412.5, 44.06753407682777
413, 44.16469527993693
413.5, 44.16469527993693
414, 44.35901768615524
414.5, 44.35901768615524
415, 44.488565956967456
415.5, 44.488565956967456
416, 44.65050129548272
416.5, 44.65050129548272
417, 44.74766249859188
417.5, 44.74766249859188
418, 44.81243663399798
418.5, 44.81243663399798
419, 44.90959783710714
419.5, 45.03914610791934
420, 45.03914610791934
420.5, 45.168694378731566
421, 45.168694378731566
421.5, 45.265855581840725
422, 45.265855581840725
422.5, 45.42779092035599
423, 45.42779092035599
423.5, 45.6221133265743
424, 45.6221133265743
424.5, 45.751661597386516
425, 45.751661597386516
425.5, 45.848822800495675
426, 45.848822800495675
426.5, 45.978371071307876
427, 45.978371071307876
427.5, 46.1726934775262
428, 46.1726934775262
428.5, 46.334628816041466
429, 46.334628816041466
429.5, 46.49656415455673
430, 46.49656415455673
430.5, 46.65849949307199
431, 46.65849949307199
431.5, 46.82043483158725
432, 46.82043483158725
432.5, 46.98237017010251
433, 46.98237017010251
433.5, 47.144305508617784
434, 47.144305508617784
434.5, 47.27385377943
435, 47.46817618564832
435.5, 47.46817618564832
436, 47.597724456460526
436.5, 47.597724456460526
437, 47.727272727272734
437.5, 47.727272727272734
438, 47.889208065788004
438.5, 47.889208065788004
439, 47.95398220119411
439.5, 47.95398220119411
440, 48.180691675115476
440.5, 48.180691675115476
441, 48.34262701363073
441.5, 48.34262701363073
442, 48.504562352146
442.5, 48.504562352146
443, 48.56933648755211
443.5, 48.56933648755211
444, 48.76365889377042
444.5, 48.76365889377042
445, 48.89320716458264
445.5, 48.89320716458264
446, 49.08752957080095
446.5, 49.08752957080095
447, 49.24946490931622
447.5, 49.24946490931622
448, 49.37901318012843
448.5, 49.37901318012843
449, 49.540948518643695
449.5, 49.638109721752855
450, 49.638109721752855
450.5, 49.76765799256506
451, 49.76765799256506
451.5, 49.96198039878338
452, 49.96198039878338
452.5, 50.09152866959559
453, 50.09152866959559
453.5, 50.25346400811086
454, 50.25346400811086
454.5, 50.38301227892307
455, 50.38301227892307
455.5, 50.51256054973528
456, 50.51256054973528
456.5, 50.57733468514139
457, 50.57733468514139
457.5, 50.67449588825055
458, 50.67449588825055
458.5, 50.7716570913597
459, 50.7716570913597
459.5, 50.86881829446886
460, 50.86881829446886
460.5, 50.96597949757802
461, 50.96597949757802
461.5, 51.127914836093275
462, 51.127914836093275
462.5, 51.192688971499386
463, 51.192688971499386
463.5, 51.3222372423116
464, 51.3222372423116
464.5, 51.51655964852992
465, 51.64610791934213
465.5, 51.64610791934213
466, 51.775656190154336
466.5, 51.775656190154336
467, 51.90520446096655
467.5, 51.90520446096655
468, 51.969978596372655
468.5, 51.969978596372655
469, 52.03475273177876
469.5, 52.03475273177876
470, 52.164301002590975
470.5, 52.164301002590975
471, 52.32623634110624
471.5, 52.32623634110624
472, 52.4233975442154
472.5, 52.4233975442154
473, 52.4881716796215
473.5, 52.4881716796215
474, 52.650107018136765
474.5, 52.650107018136765
475, 52.81204235665203
475.5, 52.81204235665203
476, 52.87681649205813
476.5, 52.87681649205813
477, 53.038751830573396
477.5, 53.038751830573396
478, 53.233074236791715
478.5, 53.233074236791715
479, 53.330235439900875
479.5, 53.36262250760393
480, 53.36262250760393
480.5, 53.45978371071309
481, 53.45978371071309
481.5, 53.62171904922835
482, 53.62171904922835
482.5, 53.68649318463446
483, 53.68649318463446
483.5, 53.78365438774362
484, 53.78365438774362
484.5, 53.816041455446666
485, 53.816041455446666
485.5, 53.913202658555825
486, 53.913202658555825
486.5, 53.94558972625888
487, 53.94558972625888
487.5, 53.94558972625888
488, 53.94558972625888
488.5, 53.94558972625888
489, 53.94558972625888
489.5, 53.94558972625888
490, 53.94558972625888
490.5, 53.913202658555825
491, 53.913202658555825
491.5, 53.88081559085278
492, 53.88081559085278
492.5, 53.816041455446666
493, 53.816041455446666
493.5, 53.718880252337506
494, 53.718880252337506
494.5, 53.6541061169314
495, 53.524557846119194
495.5, 53.524557846119194
496, 53.427396643010034
496.5, 53.427396643010034
497, 53.233074236791715
497.5, 53.233074236791715
498, 53.00636476287035
498.5, 53.00636476287035
499, 52.81204235665203
499.5, 52.81204235665203
500, 52.68249408583982
500.5, 52.68249408583982
501, 52.455784611918446
501.5, 52.455784611918446
502, 52.19668807029402
502.5, 52.19668807029402
503, 52.03475273177876
503.5, 52.03475273177876
504, 51.775656190154336
504.5, 51.775656190154336
505, 51.484172580826865
505.5, 51.484172580826865
506, 51.22507603920244
506.5, 51.22507603920244
507, 50.96597949757802
507.5, 50.96597949757802
508, 50.609721752844436
508.5, 50.609721752844436
509, 50.2858510758139
509.5, 50.2858510758139
510, 50.026754534189486
510.5, 49.6704967894559
511, 49.6704967894559
511.5, 49.28185197701927
512, 49.28185197701927
512.5, 48.957981299988745
513, 48.957981299988745
513.5, 48.69888475836432
514, 48.69888475836432
514.5, 48.31023994592769
515, 48.31023994592769
515.5, 47.95398220119411
516, 47.95398220119411
516.5, 47.727272727272734
517, 47.727272727272734
517.5, 47.40340205024221
518, 47.40340205024221
518.5, 47.07953137321168
519, 47.07953137321168
519.5, 46.82043483158725
520, 46.82043483158725
520.5, 46.65849949307199
521, 46.65849949307199
521.5, 46.334628816041466
522, 46.334628816041466
522.5, 46.07553227441704
523, 46.07553227441704
523.5, 45.881209868198724
524, 45.881209868198724
524.5, 45.654500394277356
525, 45.39540385265293
525.5, 45.39540385265293
526, 45.168694378731566
526.5, 45.168694378731566
527, 45.0067590402163
527.5, 45.0067590402163
528, 44.74766249859188
528.5, 44.74766249859188
529, 44.488565956967456
529.5, 44.488565956967456
530, 44.32663061845219
530.5, 44.32663061845219
531, 44.16469527993693
531.5, 44.16469527993693
532, 44.06753407682777
532.5, 44.06753407682777
533, 43.93798580601555
533.5, 43.93798580601555
534, 43.840824602906395
534.5, 43.840824602906395
535, 43.71127633209419
535.5, 43.71127633209419
536, 43.64650219668808
536.5, 43.64650219668808
537, 43.51695392587586
537.5, 43.51695392587586
538, 43.38740565506366
538.5, 43.38740565506366
539, 43.225470316548396
539.5, 43.225470316548396
540, 43.12830911343924
540.5, 43.095922045736174
541, 43.095922045736174
541.5, 43.095922045736174
542, 43.095922045736174
542.5, 42.96637377492397
543, 42.96637377492397
543.5, 42.93398670722091
544, 42.93398670722091
544.5, 42.90159963951787
545, 42.90159963951787
545.5, 42.86921257181481
546, 42.86921257181481
546.5, 42.80443843640871
547, 42.80443843640871
547.5, 42.739664301002605
548, 42.739664301002605
548.5, 42.772051368705654
549, 42.772051368705654
549.5, 42.739664301002605
550, 42.739664301002605
550.5, 42.739664301002605
551, 42.739664301002605
551.5, 42.772051368705654
552, 42.772051368705654
552.5, 42.739664301002605
553, 42.739664301002605
553.5, 42.70727723329955
554, 42.70727723329955
554.5, 42.70727723329955
555, 42.70727723329955
555.5, 42.70727723329955
556, 42.772051368705654
556.5, 42.772051368705654
557, 42.80443843640871
557.5, 42.80443843640871
558, 42.86921257181481
558.5, 42.86921257181481
559, 42.96637377492397
559.5, 42.96637377492397
560, 43.06353497803313
560.5, 43.06353497803313
561, 43.12830911343924
561.5, 43.12830911343924
562, 43.19308324884534
562.5, 43.19308324884534
563, 43.257857384251444
563.5, 43.257857384251444
564, 43.38740565506366
564.5, 43.38740565506366
565, 43.45217979046976
565.5, 43.45217979046976
566, 43.51695392587586
566.5, 43.51695392587586
567, 43.61411512898502
567.5, 43.61411512898502
568, 43.67888926439113
568.5, 43.67888926439113
569, 43.71127633209419
569.5, 43.71127633209419
570, 43.74366339979724
570.5, 43.77605046750028
571, 43.77605046750028
571.5, 43.77605046750028
572, 43.77605046750028
572.5, 43.808437535203346
573, 43.808437535203346
573.5, 43.808437535203346
574, 43.808437535203346
574.5, 43.77605046750028
575, 43.77605046750028
575.5, 43.840824602906395
576, 43.840824602906395
576.5, 43.840824602906395
577, 43.840824602906395
577.5, 43.840824602906395
578, 43.840824602906395
578.5, 43.840824602906395
579, 43.840824602906395
579.5, 43.77605046750028
580, 43.77605046750028
580.5, 43.74366339979724
581, 43.74366339979724
581.5, 43.67888926439113
582, 43.67888926439113
582.5, 43.61411512898502
583, 43.61411512898502
583.5, 43.61411512898502
584, 43.61411512898502
584.5, 43.61411512898502
585, 43.61411512898502
585.5, 43.61411512898502
586, 43.54934099357892
586.5, 43.54934099357892
587, 43.51695392587586
587.5, 43.51695392587586
588, 43.45217979046976
588.5, 43.45217979046976
589, 43.41979272276671
589.5, 43.41979272276671
590, 43.41979272276671
590.5, 43.41979272276671
591, 43.38740565506366
591.5, 43.38740565506366
592, 43.41979272276671
592.5, 43.41979272276671
593, 43.257857384251444
593.5, 43.257857384251444
594, 43.16069618114229
594.5, 43.16069618114229
595, 43.06353497803313
595.5, 43.06353497803313
596, 42.96637377492397
596.5, 42.96637377492397
597, 42.86921257181481
597.5, 42.86921257181481
598, 42.739664301002605
598.5, 42.739664301002605
599, 42.545341894784286
599.5, 42.545341894784286
600, 42.38340655626902
600.5, 42.28624535315986
601, 42.28624535315986
601.5, 42.15669708234765
602, 42.15669708234765
602.5, 42.02714881153544
603, 42.02714881153544
603.5, 41.89760054072323
604, 41.89760054072323
604.5, 41.832826405317114
605, 41.832826405317114
605.5, 41.70327813450491
606, 41.70327813450491
606.5, 41.57372986369269
607, 41.57372986369269
607.5, 41.508955728286594
608, 41.508955728286594
608.5, 41.34702038977133
609, 41.34702038977133
609.5, 41.18508505125607
610, 41.18508505125607
610.5, 41.0231497127408
611, 41.0231497127408
611.5, 40.9583755773347
612, 40.9583755773347
612.5, 40.796440238819436
613, 40.796440238819436
613.5, 40.66689196800722
614, 40.66689196800722
614.5, 40.569730764898054
615, 40.569730764898054
615.5, 40.53734369719501
616, 40.4077954263828
616.5, 40.4077954263828
617, 40.31063422327363
617.5, 40.31063422327363
618, 40.245860087867534
618.5, 40.245860087867534
619, 40.14869888475837
619.5, 40.14869888475837
620, 40.05153768164921
620.5, 40.05153768164921
621, 39.98676354624311
621.5, 39.98676354624311
622, 39.8572152754309
622.5, 39.8572152754309
623, 39.792441140024785
623.5, 39.792441140024785
624, 39.72766700461868
624.5, 39.72766700461868
625, 39.662892869212584
625.5, 39.662892869212584
626, 39.59811873380648
626.5, 39.59811873380648
627, 39.50095753069732
627.5, 39.50095753069732
628, 39.436183395291216
628.5, 39.436183395291216
629, 39.33902219218206
629.5, 39.33902219218206
630, 39.2418609890729
630.5, 39.209473921369835
631, 39.209473921369835
631.5, 39.14469978596374
632, 39.14469978596374
632.5, 39.11231271826069
633, 39.11231271826069
633.5, 39.01515151515153
634, 39.01515151515153
634.5, 38.95037737974541
635, 38.95037737974541
635.5, 38.91799031204237
636, 38.91799031204237
636.5, 38.853216176636266
637, 38.853216176636266
637.5, 38.82082910893321
638, 38.82082910893321
638.5, 38.75605497352711
639, 38.75605497352711
639.5, 38.72366790582405
640, 38.72366790582405
640.5, 38.691280838121
641, 38.691280838121
641.5, 38.626506702714885
642, 38.626506702714885
642.5, 38.56173256730879
643, 38.56173256730879
643.5, 38.56173256730879
644, 38.56173256730879
644.5, 38.496958431902684
645, 38.496958431902684
645.5, 38.46457136419963
646, 38.46457136419963
646.5, 38.46457136419963
647, 38.43218429649658
647.5, 38.43218429649658
648, 38.33502309338742
648.5, 38.33502309338742
649, 38.33502309338742
649.5, 38.33502309338742
650, 38.302636025684365
650.5, 38.302636025684365
651, 38.23786189027826
651.5, 38.23786189027826
652, 38.23786189027826
652.5, 38.23786189027826
653, 38.270248957981316
653.5, 38.270248957981316
654, 38.2054748225752
654.5, 38.2054748225752
655, 38.1407006871691
655.5, 38.1407006871691
656, 38.075926551763
656.5, 38.075926551763
657, 38.04353948405994
657.5, 38.04353948405994
658, 38.04353948405994
658.5, 38.04353948405994
659, 38.04353948405994
659.5, 38.04353948405994
660, 38.01115241635689
660.5, 38.01115241635689
661, 37.97876534865384
661.5, 37.97876534865384
662, 37.97876534865384
662.5, 37.946378280950775
663, 37.946378280950775
663.5, 37.91399121324773
664, 37.91399121324773
664.5, 37.88160414554468
665, 37.88160414554468
665.5, 37.816830010138574
666, 37.816830010138574
666.5, 37.816830010138574
667, 37.816830010138574
667.5, 37.816830010138574
668, 37.816830010138574
668.5, 37.816830010138574
669, 37.816830010138574
669.5, 37.816830010138574
670, 37.816830010138574
670.5, 37.75205587473247
671, 37.75205587473247
671.5, 37.68728173932635
672, 37.68728173932635
672.5, 37.622507603920255
673, 37.622507603920255
673.5, 37.622507603920255
674, 37.622507603920255
674.5, 37.68728173932635
675, 37.68728173932635
675.5, 37.719668807029414
676, 37.68728173932635
676.5, 37.68728173932635
677, 37.68728173932635
677.5, 37.68728173932635
678, 37.68728173932635
678.5, 37.68728173932635
679, 37.68728173932635
679.5, 37.68728173932635
680, 37.68728173932635
680.5, 37.68728173932635
681, 37.75205587473247
681.5, 37.75205587473247
682, 37.78444294243551
682.5, 37.78444294243551
683, 37.75205587473247
683.5, 37.75205587473247
684, 37.65489467162331
684.5, 37.65489467162331
685, 37.65489467162331
685.5, 37.65489467162331
686, 37.719668807029414
686.5, 37.719668807029414
687, 37.65489467162331
687.5, 37.65489467162331
688, 37.65489467162331
688.5, 37.65489467162331
689, 37.68728173932635
689.5, 37.68728173932635
690, 37.816830010138574
690.5, 37.816830010138574
691, 37.719668807029414
691.5, 37.719668807029414
692, 37.719668807029414
692.5, 37.65489467162331
693, 37.65489467162331
693.5, 37.622507603920255
694, 37.622507603920255
694.5, 37.622507603920255
695, 37.622507603920255
695.5, 37.68728173932635
696, 37.68728173932635
696.5, 37.75205587473247
697, 37.75205587473247
697.5, 37.816830010138574
698, 37.816830010138574
698.5, 37.78444294243551
699, 37.78444294243551
699.5, 37.78444294243551
700, 37.78444294243551
700.5, 37.78444294243551
701, 37.78444294243551
701.5, 37.78444294243551
702, 37.78444294243551
702.5, 37.816830010138574
703, 37.816830010138574
703.5, 37.849217077841615
704, 37.849217077841615
704.5, 37.816830010138574
705, 37.816830010138574
705.5, 37.816830010138574
706, 37.88160414554468
706.5, 37.88160414554468
707, 37.849217077841615
707.5, 37.849217077841615
708, 37.849217077841615
708.5, 37.849217077841615
709, 37.849217077841615
709.5, 37.849217077841615
710, 37.849217077841615
710.5, 37.849217077841615
711, 37.816830010138574
711.5, 37.816830010138574
712, 37.816830010138574
712.5, 37.816830010138574
713, 37.849217077841615
713.5, 37.849217077841615
714, 37.91399121324773
714.5, 37.91399121324773
715, 37.91399121324773
715.5, 37.91399121324773
716, 37.91399121324773
716.5, 37.91399121324773
717, 37.91399121324773
717.5, 37.91399121324773
718, 37.97876534865384
718.5, 37.97876534865384
719, 37.97876534865384
719.5, 37.97876534865384
720, 37.946378280950775
720.5, 37.946378280950775
721, 37.97876534865384
721.5, 37.946378280950775
722, 37.946378280950775
722.5, 37.946378280950775
723, 37.946378280950775
723.5, 37.97876534865384
724, 37.97876534865384
724.5, 38.04353948405994
725, 38.04353948405994
725.5, 38.04353948405994
726, 38.04353948405994
726.5, 38.075926551763
727, 38.075926551763
727.5, 38.04353948405994
728, 38.04353948405994
728.5, 38.10831361946604
729, 38.10831361946604
729.5, 38.17308775487216
730, 38.17308775487216
730.5, 38.17308775487216
731, 38.17308775487216
731.5, 38.1407006871691
732, 38.1407006871691
732.5, 38.1407006871691
733, 38.1407006871691
733.5, 38.1407006871691
734, 38.1407006871691
734.5, 38.270248957981316
735, 38.270248957981316
735.5, 38.270248957981316
736, 38.270248957981316
736.5, 38.270248957981316
737, 38.399797228793524
737.5, 38.399797228793524
738, 38.33502309338742
738.5, 38.33502309338742
739, 38.302636025684365
739.5, 38.302636025684365
740, 38.302636025684365
740.5, 38.302636025684365
741, 38.43218429649658
741.5, 38.43218429649658
742, 38.43218429649658
742.5, 38.43218429649658
743, 38.496958431902684
743.5, 38.496958431902684
744, 38.496958431902684
744.5, 38.496958431902684
745, 38.496958431902684
745.5, 38.496958431902684
746, 38.496958431902684
746.5, 38.496958431902684
747, 38.529345499605725
747.5, 38.529345499605725
748, 38.626506702714885
748.5, 38.626506702714885
749, 38.65889377041795
749.5, 38.65889377041795
750, 38.65889377041795
750.5, 38.65889377041795
751, 38.56173256730879
751.5, 38.59411963501184
752, 38.59411963501184
752.5, 38.59411963501184
753, 38.59411963501184
753.5, 38.59411963501184
754, 38.59411963501184
754.5, 38.691280838121
755, 38.691280838121
755.5, 38.75605497352711
756, 38.75605497352711
756.5, 38.82082910893321
757, 38.82082910893321
757.5, 38.853216176636266
758, 38.853216176636266
758.5, 38.885603244339315
759, 38.885603244339315
759.5, 38.91799031204237
760, 38.91799031204237
760.5, 38.982764447448474
761, 38.982764447448474
761.5, 39.079925650557634
762, 39.079925650557634
762.5, 39.11231271826069
763, 39.11231271826069
763.5, 39.209473921369835
764, 39.209473921369835
764.5, 39.2418609890729
765, 39.2418609890729
765.5, 39.306635124478994
766, 39.306635124478994
766.5, 39.3714092598851
767, 39.40379632758816
767.5, 39.40379632758816
768, 39.436183395291216
768.5, 39.436183395291216
769, 39.46857046299426
769.5, 39.46857046299426
770, 39.46857046299426
770.5, 39.46857046299426
771, 39.533344598400376
771.5, 39.533344598400376
772, 39.59811873380648
772.5, 39.59811873380648
773, 39.662892869212584
773.5, 39.662892869212584
774, 39.72766700461868
774.5, 39.72766700461868
775, 39.76005407232174
775.5, 39.76005407232174
776, 39.8572152754309
776.5, 39.8572152754309
777, 39.92198941083701
777.5, 39.92198941083701
778, 40.01915061394617
778.5, 40.01915061394617
779, 40.01915061394617
779.5, 40.01915061394617
780, 40.05153768164921
780.5, 40.05153768164921
781, 40.05153768164921
781.5, 40.14869888475837
782, 40.14869888475837
782.5, 40.18108595246143
783, 40.18108595246143
783.5, 40.21347302016448
784, 40.21347302016448
784.5, 40.14869888475837
785, 40.14869888475837
785.5, 40.116311817055326
786, 40.116311817055326
786.5, 40.116311817055326
787, 40.116311817055326
787.5, 40.14869888475837
788, 40.14869888475837
788.5, 40.21347302016448
789, 40.21347302016448
789.5, 40.27824715557059
790, 40.27824715557059
790.5, 40.31063422327363
791, 40.31063422327363
791.5, 40.343021290976694
792, 40.343021290976694
792.5, 40.37540835867975
793, 40.37540835867975
793.5, 40.4077954263828
794, 40.4077954263828
794.5, 40.37540835867975
795, 40.37540835867975
795.5, 40.343021290976694
796, 40.343021290976694
796.5, 40.27824715557059
797, 40.21347302016448
797.5, 40.21347302016448
798, 40.27824715557059
798.5, 40.27824715557059
799, 40.21347302016448
799.5, 40.21347302016448
800, 40.18108595246143
800.5, 40.18108595246143
801, 40.14869888475837
801.5, 40.14869888475837
802, 40.14869888475837
802.5, 40.14869888475837
803, 40.14869888475837
803.5, 40.14869888475837
804, 40.08392474935227
804.5, 40.08392474935227
805, 40.08392474935227
805.5, 40.08392474935227
806, 40.01915061394617
806.5, 40.01915061394617
807, 39.98676354624311
807.5, 39.98676354624311
808, 39.92198941083701
808.5, 39.92198941083701
809, 39.8572152754309
809.5, 39.8572152754309
810, 39.8572152754309
810.5, 39.8572152754309
811, 39.72766700461868
811.5, 39.72766700461868
812, 39.63050580150952
812.5, 39.46857046299426
813, 39.46857046299426
813.5, 39.3714092598851
814, 39.3714092598851
814.5, 39.27424805677595
815, 39.27424805677595
815.5, 39.17708685366679
816, 39.17708685366679
816.5, 39.079925650557634
817, 39.079925650557634
817.5, 38.95037737974541
818, 38.95037737974541
818.5, 38.853216176636266
819, 38.853216176636266
819.5, 38.75605497352711
820, 38.75605497352711
820.5, 38.691280838121
821, 38.691280838121
821.5, 38.626506702714885
822, 38.626506702714885
822.5, 38.529345499605725
823, 38.529345499605725
823.5, 38.43218429649658
824, 38.43218429649658
824.5, 38.33502309338742
825, 38.33502309338742
825.5, 38.17308775487216
826, 38.17308775487216
826.5, 38.04353948405994
827, 37.91399121324773
827.5, 37.91399121324773
828, 37.75205587473247
828.5, 37.75205587473247
829, 37.622507603920255
829.5, 37.622507603920255
830, 37.49295933310805
830.5, 37.49295933310805
831, 37.39579812999889
831.5, 37.39579812999889
832, 37.33102399459278
832.5, 37.33102399459278
833, 37.33102399459278
833.5, 37.33102399459278
834, 37.233862791483624
834.5, 37.233862791483624
835, 37.29863692688973
835.5, 37.29863692688973
836, 37.29863692688973
836.5, 37.29863692688973
837, 37.33102399459278
837.5, 37.33102399459278
838, 37.49295933310805
838.5, 37.49295933310805
839, 37.46057226540499
839.5, 37.46057226540499
840, 37.363411062295825
840.5, 37.363411062295825
841, 37.233862791483624
841.5, 37.233862791483624
842, 37.00715331756224
842.5, 36.84521797904698
843, 36.84521797904698
843.5, 36.683282640531715
844, 36.683282640531715
844.5, 36.488960234313396
845, 36.488960234313396
845.5, 36.39179903120424
846, 36.39179903120424
846.5, 36.32702489579813
847, 36.32702489579813
847.5, 36.26225076039202
848, 36.26225076039202
848.5, 36.16508955728287
849, 36.16508955728287
849.5, 36.13270248957983
850, 36.13270248957983
850.5, 36.13270248957983
851, 36.13270248957983
851.5, 36.10031542187677
852, 36.10031542187677
852.5, 35.97076715106455
853, 35.97076715106455
853.5, 35.93838008336152
854, 35.93838008336152
854.5, 35.8736059479554
855, 35.8736059479554
855.5, 35.67928354173709
856, 35.67928354173709
856.5, 35.61450940633097
857, 35.61450940633097
857.5, 35.61450940633097
858, 35.61450940633097
858.5, 35.61450940633097
859, 35.54973527092487
859.5, 35.54973527092487
860, 35.582122338627926
860.5, 35.582122338627926
861, 35.582122338627926
861.5, 35.582122338627926
862, 35.582122338627926
862.5, 35.582122338627926
863, 35.582122338627926
863.5, 35.582122338627926
864, 35.582122338627926
864.5, 35.582122338627926
865, 35.54973527092487
865.5, 35.54973527092487
866, 35.582122338627926
866.5, 35.582122338627926
867, 35.582122338627926
867.5, 35.582122338627926
868, 35.582122338627926
868.5, 35.582122338627926
869, 35.582122338627926
869.5, 35.582122338627926
870, 35.61450940633097
870.5, 35.61450940633097
871, 35.64689647403402
871.5, 35.64689647403402
872, 35.711670609440134
872.5, 35.711670609440134
873, 35.711670609440134
873.5, 35.711670609440134
874, 35.711670609440134
874.5, 35.711670609440134
875, 35.711670609440134
875.5, 35.74405767714319
876, 35.74405767714319
876.5, 35.808831812549286
877, 35.808831812549286
877.5, 35.8736059479554
878, 35.8736059479554
878.5, 35.8736059479554
879, 35.8736059479554
879.5, 35.90599301565845
880, 35.90599301565845
880.5, 35.93838008336152
881, 35.93838008336152
881.5, 35.93838008336152
882, 35.93838008336152
882.5, 35.97076715106455
883, 35.97076715106455
883.5, 36.03554128647066
884, 36.03554128647066
884.5, 36.10031542187677
885, 36.10031542187677
885.5, 36.10031542187677
886, 36.10031542187677
886.5, 36.13270248957983
887, 36.13270248957983
887.5, 36.19747662498594
888, 36.26225076039202
888.5, 36.26225076039202
889, 36.26225076039202
889.5, 36.26225076039202
890, 36.22986369268898
890.5, 36.22986369268898
891, 36.22986369268898
891.5, 36.22986369268898
892, 36.19747662498594
892.5, 36.19747662498594
893, 36.3594119635012
893.5, 36.3594119635012
894, 36.424186098907285
894.5, 36.424186098907285
895, 36.456573166610355
895.5, 36.456573166610355
896, 36.488960234313396
896.5, 36.488960234313396
897, 36.488960234313396
897.5, 36.488960234313396
898, 36.424186098907285
898.5, 36.424186098907285
899, 36.456573166610355
899.5, 36.456573166610355
900, 36.521347302016466
900.5, 36.521347302016466
901, 36.55373436971951
901.5, 36.55373436971951
902, 36.55373436971951
902.5, 36.65089557282866
903, 36.65089557282866
903.5, 36.71566970823477
904, 36.71566970823477
904.5, 36.748056775937826
905, 36.748056775937826
905.5, 36.748056775937826
906, 36.748056775937826
906.5, 36.81283091134392
907, 36.81283091134392
907.5, 36.84521797904698
908, 36.84521797904698
908.5, 36.877605046750034
909, 36.877605046750034
909.5, 37.00715331756224
910, 37.00715331756224
910.5, 37.07192745296836
911, 37.07192745296836
911.5, 37.20147572378057
912, 37.20147572378057
912.5, 37.29863692688973
913, 37.29863692688973
913.5, 37.33102399459278
914, 37.33102399459278
914.5, 37.42818519770193
915, 37.42818519770193
915.5, 37.52534640081109
916, 37.52534640081109
916.5, 37.68728173932635
917, 37.68728173932635
917.5, 37.75205587473247
918, 37.78444294243551
918.5, 37.78444294243551
919, 37.816830010138574
919.5, 37.816830010138574
920, 37.78444294243551
920.5, 37.78444294243551
921, 37.78444294243551
921.5, 37.78444294243551
922, 37.816830010138574
922.5, 37.816830010138574
923, 38.01115241635689
923.5, 38.01115241635689
924, 38.04353948405994
924.5, 38.04353948405994
925, 38.1407006871691
925.5, 38.1407006871691
926, 38.1407006871691
926.5, 38.1407006871691
927, 38.23786189027826
927.5, 38.23786189027826
928, 38.270248957981316
928.5, 38.270248957981316
929, 38.36741016109046
929.5, 38.36741016109046
930, 38.46457136419963
930.5, 38.46457136419963
931, 38.56173256730879
931.5, 38.56173256730879
932, 38.626506702714885
932.5, 38.72366790582405
933, 38.72366790582405
933.5, 38.75605497352711
934, 38.75605497352711
934.5, 38.82082910893321
935, 38.82082910893321
935.5, 38.853216176636266
936, 38.853216176636266
936.5, 39.079925650557634
937, 39.079925650557634
937.5, 39.14469978596374
938, 39.14469978596374
938.5, 39.2418609890729
939, 39.2418609890729
939.5, 39.533344598400376
940, 39.533344598400376
940.5, 39.69527993691564
941, 39.69527993691564
941.5, 39.72766700461868
942, 39.72766700461868
942.5, 39.82482820772785
943, 39.82482820772785
943.5, 39.95437647854006
944, 39.95437647854006
944.5, 40.05153768164921
945, 40.05153768164921
945.5, 40.18108595246143
946, 40.18108595246143
946.5, 40.31063422327363
947, 40.31063422327363
947.5, 40.44018249408585
948, 40.60211783260112
948.5, 40.60211783260112
949, 40.76405317111638
949.5, 40.76405317111638
950, 40.99076264503774
950.5, 40.99076264503774
951, 41.05553678044385
951.5, 41.05553678044385
952, 41.18508505125607
952.5, 41.18508505125607
953, 41.41179452517743
953.5, 41.41179452517743
954, 41.57372986369269
954.5, 41.57372986369269
955, 41.76805226991102
955.5, 41.76805226991102
956, 41.89760054072323
956.5, 41.89760054072323
957, 42.09192294694154
957.5, 42.09192294694154
958, 42.31863242086292
958.5, 42.31863242086292
959, 42.415793623972064
959.5, 42.415793623972064
960, 42.642503097893446
960.5, 42.642503097893446
961, 42.83682550411175
961.5, 42.83682550411175
962, 42.90159963951787
962.5, 43.03114791033008
963, 43.03114791033008
963.5, 43.16069618114229
964, 43.16069618114229
964.5, 43.257857384251444
965, 43.257857384251444
965.5, 43.38740565506366
966, 43.38740565506366
966.5, 43.64650219668808
967, 43.64650219668808
967.5, 43.808437535203346
968, 43.808437535203346
968.5, 44.002759941421665
969, 44.002759941421665
969.5, 44.16469527993693
970, 44.16469527993693
970.5, 44.32663061845219
971, 44.32663061845219
971.5, 44.488565956967456
972, 44.488565956967456
972.5, 44.65050129548272
973, 44.65050129548272
973.5, 44.81243663399798
974, 44.81243663399798
974.5, 45.03914610791934
975, 45.03914610791934
975.5, 45.168694378731566
976, 45.168694378731566
976.5, 45.33062971724683
977, 45.33062971724683
977.5, 45.5573391911682
978, 45.654500394277356
978.5, 45.654500394277356
979, 45.945984003604835
979.5, 45.945984003604835
980, 46.14030640982314
980.5, 46.14030640982314
981, 46.30224174833841
981.5, 46.30224174833841
982, 46.464177086853674
982.5, 46.464177086853674
983, 46.7232736284781
983.5, 46.7232736284781
984, 46.85282189929031
984.5, 46.85282189929031
985, 46.94998310239947
985.5, 46.94998310239947
986, 46.98237017010251
986.5, 46.98237017010251
987, 47.014757237805576
987.5, 47.014757237805576
988, 47.17669257632084
988.5, 47.17669257632084
989, 47.30624084713305
989.5, 47.30624084713305
990, 47.43578911794526
990.5, 47.43578911794526
991, 47.63011152416358
991.5, 47.63011152416358
992, 47.75965979497579
992.5, 47.75965979497579
993, 47.92159513349105
993.5, 48.11591753970937
994, 48.11591753970937
994.5, 48.180691675115476
995, 48.180691675115476
995.5, 48.277852878224635
996, 48.277852878224635
996.5, 48.4397882167399
997, 48.4397882167399
997.5, 48.53694941984906
998, 48.53694941984906
998.5, 48.66649769066127
999, 48.66649769066127
999.5, 48.860820096879586
1000, 48.860820096879586
1000.5, 49.02275543539485
1001, 49.02275543539485
1001.5, 49.08752957080095
1002, 49.08752957080095
1002.5, 49.152303706207064
1003, 49.152303706207064
1003.5, 49.47617438323759
1004, 49.47617438323759
1004.5, 49.6704967894559
1005, 49.6704967894559
1005.5, 49.83243212797117
1006, 49.83243212797117
1006.5, 50.026754534189486
1007, 50.026754534189486
1007.5, 50.09152866959559
1008, 50.123915737298645
1008.5, 50.123915737298645
1009, 50.35062521122001
1009.5, 50.35062521122001
1010, 50.609721752844436
1010.5, 50.609721752844436
1011, 50.86881829446886
1011.5, 50.86881829446886
1012, 51.03075363298412
1012.5, 51.03075363298412
1013, 51.16030190379634
1013.5, 51.16030190379634
1014, 51.35462431001465
1014.5, 51.35462431001465
1015, 51.581333783936024
1015.5, 51.581333783936024
1016, 51.80804325785739
1016.5, 51.80804325785739
1017, 51.969978596372655
1017.5, 51.969978596372655
1018, 52.067139799481815
1018.5, 52.067139799481815
1019, 52.164301002590975
1019.5, 52.164301002590975
1020, 52.358623408809294
1020.5, 52.358623408809294
1021, 52.61771995043371
1021.5, 52.61771995043371
1022, 52.844429424355084
1022.5, 52.844429424355084
1023, 52.97397769516729
1023.5, 53.135913033682556
1024, 53.135913033682556
1024.5, 53.29784837219782
1025, 53.29784837219782
1025.5, 53.45978371071309
1026, 53.45978371071309
1026.5, 53.718880252337506
1027, 53.718880252337506
1027.5, 53.913202658555825
1028, 53.913202658555825
1028.5, 54.172299200180255
1029, 54.172299200180255
1029.5, 54.26946040328941
1030, 54.26946040328941
1030.5, 54.593331080319935
1031, 54.593331080319935
1031.5, 54.88481468964741
1032, 54.88481468964741
1032.5, 54.94958882505352
1033, 54.94958882505352
1033.5, 55.04675002816268
1034, 55.04675002816268
1034.5, 55.24107243438099
1035, 55.24107243438099
1035.5, 55.370620705193204
1036, 55.370620705193204
1036.5, 55.46778190830236
1037, 55.46778190830236
1037.5, 55.662104314520676
1038, 55.82403965303594
1038.5, 55.82403965303594
1039, 55.9212008561451
1039.5, 55.9212008561451
1040, 56.14791033006647
1040.5, 56.14791033006647
1041, 56.18029739776952
1041.5, 56.18029739776952
1042, 56.18029739776952
1042.5, 56.18029739776952
1043, 56.439393939393945
1043.5, 56.439393939393945
1044, 56.66610341331532
1044.5, 56.66610341331532
1045, 56.98997409034585
1045.5, 56.98997409034585
1046, 57.022361158048895
1046.5, 57.022361158048895
1047, 57.21668356426722
1047.5, 57.21668356426722
1048, 57.5729413090008
1048.5, 57.5729413090008
1049, 57.670102512109956
1049.5, 57.670102512109956
1050, 57.76726371521911
1050.5, 57.76726371521911
1051, 57.89681198603133
1051.5, 57.89681198603133
1052, 58.12352145995269
1052.5, 58.12352145995269
1053, 58.253069730764906
1053.5, 58.41500506928017
1054, 58.41500506928017
1054.5, 58.47977920468628
1055, 58.47977920468628
1055.5, 58.64171454320154
1056, 58.64171454320154
1056.5, 58.90081108482597
1057, 58.90081108482597
1057.5, 59.09513349104428
1058, 59.09513349104428
1058.5, 59.22468176185649
1059, 59.22468176185649
1059.5, 59.32184296496565
1060, 59.32184296496565
1060.5, 59.516165371183966
1061, 59.516165371183966
1061.5, 59.71048777740228
1062, 59.71048777740228
1062.5, 59.742874845105334
1063, 59.742874845105334
1063.5, 59.8400360482145
1064, 59.8400360482145
1064.5, 60.131519657541965
1065, 60.131519657541965
1065.5, 60.39061619916639
1066, 60.39061619916639
1066.5, 60.64971274079081
1067, 60.64971274079081
1067.5, 60.74687394389997
1068, 60.74687394389997
1068.5, 60.97358341782134
1069, 61.0707446209305
1069.5, 61.0707446209305
1070, 61.23267995944576
1070.5, 61.23267995944576
1071, 61.459389433367136
1071.5, 61.459389433367136
1072, 61.71848597499156
1072.5, 61.71848597499156
1073, 61.91280838120987
1073.5, 61.91280838120987
1074, 62.04235665202209
1074.5, 62.04235665202209
1075, 62.26906612594345
1075.5, 62.26906612594345
1076, 62.39861439675567
1076.5, 62.39861439675567
1077, 62.52816266756788
1077.5, 62.52816266756788
1078, 62.56054973527093
1078.5, 62.56054973527093
1079, 62.754872141489244
1079.5, 62.754872141489244
1080, 62.94919454770756
1080.5, 62.94919454770756
1081, 63.17590402162893
1081.5, 63.17590402162893
1082, 63.37022642784725
1082.5, 63.37022642784725
1083, 63.467387630956416
1083.5, 63.59693590176862
1084, 63.59693590176862
1084.5, 63.75887124028388
1085, 63.75887124028388
1085.5, 63.82364537568999
1086, 63.82364537568999
1086.5, 63.98558071420526
1087, 63.98558071420526
1087.5, 64.01796778190831
1088, 64.01796778190831
1088.5, 64.11512898501746
1089, 64.11512898501746
1089.5, 64.21229018812662
1090, 64.21229018812662
1090.5, 64.43899966204799
1091, 64.43899966204799
1091.5, 64.56854793286021
1092, 64.56854793286021
1092.5, 64.56854793286021
1093, 64.56854793286021
1093.5, 64.56854793286021
1094, 64.56854793286021
1094.5, 64.95719274529685
1095, 64.95719274529685
1095.5, 65.054353948406
1096, 65.054353948406
1096.5, 65.02196688070293
1097, 65.02196688070293
1097.5, 64.86003154218767
1098, 64.86003154218767
1098.5, 64.82764447448463
1099, 64.82764447448463
1099.5, 64.82764447448463
1100, 64.79525740678159
1100.5, 64.79525740678159
1101, 64.82764447448463
1101.5, 64.82764447448463
1102, 64.86003154218767
1102.5, 64.86003154218767
1103, 64.89241860989074
1103.5, 64.89241860989074
1104, 64.89241860989074
1104.5, 64.89241860989074
1105, 64.95719274529685
1105.5, 64.95719274529685
1106, 64.76287033907852
1106.5, 64.76287033907852
1107, 64.66570913596937
1107.5, 64.66570913596937
1108, 64.79525740678159
1108.5, 64.79525740678159
1109, 65.08674101610906
1109.5, 65.08674101610906
1110, 65.18390221921823
1110.5, 65.18390221921823
1111, 65.11912808381211
1111.5, 65.11912808381211
1112, 64.82764447448463
1112.5, 64.82764447448463
1113, 64.63332206826632
1113.5, 64.53616086515714
1114, 64.53616086515714
1114.5, 64.47138672975106
1115, 64.47138672975106
1115.5, 64.47138672975106
1116, 64.47138672975106
1116.5, 64.37422552664188
1117, 64.37422552664188
1117.5, 64.14751605272053
1118, 64.14751605272053
1118.5, 64.08274191731442
1119, 64.08274191731442
1119.5, 64.08274191731442
1120, 64.08274191731442
1120.5, 64.05035484961135
1121, 64.05035484961135
1121.5, 63.98558071420526
1122, 63.98558071420526
1122.5, 63.92080657879915
1123, 63.92080657879915
1123.5, 63.82364537568999
1124, 63.82364537568999
1124.5, 63.499774698659465
1125, 63.499774698659465
1125.5, 63.17590402162893
1126, 63.17590402162893
1126.5, 63.01396868311367
1127, 63.01396868311367
1127.5, 62.884420412301466
1128, 62.884420412301466
1128.5, 62.819646276895355
1129, 62.69009800608314
1129.5, 62.69009800608314
1130, 62.49577559986482
1130.5, 62.49577559986482
1131, 62.20429199053736
1131.5, 62.20429199053736
1132, 61.94519544891293
1132.5, 61.94519544891293
1133, 61.75087304269461
1133.5, 61.75087304269461
1134, 61.6213247718824
1134.5, 61.6213247718824
1135, 61.42700236566408
1135.5, 61.42700236566408
1136, 61.13551875633661
1136.5, 61.13551875633661
1137, 61.005970485524394
1137.5, 61.005970485524394
1138, 60.908809282415234
1138.5, 60.908809282415234
1139, 60.779261011603026
1139.5, 60.779261011603026
1140, 60.64971274079081
1140.5, 60.64971274079081
1141, 60.42300326686945
1141.5, 60.42300326686945
1142, 60.196293792948076
1142.5, 60.196293792948076
1143, 59.80764898051144
1143.5, 59.80764898051144
1144, 59.516165371183966
1144.5, 59.45139123577786
1145, 59.45139123577786
1145.5, 59.28945589726259
1146, 59.28945589726259
1146.5, 59.062746423341224
1147, 59.062746423341224
1147.5, 58.83603694941986
1148, 58.83603694941986
1148.5, 58.57694040779543
1149, 58.57694040779543
1149.5, 58.31784386617102
1150, 58.31784386617102
1150.5, 58.12352145995269
1151, 58.12352145995269
1151.5, 58.02636025684353
1152, 58.02636025684353
1152.5, 57.54055424129774
1153, 57.54055424129774
1153.5, 57.47578010589164
1154, 57.47578010589164
1154.5, 57.28145769967332
1155, 57.28145769967332
1155.5, 57.05474822575195
1156, 57.05474822575195
1156.5, 56.82803875183058
1157, 56.82803875183058
1157.5, 56.66610341331532
1158, 56.66610341331532
1158.5, 56.21268446547258
1159, 56.050749126957314
1159.5, 56.050749126957314
1160, 55.759265517629835
1160.5, 55.759265517629835
1161, 55.59733017911457
1161.5, 55.59733017911457
1162, 55.27345950208405
1162.5, 55.27345950208405
1163, 55.11152416356878
1163.5, 55.11152416356878
1164, 54.8200405542413
1164.5, 54.8200405542413
1165, 54.65810521572604
1165.5, 54.65810521572604
1166, 54.172299200180255
1166.5, 54.172299200180255
1167, 54.07513799707109
1167.5, 54.07513799707109
1168, 53.913202658555825
1168.5, 53.913202658555825
1169, 53.49217077841614
1169.5, 53.49217077841614
1170, 53.39500957530698
1170.5, 53.39500957530698
1171, 53.135913033682556
1171.5, 53.135913033682556
1172, 52.844429424355084
1172.5, 52.844429424355084
1173, 52.4881716796215
1173.5, 52.4881716796215
1174, 52.229075137997086
1174.5, 52.067139799481815
1175, 52.067139799481815
1175.5, 51.71088205474823
1176, 51.71088205474823
1176.5, 51.45178551312381
1177, 51.45178551312381
1177.5, 51.06314070068718
1178, 51.06314070068718
1178.5, 50.73927002365665
1179, 50.73927002365665
1179.5, 50.318238143516965
1180, 50.318238143516965
1180.5, 50.18868987270475
1181, 50.18868987270475
1181.5, 49.929593331080326
1182, 49.929593331080326
1182.5, 49.6704967894559
1183, 49.6704967894559
1183.5, 49.47617438323759
1184, 49.47617438323759
1184.5, 49.21707784161317
1185, 49.21707784161317
1185.5, 48.89320716458264
1186, 48.89320716458264
1186.5, 48.504562352146
1187, 48.504562352146
1187.5, 48.34262701363073
1188, 48.34262701363073
1188.5, 48.180691675115476
1189, 48.05114340430327
1189.5, 48.05114340430327
1190, 47.889208065788004
1190.5, 47.889208065788004
1191, 47.56533738875747
1191.5, 47.56533738875747
1192, 47.30624084713305
1192.5, 47.30624084713305
1193, 47.014757237805576
1193.5, 47.014757237805576
1194, 46.88520896699336
1194.5, 46.88520896699336
1195, 46.65849949307199
1195.5, 46.65849949307199
1196, 46.334628816041466
1196.5, 46.334628816041466
1197, 46.01075813901094
1197.5, 46.01075813901094
1198, 45.68688746198041
1198.5, 45.68688746198041
1199, 45.36301678494988
1199.5, 45.36301678494988
1200, 45.265855581840725
1200.5, 45.265855581840725
1201, 45.10392024332546
1201.5, 45.10392024332546
1202, 44.74766249859188
1202.5, 44.74766249859188
1203, 44.42379182156135
1203.5, 44.42379182156135
1204, 44.19708234763997
1204.5, 43.93798580601555
1205, 43.93798580601555
1205.5, 43.71127633209419
1206, 43.71127633209419
1206.5, 43.48456685817282
1207, 43.48456685817282
1207.5, 43.257857384251444
1208, 43.257857384251444
1208.5, 42.96637377492397
1209, 42.96637377492397
1209.5, 42.642503097893446
1210, 42.642503097893446
1210.5, 42.48056775937818
1211, 42.48056775937818
1211.5, 42.35101948856597
1212, 42.35101948856597
1212.5, 42.189084150050704
1213, 42.189084150050704
1213.5, 42.02714881153544
1214, 42.02714881153544
1214.5, 41.832826405317114
1215, 41.832826405317114
1215.5, 41.63850399909881
1216, 41.63850399909881
1216.5, 41.379407457474386
1217, 41.379407457474386
1217.5, 41.18508505125607
1218, 41.18508505125607
1218.5, 41.0231497127408
1219, 41.0231497127408
1219.5, 40.699279035710276
1220, 40.472569561788895
1220.5, 40.472569561788895
1221, 40.37540835867975
1221.5, 40.37540835867975
1222, 40.27824715557059
1222.5, 40.27824715557059
1223, 40.08392474935227
1223.5, 40.08392474935227
1224, 39.95437647854006
1224.5, 39.95437647854006
1225, 39.69527993691564
1225.5, 39.69527993691564
1226, 39.533344598400376
1226.5, 39.533344598400376
1227, 39.27424805677595
1227.5, 39.27424805677595
1228, 39.17708685366679
1228.5, 39.17708685366679
1230, 38.72366790582405
1230.5, 38.72366790582405
1231, 38.65889377041795
1231.5, 38.65889377041795
1232, 38.626506702714885
1232.5, 38.626506702714885
1233, 38.496958431902684
1233.5, 38.496958431902684
1234, 38.302636025684365
1234.5, 38.2054748225752
1235, 38.2054748225752
1235.5, 38.10831361946604
1236, 38.10831361946604
1236.5, 37.88160414554468
1237, 37.88160414554468
1237.5, 37.816830010138574
1238, 37.816830010138574
1238.5, 37.68728173932635
1239, 37.68728173932635
1239.5, 37.590120536217206
1240, 37.590120536217206
1240.5, 37.590120536217206
1241, 37.590120536217206
1241.5, 37.55773346851415
1242, 37.55773346851415
1242.5, 37.52534640081109
1243, 37.52534640081109
1243.5, 37.49295933310805
1244, 37.49295933310805
1244.5, 37.46057226540499
1245, 37.46057226540499
1245.5, 37.363411062295825
1246, 37.363411062295825
1246.5, 37.29863692688973
1247, 37.29863692688973
1247.5, 37.20147572378057
1248, 37.20147572378057
1248.5, 37.20147572378057
1249, 37.20147572378057
1249.5, 37.29863692688973
1250, 37.233862791483624
1250.5, 37.233862791483624
1251, 37.136701588374464
1251.5, 37.136701588374464
1252, 37.07192745296836
1252.5, 37.07192745296836
1253, 37.00715331756224
1253.5, 37.00715331756224
1254, 37.00715331756224
1254.5, 37.00715331756224
1255, 37.00715331756224
1255.5, 37.00715331756224
1256, 36.942379182156145
1256.5, 36.942379182156145
1257, 36.84521797904698
1257.5, 36.84521797904698
1258, 36.81283091134392
1258.5, 36.81283091134392
1259, 36.748056775937826
1259.5, 36.748056775937826
1260, 36.748056775937826
1260.5, 36.748056775937826
1261, 36.71566970823477
1261.5, 36.71566970823477
1262, 36.683282640531715
1262.5, 36.683282640531715
1263, 36.58612143742255
1263.5, 36.58612143742255
1264, 36.58612143742255
1264.5, 36.58612143742255
1265, 36.58612143742255
1265.5, 36.65089557282866
1266, 36.65089557282866
1266.5, 36.61850850512563
1267, 36.61850850512563
1267.5, 36.55373436971951
1267.9999999999998, 36.55373436971951
1268.5, 36.521347302016466
1269, 36.521347302016466
1269.5, 36.521347302016466
1269.9999999999998, 36.521347302016466
1270.5, 36.521347302016466
1271, 36.521347302016466
1271.5, 36.521347302016466
1271.9999999999998, 36.521347302016466
1272.5, 36.488960234313396
1273, 36.488960234313396
1273.5, 36.488960234313396
1273.9999999999998, 36.488960234313396
1274.5, 36.424186098907285
1275, 36.424186098907285
1275.5, 36.424186098907285
1275.9999999999998, 36.424186098907285
1276.5, 36.32702489579813
1277, 36.32702489579813
1277.5, 36.3594119635012
1277.9999999999998, 36.3594119635012
1278.5, 36.39179903120424
1279, 36.39179903120424
1279.5, 36.424186098907285
1279.9999999999998, 36.488960234313396
1280.5, 36.488960234313396
1281, 36.55373436971951
1281.5, 36.55373436971951
1281.9999999999998, 36.58612143742255
1282.5, 36.58612143742255
1283, 36.58612143742255
1283.5, 36.58612143742255
1283.9999999999998, 36.58612143742255
1284.5, 36.58612143742255
1285, 36.58612143742255
1285.5, 36.58612143742255
1285.9999999999998, 36.61850850512563
1286.5, 36.61850850512563
1287, 36.71566970823477
1287.5, 36.71566970823477
1287.9999999999998, 36.81283091134392
1288.5, 36.81283091134392
1289, 36.877605046750034
1289.5, 36.877605046750034
1289.9999999999998, 36.90999211445309
1290.5, 36.90999211445309
1291, 36.942379182156145
1291.5, 36.942379182156145
1291.9999999999998, 37.00715331756224
1292.5, 37.00715331756224
1293, 37.039540385265305
1293.5, 37.039540385265305
1293.9999999999998, 37.07192745296836
1294.5, 37.07192745296836
1295, 37.07192745296836
1295.5, 37.07192745296836
1295.9999999999998, 37.07192745296836
1296.5, 37.039540385265305
1297, 37.039540385265305
1297.5, 36.84521797904698
1297.9999999999998, 36.84521797904698
1298.5, 36.780443843640896
1299, 36.780443843640896
1299.5, 36.65089557282866
1299.9999999999998, 36.65089557282866
1300.5, 36.65089557282866
1301, 36.65089557282866
1301.5, 36.61850850512563
1302, 36.61850850512563
1302.5, 36.61850850512563
1303, 36.61850850512563
1303.5, 36.61850850512563
1304, 36.61850850512563
1304.5, 36.521347302016466
1305, 36.521347302016466
1305.5, 36.456573166610355
1306, 36.456573166610355
1306.5, 36.39179903120424
1307, 36.39179903120424
1307.5, 36.39179903120424
1308, 36.39179903120424
1308.5, 36.3594119635012
1309, 36.3594119635012
1309.5, 36.32702489579813
1310, 36.22986369268898
1310.5, 36.22986369268898
1311, 36.10031542187677
1311.5, 36.10031542187677
1312, 36.067928354173716
1312.5, 36.067928354173716
1313, 36.067928354173716
1313.5, 36.067928354173716
1314, 36.003154218767605
1314.5, 36.003154218767605
1315, 35.93838008336152
1315.5, 35.93838008336152
1316, 35.93838008336152
1316.5, 35.93838008336152
1317, 35.90599301565845
1317.5, 35.90599301565845
1318, 35.93838008336152
1318.5, 35.93838008336152
1319, 36.003154218767605
1319.5, 36.003154218767605
1320, 36.067928354173716
1320.5, 36.067928354173716
1321, 36.03554128647066
1321.5, 36.03554128647066
1322, 36.003154218767605
1322.5, 36.003154218767605
1323, 35.97076715106455
1323.5, 35.97076715106455
1324, 36.003154218767605
1324.5, 36.003154218767605
1325, 36.10031542187677
1325.5, 36.10031542187677
1326, 36.10031542187677
1326.5, 36.03554128647066
1327, 36.03554128647066
1327.5, 35.90599301565845
1328, 35.90599301565845
1328.5, 35.97076715106455
1329, 35.97076715106455
1329.5, 36.03554128647066
1330, 36.03554128647066
1330.5, 36.003154218767605
1331, 36.003154218767605
1331.5, 36.003154218767605
1332, 36.003154218767605
1332.5, 35.97076715106455
1333, 35.97076715106455
1333.5, 35.90599301565845
1334, 35.90599301565845
1334.5, 35.90599301565845
1335, 35.90599301565845
1335.5, 35.93838008336152
1336, 35.93838008336152
1336.5, 35.97076715106455
1337, 35.97076715106455
1337.5, 35.90599301565845
1338, 35.90599301565845
1338.5, 35.90599301565845
1339, 35.90599301565845
1339.5, 35.93838008336152
1340, 36.03554128647066
1340.5, 36.03554128647066
1341, 35.90599301565845
1341.5, 35.90599301565845
1342, 35.808831812549286
1342.5, 35.808831812549286
1343, 35.77644474484626
1343.5, 35.77644474484626
1344, 35.8736059479554
1344.5, 35.8736059479554
1345, 35.77644474484626
1345.5, 35.77644474484626
1346, 35.64689647403402
1346.5, 35.64689647403402
1347, 35.64689647403402
1347.5, 35.64689647403402
1348, 35.711670609440134
1348.5, 35.711670609440134
1349, 35.74405767714319
1349.5, 35.74405767714319
1350, 35.77644474484626
1350.5, 35.77644474484626
1351, 35.808831812549286
1351.5, 35.808831812549286
1352, 35.77644474484626
1352.5, 35.77644474484626
1353, 35.74405767714319
1353.5, 35.74405767714319
1354, 35.582122338627926
1354.5, 35.582122338627926
1355, 35.61450940633097
1355.5, 35.67928354173709
1356, 35.67928354173709
1356.5, 35.74405767714319
1357, 35.74405767714319
1357.5, 35.77644474484626
1358, 35.77644474484626
1358.5, 35.67928354173709
1359, 35.67928354173709
1359.5, 35.64689647403402
1360, 35.64689647403402
1360.5, 35.711670609440134
1361, 35.711670609440134
1361.5, 35.711670609440134
1362, 35.711670609440134
1362.5, 35.67928354173709
1363, 35.67928354173709
1363.5, 35.61450940633097
1364, 35.61450940633097
1364.5, 35.61450940633097
1365, 35.61450940633097
1365.5, 35.582122338627926
1366, 35.582122338627926
1366.5, 35.582122338627926
1367, 35.582122338627926
1367.5, 35.582122338627926
1368, 35.582122338627926
1368.5, 35.582122338627926
1369, 35.582122338627926
1369.5, 35.54973527092487
1370, 35.54973527092487
1370.5, 35.582122338627926
1371, 35.51734820322183
1371.5, 35.51734820322183
1372, 35.51734820322183
1372.5, 35.51734820322183
1373, 35.54973527092487
1373.5, 35.54973527092487
1374, 35.582122338627926
1374.5, 35.582122338627926
1375, 35.51734820322183
1375.5, 35.51734820322183
1376, 35.48496113551876
1376.5, 35.48496113551876
1377, 35.48496113551876
1377.5, 35.48496113551876
1378, 35.48496113551876
1378.5, 35.48496113551876
1379, 35.48496113551876
1379.5, 35.48496113551876
1380, 35.61450940633097
1380.5, 35.61450940633097
1381, 35.61450940633097
1381.5, 35.61450940633097
1382, 35.582122338627926
1382.5, 35.582122338627926
1383, 35.582122338627926
1383.5, 35.582122338627926
1384, 35.711670609440134
1384.5, 35.711670609440134
1385, 35.64689647403402
1385.5, 35.64689647403402
1386, 35.64689647403402
1386.5, 35.64689647403402
1387, 35.64689647403402
1387.5, 35.711670609440134
1388, 35.711670609440134
1388.5, 35.67928354173709
1389, 35.67928354173709
1389.5, 35.67928354173709
1390, 35.67928354173709
1390.5, 35.74405767714319
1391, 35.74405767714319
1391.5, 35.74405767714319
1392, 35.74405767714319
1392.5, 35.67928354173709
1393, 35.67928354173709
1393.5, 35.582122338627926
1394, 35.582122338627926
1394.5, 35.51734820322183
1395, 35.51734820322183
1395.5, 35.51734820322183
1396, 35.51734820322183
1396.5, 35.54973527092487
1397, 35.54973527092487
1397.5, 35.61450940633097
1398, 35.61450940633097
1398.5, 35.64689647403402
1399, 35.64689647403402
