321, 1.896090102144285
321.5, 1.896090102144285
322, 1.9284783193439665
322.5, 1.9284783193439807
323, 1.9932547537433436
323.5, 1.9932547537433578
324, 2.0580311881427207
324.5, 2.0580311881427207
325, 2.0904194053424163
325.5, 2.090419405342402
326, 2.1551958397417934
326.5, 2.155195839741779
327, 2.2199722741411705
327.5, 2.2847487085405476
328, 2.2847487085405334
328.5, 2.3495251429399246
329, 2.3495251429399104
329.5, 2.4143015773393017
330, 2.4143015773393017
330.5, 2.479078011738679
331, 2.479078011738679
331.5, 2.5438544461380275
332, 2.5438544461380417
332.5, 2.6410190977371144
333, 2.6410190977371286
333.5, 2.673407314936796
334, 2.673407314936796
334.5, 2.738183749336173
335, 2.7381837493361587
335.5, 2.83534840093526
336, 2.83534840093526
336.5, 2.9001248353346227
337, 2.9001248353346085
337.5, 2.9972894869336955
338, 2.9972894869336955
338.5, 3.0620659213330867
339, 3.0620659213330725
339.5, 3.1268423557324496
340, 3.1268423557324496
340.5, 3.1916187901318267
341, 3.191618790131841
341.5, 3.288783441730871
342, 3.288783441730885
342.5, 3.353559876130248
343, 3.418336310529625
343.5, 3.4183363105296394
344, 3.4831127449290022
344.5, 3.4831127449290165
345, 3.580277396528075
345.5, 3.580277396528089
346, 3.6774420481271477
346.5, 3.6774420481271335
347, 3.709830265326829
347.5, 3.709830265326815
348, 3.742218482526525
348.5, 3.7422184825265106
349, 3.806994916925902
349.5, 3.806994916925902
350, 3.936547785724642
350.5, 3.936547785724656
351, 4.001324220124019
351.5, 4.001324220124033
352, 4.098488871723077
352.5, 4.098488871723077
353, 4.195653523322164
353.5, 4.19565352332215
354, 4.292818174921209
354.5, 4.292818174921209
355, 4.389982826520296
355.5, 4.389982826520296
356, 4.422371043719963
356.5, 4.422371043719963
357, 4.519535695319021
357.5, 4.519535695319021
358, 4.616700346918108
358.5, 4.6490885641177755
359, 4.6490885641177755
359.5, 4.713864998517167
360, 4.713864998517153
360.5, 4.843417867315921
361, 4.843417867315907
361.5, 4.908194301715284
362, 4.908194301715284
362.5, 5.0053589533143565
363, 5.005358953314371
363.5, 5.102523604913415
364, 5.102523604913429
364.5, 5.167300039312792
365, 5.167300039312792
365.5, 5.264464690911865
366, 5.264464690911851
366.5, 5.394017559710619
367, 5.394017559710605
367.5, 5.491182211309692
368, 5.491182211309692
368.5, 5.588346862908736
369, 5.58834686290875
369.5, 5.685511514507809
370, 5.685511514507823
370.5, 5.7502879489072
371, 5.7502879489072
371.5, 5.815064383306577
372, 5.815064383306563
372.5, 5.879840817705954
373, 5.879840817705954
373.5, 6.009393686504708
374, 6.106558338103767
374.5, 6.106558338103767
375, 6.171334772503144
375.5, 6.171334772503144
376, 6.268499424102188
376.5, 6.268499424102188
377, 6.333275858501565
377.5, 6.333275858501565
378, 6.365664075701275
378.5, 6.365664075701275
379, 6.398052292900957
379.5, 6.3980522929009425
380, 6.5599933788994065
380.5, 6.5599933788994065
381, 6.689546247698146
381.5, 6.689546247698161
382, 6.786710899297205
382.5, 6.786710899297219
383, 6.916263768095973
383.5, 6.916263768095973
384, 6.981040202495365
384.5, 6.98104020249535
385, 7.078204854094409
385.5, 7.078204854094395
386, 7.175369505693482
386.5, 7.175369505693482
387, 7.337310591691903
387.5, 7.337310591691917
388, 7.40208702609128
388.5, 7.402087026091294
389, 7.499251677690367
389.5, 7.628804546489107
390, 7.628804546489107
390.5, 7.7259691980881655
391, 7.72596919808818
391.5, 7.823133849687224
392, 7.823133849687238
392.5, 7.952686718485992
393, 7.952686718485992
393.5, 8.049851370085065
394, 8.049851370085051
394.5, 8.17940423888382
395, 8.17940423888382
395.5, 8.276568890482864
396, 8.276568890482864
396.5, 8.406121759281618
397, 8.406121759281618
397.5, 8.503286410880676
398, 8.503286410880676
398.5, 8.600451062479763
399, 8.600451062479763
399.5, 8.66522749687914
400, 8.665227496879155
400.5, 8.762392148478185
401, 8.762392148478199
401.5, 8.891945017276939
402, 8.891945017276939
402.5, 9.021497886075707
403, 9.021497886075693
403.5, 9.086274320475084
404, 9.08627432047507
404.5, 9.28060362367323
405, 9.377768275272274
405.5, 9.37776827527226
406, 9.507321144071028
406.5, 9.507321144071014
407, 9.6044857956701
407.5, 9.604485795670087
408, 9.669262230069478
408.5, 9.669262230069478
409, 9.766426881668522
409.5, 9.766426881668536
410, 9.895979750467262
410.5, 9.895979750467276
411, 10.057920836465726
411.5, 10.057920836465726
412, 10.155085488064799
412.5, 10.155085488064785
413, 10.284638356863553
413.5, 10.284638356863553
414, 10.446579442861974
414.5, 10.446579442861974
415, 10.576132311660729
415.5, 10.576132311660729
416, 10.673296963259816
416.5, 10.673296963259816
417, 10.867626266457918
417.5, 10.867626266457918
418, 10.964790918057005
418.5, 10.96479091805702
419, 11.06195556965605
419.5, 11.06195556965605
420, 11.159120221255137
420.5, 11.353449524453254
421, 11.353449524453254
421.5, 11.41822595885263
422, 11.418225958852645
422.5, 11.58016704485108
423, 11.580167044851095
423.5, 11.709719913649835
424, 11.709719913649835
424.5, 11.904049216847966
425, 11.904049216847952
425.5, 12.001213868447024
426, 12.00121386844701
426.5, 12.130766737245779
427, 12.130766737245779
427.5, 12.260319606044519
428, 12.260319606044533
428.5, 12.389872474843273
429, 12.389872474843287
429.5, 12.519425343642041
430, 12.519425343642041
430.5, 12.648978212440795
431, 12.648978212440781
431.5, 12.843307515638926
432, 12.843307515638926
432.5, 13.037636818837058
433, 13.037636818837058
433.5, 13.134801470436116
434, 13.134801470436116
434.5, 13.296742556434552
435, 13.296742556434538
435.5, 13.426295425233292
436, 13.555848294032046
436.5, 13.555848294032046
437, 13.6854011628308
437.5, 13.6854011628308
438, 13.814954031629554
438.5, 13.814954031629554
439, 13.912118683228627
439.5, 13.912118683228627
440, 14.041671552027367
440.5, 14.041671552027381
441, 14.171224420826121
441.5, 14.171224420826121
442, 14.268389072425208
442.5, 14.268389072425208
443, 14.397941941223962
443.5, 14.397941941223948
444, 14.559883027222398
444.5, 14.559883027222384
445, 14.689435896021166
445.5, 14.689435896021166
446, 14.818988764819892
446.5, 14.818988764819906
447, 15.013318068018023
447.5, 15.013318068018037
448, 15.142870936816792
448.5, 15.142870936816792
449, 15.24003558841585
449.5, 15.240035588415836
450, 15.337200240014923
450.5, 15.337200240014909
451, 15.434364891613967
451.5, 15.499141326013358
452, 15.499141326013358
452.5, 15.628694194812113
453, 15.628694194812098
453.5, 15.661082412011794
454, 15.661082412011794
454.5, 15.758247063610867
455, 15.758247063610867
455.5, 15.88779993240962
456, 15.88779993240962
456.5, 15.984964584008665
457, 15.984964584008665
457.5, 16.14690567000713
458, 16.14690567000713
458.5, 16.179293887206796
459, 16.17929388720681
459.5, 16.211682104406492
460, 16.211682104406492
460.5, 16.244070321606173
461, 16.244070321606173
461.5, 16.373623190404956
462, 16.373623190404942
462.5, 16.470787842004
463, 16.470787842003986
463.5, 16.567952493603073
464, 16.567952493603087
464.5, 16.665117145202117
465, 16.66511714520213
465.5, 16.729893579601494
466, 16.72989357960151
466.5, 16.79467001400087
467, 16.89183466559996
467.5, 16.89183466559996
468, 16.98899931719899
468.5, 16.988999317199003
469, 17.08616396879806
469.5, 17.086163968798076
470, 17.11855218599777
470.5, 17.11855218599777
471, 17.150940403197453
471.5, 17.15094040319744
472, 17.18332862039715
472.5, 17.18332862039715
473, 17.18332862039715
473.5, 17.18332862039715
474, 17.248105054796525
474.5, 17.248105054796525
475, 17.34526970639557
475.5, 17.34526970639557
476, 17.410046140794947
476.5, 17.410046140794947
477, 17.474822575194324
477.5, 17.474822575194338
478, 17.604375443993078
478.5, 17.604375443993078
479, 17.669151878392455
479.5, 17.669151878392455
480, 17.70154009559215
480.5, 17.70154009559215
481, 17.733928312791846
481.5, 17.733928312791832
482, 17.766316529991528
482.5, 17.79870474719121
483, 17.79870474719121
483.5, 17.863481181590615
484, 17.8634811815906
484.5, 17.895869398790282
485, 17.895869398790268
485.5, 17.8634811815906
486, 17.863481181590615
486.5, 17.895869398790268
487, 17.895869398790282
487.5, 17.960645833189645
488, 17.96064583318966
488.5, 18.025422267589036
489, 18.025422267589036
489.5, 18.025422267589036
490, 18.025422267589022
490.5, 18.025422267589036
491, 18.025422267589036
491.5, 17.993034050389355
492, 17.993034050389355
492.5, 18.05781048478873
493, 18.05781048478873
493.5, 18.12258691918811
494, 18.12258691918811
494.5, 18.0901987019884
495, 18.0901987019884
495.5, 17.993034050389355
496, 17.993034050389355
496.5, 17.928257615989978
497, 17.928257615989978
497.5, 17.8634811815906
498, 17.79870474719121
498.5, 17.79870474719121
499, 17.733928312791832
499.5, 17.733928312791846
500, 17.669151878392455
500.5, 17.669151878392455
501, 17.57198722679341
501.5, 17.571987226793397
502, 17.44243435799467
502.5, 17.442434357994657
503, 17.312881489195917
503.5, 17.312881489195902
504, 17.280493271996193
504.5, 17.280493271996207
505, 16.988999317199003
505.5, 16.988999317199017
506, 16.827058231200567
506.5, 16.82705823120058
507, 16.762281796801204
507.5, 16.76228179680119
508, 16.63272892800245
508.5, 16.632728928002436
509, 16.470787842004
509.5, 16.470787842003986
510, 16.308846756005565
510.5, 16.308846756005565
511, 16.179293887206796
511.5, 16.179293887206796
512, 15.952576366808984
512.5, 15.952576366808998
513, 15.758247063610867
513.5, 15.563917760412735
514, 15.563917760412735
514.5, 15.4019766744143
515, 15.4019766744143
515.5, 15.142870936816792
516, 15.142870936816792
516.5, 14.980929850818328
517, 14.980929850818328
517.5, 14.851376982019573
518, 14.851376982019588
518.5, 14.592271244422093
519, 14.59227124442208
519.5, 14.46271837562334
520, 14.46271837562334
520.5, 14.365553724024267
521, 14.365553724024252
521.5, 14.171224420826135
522, 14.171224420826121
522.5, 13.97689511762799
523, 13.976895117628004
523.5, 13.782565814429873
524, 13.782565814429887
524.5, 13.653012945631119
525, 13.653012945631133
525.5, 13.555848294032046
526, 13.555848294032046
526.5, 13.491071859632683
527, 13.491071859632669
527.5, 13.329130773634247
528, 13.329130773634233
528.5, 13.231966122035175
529, 13.134801470436116
529.5, 13.134801470436102
530, 12.97286038443768
530.5, 12.972860384437666
531, 12.843307515638926
531.5, 12.843307515638926
532, 12.74614286403984
532.5, 12.74614286403984
533, 12.681366429640462
533.5, 12.681366429640462
534, 12.584201778041418
534.5, 12.584201778041418
535, 12.519425343642041
535.5, 12.519425343642041
536, 12.422260692042954
536.5, 12.422260692042968
537, 12.260319606044519
537.5, 12.260319606044519
538, 12.163154954445474
538.5, 12.163154954445474
539, 12.130766737245764
539.5, 12.130766737245764
540, 12.065990302846402
540.5, 12.065990302846387
541, 12.033602085646706
541.5, 12.033602085646706
542, 12.00121386844701
542.5, 12.001213868447024
543, 11.936437434047633
543.5, 11.87166099964827
544, 11.871660999648256
544.5, 11.806884565248879
545, 11.806884565248893
545.5, 11.70971991364982
546, 11.709719913649835
546.5, 11.677331696450125
547, 11.677331696450139
547.5, 11.58016704485108
548, 11.580167044851066
548.5, 11.58016704485108
549, 11.580167044851066
549.5, 11.547778827651399
550, 11.547778827651399
550.5, 11.612555262050762
551, 11.612555262050762
551.5, 11.70971991364982
552, 11.709719913649835
552.5, 11.58016704485108
553, 11.58016704485108
553.5, 11.418225958852645
554, 11.418225958852645
554.5, 11.385837741652935
555, 11.385837741652935
555.5, 11.385837741652935
556, 11.385837741652935
556.5, 11.547778827651399
557, 11.547778827651385
557.5, 11.612555262050748
558, 11.612555262050748
558.5, 11.644943479250472
559, 11.612555262050748
559.5, 11.612555262050748
560, 11.612555262050748
560.5, 11.612555262050748
561, 11.644943479250472
561.5, 11.644943479250458
562, 11.580167044851095
562.5, 11.58016704485108
563, 11.677331696450125
563.5, 11.677331696450139
564, 11.742108130849502
564.5, 11.742108130849516
565, 11.806884565248879
565.5, 11.806884565248893
566, 11.839272782448589
566.5, 11.839272782448575
567, 12.001213868447024
567.5, 12.00121386844701
568, 12.03360208564672
568.5, 12.033602085646706
569, 12.130766737245779
569.5, 12.130766737245764
570, 12.065990302846373
570.5, 12.065990302846387
571, 12.033602085646706
571.5, 12.03360208564672
572, 12.00121386844701
572.5, 12.00121386844701
573, 12.098378520046097
573.5, 12.098378520046083
574, 12.163154954445474
574.5, 12.195543171645141
575, 12.195543171645141
575.5, 12.227931388844851
576, 12.227931388844851
576.5, 12.260319606044519
577, 12.260319606044533
577.5, 12.292707823244228
578, 12.292707823244214
578.5, 12.292707823244214
579, 12.292707823244214
579.5, 12.292707823244228
580, 12.292707823244214
580.5, 12.292707823244228
581, 12.292707823244214
581.5, 12.292707823244214
582, 12.292707823244228
582.5, 12.292707823244214
583, 12.292707823244228
583.5, 12.292707823244214
584, 12.292707823244228
584.5, 12.389872474843287
585, 12.389872474843287
585.5, 12.487037126442345
586, 12.487037126442331
586.5, 12.551813560841723
587, 12.551813560841708
587.5, 12.551813560841723
588, 12.551813560841723
588.5, 12.389872474843273
589, 12.389872474843287
589.5, 12.357484257643577
590, 12.357484257643591
590.5, 12.357484257643591
591, 12.357484257643591
591.5, 12.357484257643591
592, 12.292707823244214
592.5, 12.292707823244228
593, 12.130766737245764
593.5, 12.130766737245764
594, 12.130766737245764
594.5, 12.130766737245764
595, 12.130766737245764
595.5, 12.130766737245779
596, 12.00121386844701
596.5, 12.00121386844701
597, 11.904049216847966
597.5, 11.904049216847966
598, 11.839272782448603
598.5, 11.839272782448589
599, 11.774496348049226
599.5, 11.774496348049212
600, 11.644943479250458
600.5, 11.644943479250458
601, 11.547778827651385
601.5, 11.547778827651399
602, 11.450614176052312
602.5, 11.450614176052326
603, 11.191508438454804
603.5, 11.191508438454804
604, 11.09434378685576
604.5, 11.094343786855745
605, 10.900014483657642
605.5, 10.738073397659178
606, 10.738073397659193
606.5, 10.576132311660743
607, 10.576132311660729
607.5, 10.414191225662307
608, 10.414191225662293
608.5, 10.252250139663857
609, 10.252250139663857
609.5, 10.155085488064799
610, 10.155085488064799
610.5, 9.993144402066335
611, 9.99314440206635
611.5, 9.928367967666986
612, 9.928367967666986
612.5, 9.701650447269145
613, 9.701650447269145
613.5, 9.6044857956701
614, 9.604485795670087
614.5, 9.474932926871347
615, 9.474932926871347
615.5, 9.280603623673215
616, 9.280603623673215
616.5, 9.08627432047507
617, 9.08627432047507
617.5, 9.021497886075707
618, 9.021497886075693
618.5, 8.859556800077272
619, 8.859556800077272
619.5, 8.66522749687914
620, 8.665227496879155
620.5, 8.568062845280053
621, 8.470898193681023
621.5, 8.470898193681009
622, 8.373733542081936
622.5, 8.37373354208195
623, 8.276568890482864
623.5, 8.276568890482878
624, 8.14701602168411
624.5, 8.147016021684124
625, 8.049851370085065
625.5, 8.049851370085051
626, 7.920298501286311
626.5, 7.920298501286297
627, 7.790745632487557
627.5, 7.790745632487557
628, 7.693580980888484
628.5, 7.693580980888484
629, 7.53163989489002
629.5, 7.531639894890034
630, 7.402087026091266
630.5, 7.40208702609128
631, 7.240145940092859
631.5, 7.240145940092859
632, 7.207757722893149
632.5, 7.207757722893135
633, 7.110593071294105
633.5, 7.110593071294105
634, 6.883875550896278
634.5, 6.883875550896278
635, 6.786710899297205
635.5, 6.786710899297205
636, 6.721934464897828
636.5, 6.592381596099074
637, 6.592381596099074
637.5, 6.4628287273003195
638, 6.4628287273003195
638.5, 6.398052292900957
639, 6.3980522929009425
639.5, 6.203722989702825
640, 6.203722989702811
640.5, 6.138946555303434
641, 6.138946555303448
641.5, 6.041781903704376
642, 6.04178190370439
642.5, 5.9770054693049985
643, 5.977005469305013
643.5, 5.9122290349056215
644, 5.9122290349056215
644.5, 5.7826761661068815
645, 5.782676166106867
645.5, 5.653123297308127
646, 5.653123297308113
646.5, 5.555958645709069
647, 5.555958645709069
647.5, 5.458793994109982
648, 5.458793994109996
648.5, 5.329241125311228
649, 5.329241125311242
649.5, 5.2968529081115605
650, 5.2968529081115605
650.5, 5.232076473712169
651, 5.232076473712155
651.5, 5.167300039312792
652, 5.070135387713748
652.5, 5.070135387713748
653, 5.005358953314371
653.5, 5.005358953314371
654, 4.875806084515617
654.5, 4.875806084515617
655, 4.843417867315907
655.5, 4.843417867315907
656, 4.8110296501162395
656.5, 4.8110296501162395
657, 4.778641432916544
657.5, 4.77864143291653
658, 4.77864143291653
658.5, 4.77864143291653
659, 4.6490885641177755
659.5, 4.6490885641177755
660, 4.584312129718398
660.5, 4.584312129718413
661, 4.48714747811934
661.5, 4.487147478119354
662, 4.422371043719963
662.5, 4.422371043719963
663, 4.389982826520296
663.5, 4.389982826520281
664, 4.3575946093206
664.5, 4.357594609320586
665, 4.3252063921209185
665.5, 4.3252063921209185
666, 4.260429957721527
666.5, 4.260429957721541
667, 4.1632653061224545
667.5, 4.163265306122469
668, 4.163265306122469
668.5, 4.163265306122469
669, 4.163265306122469
669.5, 4.130877088922773
670, 4.130877088922787
670.5, 4.0337124373237145
671, 4.0337124373237145
671.5, 3.936547785724656
672, 3.936547785724656
672.5, 3.871771351325279
673, 3.8717713513252647
673.5, 3.8393831341255833
674, 3.839383134125569
674.5, 3.871771351325279
675, 3.871771351325279
675.5, 3.871771351325279
676, 3.871771351325279
676.5, 3.871771351325279
677, 3.871771351325279
677.5, 3.871771351325279
678, 3.871771351325279
678.5, 3.871771351325279
679, 3.871771351325293
679.5, 3.904159568524946
680, 3.904159568524946
680.5, 3.936547785724656
681, 3.936547785724656
681.5, 3.9689360029243375
682, 3.9689360029243232
682.5, 4.001324220124033
683, 4.0337124373237
683.5, 4.0337124373237145
684, 3.936547785724656
684.5, 3.936547785724642
685, 3.871771351325279
685.5, 3.8717713513252647
686, 3.8393831341255833
686.5, 3.8393831341255833
687, 3.8393831341255833
687.5, 3.8393831341255833
688, 3.8069949169258877
688.5, 3.806994916925902
689, 3.8069949169258877
689.5, 3.806994916925902
690, 3.871771351325279
690.5, 3.871771351325279
691, 3.936547785724656
691.5, 3.936547785724642
692, 3.9041595685249604
692.5, 3.904159568524946
693, 3.871771351325279
693.5, 3.871771351325279
694, 3.839383134125569
694.5, 3.839383134125569
695, 3.871771351325279
695.5, 3.871771351325279
696, 3.904159568524946
696.5, 3.904159568524946
697, 3.9689360029243232
697.5, 3.9689360029243375
698, 4.001324220124033
698.5, 4.001324220124033
699, 4.001324220124033
699.5, 3.936547785724656
700, 3.9365477857246702
700.5, 3.9689360029243232
701, 3.9689360029243375
701.5, 4.001324220124033
702, 4.001324220124019
702.5, 4.066100654523396
703, 4.066100654523396
703.5, 4.06610065452341
704, 4.066100654523396
704.5, 4.098488871723092
705, 4.098488871723077
705.5, 4.098488871723092
706, 4.098488871723092
706.5, 4.098488871723077
707, 4.098488871723092
707.5, 4.066100654523396
708, 4.06610065452341
708.5, 4.130877088922787
709, 4.130877088922787
709.5, 4.1632653061224545
710, 4.16326530612244
710.5, 4.195653523322164
711, 4.195653523322164
711.5, 4.195653523322164
712, 4.195653523322164
712.5, 4.195653523322164
713, 4.195653523322164
713.5, 4.1632653061224545
714, 4.1632653061224545
714.5, 4.1632653061224545
715, 4.228041740521832
715.5, 4.228041740521832
716, 4.325206392120933
716.5, 4.3252063921209185
717, 4.3252063921209185
717.5, 4.3252063921209185
718, 4.325206392120904
718.5, 4.325206392120904
719, 4.357594609320586
719.5, 4.3575946093206
720, 4.48714747811934
720.5, 4.48714747811934
721, 4.422371043719963
721.5, 4.422371043719963
722, 4.389982826520296
722.5, 4.389982826520281
723, 4.3252063921209185
723.5, 4.325206392120904
724, 4.325206392120904
724.5, 4.3252063921209185
725, 4.357594609320586
725.5, 4.3575946093206
726, 4.357594609320586
726.5, 4.3575946093206
727, 4.357594609320586
727.5, 4.357594609320586
728, 4.5195356953190355
728.5, 4.519535695319021
729, 4.64908856411779
729.5, 4.713864998517167
730, 4.713864998517167
730.5, 4.713864998517167
731, 4.713864998517167
731.5, 4.746253215716862
732, 4.746253215716848
732.5, 4.713864998517153
733, 4.713864998517153
733.5, 4.681476781317485
734, 4.681476781317485
734.5, 4.584312129718398
735, 4.584312129718398
735.5, 4.616700346918108
736, 4.616700346918108
736.5, 4.77864143291653
737, 4.77864143291653
737.5, 4.746253215716862
738, 4.746253215716877
738.5, 4.8110296501162395
739, 4.8110296501162395
739.5, 4.843417867315907
740, 4.843417867315907
740.5, 4.908194301715298
741, 4.908194301715284
741.5, 4.875806084515617
742, 4.875806084515602
742.5, 4.875806084515602
743, 4.875806084515617
743.5, 4.908194301715284
744, 4.908194301715298
744.5, 5.0053589533143565
745, 5.102523604913429
745.5, 5.102523604913429
746, 5.134911822113111
746.5, 5.134911822113125
747, 5.134911822113111
747.5, 5.134911822113125
748, 5.167300039312778
748.5, 5.167300039312792
749, 5.199688256512502
749.5, 5.199688256512502
750, 5.264464690911865
750.5, 5.264464690911851
751, 5.199688256512502
751.5, 5.199688256512502
752, 5.102523604913415
752.5, 5.102523604913415
753, 5.070135387713748
753.5, 5.070135387713748
754, 5.102523604913415
754.5, 5.102523604913415
755, 5.232076473712169
755.5, 5.232076473712169
756, 5.2968529081115605
756.5, 5.296852908111575
757, 5.361629342510938
757.5, 5.361629342510938
758, 5.491182211309692
758.5, 5.491182211309692
759, 5.58834686290875
759.5, 5.588346862908736
760, 5.62073508010846
760.5, 5.653123297308113
761, 5.653123297308113
761.5, 5.71789973170749
762, 5.71789973170749
762.5, 5.815064383306577
763, 5.815064383306563
763.5, 5.847452600506259
764, 5.847452600506244
764.5, 5.944617252105317
765, 5.944617252105331
765.5, 6.009393686504694
766, 6.009393686504708
766.5, 6.009393686504694
767, 6.009393686504708
767.5, 6.009393686504708
768, 6.009393686504694
768.5, 5.9770054693049985
769, 5.977005469304984
769.5, 6.074170120904071
770, 6.074170120904071
770.5, 6.171334772503144
771, 6.171334772503144
771.5, 6.2684994241022025
772, 6.2684994241022025
772.5, 6.300887641301898
773, 6.300887641301898
773.5, 6.300887641301898
774, 6.300887641301898
774.5, 6.236111206902521
775, 6.236111206902535
775.5, 6.300887641301898
776, 6.4628287273003195
776.5, 6.4628287273003195
777, 6.527605161699697
777.5, 6.527605161699697
778, 6.527605161699697
778.5, 6.527605161699711
779, 6.5599933788994065
779.5, 6.559993378899392
780, 6.592381596099074
780.5, 6.592381596099074
781, 6.657158030498465
781.5, 6.657158030498451
782, 6.689546247698161
782.5, 6.689546247698146
783, 6.721934464897828
783.5, 6.721934464897842
784, 6.819099116496901
784.5, 6.819099116496915
785, 6.786710899297205
785.5, 6.786710899297219
786, 6.754322682097538
786.5, 6.7543226820975235
787, 6.754322682097538
787.5, 6.7543226820975235
788, 6.786710899297205
788.5, 6.786710899297205
789, 6.851487333696596
789.5, 6.851487333696596
790, 6.851487333696596
790.5, 6.851487333696596
791, 6.786710899297191
791.5, 6.786710899297205
792, 6.786710899297205
792.5, 6.851487333696596
793, 6.851487333696596
793.5, 6.883875550896278
794, 6.883875550896278
794.5, 6.8838755508962635
795, 6.8838755508962635
795.5, 6.851487333696596
796, 6.851487333696596
796.5, 6.8838755508962635
797, 6.883875550896278
797.5, 6.916263768095973
798, 6.916263768095973
798.5, 6.819099116496901
799, 6.819099116496901
799.5, 6.657158030498465
800, 6.657158030498451
800.5, 6.592381596099088
801, 6.592381596099074
801.5, 6.624769813298769
802, 6.624769813298784
802.5, 6.657158030498451
803, 6.657158030498465
803.5, 6.657158030498451
804, 6.657158030498465
804.5, 6.592381596099088
805, 6.592381596099074
805.5, 6.495216944500029
806, 6.3980522929009425
806.5, 6.398052292900957
807, 6.268499424102188
807.5, 6.2684994241022025
808, 6.2684994241022025
808.5, 6.268499424102188
809, 6.33327585850158
809.5, 6.333275858501565
810, 6.300887641301898
810.5, 6.300887641301898
811, 6.203722989702825
811.5, 6.203722989702825
812, 6.009393686504708
812.5, 6.009393686504708
813, 5.9122290349056215
813.5, 5.9122290349056215
814, 5.815064383306577
814.5, 5.815064383306577
815, 5.71789973170749
815.5, 5.717899731707504
816, 5.653123297308113
816.5, 5.653123297308113
817, 5.491182211309692
817.5, 5.491182211309692
818, 5.264464690911865
818.5, 5.264464690911851
819, 5.167300039312806
819.5, 5.167300039312792
820, 5.070135387713734
820.5, 5.070135387713734
821, 5.037747170514038
821.5, 4.940582518914994
822, 4.9405825189149795
822.5, 4.8110296501162395
823, 4.811029650116225
823.5, 4.48714747811934
824, 4.487147478119354
824.5, 4.389982826520281
825, 4.389982826520296
825.5, 4.292818174921209
826, 4.292818174921223
826.5, 4.098488871723092
827, 4.098488871723077
827.5, 4.001324220124033
828, 4.001324220124019
828.5, 3.742218482526525
829, 3.742218482526525
829.5, 3.742218482526525
830, 3.742218482526525
830.5, 3.645053830927452
831, 3.6450538309274663
831.5, 3.4831127449290022
832, 3.4831127449290022
832.5, 3.418336310529625
833, 3.418336310529625
833.5, 3.288783441730871
834, 3.288783441730885
834.5, 3.256395224531204
835, 3.256395224531204
835.5, 3.321171658930581
836, 3.321171658930581
836.5, 3.418336310529625
837, 3.450724527729335
837.5, 3.4507245277293492
838, 3.450724527729335
838.5, 3.450724527729321
839, 3.450724527729321
839.5, 3.450724527729321
840, 3.321171658930595
840.5, 3.3211716589305667
841, 3.191618790131841
841.5, 3.1916187901318267
842, 2.9649012697339856
842.5, 2.964901269734
843, 2.80296018373555
843.5, 2.802960183735564
844, 2.4790780117386646
844.5, 2.479078011738679
845, 2.2199722741411705
845.5, 2.2199722741411563
846, 2.0580311881427207
846.5, 2.0580311881427065
847, 1.9284783193439665
847.5, 1.9284783193439665
848, 1.8637018849445894
848.5, 1.8637018849445894
914, 1.7341490161458353
914.5, 1.7665372333455451
915, 1.7665372333455451
915.5, 2.0580311881427207
916, 2.0580311881427207
916.5, 2.187584056941489
917, 2.187584056941489
917.5, 2.2523604913408803
918, 2.252360491340866
918.5, 2.317136925740243
919, 2.317136925740243
919.5, 2.252360491340866
920, 2.2523604913408803
920.5, 2.187584056941489
921, 2.1875840569415033
921.5, 2.155195839741779
922, 2.1551958397417934
922.5, 2.1875840569415033
923, 2.187584056941489
923.5, 2.2847487085405476
924, 2.2847487085405334
924.5, 2.3495251429399246
925, 2.3495251429399104
925.5, 2.5114662289383745
926, 2.5114662289383745
926.5, 2.5114662289383602
927, 2.5114662289383745
927.5, 2.6410190977371144
928, 2.6410190977371286
928.5, 2.770571966535883
929, 2.770571966535883
929.5, 2.770571966535883
930, 2.8353484009352456
930.5, 2.83534840093526
931, 2.83534840093526
931.5, 2.83534840093526
932, 2.867736618134927
932.5, 2.867736618134927
933, 2.9325130525343184
933.5, 2.9325130525343184
934, 2.9972894869336955
934.5, 2.9972894869336955
935, 2.9972894869336955
935.5, 2.9972894869336955
936, 3.126842355732464
936.5, 3.1268423557324496
937, 3.256395224531204
937.5, 3.256395224531204
938, 3.450724527729321
938.5, 3.450724527729335
939, 3.645053830927452
939.5, 3.6450538309274663
940, 3.774606699726192
940.5, 3.774606699726192
941, 3.904159568524946
941.5, 3.904159568524946
942, 3.936547785724656
942.5, 3.936547785724642
943, 4.06610065452341
943.5, 4.066100654523396
944, 4.292818174921223
944.5, 4.292818174921223
945, 4.389982826520281
945.5, 4.584312129718413
946, 4.584312129718398
946.5, 4.778641432916544
947, 4.778641432916544
947.5, 4.875806084515617
948, 4.875806084515617
948.5, 4.972970736114647
949, 4.972970736114661
949.5, 5.102523604913415
950, 5.102523604913415
950.5, 5.232076473712169
951, 5.232076473712169
951.5, 5.426405776910315
952, 5.426405776910315
952.5, 5.653123297308113
953, 5.653123297308113
953.5, 5.7502879489072
954, 5.7502879489072
954.5, 6.009393686504708
955, 6.009393686504708
955.5, 6.138946555303434
956, 6.138946555303434
956.5, 6.236111206902521
957, 6.236111206902521
957.5, 6.495216944500029
958, 6.495216944500044
958.5, 6.624769813298769
959, 6.624769813298769
959.5, 6.721934464897828
960, 6.721934464897828
960.5, 6.981040202495365
961, 7.110593071294105
961.5, 7.110593071294119
962, 7.175369505693467
962.5, 7.175369505693467
963, 7.304922374492236
963.5, 7.304922374492222
964, 7.402087026091294
964.5, 7.40208702609128
965, 7.499251677690367
965.5, 7.499251677690367
966, 7.661192763688803
966.5, 7.661192763688803
967, 7.952686718485978
967.5, 7.952686718485992
968, 8.114627804484442
968.5, 8.114627804484442
969, 8.244180673283196
969.5, 8.244180673283196
970, 8.276568890482864
970.5, 8.27656889048285
971, 8.600451062479763
971.5, 8.600451062479763
972, 8.730003931278517
972.5, 8.730003931278517
973, 8.827168582877562
973.5, 8.827168582877562
974, 8.989109668876026
974.5, 8.989109668876026
975, 9.053886103275403
975.5, 9.053886103275403
976, 9.118662537674766
976.5, 9.28060362367323
977, 9.280603623673215
977.5, 9.507321144071014
978, 9.507321144071014
978.5, 9.701650447269145
979, 9.70165044726916
979.5, 10.025532619266045
980, 10.025532619266059
980.5, 10.284638356863553
981, 10.284638356863539
981.5, 10.34941479126293
982, 10.349414791262916
982.5, 10.414191225662307
983, 10.414191225662293
983.5, 10.543744094461061
984, 10.543744094461047
984.5, 10.835238049258251
985, 10.835238049258251
985.5, 10.900014483657614
986, 10.900014483657628
986.5, 10.964790918056991
987, 10.964790918057005
987.5, 11.029567352456382
988, 11.029567352456382
988.5, 11.191508438454818
989, 11.19150843845479
989.5, 11.450614176052312
990, 11.450614176052312
990.5, 11.483002393252022
991, 11.483002393252022
991.5, 11.450614176052312
992, 11.51539061045169
992.5, 11.51539061045169
993, 11.677331696450125
993.5, 11.677331696450125
994, 11.839272782448589
994.5, 11.839272782448589
995, 11.90404921684798
995.5, 11.904049216847966
996, 12.098378520046097
996.5, 12.098378520046097
997, 12.260319606044519
997.5, 12.260319606044533
998, 12.389872474843287
998.5, 12.389872474843301
999, 12.454648909242664
999.5, 12.454648909242664
1000, 12.454648909242664
1000.5, 12.454648909242664
1001, 12.519425343642055
1001.5, 12.519425343642041
1002, 12.584201778041432
1002.5, 12.584201778041404
1003, 12.713754646840158
1003.5, 12.713754646840172
1004, 12.843307515638912
1004.5, 12.843307515638926
1005, 12.94047216723797
1005.5, 12.940472167237985
1006, 13.102413253236435
1006.5, 13.102413253236435
1007, 13.134801470436116
1007.5, 13.199577904835479
1008, 13.199577904835493
1008.5, 13.231966122035175
1009, 13.231966122035175
1009.5, 13.26435433923487
1010, 13.26435433923487
1010.5, 13.426295425233292
1011, 13.426295425233292
1011.5, 13.588236511231756
1012, 13.588236511231756
1012.5, 13.653012945631133
1013, 13.653012945631133
1013.5, 13.976895117628004
1014, 13.97689511762799
1014.5, 14.203612638025831
1015, 14.203612638025831
1015.5, 14.268389072425208
1016, 14.268389072425208
1016.5, 14.365553724024252
1017, 14.365553724024267
1017.5, 14.365553724024252
1018, 14.365553724024252
1018.5, 14.495106592823007
1019, 14.495106592823007
1019.5, 14.592271244422093
1020, 14.59227124442208
1020.5, 14.721824113220833
1021, 14.72182411322082
1021.5, 15.045706285217705
1022, 15.045706285217719
1022.5, 15.175259154016459
1023, 15.24003558841585
1023.5, 15.240035588415836
1024, 15.207647371216169
1024.5, 15.207647371216169
1025, 15.337200240014909
1025.5, 15.337200240014923
1026, 15.369588457214576
1026.5, 15.36958845721459
1027, 15.596305977612417
1027.5, 15.596305977612417
1028, 15.661082412011794
1028.5, 15.661082412011794
1029, 15.725858846411171
1029.5, 15.725858846411157
1030, 15.88779993240962
1030.5, 15.88779993240962
1031, 16.11451745280742
1031.5, 16.11451745280742
1032, 16.11451745280742
1032.5, 16.11451745280742
1033, 16.14690567000713
1033.5, 16.14690567000713
1034, 16.244070321606173
1034.5, 16.244070321606173
1035, 16.60034071080274
1035.5, 16.600340710802755
1036, 16.697505362401827
1036.5, 16.697505362401827
1037, 16.79467001400087
1037.5, 16.79467001400087
1038, 16.89183466559996
1038.5, 16.95661109999932
1039, 16.956611099999336
1039.5, 17.11855218599777
1040, 17.11855218599777
1040.5, 17.24810505479654
1041, 17.248105054796525
1041.5, 17.312881489195917
1042, 17.312881489195888
1042.5, 17.442434357994657
1043, 17.442434357994642
1043.5, 17.604375443993078
1044, 17.604375443993092
1044.5, 17.766316529991528
1045, 17.766316529991542
1045.5, 17.895869398790268
1046, 17.895869398790282
1046.5, 18.15497513638779
1047, 18.154975136387776
1047.5, 18.252139787986863
1048, 18.25213978798685
1048.5, 18.381692656785617
1049, 18.381692656785617
1049.5, 18.47885730838466
1050, 18.47885730838466
1050.5, 18.57602195998375
1051, 18.57602195998375
1051.5, 18.80273948038156
1052, 18.80273948038156
1052.5, 18.932292349180315
1053, 18.932292349180315
1053.5, 19.06184521797907
1054, 19.256174521177215
1054.5, 19.2561745211772
1055, 19.353339172776245
1055.5, 19.353339172776245
1056, 19.418115607175636
1056.5, 19.41811560717565
1057, 19.38572738997594
1057.5, 19.385727389975955
1058, 19.450503824375318
1058.5, 19.450503824375318
1059, 19.580056693174058
1059.5, 19.580056693174058
1060, 19.64483312757345
1060.5, 19.644833127573435
1061, 19.968715299570334
1061.5, 19.96871529957032
1062, 20.13065638556877
1062.5, 20.130656385568784
1063, 20.227821037167843
1063.5, 20.227821037167857
1064, 20.389762123166264
1064.5, 20.38976212316628
1065, 20.713644295163164
1065.5, 20.71364429516315
1066, 20.843197163961918
1066.5, 20.84319716396189
1067, 20.972750032760672
1067.5, 20.972750032760672
1068, 21.005138249960368
1068.5, 21.199467553158485
1069, 21.19946755315847
1069.5, 21.26424398755786
1070, 21.26424398755786
1070.5, 21.717679028353487
1071, 21.717679028353487
1071.5, 21.847231897152255
1072, 21.847231897152255
1072.5, 21.9443965487513
1073, 21.9443965487513
1073.5, 22.073949417550054
1074, 22.073949417550054
1074.5, 22.13872585194943
1075, 22.13872585194943
1075.5, 22.268278720748185
1076, 22.2682787207482
1076.5, 22.462608023946316
1077, 22.462608023946316
1077.5, 22.68932554434413
1078, 22.68932554434413
1078.5, 22.851266630342607
1079, 22.851266630342593
1079.5, 23.077984150740406
1080, 23.07798415074039
1080.5, 23.23992523673884
1081, 23.239925236738856
1081.5, 23.40186632273729
1082, 23.401866322737305
1082.5, 23.531419191536045
1083, 23.531419191536045
1083.5, 23.596195625935422
1084, 23.725748494734162
1084.5, 23.725748494734177
1085, 23.98485423233167
1085.5, 23.984854232331685
1086, 24.14679531833012
1086.5, 24.14679531833012
1087, 24.308736404328556
1087.5, 24.308736404328542
1088, 24.276348187128875
1088.5, 24.27634818712886
1089, 24.24395996992918
1089.5, 24.24395996992918
1090, 24.276348187128875
1090.5, 24.276348187128875
1091, 24.47067749032699
1091.5, 24.470677490327006
1092, 24.535453924726383
1092.5, 24.535453924726383
1093, 24.60023035912576
1093.5, 24.60023035912576
1094, 24.76217144512418
1094.5, 24.762171445124196
1095, 24.79455966232389
1095.5, 24.79455966232389
1096, 25.08605361712108
1096.5, 25.08605361712108
1097, 25.345159354718604
1097.5, 25.34515935471859
1098, 25.37754757191827
1098.5, 25.377547571918257
1099, 25.280382920319212
1099.5, 25.280382920319227
1100, 25.280382920319212
1100.5, 25.442324006317648
1101, 25.442324006317634
1101.5, 25.63665330951578
1102, 25.636653309515765
1102.5, 25.766206178314533
1103, 25.766206178314548
1103.5, 25.7985943955142
1104, 25.798594395514215
1104.5, 25.701429743915156
1105, 25.70142974391517
1105.5, 25.701429743915156
1106, 25.701429743915142
1106.5, 25.636653309515765
1107, 25.63665330951575
1107.5, 25.766206178314533
1108, 25.766206178314533
1108.5, 25.83098261271391
1109, 25.83098261271391
1109.5, 25.830982612713896
1110, 25.83098261271391
1110.5, 25.766206178314533
1111, 25.766206178314533
1111.5, 25.766206178314533
1112, 25.766206178314533
1112.5, 25.83098261271391
1113, 25.83098261271391
1113.5, 25.733817961114852
1114, 25.733817961114852
1114.5, 25.571876875116388
1115, 25.50710044071701
1115.5, 25.507100440717025
1116, 25.701429743915156
1116.5, 25.70142974391517
1117, 25.766206178314533
1117.5, 25.766206178314533
1118, 25.701429743915156
1118.5, 25.701429743915156
1119, 25.474712223517344
1119.5, 25.47471222351733
1120, 25.474712223517344
1120.5, 25.47471222351733
1121, 25.442324006317634
1121.5, 25.442324006317648
1122, 25.409935789117952
1122.5, 25.409935789117966
1123, 25.409935789117952
1123.5, 25.409935789117966
1124, 25.280382920319212
1124.5, 25.280382920319198
1125, 25.215606485919835
1125.5, 25.21560648591982
1126, 25.247994703119517
1126.5, 25.247994703119517
1127, 25.215606485919835
1127.5, 25.215606485919835
1128, 25.183218268720125
1128.5, 25.18321826872014
1129, 24.82694787952356
1129.5, 24.82694787952356
1130, 24.79455966232389
1130.5, 24.76217144512418
1131, 24.76217144512418
1131.5, 24.632618576325427
1132, 24.632618576325427
1132.5, 24.470677490327006
1133, 24.470677490327006
1133.5, 24.243959969929165
1134, 24.243959969929165
1134.5, 24.211571752729498
1135, 24.211571752729498
1135.5, 24.049630666731062
1136, 24.049630666731048
1136.5, 24.08201888393073
1137, 24.08201888393073
1137.5, 24.11440710113044
1138, 24.114407101130425
1138.5, 23.790524929133568
1139, 23.790524929133554
1139.5, 23.62858384313509
1140, 23.628583843135104
1140.5, 23.499030974336335
1141, 23.49903097433635
1141.5, 23.337089888337914
1142, 23.33708988833793
1142.5, 23.17514880233948
1143, 23.175148802339464
1143.5, 23.077984150740406
1144, 23.07798415074039
1144.5, 22.91604306474197
1145, 22.91604306474197
1145.5, 22.624549109944766
1146, 22.527384458345708
1146.5, 22.527384458345693
1147, 22.43021980674665
1147.5, 22.430219806746635
1148, 22.43021980674665
1148.5, 22.43021980674665
1149, 22.43021980674665
1149.5, 22.43021980674665
1150, 22.365443372347258
1150.5, 22.365443372347272
1151, 22.203502286348808
1151.5, 22.203502286348808
1152, 22.073949417550054
1152.5, 22.073949417550054
1153, 21.68529081115382
1153.5, 21.68529081115382
1154, 21.42618507355631
1154.5, 21.42618507355631
1155, 21.361408639156934
1155.5, 21.361408639156934
1156, 21.26424398755786
1156.5, 21.264243987557848
1157, 21.19946755315847
1157.5, 21.19946755315847
1158, 20.972750032760672
1158.5, 20.972750032760686
1159, 20.810808946762222
1159.5, 20.810808946762236
1160, 20.61647964356409
1160.5, 20.616479643564105
1161, 20.454538557565655
1161.5, 20.195432819968147
1162, 20.19543281996816
1162.5, 20.033491733969697
1163, 20.03349173396971
1163.5, 19.741997779172507
1164, 19.74199777917252
1164.5, 19.515280258774695
1165, 19.51528025877468
1165.5, 19.353339172776245
1166, 19.35333917277623
1166.5, 19.126621652378446
1167, 19.126621652378446
1167.5, 18.932292349180315
1168, 18.932292349180315
1168.5, 18.673186611582793
1169, 18.673186611582807
1169.5, 18.414080873985284
1170, 18.414080873985284
1170.5, 18.252139787986863
1171, 18.252139787986863
1171.5, 18.154975136387776
1172, 18.154975136387776
1172.5, 17.604375443993078
1173, 17.604375443993078
1173.5, 17.474822575194324
1174, 17.474822575194324
1174.5, 17.377657923595294
1175, 17.37765792359528
1175.5, 16.924222882799626
1176, 16.924222882799626
1176.5, 16.697505362401827
1177, 16.40601140760461
1177.5, 16.40601140760461
1178, 16.276458538805883
1178.5, 16.27645853880587
1179, 16.17929388720681
1179.5, 16.179293887206796
1180, 15.790635280810534
1180.5, 15.790635280810548
1181, 15.758247063610852
1181.5, 15.758247063610867
1182, 15.531529543213026
1182.5, 15.53152954321304
1183, 15.142870936816792
1183.5, 15.142870936816777
1184, 14.980929850818342
1184.5, 14.980929850818328
1185, 14.78660054762021
1185.5, 14.78660054762021
1186, 14.397941941223962
1186.5, 14.397941941223962
1187, 14.203612638025817
1187.5, 14.203612638025831
1188, 13.847342248829264
1188.5, 13.847342248829264
1189, 13.750177597230177
1189.5, 13.750177597230177
1190, 13.523460076832379
1190.5, 13.523460076832379
1191, 13.26435433923487
1191.5, 13.26435433923487
1192, 13.102413253236435
1192.5, 12.810919298439217
1193, 12.810919298439217
1193.5, 12.584201778041418
1194, 12.584201778041418
1194.5, 12.454648909242664
1195, 12.454648909242664
1195.5, 12.163154954445474
1196, 12.16315495444546
1196.5, 11.936437434047647
1197, 11.936437434047633
1197.5, 11.677331696450125
1198, 11.677331696450125
1198.5, 11.256284872854181
1199, 11.256284872854195
1199.5, 11.126732004055427
1200, 11.126732004055441
1200.5, 10.900014483657628
1201, 10.900014483657642
1201.5, 10.673296963259816
1202, 10.673296963259801
1202.5, 10.478967660061684
1203, 10.47896766006167
1203.5, 9.99314440206635
1204, 9.99314440206635
1204.5, 9.798815098868232
1205, 9.798815098868232
1205.5, 9.636874012869768
1206, 9.636874012869782
1206.5, 9.086274320475056
1207, 9.08627432047507
1207.5, 8.924333234476649
1208, 8.762392148478199
1208.5, 8.762392148478185
1209, 8.600451062479749
1209.5, 8.600451062479763
1210, 8.37373354208195
1210.5, 8.37373354208195
1211, 8.276568890482864
1211.5, 8.276568890482864
1212, 8.049851370085065
1212.5, 8.049851370085065
1213, 7.920298501286311
1213.5, 7.920298501286311
1214, 7.596416329289411
1214.5, 7.596416329289411
1215, 7.369698808891627
1215.5, 7.369698808891613
1216, 6.9486519852956405
1216.5, 6.9486519852956405
1217, 6.624769813298769
1217.5, 6.624769813298784
1218, 6.430440510100652
1218.5, 6.4304405101006665
1219, 6.268499424102188
1219.5, 6.268499424102188
1220, 6.106558338103781
1220.5, 6.106558338103767
1221, 6.04178190370439
1221.5, 6.041781903704376
1222, 5.7826761661068815
1222.5, 5.782676166106867
1223, 5.58834686290875
1223.5, 5.361629342510938
1224, 5.361629342510923
1224.5, 5.102523604913429
1225, 5.102523604913401
1225.5, 4.778641432916544
1226, 4.778641432916544
1226.5, 4.616700346918108
1227, 4.616700346918108
1227.5, 4.487147478119326
1228, 4.48714747811934
1228.5, 4.422371043719963
1229, 4.422371043719963
1229.5, 4.130877088922787
1230, 4.130877088922787
1230.5, 4.06610065452341
1231, 4.06610065452341
1231.5, 4.0337124373237
1232, 4.0337124373237
1232.5, 4.551923912518731
1233, 4.551923912518731
1233.5, 4.0337124373237145
1234, 4.0337124373237
1234.5, 3.774606699726192
1235, 3.774606699726192
1235.5, 3.515500962128698
1236, 3.515500962128698
1236.5, 3.159230572932117
1237, 3.159230572932131
1237.5, 2.9001248353346085
1238, 2.9001248353346085
1238.5, 2.7057955321364915
1239, 2.4790780117386646
1239.5, 2.479078011738679
1240, 2.446689794538983
1240.5, 2.4466897945389974
1241, 2.5114662289383602
1241.5, 2.5114662289383602
1242, 2.5114662289383745
1242.5, 2.5114662289383602
1243, 2.5114662289383745
1243.5, 2.5114662289383602
1244, 2.4466897945389974
1244.5, 2.4466897945389974
1245, 2.4466897945389974
1245.5, 2.4466897945389974
1246, 2.446689794538983
1246.5, 2.4466897945389974
1247, 2.1228076225420978
1247.5, 2.1228076225420978
1248, 2.1551958397417934
1248.5, 2.1551958397417934
1249, 2.187584056941489
1249.5, 2.187584056941489
1250, 2.0580311881427207
1250.5, 2.0580311881427207
1251, 1.9932547537433436
1251.5, 1.9932547537433436
1252, 1.8960901021442993
1252.5, 1.8960901021442993
1253, 1.7665372333455451
1253.5, 1.7665372333455451
1254, 1.7665372333455451
1254.5, 1.7989254505452124
1255, 1.7989254505452124
1255.5, 1.7665372333455593
1256, 1.7665372333455451
1256.5, 1.7341490161458353
1257, 1.7341490161458353
1257.5, 1.7989254505452124
1258, 1.7989254505452266
1258.5, 1.766537233345531
1259, 1.7665372333455451
855.0608036250982, 1.1338983694967482
858.7598834789845, 0.7629781127195088
868.0075831137004, 0.6396354175915491
884.653442456189, 0.7639389126815672
901.2993017986774, 0.8882424077715854
908.6974615064503, 1.2595744359611132
892.9763721274333, 0.8879335792123442
876.3305127849446, 0.7636300841223118
851.3617237712119, 1.5048186262739591
1265.6586674064824, 1.272819749723638
1271.207287187312, 1.2730256354297893
1276.7559069681415, 1.2732315211359406
1263.8091274795393, 1.6438086350695613
1348.8879641189253, 0.7811646834297221
1332.2421047764367, 0.7805470263112539
1319.2953252878344, 0.7800666263302389
1361.8347436075276, 0.7816450834107371
1374.7815230961296, 0.7821254833917664
1389.5778425116753, 0.7826745119415079
1402.524622000277, 0.9068407498941014
1384.0292227308455, 0.7824686262353566
1343.3393443380958, 1.028330473666685
1322.9944051417208, 1.0275755594107778
1337.7907245572662, 1.1518104259320836
