300, 1.2925726349260316
301, 1.366176224019398
302, 1.457817757669062
303, 1.5545512853105379
304, 1.6348510672095244
305, 1.729707310556023
306, 1.8363726679274492
307, 1.9745604149085523
308, 2.1360437742739435
309, 2.2561276514581436
310, 2.368681342049186
311, 2.4802573543562687
312, 2.604965053125781
313, 2.727438049283222
314, 2.8551551449562567
315, 2.9867314438573374
316, 3.100373290695316
317, 3.198046269492977
318, 3.3398996514113435
319, 3.484527489763906
320, 3.6067448055837588
321, 3.7596514847819975
322, 3.896920814901975
323, 3.973882488605625
324, 4.083575557913662
325, 4.195241354479407
326, 4.319407656832865
327, 4.451268244360961
328, 4.582451437643613
329, 4.7254189874912385
330, 4.85282380579946
331, 4.995665659562121
332, 5.170178684489443
333, 5.351421128817222
334, 5.500316262926404
335, 5.645654524811164
336, 5.793304162063222
337, 5.941966402437771
338, 6.120457201591137
339, 6.2655134295806505
340, 6.446449383797699
341, 6.604985044941657
342, 6.76324646282994
343, 6.932114395520941
344, 7.048979497609849
345, 7.175228157105408
346, 7.316852871661496
347, 7.440924238396462
348, 7.5793891940270015
349, 7.735540526836203
350, 7.910290963851992
351, 8.15145645863143
352, 8.36918370490919
353, 8.544774142016962
354, 8.733789983401593
355, 8.883599342844917
356, 9.038676127082951
357, 9.22017618773127
358, 9.339505424087207
359, 9.480429609295172
360, 9.63989656408063
361, 9.812889803918054
362, 9.991449061754253
363, 10.224711910345093
364, 10.44135834846368
365, 10.5962782709219
366, 10.773709917298419
367, 10.919402010932146
368, 11.10494967754127
369, 11.261798409502063
370, 11.45279487578101
371, 11.693387039206257
372, 11.862220466216783
373, 12.066215570474071
374, 12.271700707750227
375, 12.463918495430562
376, 12.621592004039485
377, 12.791950128885858
378, 12.959733135122619
379, 13.123529265423954
380, 13.331827512097945
381, 13.524301772024742
382, 13.742649750173769
383, 13.923506225323777
384, 14.105509638676025
385, 14.311036185310812
386, 14.503100289275977
387, 14.681506027265229
388, 14.907962199033307
389, 15.1779726886395
390, 15.393927895841102
391, 15.588231016853172
392, 15.830790136456542
393, 16.05264066816835
394, 16.17147107764376
395, 16.384603875267842
396, 16.657933044572133
397, 16.899066802314294
398, 17.14988036013547
399, 17.397114712501235
400, 17.642711102960604
401, 17.886684821850437
402, 18.075222322187457
403, 18.25424928346814
404, 18.464682103855296
405, 18.698334727327904
406, 18.873996777364766
407, 19.103906227879023
408, 19.334304162890902
409, 19.51452315040885
410, 19.755547646407933
411, 19.950511771060363
412, 20.121206265605167
413, 20.36289511677346
414, 20.66131824833022
415, 20.95236781448945
416, 21.20274488449489
417, 21.42585630955297
418, 21.652609823410245
419, 21.87429031086897
420, 22.079865384864775
421, 22.35036771630861
422, 22.580985283229992
423, 22.767335538044676
424, 23.070993200901967
425, 23.349927885612658
426, 23.548903503290106
427, 23.789926008744857
428, 24.12190480255275
429, 24.339015688409987
430, 24.65628150508877
431, 25.067889386147527
432, 25.37192928594196
433, 25.665285763347924
434, 25.976448179183322
435, 26.256766250083757
436, 26.560690508780922
437, 26.77412586154692
438, 27.07408287543997
439, 27.36003796297483
440, 27.59313739367957
441, 27.802756457200474
442, 28.07002758356286
443, 28.37499574479726
444, 28.59538714755962
445, 28.819887442949366
446, 29.021459911555056
447, 29.193957930568573
448, 29.39742427445215
449, 29.6676651132977
450, 29.834885326527427
451, 30.089813987703835
452, 30.305575952240858
453, 30.47360894009509
454, 30.705084059022298
455, 30.94995729731461
456, 31.173761435472727
457, 31.33661252054651
458, 31.441205692126374
459, 31.502641714392055
460, 31.554408727217904
461, 31.635701030237
462, 31.77278816393526
463, 31.975057189626924
464, 32.167991760852175
465, 32.302624493065025
466, 32.389252666024674
467, 32.481519121020185
468, 32.594590959652834
469, 32.657646680019354
470, 32.75264302065331
471, 32.944050790313725
472, 33.07797341098244
473, 33.05091197812665
474, 33.04433203098087
475, 33.17504357843667
476, 33.384707056863704
477, 33.5687087206519
478, 33.714640189831314
479, 33.90468103839035
480, 34.068593993077556
481, 34.20628588755521
482, 34.35531732893034
483, 34.44326908391223
484, 34.51331837407342
485, 34.62181912176311
486, 34.65123417831653
487, 34.680767662380916
488, 34.68703437341158
489, 34.63244052773605
490, 34.746628661779326
491, 34.89974690093088
492, 34.731160755713205
493, 34.53272053342933
494, 34.40160809107215
495, 34.25121869294904
496, 34.07922912711203
497, 33.87056673401047
498, 33.514114350545256
499, 33.11987405227593
500, 32.79839813399329
500.99999999999994, 32.50116129820033
502, 32.11843032908655
502.99999999999994, 31.75914402554382
504, 31.47329049318195
505, 31.1214143764592
506, 30.738741215320275
507, 30.2980168338473
508, 29.86226212401793
509, 29.379232993624882
509.99999999999994, 28.87719463414524
511, 28.38605100506257
511.99999999999994, 27.865927221729336
513, 27.357503958998976
514, 26.834369319009213
515, 26.3578212287199
516, 25.86715475592203
517, 25.36426894713881
518, 24.960979452651728
519, 24.547661840308393
520, 24.032042675592592
521, 23.65314570609236
522, 23.281254875010134
523, 22.809418614933705
524, 22.50024048646374
525, 22.291939380192133
526, 21.95514314065109
527, 21.66954376907121
528, 21.39107611964782
529, 21.106242713699714
530, 20.82230775466141
531, 20.59850777091407
532, 20.404035652472572
533, 20.235031533804843
534, 20.05636357622693
535, 19.8018623093443
536, 19.570346400760798
537, 19.342740447062113
538, 19.06890269509904
539, 18.804279341577256
540, 18.61925498493396
541, 18.46283663292307
542, 18.34736604435716
543, 18.293644677303874
544, 18.274387709308627
545, 18.143433835360014
546, 17.91402226856951
547, 17.74736641875259
548, 17.609599966090556
549, 17.550444208752864
550, 17.511617294672718
551, 17.43718977282333
552, 17.363528915172353
553, 17.317425269588767
554, 17.240120351371644
555, 17.164754821363616
556, 17.14357881527313
557, 17.108585561003636
558, 17.050904857025174
559, 17.077959242496433
560, 17.106750468274058
561, 17.014653085647183
562, 17.052170644291607
563, 17.14670944936502
564, 17.18440772984343
565, 17.258265301034044
566, 17.46534568683886
567, 17.57999006463112
568, 17.51999827038945
569, 17.59971643133015
570, 17.653689299249834
571, 17.583219801439057
572, 17.4412779876495
573, 17.421909180320384
574, 17.54490216280479
575, 17.674693531263628
576, 17.68350119485629
577, 17.639089020098865
578, 17.711681724502043
579, 17.818653856555244
580, 17.752696285944467
581, 17.68667205372219
582, 17.71699815368045
583, 17.81748015876086
584, 17.962399813859463
585, 18.04765850774743
586, 18.06369735627709
587, 18.077562245509668
588, 18.104990259134084
589, 18.181829739926613
590, 18.315835525126303
591, 18.328701478143856
592, 18.214445803223484
593, 18.175002071459986
594, 18.31617878094883
595, 18.317934856292226
596, 18.25008899991836
597, 18.21493389360704
598, 18.137787009697036
599, 18.019485548438084
600, 17.874985656576925
601, 17.747224837165504
602, 17.5587743466903
603, 17.33309335308317
604, 17.108855871663508
605, 16.86606192650504
606, 16.619669242678384
607, 16.331775189211314
608, 15.992521723203126
609, 15.65510722612595
610, 15.362858557170014
611, 15.032456537852724
612, 14.75003141396715
613, 14.518768609508541
614, 14.255760208501016
615, 13.962126169834491
616, 13.724375348578278
617, 13.407261796109921
618, 13.102826105186367
619, 12.897430325458743
620, 12.64555578743746
621, 12.374522421291843
622, 12.144084612045134
623, 11.867637681377545
624, 11.68423348592269
625, 11.468837497510577
626, 11.206201981669537
627, 11.010507203129876
628, 10.837488183087657
629, 10.630046428421707
630, 10.478932118560763
631, 10.30277505867079
632, 10.045063326099239
633, 9.906247955332617
634, 9.737745809238305
635, 9.478210916197455
636, 9.27424264679452
637, 9.232093039762518
638, 9.21609396189649
639, 9.097376326374288
640, 8.822146592649347
641, 8.563985802775491
642, 8.429653220261002
643, 8.260409470252185
644, 8.049218366109727
645, 7.932865417504246
646, 7.828110597497314
647, 7.778737089197591
648, 7.710188888291157
649, 7.565258213190376
650, 7.390127133934399
651, 7.11622526267584
652, 6.892038029170763
653, 6.852324873238956
654, 6.815429906293971
655, 6.716712533385163
656, 6.574305860972487
657, 6.451827632868685
658, 6.356279049750938
659, 6.30879742249428
660, 6.31769619555962
661, 6.256917417088161
662, 6.125794983962237
663, 5.971048577782369
664, 5.8549063029029185
665, 5.805573794127071
666, 5.7750927499209155
667, 5.807496984763276
668, 5.8115436188192575
669, 5.68172339709831
670, 5.533987932035188
671, 5.389784034263187
672, 5.301256717918022
673, 5.192117916528005
674, 5.11377914323603
675, 5.132122633985418
676, 5.193695519637188
677, 5.22709915992499
678, 5.223456815376835
679, 5.301097746632749
680, 5.498114801623544
681, 5.4775025908318185
682, 5.37888929150175
683, 5.306642644060943
684, 5.241714026665761
685, 5.10894199319209
686, 5.042874688573477
687, 5.120400816542784
688, 5.201202162665041
689, 5.274704889289737
690, 5.328452530351456
691, 5.318816205942468
692, 5.2475564333133065
693, 5.239691598573657
694, 5.254431483547137
695, 5.246012680422339
696, 5.273312780839163
697, 5.355119298900064
698, 5.389334626664777
699, 5.366540489972081
700, 5.393472775040962
701, 5.457759192796402
702, 5.545716812294998
703, 5.630485814062311
704, 5.686408331967428
705, 5.633994511543818
706, 5.50369466896305
707, 5.505535121945655
708, 5.583539683514147
709, 5.634298447731922
710, 5.6150560578948046
711, 5.6009472893270384
712, 5.7082458818531165
713, 5.660763737379142
714, 5.535788506288455
715, 5.611391111857941
716, 5.643724022470963
717, 5.693810242524194
718, 5.798472243758752
719, 5.846083589149359
720, 5.8745059937379835
721, 5.956511317298634
722, 5.909245670815579
723, 5.866575969760504
724, 5.901081127788373
725, 5.9990276359112755
726, 6.121587195474916
727, 6.12164633595782
727.9999999999999, 6.0693337803243566
729, 6.149247157666608
730, 6.235015403258188
730.9999999999999, 6.267326778446915
732, 6.258784762440143
733, 6.326294009738049
734, 6.482556517234755
734.9999999999999, 6.629925878455225
736, 6.722183853054744
737, 6.773645911454679
738, 6.80052845168467
739, 6.783696330658415
740, 6.745167488200423
741, 6.788573818588844
741.9999999999999, 6.856026281751269
743, 6.94672409285954
744, 7.187285793862557
745, 7.383123136548619
745.9999999999999, 7.431724951465483
747, 7.4041994849022785
748, 7.50361749700204
748.9999999999999, 7.698871458199974
750, 7.7093744630603
751, 7.675351372932553
752, 7.640516651553796
752.9999999999999, 7.52293578532209
754, 7.403076901196798
755, 7.516258921758947
756, 7.755792762853929
757, 7.977445354258222
758, 8.191924984522231
759, 8.346595348506682
759.9999999999999, 8.468290971536248
761, 8.607881842026472
762, 8.748906774803558
763, 8.908602378066448
763.9999999999999, 9.07820573788618
765, 9.191108846159054
766, 9.34829781290037
766.9999999999999, 9.659671406389549
768, 9.888792074050386
769, 9.829141334996876
770, 9.835801162037342
770.9999999999999, 9.978929790133321
772, 10.107046787763238
773, 10.260692897374469
773.9999999999999, 10.529140381238506
775, 10.756837838433398
776, 10.808829797312825
777, 10.976325827424986
777.9999999999999, 11.191673202490648
779, 11.334028670293335
780, 11.43257958227376
781, 11.505941235852745
781.9999999999999, 11.614696432165061
783, 11.762036407530488
784, 11.801184656173135
784.9999999999999, 11.793879534113628
786, 11.872789082694041
787, 11.973861194169757
788, 12.110829471734462
788.9999999999999, 12.316154426534595
789.9999999999999, 12.503377016153081
791, 12.634028603375768
791.9999999999999, 12.75348806718911
792.9999999999999, 12.799913041122934
794, 12.805093198978824
795, 12.77099242978126
795.9999999999999, 12.729704594614859
796.9999999999999, 12.76515313950074
798, 12.814125512326271
799, 12.79065766674475
799.9999999999999, 12.71953687445722
800.9999999999999, 12.690638151733069
802, 12.722243747564434
802.9999999999999, 12.713474407835136
803.9999999999999, 12.62963186486698
805, 12.456887107454193
806, 12.43012538369311
806.9999999999999, 12.535691488795521
807.9999999999999, 12.624719679573118
809, 12.64712031605275
809.9999999999999, 12.610812253491304
810.9999999999999, 12.603573936549552
812, 12.526262008482547
813, 12.280521716696626
813.9999999999999, 12.012951101695108
814.9999999999999, 11.76945393186682
816, 11.593275839765539
816.9999999999999, 11.595927353906802
817.9999999999999, 11.486578537785803
818.9999999999999, 11.201515383117453
820, 11.054518341730429
820.9999999999999, 10.952766975308549
821.9999999999999, 10.830228697862239
823, 10.681366166816915
824, 10.42552450113483
824.9999999999999, 10.18452668211387
825.9999999999999, 10.051840770422416
827, 9.806779559463806
827.9999999999999, 9.560987308167554
828.9999999999999, 9.387099550225543
830, 9.223363553811339
831, 8.95597392356629
831.9999999999999, 8.633356980682507
832.9999999999999, 8.4411195376898
834, 8.435788294005178
834.9999999999999, 8.333721569256355
835.9999999999999, 8.12257168728597
836.9999999999999, 7.889038328549503
838, 7.857650651222272
838.9999999999999, 8.09303487313278
839.9999999999999, 8.207430768914975
841, 8.054338245424518
841.9999999999999, 7.677719760688149
842.9999999999999, 7.240834804879199
843.9999999999999, 6.7511681432629445
845, 6.266261985410424
845.9999999999999, 5.895154851800996
846.9999999999999, 5.500530383691114
848, 5.1576513077391155
849, 4.848322240710402
849.9999999999999, 4.542900211048078
850.9999999999999, 4.280844769233681
852, 3.923509666949215
852.9999999999999, 3.6209708625517294
853.9999999999999, 3.3944306259845263
854.9999999999999, 3.0304561541693005
856, 2.7012496542073166
856.9999999999999, 2.403150309210858
857.9999999999999, 2.2458177386558305
859, 2.2046164007740003
859.9999999999999, 2.0162101720193135
860.9999999999999, 1.9485487164314463
861.9999999999999, 1.863378821457644
863, 1.827473681626259
863.9999999999999, 1.9011106915660037
864.9999999999999, 1.8296363080872027
866, 1.5884460096569342
867, 1.50474496345106
867.9999999999999, 1.4574886258477164
868.9999999999999, 1.4113792592760035
870, 1.417176055131094
870.9999999999999, 1.4653340755393174
871.9999999999999, 1.4590331175253226
872.9999999999999, 1.4452002210698822
874, 1.4597370086551535
874.9999999999999, 1.4885282812870457
875.9999999999999, 1.452857253896866
877, 1.4070207079774377
877.9999999999999, 1.4034602482261533
878.9999999999999, 1.4093776052983742
879.9999999999999, 1.4743626825551814
881, 1.5321268683487688
881.9999999999999, 1.4899511430298276
882.9999999999999, 1.5458883082087453
884, 1.6494075377436843
884.9999999999999, 1.6892293883107499
885.9999999999999, 1.6405991427689628
886.9999999999999, 1.5799827704010738
888, 1.5202202223311048
888.9999999999999, 1.4280744292462089
889.9999999999999, 1.385611294871154
890.9999999999999, 1.3326893599444105
892, 1.3356437312632607
892.9999999999999, 1.384582830680273
893.9999999999999, 1.3732412251920891
895, 1.484896468057869
895.9999999999999, 1.6076811175008316
896.9999999999999, 1.6406578727008423
897.9999999999999, 1.595812754097409
899, 1.5987905873268744
899.9999999999999, 1.6541448500599927
900.9999999999999, 1.5040834458881136
902, 1.418460427811027
902.9999999999999, 1.4974621066679958
903.9999999999999, 1.572489541042458
904.9999999999999, 1.5452851409615391
906, 1.3403171650012524
906.9999999999999, 1.3787090821593182
907.9999999999999, 1.7580418797552966
908.9999999999999, 1.8691446680549433
909.9999999999999, 1.878207217911509
910.9999999999999, 2.0289895031569642
911.9999999999999, 2.1615478283355714
913, 2.146919830057726
913.9999999999999, 2.1402339962571233
914.9999999999999, 2.3086667704687756
915.9999999999999, 2.636114086610803
917, 2.9993628897885856
917.9999999999999, 3.0971838744143696
918.9999999999999, 3.0436433647172834
920, 2.970176923932698
920.9999999999999, 3.024489978100604
921.9999999999999, 3.1242689207150107
922.9999999999999, 2.9253615413288117
924, 2.7074188642131105
924.9999999999999, 2.9748127000026585
925.9999999999999, 3.296048594442709
927, 3.4824473607720705
927.9999999999999, 3.4407442207482717
928.9999999999999, 3.261630401453118
929.9999999999999, 3.14758854836856
931, 3.1020195705752087
931.9999999999999, 3.2685567065376233
932.9999999999999, 3.338955470833966
933.9999999999999, 3.263236647355882
935, 3.1742126320157666
935.9999999999999, 3.1656857955990034
936.9999999999999, 3.2736722285889925
938, 3.3451754524243
938.9999999999999, 3.525906876332087
939.9999999999999, 3.755745280312297
940.9999999999999, 4.015176925886109
942, 4.136515718184995
942.9999999999999, 4.1481078695088485
943.9999999999999, 4.286099457032236
945, 4.406753937641895
945.9999999999999, 4.467544810569379
946.9999999999999, 4.585044553771468
947.9999999999999, 4.819222151234328
949, 5.046972744468249
949.9999999999999, 5.1895976505042825
950.9999999999999, 5.212629138757208
951.9999999999999, 5.354490733265038
952.9999999999999, 5.625144717313162
953.9999999999999, 5.860623548851024
954.9999999999999, 6.061504091597655
956, 6.2253018442867045
956.9999999999999, 6.370676213647286
957.9999999999999, 6.6074994660356055
958.9999999999999, 6.907581279955039
960, 7.1826089258849635
960.9999999999999, 7.433085878599655
961.9999999999999, 7.671807823791127
963, 7.818253851554488
963.9999999999999, 7.851050527766986
964.9999999999999, 7.868227734287217
965.9999999999999, 8.054406777759965
967, 8.463625562711883
967.9999999999999, 8.793611899999718
968.9999999999999, 9.016488199384042
969.9999999999999, 9.346900865067738
970.9999999999999, 9.658482053900386
971.9999999999999, 9.810100533608463
972.9999999999999, 10.023529389961595
974, 10.271109662478707
974.9999999999999, 10.455697278887243
975.9999999999999, 10.626097463193688
976.9999999999999, 10.861745672275362
978, 11.106001007157602
978.9999999999999, 11.269992979105524
979.9999999999999, 11.440730842965749
981, 11.84114136281876
981.9999999999999, 12.149322616220388
982.9999999999999, 12.387568282458489
983.9999999999999, 12.692229945217022
985, 12.856953978247574
985.9999999999999, 13.046136710138725
986.9999999999999, 13.294949085272705
987.9999999999999, 13.491109448716529
988.9999999999999, 13.721887619818318
989.9999999999999, 14.025167734043961
990.9999999999999, 14.163570426663938
992, 14.081178893072902
992.9999999999999, 14.12461772973792
993.9999999999999, 14.302784447432046
994.9999999999999, 14.485314961495789
995.9999999999999, 14.681582547333093
996.9999999999999, 14.875979297062273
997.9999999999999, 15.0428084974113
999, 15.112022947194546
999.9999999999999, 15.22369742379469
1000.9999999999999, 15.461523282111003
1001.9999999999999, 15.658256096554396
1003, 15.790151792336601
1003.9999999999999, 15.876362290596248
1004.9999999999999, 15.978328583375742
1005.9999999999999, 16.13987013878902
1006.9999999999999, 16.360679929467636
1007.9999999999999, 16.498293731484097
1008.9999999999999, 16.7376546384164
1010, 16.923450845219307
1010.9999999999999, 17.054327248743846
1011.9999999999999, 17.20073998635651
1012.9999999999999, 17.215682772399205
1013.9999999999999, 17.526787603577077
1014.9999999999999, 17.93634235716911
1015.9999999999999, 18.316524400596577
1017, 18.582397813809592
1017.9999999999999, 18.610637046624916
1018.9999999999999, 18.543838074991157
1019.9999999999999, 18.564039935432262
1020.9999999999999, 18.83638616647407
1021.9999999999999, 19.27878317917775
1022.9999999999999, 19.522635571664367
1023.9999999999999, 19.55714480470121
1025, 19.666778448532085
1026, 20.07910928816176
1027, 20.55199633469053
1028, 21.033380277562586
1029, 21.153892022256187
1030, 21.17575449328382
1031, 21.39143455916303
1032, 21.618908039300607
1033, 21.68512738914751
1034, 21.77904006682199
1035, 22.023490817667238
1036, 22.05455769308523
1037, 22.044893501904085
1038, 22.188372368430038
1039, 22.328958199990012
1040, 22.418890567300778
1041, 22.564225747173637
1042, 22.95348873201351
1043, 23.272495775428382
1044, 23.543498046337078
1045, 23.862431084836047
1046, 23.935528022270063
1047, 23.761636016411856
1048, 23.886556153207934
1049, 24.2343478618874
1050, 24.602336248740855
1051, 24.855424398519347
1052, 25.03895542705331
1053, 25.266442131314335
1054, 25.48820993764552
1055, 25.71824507108245
1056, 25.83224724920315
1057, 25.976613812489333
1058, 26.177863551081884
1059, 26.42506251967322
1060, 26.691866602381893
1061, 26.93638966659428
1062, 27.025893885635398
1063, 27.21900108370724
1064, 27.163461263709095
1065, 27.014122215680487
1066, 27.114318317192698
1067, 27.490860307052458
1068, 27.781749245384745
1069, 28.126079939690385
1070, 28.535204750191085
1071, 28.572072684093072
1072, 28.619913081345402
1073, 28.87913810238824
1074, 29.220970736543222
1075, 29.60384360473377
1076, 29.8404661238566
1077, 29.766000354638493
1078, 29.7532467147074
1079, 29.859346896976092
1080, 30.198482205020014
1081, 30.701502555530865
1082, 31.148366985380534
1083, 31.49240326746073
1084, 31.772583127625666
1085, 31.963003048928755
1086, 32.17337892180069
1087, 32.47625409198366
1088, 32.71566437914545
1089, 33.076847956044716
1090, 33.40886308533156
1091, 33.26702505244107
1092, 33.14895949127451
1093, 33.21909382613461
1094, 33.48870728964765
1095, 33.847412249446606
1096, 34.09847653764888
1097, 34.3469565951531
1098, 34.7686337652805
1099, 35.085198091653226
1100, 35.32189488912128
1101, 35.52131585571517
1102, 35.68479557969883
1103, 35.93722885021029
1104, 36.24587474258212
1105, 36.530411211418325
1106, 36.79657375642069
1107, 37.00860026395697
1108, 37.22122003985462
1109, 37.34443529343961
1110, 37.360564518462176
1111, 37.51207892758559
1112, 37.67015199872393
1113, 37.82457775438096
1114, 37.9925166350233
1115, 38.22132354897943
1116, 38.39862983540204
1117, 38.43274115340101
1118, 38.510263079435525
1119, 38.4609611973756
1120, 38.4042323347083
1121, 38.35255788991885
1122, 38.45819501486307
1123, 38.70233467729377
1124, 38.74871553396568
1125, 38.60783059386205
1126, 38.535676891290045
1127, 38.52053705640051
1128, 38.40606427715511
1129, 38.220747082682124
1130, 38.15446047441413
1131, 38.10608536591913
1132, 37.932830795059104
1133, 37.91155472763695
1134, 37.96514831036684
1135, 37.97231096033416
1136, 37.96198770608149
1137, 37.858830706874514
1138, 37.63763290175221
1139, 37.66888898753345
1140, 37.62753842676847
1141, 37.37104186465896
1142, 37.26630570914406
1143, 37.31154271449005
1144, 37.153441920805044
1145, 36.837413917638585
1146, 36.65332521148322
1147, 36.48407647366096
1148, 36.22690840419975
1149, 36.105844927622826
1150, 36.15840707318266
1151, 36.09760314937688
1152, 35.99929247830612
1153, 35.95021794937253
1154, 35.742292072550626
1155, 35.55370396921212
1156, 35.30673910621478
1157, 34.9813619455452
1158, 34.73931017580772
1159, 34.39959248210981
1160, 34.22660449957927
1161, 34.40116949531672
1162, 34.49849842000857
1163, 34.431110908058415
1164, 34.12368212587765
1165, 33.69504496239264
1166, 33.4542513361872
1167, 33.21588427834055
1168, 32.71241861036442
1169, 32.183786263793465
1170, 31.804921339861878
1171, 31.68380027144741
1172, 31.673217743868534
1173, 31.379074542483096
1173.9999999999998, 30.90050239986151
1175, 30.537766626679
1176, 30.083258249162085
1176.9999999999998, 29.71961577401811
1178, 29.607718035421144
1179, 29.563637119607662
1180, 29.374441636009635
1181, 29.023351099113953
1182, 28.564243694178785
1183, 28.14090107029881
1184, 27.749980608717948
1184.9999999999998, 27.456592788870367
1186, 27.275087400052
1187, 27.022167389116262
1187.9999999999998, 26.85388371182411
1189, 26.52129657494227
1190, 26.14668007509573
1191, 25.800257414583854
1192, 25.434277344933847
1193, 25.13399905519067
1194, 24.60173947634081
1195, 24.165346018426817
1195.9999999999998, 23.90310103329226
1197, 23.551051949994743
1198, 23.12086210057211
1198.9999999999998, 22.55270313956855
1200, 22.266381501338827
1201, 22.100471335674044
1201.9999999999998, 21.937878350552168
1203, 21.5889107093476
1204, 21.003594121065987
1205, 20.578862023973954
1206, 20.17061247544872
1206.9999999999998, 19.80897616312849
1208, 19.55391111236537
1209, 19.042971892859143
1209.9999999999998, 18.75971884704184
1211, 18.565036923627957
1212, 18.23732739008375
1212.9999999999998, 17.76301044047814
1214, 17.238724666521534
1215, 16.717958646942407
1216, 16.209669592856997
1217, 15.677513156781274
1218, 15.134159641791541
1219, 14.729821206920505
1220, 14.465470469082021
1220.9999999999998, 14.221147147397659
1222, 13.885375695918967
1223, 13.475658227985718
1223.9999999999998, 13.10212094746366
1225, 12.75703368377583
1226, 12.272736990248049
1226.9999999999998, 11.62880671404713
1228, 11.11287973095034
1229, 10.761728543431019
1230, 10.443446929996583
1231, 10.090431681482514
1231.9999999999998, 9.684593985255376
1233, 9.25274255701757
1234, 8.887968203397719
1234.9999999999998, 8.74707497513559
1236, 8.36964482867566
1237, 7.708878784978111
1237.9999999999998, 7.111077030954036
1239, 6.580954654848796
1240, 6.07755066821079
1241, 5.722362487551848
1242, 5.607721274758234
1243, 5.399344679338014
1244, 5.411109919921998
1245, 5.391593636289045
1245.9999999999998, 5.239707858879115
1247, 5.086150924025546
1248, 5.084059213402568
1248.9999999999998, 4.92225742538173
1250, 4.5202201232606
1251, 4.244786291211838
1251.9999999999998, 3.895887020366416
1253, 3.7102517905149597
1254, 3.832674983907424
1255, 3.885262501064517
1256, 3.780628857392088
1256.9999999999998, 3.482051905222633
1258, 3.0499143801978903
1259, 2.8365004480473033
1259.9999999999998, 2.7784996152566066
1261, 2.815798770494851
1262, 2.9128387089259604
1262.9999999999998, 3.1178886409445425
1264, 3.0401416356244084
1265, 2.7585491191777862
1266, 2.5487724686475275
1267, 2.445404482721244
1267.9999999999998, 2.2943222630926385
1269, 1.9918340783557227
1270, 1.9076351414225883
1270.9999999999998, 2.062854146488448
1272, 2.1050450743787223
1273, 2.0663913044896844
1273.9999999999998, 2.109770777219339
1275, 2.301878999426407
1276, 2.368799908610157
1276.9999999999998, 2.180881686734992
1278, 1.9830675801503475
1279, 1.964989192121351
1280, 2.139176295971126
1281, 2.309755178131226
1281.9999999999998, 2.4539766092251227
1283, 2.5425860936303906
1284, 2.4052467316141843
1284.9999999999998, 2.233821120432964
1286, 2.406342847958129
1287, 2.5185885933712058
1287.9999999999998, 2.5365751029503087
1289, 2.591974463636376
1290, 2.7204110449251004
1291, 2.8337517609274556
1292, 3.0337735179036827
1292.9999999999998, 3.169738803969551
1294, 3.1299977598228708
1295, 3.0905446023611916
1295.9999999999998, 3.076758627915453
1297, 3.007756337811287
1298, 2.889846533292342
1298.9999999999998, 2.8661421484533207
1300, 2.84790406036808
1300.9999999999998, 2.8067353926982577
1302, 2.7524823411746695
1303, 2.6181822463611724
1303.9999999999998, 2.5222451849393224
1305, 2.6013735368259177
1305.9999999999998, 2.641125059027175
1306.9999999999998, 2.52708603061798
1308, 2.4166260154164263
1308.9999999999998, 2.4410677396468543
1309.9999999999998, 2.4399098522831935
1311, 2.201382748998938
1311.9999999999998, 1.844287619937532
1312.9999999999998, 1.6714251894773184
1314, 1.6313210224764845
1314.9999999999998, 1.4798057638864606
1316, 1.3086729418422323
1317, 1.2443402665276295
1317.9999999999998, 1.3616565751815841
1319, 1.573674236052895
1319.9999999999998, 1.6302129928005797
1320.9999999999998, 1.677574739524701
1322, 1.7050256061066023
1322.9999999999998, 1.620640725782252
1323.9999999999998, 1.4497158360155424
1325, 1.3954223709060187
1325.9999999999998, 1.5107166599942587
1327, 1.5328658488078162
1328, 1.71077943969658
1328.9999999999998, 1.866232244418967
1330, 1.9268720742485925
1330.9999999999998, 1.994803129934624
1331.9999999999998, 1.9640620232539732
1333, 1.760234199743138
1333.9999999999998, 1.672014222149457
1334.9999999999998, 1.7204139579632027
1336, 1.743489687751051
1336.9999999999998, 1.6970033492810757
1337.9999999999998, 1.6956756162815765
1339, 1.8152027963913895
1339.9999999999998, 1.959142753968024
1341, 1.9488441034933288
1341.9999999999998, 1.728677095215474
1342.9999999999998, 1.5794032870558539
1344, 1.5770841650919039
1344.9999999999998, 1.7694235717184057
1345.9999999999998, 1.9825142673917497
1347, 2.038743027078638
1347.9999999999998, 1.9770046811795368
1348.9999999999998, 1.8191230659462292
1350, 1.691650425464445
1350.9999999999998, 1.603305145968335
1352, 1.5590366051481084
1353, 1.5069464027178867
1353.9999999999998, 1.3993763026322341
1355, 1.3641989795487746
1355.9999999999998, 1.4850694888785085
1356.9999999999998, 1.6408318389214003
1358, 1.6525197023904639
1358.9999999999998, 1.4661869920083745
1359.9999999999998, 1.3108416311915647
1361, 1.366355489208388
1361.9999999999998, 1.5096146471885703
1362.9999999999998, 1.547582899300707
1364, 1.4147222298512219
1364.9999999999998, 1.320190771464226
1366, 1.3811211392065559
1366.9999999999998, 1.4498254427842596
1367.9999999999998, 1.5242029500738425
1369, 1.6035534514621332
1369.9999999999998, 1.5583452564852962
1370.9999999999998, 1.447020797893117
1372, 1.3675758521531662
1372.9999999999998, 1.3844077734173652
1373.9999999999998, 1.3986670084570818
1375, 1.4904191819177726
1375.9999999999998, 1.678345642812502
1377, 1.6353762359442214
1377.9999999999998, 1.4781480715220994
1378.9999999999998, 1.4048761184423455
1380, 1.4387061498775466
1380.9999999999998, 1.554137886028613
1381.9999999999998, 1.5662250432124978
1383, 1.425295963958746
1383.9999999999998, 1.4856606424540644
1384.9999999999998, 1.789776589814167
1386, 2.078894807731416
1386.9999999999998, 2.2339963283115907
1387.9999999999998, 2.263444648212385
1389, 2.292205581865275
1389.9999999999998, 2.0596329215724865
1391, 1.7083933016828041
1391.9999999999998, 1.5202750545365689
1392.9999999999998, 1.5299392537861678
1394, 1.7605275482680014
1394.9999999999998, 2.1772957571731695
1395.9999999999998, 2.2111190781129437
1397, 2.0981358427769266
1397.9999999999998, 1.9327874218007537
1398.9999999999998, 1.8803683625810663
1400, 1.962902677852199
