298.5, 29.010198927234313
299, 28.935428628450154
299.5, 28.933660053695633
300, 29.030522883746002
300.5, 29.0886643586461
301, 29.11649454797812
301.5, 29.15388761966591
302, 29.233629474786426
303, 29.35467351875836
303.5, 29.410604313540574
304, 29.478157918461108
304.5, 29.516072865756698
305, 29.547432825557053
305.5, 29.61078480494291
306, 29.672502333783584
306.5, 29.70509769471076
307, 29.727224565455543
307.5, 29.76021624037857
308, 29.818974108507703
308.5, 29.884845124218174
309, 29.933280098235883
309.5, 29.98342442387768
310, 30.048765980682106
310.5, 30.11209998126384
311, 30.175482273576577
311.5, 30.25821995349243
312, 30.33466601118407
312.5, 30.371755164345785
313, 30.399076680717116
313.5, 30.445464102109298
314, 30.508141390221425
314.5, 30.573408245852292
315, 30.62381428932875
315.5, 30.672032149789246
316, 30.736568733106708
316.5, 30.798116832391102
317, 30.844833226149746
317.5, 30.896598011081466
318, 30.9629698952059
318.5, 31.039694001062117
319, 31.121978394207915
319.5, 31.204584396974013
320, 31.280438692369344
320.5, 31.345542080963625
321, 31.402455498077387
321.5, 31.44960740765437
322, 31.48270206439355
322.5, 31.515373935844607
323, 31.56286001321874
323.5, 31.610584203254433
324, 31.654473879673432
324.5, 31.72295386868082
325, 31.80704784131528
325.5, 31.863984058532253
326, 31.909036251667715
326.5, 31.973729267999076
327, 32.034357004035456
327.5, 32.07876259104938
328, 32.14157463296979
328.5, 32.22592725790483
329, 32.30120887599996
329.5, 32.358837745439075
330, 32.40516435383044
330.5, 32.45815035068706
331, 32.524198523293094
331.5, 32.58356392544452
332, 32.64682790169843
332.5, 32.74996548760285
333, 32.86514720829166
333.5, 32.94896956790633
334, 33.026605026729015
334.5, 33.11221840671476
335, 33.168953759496176
335.5, 33.21291291407425
336, 33.30768580030272
336.5, 33.42746794807971
337, 33.51647476713866
337.5, 33.58405134435269
338, 33.64820756843241
338.5, 33.71255566341523
339, 33.77689937633326
339.5, 33.839608448942016
340, 33.905203270676196
340.5, 33.975255736326886
341, 34.02748768314828
341.5, 34.05642742971378
342, 34.098797872177954
342.5, 34.16711005492489
343, 34.24607591457803
343.5, 34.326973359065434
344, 34.40666417307341
344.5, 34.48842452051625
345, 34.570793484412974
345.5, 34.64104230758011
346, 34.703507317697685
346.5, 34.777921393710045
347, 34.86115312987266
347.5, 34.94169778919294
348, 35.02211040186651
348.5, 35.10358075897713
349, 35.17886938947419
349.5, 35.258811954168635
350, 35.36504469153377
350.5, 35.45135676300015
351, 35.47379931765772
351.5, 35.53301408373025
352, 35.672889591132005
352.5, 35.76648112343416
353, 35.80269940958665
353.5, 35.887151015634544
354, 35.98563851295711
354.5, 36.0284663904213
355, 36.094857799788144
355.5, 36.22966878389357
356, 36.34518656476254
356.5, 36.41777772436053
357, 36.49563719950821
357.5, 36.576041492523785
358, 36.63943949929724
358.5, 36.70765075448975
359, 36.79105939175862
359.5, 36.860417783520816
360, 36.92206833670962
360.5, 37.014188101191856
361, 37.110246710779265
361.5, 37.17191466263518
362, 37.2458018353079
362.5, 37.35038526494364
363, 37.41403446057179
363.5, 37.437990023442765
364, 37.49637145606249
364.5, 37.58829338289542
365, 37.68246299892175
365.5, 37.783723907299915
366, 37.89677676190319
366.5, 38.00954880867645
367, 38.121435555037905
367.5, 38.24361541621464
368, 38.37573864259077
368.5, 38.50929005656175
369, 38.627672052598236
369.5, 38.71391357450749
370, 38.75596938305429
370.5, 38.78391566429647
371, 38.85948494366358
371.5, 38.96592886672521
372, 39.06112139557661
372.5, 39.161989284665815
373, 39.27785485753793
373.5, 39.377051758049525
374, 39.45349751492672
374.5, 39.52918124270974
375, 39.61244751534822
375.5, 39.70456921028339
376, 39.80842941672113
376.5, 39.91151856974527
377, 39.97332821353771
377.5, 39.998826819777314
378, 40.038100694126804
378.5, 40.11862927431879
379, 40.23873879978055
379.5, 40.331788339279235
380, 40.383050721002036
380.5, 40.50122186282887
381, 40.674157163720444
381.5, 40.776841312072825
382, 40.84954789573521
382.5, 40.97908566446107
383, 41.097596370421336
383.5, 41.15824393551522
384, 41.22482177655845
384.5, 41.32666670100963
385, 41.44572504855537
385.5, 41.55232341402149
386, 41.62848766847143
386.5, 41.72079875378463
387, 41.85267586102002
387.5, 41.97482071522636
388, 42.066496594140844
388.5, 42.14360311667693
389, 42.22709553613988
389.5, 42.33352319678805
390, 42.45526229732918
390.5, 42.58315053331693
391, 42.71597571501739
391.5, 42.84450153085683
392, 42.952792957053155
392.5, 43.042320881063375
393, 43.12307016979148
393.5, 43.203350884630225
394, 43.295279922832094
394.5, 43.41795100514978
395, 43.56699720606848
395.5, 43.71638664859183
396, 43.85803279506126
396.5, 43.9917140585823
397, 44.110776800057906
397.5, 44.21987643736273
398, 44.34632806010633
398.5, 44.4772925048278
399, 44.566954160150615
399.5, 44.64489449793336
400, 44.75745503828
400.5, 44.86501298451369
401, 44.9422558551168
401.5, 45.029285848454684
402, 45.12880542892276
402.5, 45.206956836892736
403, 45.29161746974511
403.5, 45.414868754115965
404, 45.50099229401978
404.5, 45.532955920978175
405, 45.64780036884198
405.5, 45.82323282618875
406, 45.89079436794423
406.5, 45.909696749788594
407, 46.0097764482726
407.5, 46.135714243421624
408, 46.24138490995214
408.5, 46.38136015648707
409, 46.54833083073956
409.5, 46.674109807194924
410, 46.78177442763072
410.5, 46.92226813058111
411, 47.07044930330748
411.5, 47.19997983228114
412, 47.31756052975258
412.5, 47.429207451202785
413, 47.53758797714185
413.5, 47.65332739220223
414, 47.783664300573584
414.5, 47.90685209622807
415, 48.01569291997201
415.5, 48.141940453633
416, 48.273141128105685
416.5, 48.35972867848257
417, 48.44036340401922
417.5, 48.57527579281876
418, 48.732223325318046
418.5, 48.87719551992299
419, 49.015283513321016
419.5, 49.142960416537015
420, 49.247023682446006
420.5, 49.33992781845143
421, 49.4443302086872
421.5, 49.57128735322248
422, 49.717509768726764
422.5, 49.85931132117721
423, 50.00285740081649
423.5, 50.17598302359611
424, 50.32397973462122
424.5, 50.38871479833162
425, 50.4622147077727
425.5, 50.607983807373245
426, 50.76746405929388
426.5, 50.90916583704105
427, 51.04329064885634
427.5, 51.19611596763303
428, 51.38685859697885
428.5, 51.57922374648798
429, 51.742352245667455
429.5, 51.88220872619805
430, 52.02597377687129
430.5, 52.20985988398062
431, 52.4050838058363
431.5, 52.562972793242444
432, 52.68588292831422
432.5, 52.80522063548032
433, 52.97970546397584
433.5, 53.17985560194171
434, 53.303560625091144
434.5, 53.38836824560066
435, 53.51911703386833
435.5, 53.68484200979176
436, 53.85079837504521
436.5, 53.984184738326704
437, 54.108961261591794
437.5, 54.2888428111494
438, 54.456845994652745
438.5, 54.52626996662168
439, 54.59249106445839
439.5, 54.72402419191983
440, 54.85654188003428
440.5, 54.964601942598314
441, 55.07297595501588
441.5, 55.18779680378907
442, 55.3088622919011
442.5, 55.451656031651815
443, 55.60540704727304
443.5, 55.70652688811289
444, 55.77918573790869
444.5, 55.92176833997899
445, 56.08764053543345
445.5, 56.196234384524175
446, 56.3241307890918
446.5, 56.500104200866396
447, 56.59688894429234
447.5, 56.630729848062806
448, 56.75074472534854
448.5, 56.90273912313898
449, 56.979711076485344
449.5, 57.076997798833844
450, 57.247873363572936
450.5, 57.377491022571554
451, 57.44632696893397
451.5, 57.537516834721714
452, 57.661975780308275
452.5, 57.793999086083794
453, 57.91511358678063
453.5, 58.014135720295876
454, 58.09126477369241
454.5, 58.17044796862185
455, 58.2874035676557
455.5, 58.39232168635244
456, 58.42640165879706
456.5, 58.46334755938519
457, 58.548822958252074
457.5, 58.61740956978238
458, 58.66004423413222
458.5, 58.73010008638336
459, 58.8427778676415
459.5, 58.98697772149914
460, 59.12915357279846
460.5, 59.244366220389914
461, 59.33458488494593
461.5, 59.41265164687427
462, 59.49576076448067
462.5, 59.57308350541312
463, 59.626777721312436
463.5, 59.66660215919941
464, 59.690310946106415
464.5, 59.66444177983618
465, 59.64455874231823
465.5, 59.752611640535044
466, 59.91104912675761
466.5, 59.98838507746291
467, 60.03749021273616
467.5, 60.1066251573895
468, 60.153680428706565
468.5, 60.19863073672713
469, 60.31571047356798
469.5, 60.44489500524675
470, 60.49836596634079
470.5, 60.54570503622553
471, 60.63268482109914
471.5, 60.69041789650832
472, 60.69825685151095
472.5, 60.69543407270167
473, 60.72571051754568
473.5, 60.81529438796127
474, 60.918607394982324
474.5, 60.99925478327245
475, 61.071051438174926
475.5, 61.15218529545879
476, 61.25664302195924
476.5, 61.37288765521775
477, 61.483856038604266
477.5, 61.600345700705184
478, 61.73975603511446
478.5, 61.91688673270394
479, 62.09656164303216
479.5, 62.20214825121252
480, 62.21476197071899
480.5, 62.16133666153945
481, 62.13023677945482
481.5, 62.1654074385281
482, 62.20267085244561
482.5, 62.249158910535556
483, 62.37712550771959
483.5, 62.52559380550272
484, 62.59616288828791
484.5, 62.60926540099368
485, 62.60688132252989
485.5, 62.616586314448284
486, 62.65227150564097
486.5, 62.71348016903806
487, 62.777959603682696
487.5, 62.81925060119706
488, 62.835580581950765
488.5, 62.81443509479682
489, 62.7147983775391
489.5, 62.55982541836546
490, 62.43369665212585
490.5, 62.38372624799565
491, 62.414341331930295
491.5, 62.44075698897432
492, 62.398112407907725
492.5, 62.3004353885333
493, 62.18399428426187
493.5, 62.09212734526805
494, 62.01741975163493
494.5, 61.92515179963923
495, 61.77421779175927
495.5, 61.56146564375378
496, 61.35520063231594
496.5, 61.166674811454776
497, 60.95109272389414
497.5, 60.722556469725816
498, 60.51276821435208
498.5, 60.30317716727909
499, 60.07804379220101
499.50000000000006, 59.84957823097106
500, 59.625290009974194
500.5, 59.40408171595005
501.00000000000006, 59.176106566112665
501.5, 58.93409869250053
502, 58.696848030267844
502.5, 58.4735622662587
503, 58.24421460751618
503.5, 58.001049586178986
504, 57.750260266148736
504.5, 57.48887926407216
505.00000000000006, 57.21448378965988
505.5, 56.945419828336505
506, 56.68995731412641
506.5, 56.42857936544453
507, 56.15330762039894
507.5, 55.86960048771911
508, 55.576780241392946
508.5, 55.273134922521
509.00000000000006, 54.965837299467985
509.5, 54.6605713918539
510, 54.35617116161697
510.50000000000006, 54.05085103827022
511, 53.7437079823959
511.5, 53.44011227368129
512, 53.1469237183842
512.5, 52.86470875150431
513, 52.59128517528007
513.5, 52.32201069450546
514, 52.048674582573646
514.5, 51.76214386319833
515, 51.472298262977375
515.5, 51.19459323563654
516, 50.92926917201321
516.5, 50.67213849866713
517, 50.41762994547653
517.5, 50.16034038139339
518, 49.89747621457137
518.5, 49.64545866297016
519, 49.41951374293114
519.5, 49.193640609338345
520, 48.95136551917866
520.5, 48.71238781029177
521, 48.4897145311832
521.5, 48.28336000211403
522, 48.07122658751565
522.5, 47.8376650326183
523, 47.6329776769743
523.5, 47.47713218964892
524, 47.3066524128673
524.5, 47.125905438538574
525, 47.001074782427445
525.5, 46.89158820195176
526, 46.72711392612962
526.5, 46.53275079603614
527, 46.350309839092496
527.5, 46.207466634985884
528, 46.08362224500665
528.5, 45.9217615821263
529, 45.738370955485465
529.5, 45.579472218179845
530, 45.46055488328501
530.5, 45.3689301970749
531, 45.255440100400946
531.5, 45.122366686907995
532, 45.01777280167699
532.5, 44.9239636377241
533, 44.80232251511009
533.5, 44.663539306737135
534, 44.53075916720968
534.5, 44.426308266449965
535, 44.33319839223067
535.5, 44.20616971577725
536, 44.08061436397882
536.5, 44.009021162952976
537, 43.953031631814824
537.5, 43.884925565779824
538, 43.83642042256177
538.5, 43.80828947147728
539, 43.768663626312694
539.5, 43.71571059620936
540, 43.65761619976479
540.5, 43.58111080913682
541, 43.48316213657314
541.5, 43.38897278007846
542, 43.31107352879564
542.5, 43.2457796812775
543, 43.181363668973944
543.5, 43.11093053717397
544, 43.06022324381789
544.5, 43.054068631447024
545, 43.097918403366535
545.5, 43.13232830311218
546, 43.05629208091397
546.5, 42.92779772149012
547, 42.85152180299181
547.5, 42.8043405699779
548, 42.76509653980787
548.5, 42.77153132955562
549, 42.81033575638388
549.5, 42.81900750328937
550, 42.78808409121208
550.5, 42.73217047032733
551, 42.65321987735372
551.5, 42.56671240709121
552, 42.51651730099945
552.5, 42.489899037900344
553, 42.42787581084725
553.5, 42.3665266682225
554, 42.373093703152364
554.5, 42.4490942549604
555, 42.56551456896075
555.5, 42.665051186837005
556, 42.67064576809721
556.5, 42.51666330338515
557, 42.36617994242322
557.5, 42.41339008463454
558, 42.53673594962515
558.5, 42.60671706128235
559, 42.622338831893636
559.5, 42.61798836034859
560, 42.64341707294495
560.5, 42.70538013763587
561, 42.78687318667235
561.5, 42.86311674541315
562, 42.92522365802532
562.5, 42.99567115811527
563, 43.060810759443356
563.5, 43.07710709400341
564, 43.069826621266806
564.5, 43.08329679536288
565, 43.101842831151934
565.5, 43.13548386026148
566, 43.263826000001686
566.5, 43.453796971528746
567, 43.571086523605935
567.5, 43.60408819438466
568, 43.596933017180405
568.5, 43.56594066472524
569, 43.529300705845046
569.5, 43.519932781412216
570, 43.5411593018342
570.5, 43.56916310444503
571, 43.60459046682172
571.5, 43.654001343535086
572, 43.69801420255897
572.5, 43.71767883547074
573, 43.70840136885463
573.5, 43.70730542999978
574, 43.77595708406672
574.5, 43.85771865996078
575, 43.86961121925073
575.5, 43.85419215982817
576, 43.854512310359866
576.5, 43.85854768775543
577, 43.85779910653815
577.5, 43.853978190142406
578, 43.85715615549569
578.5, 43.874411841919624
579, 43.88642262613837
579.5, 43.88446180624388
580, 43.89047849917045
580.5, 43.90881175381772
581, 43.92544833086163
581.5, 43.94161083922922
582, 43.966837050138686
582.5, 44.012039554389716
583, 44.07725260336499
583.5, 44.14180886620248
584, 44.187707561021774
584.5, 44.20595868958665
585, 44.22291991271657
585.5, 44.268333261590406
586, 44.31863717573427
586.5, 44.351835600176095
587, 44.37269468550633
587.5, 44.38782195878619
588, 44.404836138017004
588.5, 44.44837990502728
589, 44.52718721953622
589.5, 44.55779605498974
590, 44.5252939699037
590.5, 44.57542395726721
591, 44.686725354631086
591.5, 44.68364732856205
592, 44.586373227460356
592.5, 44.49527066780193
593, 44.434509054454516
593.5, 44.4018712002498
594, 44.38075737110838
594.5, 44.36524579066671
595, 44.35791880685276
595.5, 44.33425395357425
596, 44.27186590754258
596.5, 44.208211619259025
597, 44.1637361242036
597.5, 44.10282436401686
598, 44.03581620671649
598.5, 44.015022128018366
599, 44.02583639456224
599.5, 44.018374615781475
600, 43.938217160216404
600.5, 43.77532735832012
601, 43.60187074454059
601.5, 43.444494247899684
602, 43.281450909464255
602.5, 43.123794504784534
603, 42.990913882217164
603.5, 42.86838958269003
604, 42.74072800642414
604.5, 42.60544945626622
605, 42.459504260116745
605.5, 42.29988089057422
606, 42.13968235838987
606.5, 41.993412002339674
607, 41.850574712281315
607.5, 41.704542764847176
608, 41.56658093403468
608.5, 41.4398732061445
609, 41.31711697845639
609.5, 41.18395494874232
610, 41.033875641471354
610.5, 40.902455797991266
611, 40.79690313176641
611.5, 40.65640809367248
612, 40.48943496499362
612.5, 40.36599430934296
613, 40.256432665466676
613.5, 40.10299300916467
614, 39.93327515321544
614.5, 39.78416551389662
615, 39.67052716192462
615.5, 39.578334775835344
616, 39.470398572385186
616.5, 39.32814026276213
617, 39.15197241990908
617.5, 38.977608182921166
618, 38.820725693250196
618.5, 38.64650182218335
619, 38.467126882251634
619.5, 38.336134241493845
620, 38.2325452572225
620.5, 38.11585740413849
621, 38.014291198596005
621.5, 37.93890581778795
622, 37.84095493080584
622.5, 37.72390340942641
623, 37.64060804671068
623.5, 37.586881093917
624, 37.53129368532578
624.5, 37.449977800233235
625, 37.347683438078256
625.5, 37.27551770556071
626, 37.2157298442566
626.5, 37.095144047182025
627, 36.967681386695766
627.5, 36.902315350454735
628, 36.78333936811893
628.5, 36.57227345163314
629, 36.447328631003344
629.5, 36.41835775590047
630, 36.334601153732734
630.5, 36.23727632572701
631, 36.213661048891495
631.5, 36.154586620035815
632, 36.011980761975195
632.5, 35.92947938827493
633, 35.876117873288464
633.5, 35.67169004811963
634, 35.44877627714587
634.5, 35.40897742859316
635, 35.41901386504918
635.5, 35.366088205905896
636, 35.32037590980721
636.5, 35.29297934949034
637, 35.2280073993103
637.5, 35.14044656405032
638, 35.070399294351134
638.5, 35.015426620874706
639, 34.95627715070259
639.5, 34.86326168284059
640, 34.745879012564615
640.5, 34.64798771723051
641, 34.578567395676046
641.5, 34.53340380414035
642, 34.52582894531848
642.5, 34.547276816272756
643, 34.54237320460865
643.5, 34.4864603358219
644, 34.38979953954086
644.5, 34.268120432129365
645, 34.13820079631117
645.5, 34.01333038152157
646, 33.9211981801937
646.5, 33.91360296581746
647, 33.956447502768384
647.5, 33.94617654213573
648, 33.904315229244006
648.5, 33.89551745077367
649, 33.90896174273263
649.5, 33.91454324995695
650, 33.881351718177086
650.5, 33.81075242435975
651, 33.73209065625382
651.5, 33.65032481434541
652, 33.558681023640645
652.5, 33.453604230029626
653, 33.339490272771656
653.5, 33.23407494223379
654, 33.15730901824797
654.5, 33.12774971251176
655, 33.14646407765541
655.5, 33.19789575048328
656, 33.236035335599595
656.5, 33.21493766260562
657, 33.105514014775906
657.5, 32.95132231290032
658, 32.85166296291891
658.5, 32.80784373080772
659, 32.783173389919924
659.5, 32.7837067163031
660, 32.8043034976798
660.5, 32.80249045448241
661, 32.7821648309434
661.5, 32.78600089845449
662, 32.779672338110984
662.5, 32.71182740761974
663, 32.613038228065136
663.5, 32.526842216861084
664, 32.48368262540633
664.5, 32.491391588645726
665, 32.53308983136364
665.5, 32.5551951640974
666, 32.512800398513775
666.5, 32.460163889659384
667, 32.4426988567447
667.5, 32.44643992379807
668, 32.46429741818095
668.5, 32.49882426230714
669, 32.527531321182565
669.5, 32.51750485571836
670, 32.4439743977224
670.5, 32.312823458277165
671, 32.1805287743973
671.5, 32.05434607542776
672, 31.90204356841764
672.5, 31.795525285755645
673, 31.813099254684587
673.5, 31.861204784537506
674, 31.872471249112863
674.5, 31.901506207107275
675, 31.972486230377314
675.5, 32.06501717112425
676, 32.13441141044335
676.5, 32.14419671876914
677, 32.13071803752149
677.5, 32.12933608074971
678, 32.14209347978189
678.5, 32.17690730640736
679, 32.244367725709594
679.5, 32.302959989408095
680, 32.30294413168939
680.5, 32.260498696704445
681, 32.20834617602054
681.5, 32.17978847876056
682, 32.18508398405929
682.5, 32.20980443406225
683, 32.21773854267565
683.5, 32.18347224632919
684, 32.16066357444029
684.5, 32.179534216101956
685, 32.19421912539232
685.5, 32.19075888813178
686, 32.19279498248997
686.5, 32.218819276675006
687, 32.27163325182684
687.5, 32.30715554986082
688, 32.28364628309964
688.5, 32.18639750138897
689, 32.05002819568561
689.5, 31.95028341499355
690, 31.937681438808667
690.5, 32.02468325310436
691, 32.130007157700746
691.5, 32.184288051136946
692, 32.182021020719986
692.5, 32.14363112703063
693, 32.10713096466708
693.5, 32.10606732205892
694, 32.1538363844918
694.5, 32.19775274519506
695, 32.22057788658856
695.5, 32.29453676592237
696, 32.39884537092969
696.5, 32.43300499251055
697, 32.44365456433073
697.5, 32.51066469802424
698, 32.56171951917918
698.5, 32.54486108609845
699, 32.5104315536404
699.5, 32.47948507345498
700, 32.44408765687007
700.5, 32.472861352340544
701, 32.62038580398362
701.5, 32.74542534671339
702, 32.75905987839897
702.5, 32.750852322565976
703, 32.75391048524034
703.5, 32.73402758754321
704, 32.69517057227267
704.5, 32.658582060092584
705, 32.63520054667919
705.5, 32.632310964226804
706, 32.65423544593014
706.5, 32.6889779105222
707, 32.712303719938916
707.5, 32.72426560233731
708, 32.73670279312516
708.5, 32.75996124831252
709, 32.7832617008645
709.5, 32.76055661150795
710, 32.70548746402501
710.5, 32.6839911714235
711, 32.696308922110774
711.5, 32.71412126430616
712, 32.726585753027166
712.5, 32.73874872100198
713, 32.775514200287404
713.5, 32.82717692453785
714, 32.85232871017733
714.5, 32.83577781640929
715, 32.78540401864983
715.5, 32.745166903668434
716, 32.7435496445044
716.5, 32.76527442146485
717, 32.799177956874814
717.5, 32.84259398243752
718, 32.89382995524207
718.5, 32.94758570003424
719, 32.98397334722601
719.5, 32.99806533587909
720, 33.01705501478898
720.5, 33.03409824705676
721, 33.013659755870634
721.5, 32.97649439688223
722, 32.963711538302306
722.5, 32.987209470549885
723, 33.03776701955286
723.5, 33.081402798560674
724.0000000000001, 33.1107853440121
724.5, 33.1459700881916
725, 33.203463010851465
725.5, 33.286644301242546
726, 33.35830133076101
726.5000000000001, 33.40299944032293
727, 33.46065393756868
727.5, 33.527813279756444
728, 33.560651187416426
728.5, 33.56757862501402
729, 33.57841158465314
729.5, 33.60443309001434
730, 33.639860525415685
730.5, 33.65691710663947
731, 33.653143629623315
731.5, 33.65015831262619
732.0000000000001, 33.65185595182902
732.5, 33.65884273195803
733, 33.693427083161595
733.5, 33.75998877257972
734, 33.82113578646998
734.5000000000001, 33.84864789517236
735, 33.83136507097713
735.5, 33.79158735318195
736, 33.758507564390186
736.5, 33.72724371729636
737, 33.70416413513803
737.5000000000001, 33.72976864347498
738, 33.819937599624865
738.5, 33.95755002863328
739, 34.075127512017104
739.5, 34.11433665121322
740.0000000000001, 34.14067750889248
740.5, 34.19480779829732
741, 34.22103454518131
741.5, 34.21461823900347
742, 34.22273307552153
742.5, 34.242532857846555
743.0000000000001, 34.261042611217164
743.5, 34.32210550188168
744, 34.428275910420794
744.5, 34.48559661442681
745, 34.473545390625446
745.5000000000001, 34.445454338130716
746, 34.40995525846154
746.5, 34.371216501581856
747, 34.40299871134705
747.5, 34.51267857928619
748, 34.561943047763876
748.5, 34.53074883099387
749, 34.515062986176616
749.5, 34.523507273786606
750, 34.5323198201296
750.5, 34.56410870281108
751.0000000000001, 34.629547230699615
751.5, 34.69845786466425
752, 34.76134144302108
752.5, 34.8270303876494
753, 34.86068255052645
753.5000000000001, 34.83100864030301
754, 34.800850525562325
754.5, 34.81617354434003
755, 34.85323216113582
755.5, 34.92058269176637
756, 35.05365536965728
756.5000000000001, 35.200679122312835
757, 35.29247115696798
757.5, 35.3556061802181
758, 35.420424607034505
758.5, 35.48332313177809
759.0000000000001, 35.54738665626439
759.5, 35.62102364515093
760, 35.67667079353856
760.5, 35.6902430525637
761, 35.71632042345978
761.5, 35.783995855812876
762.0000000000001, 35.84482602787082
762.5, 35.90726237527211
763, 36.028069561223205
763.5, 36.15601679154186
764, 36.21645287691594
764.5000000000001, 36.247116094295265
765, 36.28206352144457
765.5, 36.30180009830346
766, 36.31581502526305
766.5, 36.36152687932673
767.0000000000001, 36.436839699185754
767.5000000000001, 36.52606417254803
768, 36.63646335614672
768.5, 36.76683673865284
769, 36.890733217490215
769.5, 36.98294778227233
770.0000000000001, 37.03002375781317
770.5, 37.08347140777308
771, 37.200868573737694
771.5, 37.34509157404886
772, 37.46509545845486
772.5000000000001, 37.526783996963815
773, 37.53370045206459
773.5, 37.523181903891924
774, 37.53212787003099
774.5, 37.59120519841772
775, 37.71062113479766
775.5000000000001, 37.864025748882426
776, 37.97074633622919
776.5, 38.02515181661549
777, 38.08894348838694
777.5, 38.15097549446077
778.0000000000001, 38.18180115323545
778.5, 38.22052396193981
779, 38.298669781007284
779.5, 38.403537647980535
780, 38.50000612927882
780.5, 38.543103568680316
781.0000000000001, 38.54335985272265
781.5, 38.536534266726285
782, 38.55115970105455
782.5, 38.60915525636955
783, 38.72143164130028
783.5000000000001, 38.85506505944313
784, 38.945198753683655
784.5, 38.99427302456143
785, 39.03057275503122
785.5, 39.0546470116849
786.0000000000001, 39.069047465047
786.5000000000001, 39.09198642971562
787, 39.143975503171156
787.5, 39.238899253065284
788, 39.33228805324571
788.5, 39.367740902594385
789.0000000000001, 39.3500336433681
789.5000000000001, 39.332987485932605
790.0000000000001, 39.42623016743686
790.5, 39.58613805524256
791, 39.64457296083288
791.5000000000001, 39.64021168078744
792.0000000000001, 39.69089094657017
792.5000000000001, 39.826026035807786
793, 40.01309007595405
793.5, 40.14662375973613
794, 40.16135391342361
794.5000000000001, 40.04690511737083
795.0000000000001, 39.87118518242395
795.5, 39.72664351126142
796, 39.65903031666059
796.5, 39.66315339709859
797.0000000000001, 39.663836772053756
797.5000000000001, 39.64321690081547
798.0000000000001, 39.63858107202128
798.5, 39.63981768502496
799, 39.61273520197766
799.5000000000001, 39.52341726104121
800.0000000000001, 39.38531079736525
800.5000000000001, 39.294347447184364
801, 39.274447038010976
801.5, 39.28361699569155
802, 39.36203306861542
802.5000000000001, 39.54497380052075
803.0000000000001, 39.69714981446933
803.5000000000001, 39.74120053774268
804, 39.772826989277995
804.5, 39.79004045053105
805.0000000000001, 39.699484207243074
805.5000000000001, 39.55250300743287
806.0000000000001, 39.45007712149546
806.5, 39.41029786579706
807, 39.424206769749226
807.5, 39.46736371230857
808.0000000000001, 39.48133243634338
808.5000000000001, 39.39431413616886
809.0000000000001, 39.272248596608165
809.5, 39.223796856265494
810, 39.26680892077328
810.5000000000001, 39.3586780033514
811.0000000000001, 39.38856562451162
811.5000000000001, 39.30697860334623
812, 39.1366323400475
812.5, 38.9619539861854
813, 38.85911778296385
813.5000000000001, 38.76786793755175
814.0000000000001, 38.6600825736037
814.5, 38.61906875531396
815, 38.63019005732005
815.5, 38.59019472195074
816.0000000000001, 38.5137692353154
816.5000000000001, 38.45277652916275
817.0000000000001, 38.37894331567779
817.5, 38.267750823526676
818, 38.13664364113056
818.5000000000001, 38.0257835225871
819.0000000000001, 37.985564359966446
819.5000000000001, 38.010492097885155
820, 38.05309495862068
820.5, 38.01175208066322
821, 37.848514677675276
821.5000000000001, 37.661686250059034
822.0000000000001, 37.50603950407267
822.5000000000001, 37.38317141338261
823, 37.3053670573348
823.5, 37.28054950186715
824.0000000000001, 37.27731355709426
824.5000000000001, 37.24295437319059
825.0000000000001, 37.10832463042578
825.5, 36.91924701738318
826, 36.80740198510405
826.5, 36.712922994409396
827.0000000000001, 36.529476369846535
827.5000000000001, 36.3278812336935
828.0000000000001, 36.168298934573755
828.5, 36.01722634968267
829, 35.85466770065564
829.5000000000001, 35.68504879155029
830.0000000000001, 35.532169569961155
830.5000000000001, 35.41578190700163
831, 35.30757797847396
831.5, 35.181151901388546
832.0000000000001, 35.03415185150119
832.5000000000001, 34.87086093993014
833.0000000000001, 34.698650084085614
833.5000000000001, 34.518857964836656
834, 34.341120255128004
834.5, 34.21636740571802
835.0000000000001, 34.14603762255129
835.5000000000001, 34.029013037799714
836.0000000000001, 33.85754774435408
836.5, 33.71428383276121
837, 33.62198771273704
837.5000000000001, 33.563104812568994
838.0000000000001, 33.484173089227866
838.5000000000001, 33.34540078090231
839, 33.14795587461734
839.5, 32.916926512568054
840, 32.693009551476536
840.5000000000001, 32.49465196186861
841.0000000000001, 32.32603303425272
841.5000000000001, 32.17946298810591
842, 32.05964798884614
842.5, 31.994870274449497
843.0000000000001, 31.934633776913117
843.5000000000001, 31.775105751619634
844.0000000000001, 31.596220097954614
844.5, 31.511717636635893
845, 31.42872615828351
845.5, 31.291140394638674
846.0000000000001, 31.19296102312137
846.5000000000001, 31.155829724410765
847.0000000000001, 31.117363825368088
847.5, 31.004849376330185
848, 30.788185288634025
848.5000000000001, 30.606971487279026
849.0000000000001, 30.523073665516804
849.5000000000001, 30.392794406200025
850, 30.203343527200374
850.5, 30.070641295748317
851.0000000000001, 29.9954246988585
851.5000000000001, 29.936341637743254
852.0000000000001, 29.910610010553782
852.5000000000001, 29.927046036393023
853, 29.954069781412173
853.5, 29.95054152387101
854.0000000000001, 29.881296438897337
854.5000000000001, 29.798793708804595
855.0000000000001, 29.766004578886623
855.5, 29.729157062095325
856, 29.658809081811967
856.5000000000001, 29.615898243523702
857.0000000000001, 29.606471952479268
857.5000000000001, 29.582512662016427
858, 29.546407602940178
858.5, 29.516719681832598
859, 29.47840876277597
859.5000000000001, 29.427199951960347
860.0000000000001, 29.389922472626367
860.5000000000001, 29.342163655892193
861, 29.226031094134854
861.5, 29.12437195810871
862.0000000000001, 29.139663540468433
862.5000000000001, 29.19414160192879
863.0000000000001, 29.223333409502388
863.5, 29.259495493566604
864, 29.274945721204944
864.5, 29.195132270100558
865.0000000000001, 29.09587425741654
865.5000000000001, 29.082709538980964
866.0000000000001, 29.100252433968734
866.5, 29.098133686092424
867, 29.10177452426599
867.5000000000001, 29.120560239351704
868.0000000000001, 29.14160957740475
868.5000000000001, 29.153775162001637
869, 29.152921491611224
869.5, 29.1561374253954
870.0000000000001, 29.172845550738515
870.5000000000001, 29.190254794316076
871.0000000000001, 29.20575303814759
871.5000000000001, 29.22843792947367
872, 29.267389831204326
872.5, 29.32177297697227
873.0000000000001, 29.354962154272854
873.5000000000001, 29.33113307016913
874.0000000000001, 29.234927473581394
874.5, 29.134196699512103
875, 29.148990105581177
875.5000000000001, 29.210746047612645
876.0000000000001, 29.209492574484116
876.5000000000001, 29.220310422919027
877, 29.2691815547784
877.5, 29.223855453530035
878, 29.112104181268393
878.5000000000001, 29.10621364707788
879.0000000000001, 29.213486961313407
879.5000000000001, 29.3568944371045
880, 29.45128245505819
880.5, 29.465183960589243
881.0000000000001, 29.465468770007888
881.5000000000001, 29.484899497680715
882.0000000000001, 29.512412355052092
882.5, 29.5187134394034
883, 29.485037885383164
883.5000000000001, 29.4606202942541
884.0000000000001, 29.47699340640773
884.5000000000001, 29.50552242518846
885.0000000000001, 29.51977608578204
885.5, 29.501339716756604
886, 29.432170701000757
886.5000000000001, 29.31941559833774
887.0000000000001, 29.262479223061035
887.5000000000001, 29.311614461930944
888, 29.390604396315453
888.5, 29.43421440509043
889.0000000000001, 29.408562154645495
889.5000000000001, 29.34901525636721
890.0000000000001, 29.309325792536285
890.5000000000001, 29.29038653487268
891, 29.27693727157518
891.5, 29.247270208729276
892.0000000000001, 29.191424469501314
892.5000000000001, 29.116152700251817
893.0000000000001, 29.068993646458736
893.5, 29.097654732637864
894, 29.17931573793581
894.5000000000001, 29.27816239062149
895.0000000000001, 29.36428965193457
895.5000000000001, 29.406555764550916
896.0000000000001, 29.37738918291069
896.5, 29.29149112905621
897, 29.203539327426896
897.5000000000001, 29.239490714583184
898.0000000000001, 29.38440259958783
898.5000000000001, 29.356073744672173
899, 29.197526842595664
899.5, 29.233814517778313
900.0000000000001, 29.411216279192544
900.5000000000001, 29.529512428988838
901.0000000000001, 29.537911524517867
901.5, 29.465659281275464
902, 29.41896795838602
902.5000000000001, 29.411188123054544
903.0000000000001, 29.372579361197424
903.5000000000001, 29.321321142230275
904.0000000000001, 29.306927400542833
904.5, 29.333268175736762
905, 29.38391061333209
905.5000000000001, 29.42708028814728
906.0000000000001, 29.474481504927596
906.5000000000001, 29.573443268033486
907, 29.720285984624084
907.5, 29.879585070012013
908.0000000000001, 29.991783358181465
908.5000000000001, 30.026635062835723
909.0000000000001, 30.015208505448598
909.5000000000001, 29.961357646440277
910, 29.84810538026744
910.5, 29.742183576370252
911.0000000000001, 29.721504632912968
911.5000000000001, 29.756087688079305
912.0000000000001, 29.80497563848158
912.5, 29.853042096779717
913, 29.900845428489177
913.5000000000001, 29.964357494556026
914.0000000000001, 30.085980017356817
914.5000000000001, 30.274235249039833
915.0000000000001, 30.36844523886643
915.5, 30.28630639536121
916.0000000000001, 30.155411270279558
916.5000000000001, 30.08280049992105
917.0000000000001, 30.12519414198475
917.5000000000001, 30.25418649263152
918, 30.400342870102605
918.5, 30.49052291649015
919.0000000000001, 30.514156765875555
919.5000000000001, 30.569692520606935
920.0000000000001, 30.657826220164196
920.5, 30.68958917624049
921, 30.67106393877029
921.5000000000001, 30.64890308619829
922.0000000000001, 30.645581930812853
922.5000000000001, 30.67389971497016
923.0000000000001, 30.739129811417143
923.5, 30.841275008253987
924, 30.972544114367977
924.5000000000001, 31.096377517160448
925.0000000000001, 31.163291846727446
925.5000000000001, 31.127154079257735
926, 31.015417598356052
926.5, 30.980773583708967
927.0000000000001, 31.06560574943198
927.5000000000001, 31.19893174424662
928.0000000000001, 31.321189443343968
928.5000000000001, 31.39581911689747
929, 31.44302614746225
929.5, 31.47860593815227
930.0000000000001, 31.488381337022716
930.5000000000001, 31.485362537079197
931.0000000000001, 31.505616957220212
931.5, 31.54441993858397
932, 31.586166527646526
932.5000000000001, 31.64824415959174
933.0000000000001, 31.73226840234888
933.5000000000001, 31.80026954972392
934.0000000000001, 31.86202460987262
934.5, 31.9631306462432
935.0000000000001, 32.05072101480158
935.5000000000001, 32.07047794373152
936.0000000000001, 32.13694275889772
936.5000000000001, 32.294651221631156
937, 32.399198170807765
937.5, 32.433152443851014
938.0000000000001, 32.500380383668556
938.5000000000001, 32.58547938472931
939.0000000000001, 32.64204394894102
939.5, 32.72645423388032
940, 32.85088604125065
940.5000000000001, 32.91133743108894
941.0000000000001, 32.91540522601379
941.5000000000001, 32.968012245722534
942.0000000000001, 33.03445914417475
942.5, 33.05382502918843
943, 33.11930580086266
943.5000000000001, 33.2722454644382
944.0000000000001, 33.40203832260116
944.5000000000001, 33.48958166278014
945, 33.602890470285516
945.5, 33.7102864690801
946.0000000000001, 33.760564285951105
946.5000000000001, 33.81070823716993
947.0000000000001, 33.88441162619233
947.5000000000001, 33.906017069082395
948, 33.89823571797069
948.5000000000001, 33.96686019356589
949.0000000000001, 34.0762633493558
949.5000000000001, 34.15390935610472
950.0000000000001, 34.2445119768377
950.5, 34.37633547942417
951, 34.502504209231105
951.5000000000001, 34.62944386153957
952.0000000000001, 34.80677478139506
952.5000000000001, 34.97694334849312
953.0000000000001, 35.06107031967912
953.5, 35.09234959784246
954.0000000000001, 35.12034448451516
954.5000000000001, 35.176323623099776
955.0000000000001, 35.26187857744321
955.5000000000001, 35.355276386013855
956, 35.454075202253875
956.5, 35.56347367618443
957.0000000000001, 35.68157044519948
957.5000000000001, 35.81912268888216
958.0000000000001, 36.008644018719366
958.5, 36.20550948921644
959, 36.30857262317818
959.5000000000001, 36.35204906762044
960.0000000000001, 36.41253607466807
960.5000000000001, 36.481886900616956
961.0000000000001, 36.545410391863115
961.5, 36.612596811599744
962, 36.71305655159598
962.5000000000001, 36.87602543810762
963.0000000000001, 36.9987884322349
963.5000000000001, 36.99515318385906
964, 37.06790249796157
964.5, 37.309287675192046
965.0000000000001, 37.50504822832779
965.5000000000001, 37.63405281802884
966.0000000000001, 37.850019954026536
966.5000000000001, 38.04047324149479
967, 38.04534903950141
967.5000000000001, 38.00530169473498
968.0000000000001, 38.048645704005395
968.5000000000001, 38.15718154925429
969.0000000000001, 38.29054599821067
969.5, 38.41068759747721
970, 38.54846683113832
970.5000000000001, 38.73521044879688
971.0000000000001, 38.884786133358325
971.5000000000001, 38.95859938668027
972.0000000000001, 39.048125922596014
972.5, 39.18519249836712
973.0000000000001, 39.33528567741691
973.5000000000001, 39.47513561780505
974.0000000000001, 39.59880659423103
974.5000000000001, 39.73960899133137
975, 39.91632359005968
975.5, 40.10481339523047
976.0000000000001, 40.261855765301654
976.5000000000001, 40.338063223597075
977.0000000000001, 40.342242782616125
977.5000000000001, 40.322347179286915
978, 40.36728723136458
978.5000000000001, 40.52396091208994
979.0000000000001, 40.746786991926164
979.5000000000001, 40.973786379142375
980.0000000000001, 41.14320384495167
980.5, 41.24462293630327
981.0000000000001, 41.29737628629366
981.5000000000001, 41.340508085862
982.0000000000001, 41.43513894951649
982.5000000000001, 41.66567960611687
983, 41.95342383978439
983.5, 42.100187156008445
984.0000000000001, 42.17317235550075
984.5000000000001, 42.312834131765506
985.0000000000001, 42.4589354588937
985.5000000000001, 42.55510287134424
986, 42.633386136603626
986.5000000000001, 42.71421127671536
987.0000000000001, 42.800157180042596
987.5000000000001, 42.904748949292554
988.0000000000001, 43.029584152745
988.5, 43.11326291221359
989, 43.149225550127305
989.5000000000001, 43.248554614592756
990.0000000000001, 43.40542575919125
990.5000000000001, 43.50541790382689
991.0000000000001, 43.5188899821861
991.5, 43.46473744102071
992.0000000000001, 43.38496702925325
992.5000000000001, 43.32775781015664
993.0000000000001, 43.34029713015212
993.5000000000001, 43.41582897696399
994, 43.499403439971225
994.5, 43.548378986556024
995.0000000000001, 43.55875946329792
995.5000000000001, 43.642133322851365
996.0000000000001, 43.84197777606679
996.5000000000001, 44.03670539661023
997, 44.17092636919205
997.5000000000001, 44.26559972944453
998.0000000000001, 44.33687826126815
998.5000000000001, 44.41005900336984
999.0000000000001, 44.55611259329237
999.5, 44.76675192403357
1000.0000000000001, 44.88315883873159
1000.5000000000001, 44.93128128528652
1001.0000000000001, 45.09086705525586
1001.5000000000001, 45.29594997379425
1002, 45.40484406686682
1002.5, 45.43489382469938
1003.0000000000001, 45.43313420256035
1003.5000000000001, 45.43371661001012
1004.0000000000001, 45.452745898247095
1004.5000000000001, 45.49563034265352
1005, 45.604988526812114
1005.5000000000001, 45.79748649502873
1006.0000000000001, 45.93143393709381
1006.5000000000001, 45.951018804618265
1007.0000000000001, 46.01033414190155
1007.5, 46.11826157984967
1008, 46.15691831511596
1008.5000000000001, 46.22295549251908
1009.0000000000001, 46.43568287929969
1009.5000000000001, 46.61967564707278
1010.0000000000001, 46.68482868329296
1010.5, 46.802424231953964
1011.0000000000001, 46.94047206923474
1011.5000000000001, 46.88988136648915
1012.0000000000001, 46.719469020632914
1012.5000000000001, 46.607461068799395
1013, 46.638311844136254
1013.5000000000001, 46.78329549564266
1014.0000000000001, 46.861791689142876
1014.5000000000001, 46.91547116922186
1015.0000000000001, 47.15825775582627
1015.5000000000001, 47.43315064443145
1016, 47.50740996088809
1016.5000000000001, 47.52268241926583
1017.0000000000001, 47.61584736963161
1017.5000000000001, 47.76271446987044
1018.0000000000001, 47.92666462182821
1018.5, 48.07618232378924
1019.0000000000001, 48.18928862843812
1019.5000000000001, 48.258898733103635
1020.0000000000001, 48.315834946238645
1020.5000000000001, 48.38110135891685
1021, 48.44210793504474
1021.5, 48.46993928299764
1022.0000000000001, 48.4338975607492
1022.5000000000001, 48.3822516715229
1023.0000000000001, 48.387245895658076
1023.5000000000001, 48.471767876509574
1024, 48.608833539032766
1024.5, 48.70880567466387
1025, 48.800235888434585
1025.5, 49.0013261803891
1026, 49.23270205098033
1026.5, 49.36650064120661
1027, 49.4439130817862
1027.5, 49.500393598681576
1028, 49.496775361270736
1028.5, 49.47484233871417
1029, 49.53959296356223
1029.5, 49.651554664974434
1030, 49.73830568755614
1030.5, 49.85940390150638
1031, 50.031461856675165
1031.5, 50.14809330757591
1032, 50.23587818465635
1032.5, 50.425081726591124
1033, 50.6077008390267
1033.5, 50.6428805015086
1034, 50.685144667825185
1034.5, 50.8252030622477
1035, 50.92816958820767
1035.5, 50.999428395479725
1036, 51.16683712795628
1036.5, 51.33874762450896
1037, 51.377136866777676
1037.5, 51.35979031284134
1038, 51.361114184284965
1038.5, 51.36383857627613
1039, 51.38094313421763
1039.5, 51.45660930589546
1040, 51.5933692463592
1040.5, 51.76895704536553
1041, 51.944676241357264
1041.5, 52.09220429619869
1042, 52.21025920160333
1042.5, 52.33870023204995
1043, 52.53486929015232
1043.5, 52.716880707693065
1044, 52.78945924255697
1044.5, 52.84786758769399
1045, 52.96259994756467
1045.5, 53.08566952169294
1046, 53.21365861653979
1046.5, 53.38532703526561
1047, 53.56111362125133
1047.5, 53.68504608501163
1048, 53.77830255998289
1048.5, 53.86136072385366
1049, 53.92472511250636
1049.5, 54.00591555242816
1050, 54.16836713031851
1050.5, 54.318141254114614
1051, 54.33938172633651
1051.5, 54.30721097351503
1052, 54.28118705148752
1052.5, 54.22152264190395
1053, 54.18992171081167
1053.5, 54.3235298752556
1054, 54.54701194550544
1054.5, 54.717176721410944
1055, 54.81344856317123
1055.5, 54.86999155626296
1056, 54.96395124012704
1056.5, 55.08284627794359
1057, 55.14382412963808
1057.5, 55.189016240907954
1058, 55.285761735031905
1058.5, 55.37541016970312
1059, 55.44211513413642
1059.5, 55.58845648961154
1060, 55.757972272805496
1060.5, 55.78168302267506
1061, 55.83938905529354
1061.5, 56.131889064844124
1062, 56.33622262959263
1062.5, 56.29363751925879
1063, 56.33078419924815
1063.5, 56.467085579231
1064, 56.44700107498601
1064.5, 56.426758814482326
1065, 56.63214761981861
1065.5, 56.82305547691588
1066, 56.87684616540305
1066.5, 57.05274698610598
1067, 57.352502939684584
1067.5, 57.53402351838546
1068, 57.576458576493366
1068.5, 57.56128989037899
1069, 57.54728675438161
1069.5, 57.55211025405387
1070, 57.5358007219482
1070.5, 57.57197395616763
1071, 57.80863897653084
1071.5, 58.119377779580994
1072, 58.322307843165234
1072.5, 58.506587203532135
1073, 58.76071527990923
1073.5, 59.06076285114537
1074, 59.33163399852605
1074.5, 59.48190801287936
1075, 59.57613469182856
1075.5, 59.69790469302181
1076, 59.73406385231653
1076.5, 59.6206056021104
1077, 59.459276409554654
1077.5, 59.35407662628977
1078, 59.38512230026465
1078.5, 59.5517095379312
1079, 59.80546041079681
1079.5, 60.06224577826376
1080, 60.282675229988946
1080.5, 60.51692254758775
1081, 60.742869461959955
1081.5, 60.87561516165491
1082, 60.92260660662611
1082.5, 60.935107529094495
1083, 60.96198359596269
1083.5, 61.06962532958595
1084, 61.34645704979484
1084.5, 61.68420883556793
1085, 61.829739873963945
1085.5, 61.82053990967901
1086, 61.81172375684811
1086.5, 61.88009796623889
1087, 62.051953705373045
1087.5, 62.294100975090046
1088, 62.53726787234492
1088.5, 62.694056901268546
1089, 62.74967967722468
1089.5, 62.729340292393864
1090, 62.67820127801522
1090.5, 62.64029240242933
1091, 62.649053659730164
1091.5, 62.72374990985296
1092, 62.87128189979735
1092.5, 63.09556896113233
1093, 63.38977827500076
1093.5, 63.712509974272564
1094, 64.0116193281051
1094.5, 64.23114194324349
1095, 64.34230008662209
1095.5, 64.34985619314821
1096, 64.32318377337035
1096.5, 64.34577548563362
1097, 64.44446093878918
1097.5, 64.61823508855534
1098, 64.83816357800015
1098.5, 65.04691135325538
1099, 65.17870705866437
1099.5, 65.28376767828476
1100, 65.44888627019509
1100.5, 65.69524867408359
1101, 65.98194588920475
1101.5, 66.19071779596817
1102, 66.31970357425045
1102.5, 66.46278571340926
1103, 66.57480174810479
1103.5, 66.59108217785011
1104, 66.61703890490736
1104.5, 66.71749569404204
1105, 66.8210205114961
1105.5, 66.91435238635407
1106, 67.04293929389965
1106.5, 67.19650770504927
1107, 67.33304085589128
1107.5, 67.39497603999573
1108, 67.40704751528317
1108.5, 67.53499740276212
1109, 67.74670858371181
1109.5, 67.84841032837136
1110, 67.89673306893899
1110.5, 68.0001521774193
1111, 68.02229871354515
1111.5, 67.91066129071294
1112, 67.85290503354169
1112.5, 67.94163861643221
1113, 68.15062043192614
1113.5, 68.37875769506785
1114, 68.51522605751434
1114.5, 68.53362779123115
1115, 68.46399867335123
1115.5, 68.39924166096743
1116, 68.3743266298668
1116.5, 68.37000710351082
1117, 68.40215910163725
1117.5, 68.47224312527777
1118, 68.46816897875361
1118.5, 68.33720403492165
1119, 68.17964865847617
1119.5, 68.16615282275538
1120, 68.46432853122231
1120.5, 68.83099975725415
1121, 68.95448339175415
1121.5, 68.96801692882798
1122, 69.01574798252332
1122.5, 69.08159960942007
1123, 69.09096808504168
1123.5, 68.96151006601659
1124, 68.84915939771449
1124.5, 68.9169303953006
1125, 68.95340949854604
1125.5, 68.84190253519266
1126, 68.77058832825847
1126.5, 68.7331359187132
1127, 68.55381883308621
1127.5, 68.33822022639197
1128, 68.24926682402389
1128.5, 68.17357353017827
1129, 68.06876744460259
1129.5, 68.11438149146672
1130, 68.24823144743807
1130.5, 68.21142174118359
1131, 68.08766452877597
1131.5, 68.05738270249071
1132, 68.06080960159878
1132.5, 68.0406432525127
1133, 68.03817409531783
1133.5, 68.07716203423414
1134, 68.14772967586484
1134.5, 68.17412068642308
1135, 68.08496798266683
1135.5, 67.93329162353878
1136, 67.79473911494284
1136.5, 67.73235118808654
1137, 67.74600308471614
1137.5, 67.78216654855173
1138, 67.81031891746909
1138.5, 67.80492409522002
1139, 67.71696934829362
1139.5, 67.53816429896003
1140, 67.34130271234287
1140.5, 67.20508972924142
1141, 67.18894780667578
1141.5, 67.21966753412934
1142, 67.1976608940289
1142.5, 67.1497535117425
1143, 67.10418258501721
1143.5, 67.04157585337866
1144, 66.93915288087904
1144.5, 66.78608529687591
1145, 66.65383215417364
1145.5, 66.6066964697209
1146, 66.54725450904937
1146.5, 66.44809249537207
1147, 66.4611062258886
1147.5, 66.59678097457727
1148, 66.72390498212013
1148.5, 66.73892053288316
1149, 66.5972423732476
1149.5, 66.410283315061
1150, 66.27586257390297
1150.5, 66.20440346746491
1151, 66.16236455274046
1151.5, 66.09049975567184
1152, 65.97757626824841
1152.5, 65.83671007805953
1153, 65.68630230042749
1153.5, 65.54065977024212
1154, 65.40542184235665
1154.5, 65.29670037981833
1155, 65.23230535393712
1155.5, 65.163475392984
1156, 65.03874336403833
1156.5, 64.90780818377809
1157, 64.78897640965815
1157.5, 64.61129001962959
1158, 64.4116515072404
1158.5, 64.30900728420775
1159, 64.23523763796531
1159.5, 64.09372394001927
1160, 64.0019258857614
1160.5, 63.991187132161805
1161, 63.86959042674095
1161.5, 63.67465186625821
1162, 63.634246493417315
1162.5, 63.67759314750483
1163, 63.63915931772293
1163.5, 63.52467743201512
1164, 63.38911193952762
1164.5, 63.30011325029122
1165, 63.206609938663696
1165.5, 62.98328753683841
1166, 62.77292453448683
1166.5, 62.72980591585969
1167, 62.60032606388311
1167.5, 62.29323026841244
1168, 62.14471560677371
1168.5, 62.1639798310892
1169, 62.06180834561582
1169.5, 61.840957150227105
1170, 61.6090950702071
1170.5, 61.344853207924444
1171, 61.04857978168177
1171.5, 60.807044615969524
1172, 60.66053639557169
1172.5000000000002, 60.59418936534348
1173, 60.55456248154995
1173.5, 60.47982901644475
1174, 60.33940897048813
1174.5, 60.133886480497836
1175.0000000000002, 59.90761068523844
1175.5, 59.734011518993654
1176, 59.680306248224404
1176.5, 59.59369445089197
1177, 59.314625316506955
1177.5000000000002, 59.0237245474148
1178, 58.82843570844334
1178.5, 58.583168371432315
1179, 58.299552504297225
1179.5, 58.13150371652773
1180, 58.051528111612605
1180.5, 57.96509850074757
1181, 57.848789821137075
1181.5, 57.71522372607592
1182, 57.609891094455385
1182.5, 57.53558360364543
1183, 57.447580168207395
1183.5000000000002, 57.25676573811029
1184, 56.92226903899062
1184.5, 56.644641604570865
1185, 56.514728793459525
1185.5, 56.34708188033178
1186.0000000000002, 56.143673094702365
1186.5, 56.07331716061686
1187, 56.08654103452106
1187.5, 56.05299833100284
1188, 55.92664494405968
1188.5000000000002, 55.71557319688505
1189, 55.48787403483945
1189.5, 55.28278634604879
1190, 55.1041136384149
1190.5, 54.92651667890947
1191.0000000000002, 54.72281091250699
1191.5, 54.50521211183771
1192, 54.27153948004093
1192.5, 53.983613404284895
1193, 53.690753665616285
1193.5, 53.49700862409765
1194, 53.292622052838055
1194.5000000000002, 52.95646762631048
1195, 52.68323250021911
1195.5, 52.60197970627835
1196, 52.60510383154649
1196.5, 52.605180307599696
1197.0000000000002, 52.553718466611436
1197.5, 52.39470613410213
1198, 52.09743674751463
1198.5, 51.736195453120594
1199, 51.402034084792355
1199.5000000000002, 51.167373970706784
1200, 50.96843268914437
1200.5, 50.659738231166536
1201, 50.40215365622474
1201.5, 50.35076369390894
1202.0000000000002, 50.13216183335427
1202.5, 49.63126229533019
1203, 49.36303279514123
1203.5, 49.33424867182042
1204, 49.10654235911144
1204.5000000000002, 48.79607952126363
1205, 48.66137898008971
1205.5, 48.52555415715748
1206, 48.25017124565376
1206.5, 47.93405884400386
1207, 47.68662627594775
1207.5, 47.58635628657595
1208.0000000000002, 47.56712253137741
1208.5, 47.514200710413576
1209, 47.37703914496896
1209.5, 47.11923299794518
1210, 46.71055322520974
1210.5000000000002, 46.247375921124444
1211, 45.91744167810942
1211.5, 45.73548257445583
1212, 45.63380293617964
1212.5, 45.54290824892365
1213.0000000000002, 45.428490340346535
1213.5, 45.313329485020404
1214, 45.128521470940775
1214.5, 44.7512360040558
1215, 44.32034408289858
1215.5000000000002, 44.04708987241631
1216, 43.964334461602434
1216.5, 44.007879071554896
1217, 44.01898359380965
1217.5, 43.93834432348808
1218, 43.8022004128732
1218.5, 43.624385727190486
1219, 43.402892064712304
1219.5, 43.12234099435106
1220, 42.79573861081406
1220.5, 42.48926167913678
1221, 42.241957255584204
1221.5000000000002, 42.05647360819883
1222, 41.88146284743094
1222.5, 41.66344248941411
1223, 41.42789458783761
1223.5, 41.19123487010992
1224.0000000000002, 40.92420964429511
1224.5, 40.61130863951702
1225, 40.26097174431809
1225.5, 39.938174013366925
1226, 39.71899135953769
1226.5000000000002, 39.626378468218945
1227, 39.59838115716378
1227.5, 39.455757303177215
1228, 39.209230755147104
1228.5, 39.02058626552318
1229.0000000000002, 38.81386064994986
1229.5, 38.48698932496854
1230, 38.24347188440644
1230.5, 38.18885701635386
1231, 38.145327385929946
1231.5, 38.03674455287724
1232, 37.89844724268138
1232.5000000000002, 37.720022223950025
1233, 37.48492062406758
1233.5, 37.236249131931636
1234, 36.99866060735371
1234.5, 36.743805369838924
1235.0000000000002, 36.48485807555571
1235.5, 36.26731974215181
1236, 36.0607504957795
1236.5, 35.82094302084026
1237, 35.580885225894576
1237.5000000000002, 35.33734066160292
1238, 35.00219148978101
1238.5, 34.6397095513792
1239, 34.41904343340032
1239.5, 34.201980952954926
1240.0000000000002, 33.83080780433818
1240.5, 33.586783498016416
1241, 33.61593713106544
1241.5, 33.66740341852403
1242, 33.63543238374578
1242.5000000000002, 33.57613009573021
1243, 33.5083568447495
1243.5, 33.43124362045913
1244, 33.344668381482634
1244.5, 33.25998704102287
1245, 33.20558426926057
1245.5, 33.16035302719074
1246.0000000000002, 33.064408152504654
1246.5, 32.914070006911544
1247, 32.741308039049926
1247.5, 32.609591867537674
1248, 32.54621842314961
1248.5000000000002, 32.505335480397775
1249, 32.47416798689265
1249.5, 32.4655825712623
1250, 32.410337125335616
1250.5, 32.23818455585629
1251.0000000000002, 32.01121546971977
1251.5, 31.80877758655248
1252, 31.687585936466405
1252.5, 31.673307376303086
1253, 31.74853733079388
1253.5000000000002, 31.765115171889278
1254, 31.598521105744453
1254.5, 31.41833218311477
1255, 31.3528260023362
1255.5, 31.348319677559317
1256.0000000000002, 31.405126755586906
1256.5, 31.56458119647843
1257.0000000000002, 31.685120732597582
1257.5, 31.598677332434633
1258, 31.345491578506483
1258.5, 31.061412825030658
1259, 30.957348476200494
1259.5000000000002, 31.040940656914742
1260, 31.139129672634212
1260.5, 31.147406398897374
1261, 31.043769886040195
1261.5, 30.974395777800083
1262.0000000000002, 31.002483095920383
1262.5, 30.988186332724013
1263, 30.892471526951454
1263.5, 30.78449521017602
1264, 30.72742489376722
1264.5000000000002, 30.75226342546007
1265, 30.792889996666517
1265.5, 30.81736472162663
1266, 30.884027788025122
1266.5, 30.93296111478807
1267.0000000000002, 30.82313556364774
1267.5, 30.66747283972296
1268, 30.63130566442021
1268.5, 30.647074054506348
1269, 30.667822021273253
1269.5000000000002, 30.765171113519585
1270, 30.885169538284742
1270.5000000000002, 30.87332263749073
1271, 30.750199140327197
1271.5, 30.609140505880603
1272, 30.509222780174625
1272.5, 30.474806849159748
1273.0000000000002, 30.482094977075562
1273.5, 30.482131670492407
1274, 30.417124635835876
1274.5, 30.30113291123027
1275, 30.179200276623078
1275.5000000000002, 30.088047603010594
1276, 30.039969508084937
1276.5, 30.008670661015728
1277, 29.97641735632449
1277.5, 29.939163116747054
1278.0000000000002, 29.91211094176191
1278.5, 29.909628916717594
1279, 29.912896719285996
1279.5, 29.922174269374267
1280, 29.980165013487053
1280.5000000000002, 30.067012241780887
1281, 30.10896849925939
1281.5, 30.07864019391839
1282, 29.991100771620324
1282.5, 29.93213289960819
1283, 29.93755352965063
1283.5, 29.93332698183643
1284.0000000000002, 29.913064232690445
1284.5, 29.933989190330934
1285, 30.000457566607537
1285.5, 30.080959948180762
1286, 30.107453655479617
1286.5000000000002, 30.04532596776356
1287, 29.93149716347523
1287.5, 29.79962987540557
1288, 29.67343091406164
1288.5, 29.571830973502074
1289.0000000000002, 29.515025415919567
1289.5, 29.53394838216147
1290, 29.586560442302996
1290.5, 29.511944938285993
1291, 29.36586181880503
1291.5000000000002, 29.37665135271976
1292, 29.526436443616262
1292.5, 29.6920929598557
1293, 29.78931384711977
1293.5, 29.789870878525875
1294.0000000000002, 29.7474651292505
1294.5, 29.71650753454429
1295.0000000000002, 29.73552616707603
1295.5, 29.773287596243378
1296, 29.775842938986102
1296.5, 29.721938131322375
1297, 29.64433848891035
1297.5000000000002, 29.65125620283358
1298, 29.748890330574568
1298.5, 29.854070869996747
1299, 29.95055288257845
1299.5, 30.041753216855383
1300.0000000000002, 30.086958961159567
1300.5, 30.04788375901866
1301.0000000000002, 29.9114049043489
1301.5, 29.742753344199002
1302.0000000000002, 29.656892468948328
1302.5000000000002, 29.630519017051967
1303, 29.603636224540452
1303.5000000000002, 29.612982552489825
1304, 29.65663969621035
1304.5000000000002, 29.63405577162436
1305.0000000000002, 29.53965723903427
1305.5, 29.454556096146547
1306.0000000000002, 29.40531928412544
1306.5, 29.392522324858405
1307.0000000000002, 29.418083262829086
1307.5000000000002, 29.458226653087408
1308, 29.44870991820602
1308.5000000000002, 29.409477440553033
1309, 29.42969036238415
1309.5000000000002, 29.52440727587316
1310, 29.64367773472121
1310.5, 29.63422056057722
1311.0000000000002, 29.470416375403005
1311.5, 29.376652481748692
1312.0000000000002, 29.399586297922582
1312.5, 29.414788521274218
1313, 29.375677659310497
1313.5000000000002, 29.27871336514005
1314, 29.13642442186307
1314.5000000000002, 28.972613699346667
1315, 28.82655397056584
1315.5000000000002, 28.776355376930084
1316.0000000000002, 28.904522118811826
1316.5, 29.07426308255019
1317.0000000000002, 29.108885928469974
1317.5, 29.045255686052784
1318.0000000000002, 28.936703910957334
1318.5000000000002, 28.786146631692176
1319, 28.640656698050748
1319.5000000000002, 28.58734764133284
1320, 28.683498531561696
1320.5000000000002, 28.93778808292808
1321.0000000000002, 29.238692625310165
1321.5, 29.47648200946452
1322.0000000000002, 29.593872949143147
1322.5, 29.60682316158649
1323.0000000000002, 29.58507820482403
1323.5, 29.54502270034689
1324, 29.489161660151993
1324.5000000000002, 29.45962787543189
1325, 29.454262688933895
1325.5000000000002, 29.384748617664812
1326, 29.260837661450182
1326.5, 29.18275701849656
1327.0000000000002, 29.214107373942227
1327.5, 29.360650307754156
1328.0000000000002, 29.48985646060663
1328.5, 29.510107603011548
1329.0000000000002, 29.45247881743167
1329.5000000000002, 29.34794812377187
1330, 29.220391440797712
1330.5000000000002, 29.12283362351492
1331, 29.096777722786626
1331.5000000000002, 29.09635993923557
1332.0000000000002, 29.092172936591382
1332.5, 29.113955996287515
1333.0000000000002, 29.14956754575597
1333.5, 29.153852004545442
1334.0000000000002, 29.154435969772493
1334.5, 29.194933755318146
1335, 29.256345832548277
1335.5000000000002, 29.31969716930203
1336, 29.388952533725856
1336.5000000000002, 29.452837777002628
1337, 29.47949950615363
1337.5, 29.399822593148514
1338.0000000000002, 29.184742080771088
1338.5, 29.003158032260103
1339.0000000000002, 28.956600795155623
1339.5, 28.961346329182476
1340.0000000000002, 29.03449172668695
1340.5000000000002, 29.269003046845242
1341, 29.52762732854157
1341.5000000000002, 29.636663459365494
1342, 29.667266010463706
1342.5000000000002, 29.64373742304322
1343.0000000000002, 29.429387691283537
1343.5, 29.115402352292747
1344.0000000000002, 28.96484000659929
1344.5, 28.896026832023708
1345.0000000000002, 28.739548899984825
1345.5000000000002, 28.580595988392346
1346, 28.52049878513769
1346.5000000000002, 28.589579994853693
1347, 28.770163246536924
1347.5000000000002, 29.007924683028946
1348, 29.247848130906306
1348.5, 29.43796627998779
1349.0000000000002, 29.53660163859209
1349.5, 29.548715538912404
1350.0000000000002, 29.553485776502896
1350.5, 29.591514190879707
1351, 29.655641484949783
1351.5000000000002, 29.68741718734094
1352, 29.62343504793023
1352.5000000000002, 29.463037613250208
1353, 29.269260316462407
1353.5000000000002, 29.183352410892397
1354.0000000000002, 29.204439313994328
1354.5, 29.21370014253671
1355.0000000000002, 29.210211440724322
1355.5, 29.217073333996467
1356.0000000000002, 29.14727966913361
1356.5000000000002, 28.97739462512726
1357, 28.831909473788627
1357.5000000000002, 28.78438688038881
1358, 28.84554935082339
1358.5000000000002, 28.99283197215742
1359.0000000000002, 29.16224895407069
1359.5, 29.196333166501475
1360.0000000000002, 29.06628191677008
1360.5, 28.991570739610083
1361.0000000000002, 29.048073526178655
1361.5, 29.16281514105404
1362, 29.269878353721367
1362.5000000000002, 29.315607994455647
1363, 29.270340995876168
1363.5000000000002, 29.16289738050645
1364, 29.109008980082976
1364.5000000000002, 29.1409403514576
1365.0000000000002, 29.21726407986165
1365.5, 29.358866525355083
1366.0000000000002, 29.560265308519533
1366.5, 29.62236795767957
1367.0000000000002, 29.489708092043244
1367.5000000000002, 29.416971818429985
1368, 29.492884378451706
1368.5000000000002, 29.620814216155537
1369, 29.626332827446788
1369.5000000000002, 29.397372483145887
1370.0000000000002, 29.15225432257759
1370.5, 29.052954726962454
1371.0000000000002, 29.041246018455894
1371.5, 29.063376470565444
1372.0000000000002, 29.087110859316255
1372.5000000000002, 29.066724681849095
1373, 28.987326849339695
1373.5000000000002, 28.963439554443084
1374, 29.048691107489446
1374.5000000000002, 29.146232848811195
1375, 29.20326887298762
1375.5, 29.22594584957237
1376.0000000000002, 29.269602800582973
1376.5, 29.367520903612572
1377.0000000000002, 29.401941517017164
1377.5, 29.316634880366195
1378.0000000000002, 29.215083327393984
1378.5000000000002, 29.158691331854584
1379, 29.156787151073402
1379.5000000000002, 29.213770915991034
1380, 29.32229388635227
1380.5000000000002, 29.438656479024942
1381.0000000000002, 29.490180456803785
1381.5, 29.376031245512962
1382.0000000000002, 29.14335102179362
1382.5, 28.95533224120888
1383.0000000000002, 28.840280191582053
1383.5000000000002, 28.797253404893084
1384, 28.942085385255467
1384.5000000000002, 29.245588505215665
1385, 29.400586529278414
1385.5000000000002, 29.362779369158474
1386.0000000000002, 29.324872392177042
1386.5, 29.322434755136854
1387.0000000000002, 29.317280346204853
1387.5, 29.276707970071712
1388.0000000000002, 29.172296419568212
1388.5, 28.986421717923363
1389, 28.807521533285936
1389.5000000000002, 28.79469125958444
1390, 28.937382019421918
1390.5000000000002, 29.142452037070967
1391, 29.302825705910692
1391.5000000000002, 29.37880005559545
1392.0000000000002, 29.447980428879163
1392.5, 29.531783268652376
1393.0000000000002, 29.59799158402626
1393.5, 29.66322116699466
1394.0000000000002, 29.725077002695684
1394.5000000000002, 29.63607407940809
1395, 29.352789002000662
1395.5000000000002, 29.060787733297417
1396, 28.88797657878949
1396.5000000000002, 28.876669945562114
1397.0000000000002, 28.961226646771863
1397.5, 29.07227639522644
1398.0000000000002, 29.292197201296332
1398.5, 29.594680380684537
1399.0000000000002, 29.72335971419112
1399.5, 29.652667926181493
1400, 29.565162471377207
