299, 14.992686119795152
299.5, 14.971674745453356
300, 15.005404824742712
300.5, 15.056525600032103
301, 15.100690141960001
301.5, 15.12508754926941
302, 15.13278974980581
302.5, 15.167195713040172
303, 15.248686113282076
303.5, 15.335018742038159
304, 15.396226531398455
304.5, 15.426487419421605
305, 15.462636422498065
305.5, 15.54184635431345
306, 15.618907821032224
306.5, 15.664451317990498
307, 15.717112759347785
307.5, 15.784450781511552
308, 15.839177057133142
308.5, 15.884297796135101
309, 15.933536202421578
309.5, 15.978978537975351
310, 16.022517505047418
310.5, 16.093209808461722
311, 16.177339680016814
311.5, 16.223795510315483
312, 16.249720916923266
312.5, 16.2947114979912
313, 16.346355441971383
313.5, 16.392879616842436
314, 16.44793607174435
314.5, 16.514059433910745
315, 16.580672347675375
315.5, 16.64343502752895
316, 16.70421061716901
316.5, 16.775537924393447
317, 16.85853238388681
317.5, 16.928045822845945
318, 16.972757456284867
318.5, 17.000185622235733
319, 17.036998946251174
319.5, 17.108974974686348
320, 17.20143052418622
320.5, 17.28737668303927
321, 17.33731034129086
321.5, 17.364552411230605
322, 17.418036006227794
322.5, 17.486864260657185
323, 17.538949478926256
323.5, 17.581945409031633
324, 17.62897052841292
324.5, 17.68460331812777
325, 17.750198062332203
325.5, 17.82495247946281
326, 17.908698929027125
326.5, 17.996310205593915
327, 18.061904558152534
327.5, 18.104160988493533
328, 18.176136167088572
328.5, 18.278560778927925
329, 18.3598289410577
329.5, 18.41455245901841
330, 18.46098207789956
330.5, 18.513206316329956
331, 18.577238205371273
331.5, 18.645651368658136
332, 18.709586672076114
332.5, 18.761800092527395
333, 18.808145608254705
333.5, 18.86264010804281
334, 18.94507126467788
334.5, 19.048482870976756
335, 19.11525586393357
335.5, 19.157182797542262
336, 19.246823345792095
336.5, 19.34239930534349
337, 19.376291207476825
337.5, 19.413043571731208
338, 19.496886606157915
338.5, 19.573050565710332
339, 19.63342512615658
339.5, 19.720406838911913
340, 19.82048334471132
340.5, 19.897175626390307
341, 19.94015464592063
341.5, 19.976001881838457
342, 20.084621681135104
342.5, 20.240062849182408
343, 20.322643929587457
343.5, 20.354353072051495
344, 20.416045126350497
344.5, 20.52840520466593
345, 20.666734743700758
345.5, 20.752072139814103
346, 20.790735161663207
346.5, 20.867931366505246
347, 20.973198117695148
347.5, 21.05917263767209
348, 21.131305215606986
348.5, 21.197979113082056
349, 21.249839846509317
349.5, 21.313520273904174
350, 21.439597162693957
350.5, 21.56349506951284
351, 21.602238846887133
351.5, 21.632192172452392
352, 21.713716298629095
352.5, 21.80295391825959
353, 21.881067619259895
353.5, 21.9628744104039
354, 22.041367770843635
354.5, 22.105186753058604
355, 22.17215934728877
355.5, 22.25330661608359
356, 22.33365035093442
356.5, 22.413240085266835
357, 22.50682831651372
357.5, 22.603767705778026
358, 22.686692213487618
358.5, 22.763720302595345
359, 22.843895250239157
359.5, 22.92594869367943
360, 23.006188160130222
360.5, 23.07937366134513
361, 23.137671198277147
361.5, 23.180558705240628
362, 23.24106390299241
362.5, 23.33734342743155
363, 23.443754281929245
363.5, 23.53896597752714
364, 23.61501020056653
364.5, 23.70030859448353
365, 23.825163529454812
365.5, 23.9560016077413
366, 24.05723665012603
366.5, 24.121239375671053
367, 24.182790785812003
367.5, 24.302440638361276
368, 24.43123015673443
368.5, 24.498136259719388
369, 24.565319370559664
369.5, 24.679483012856267
370, 24.79638038930095
370.5, 24.889419452530007
371, 24.960553866798918
371.5, 25.021377920960674
372, 25.089937745706834
372.5, 25.192528114208258
373, 25.326795529600886
373.5, 25.434385200060916
374, 25.50846657852003
374.5, 25.594267858411868
375, 25.696402073572116
375.5, 25.79813390376607
376, 25.884211426279848
376.5, 25.94906552219284
377, 26.005009969687066
377.5, 26.069806533026494
378, 26.160444315985515
378.5, 26.258584729227977
379, 26.339239399066315
379.5, 26.4213243246178
380, 26.518582742260108
380.5, 26.615131369648253
381, 26.710741098363528
381.5, 26.820677815490384
382, 26.93343036748938
382.5, 27.02594420541888
383, 27.08471079218664
383.5, 27.135197340451015
384, 27.267284419180868
384.5, 27.456489744182747
385, 27.57535453457419
385.5, 27.635952927011132
386, 27.713428337774943
386.5, 27.844209349968523
387, 28.01441100346662
387.5, 28.13593070189947
388, 28.18903840650519
388.5, 28.22919835816252
389, 28.31112148453225
389.5, 28.45938380420489
390, 28.588833361616068
390.5, 28.63979643619882
391, 28.653388687128555
391.5, 28.703566565831395
392, 28.867535596749093
392.5, 29.07058806153651
393, 29.193931064892524
393.5, 29.247481302847063
394, 29.28550129743823
394.5, 29.382948517233842
395, 29.53796132615652
395.5, 29.67893623923176
396, 29.801189515204328
396.5, 29.92856639935161
397, 30.058331029885323
397.5, 30.18622436126992
398, 30.317100305004885
398.5, 30.445866633017033
399, 30.559802990726183
399.5, 30.672710716364634
400, 30.802063181683536
400.5, 30.926711300575704
401, 31.026165429087172
401.5, 31.100477666136953
402, 31.17963959252816
402.5, 31.311052168517378
403, 31.459989479599585
403.5, 31.567905051542866
404, 31.646835799068427
404.5, 31.7239230682095
405, 31.82106205592774
405.5, 31.93681781276962
406, 32.047865226550314
406.5, 32.13422222224058
407, 32.19211474260838
407.5, 32.272338367431445
408, 32.40193957723689
408.5, 32.538144297488444
409, 32.6473758564735
409.5, 32.72010530273687
410, 32.80941318001874
410.5, 32.96780091787025
411, 33.12448823665956
411.5, 33.23334016006035
412, 33.34986263216763
412.5, 33.48228690733893
413, 33.59033922853479
413.5, 33.70925317330992
414, 33.88538960921369
414.5, 34.05615719854984
415, 34.18151936883538
415.5, 34.31278851250025
416, 34.46106068650553
416.5, 34.59105561592939
417, 34.69274591756641
417.5, 34.77889690466313
418, 34.89717998582887
418.5, 35.05205704313545
419, 35.155062697958044
419.5, 35.22652083920883
420, 35.38268080316297
420.5, 35.56475707705168
421, 35.662730947336826
421.5, 35.71886348120363
422, 35.78326279023638
422.5, 35.85170526385018
423, 35.95013107714462
423.5, 36.12720584197419
424, 36.32404072428503
424.5, 36.45451376963317
425, 36.53980545352056
425.5, 36.63855119712602
426, 36.82546331223219
426.5, 37.06202249803307
427, 37.21777396242013
427.5, 37.335919677756685
428, 37.51029442381517
428.5, 37.68371203333474
429, 37.810370972410915
429.5, 37.93497380520534
430, 38.0829800970648
430.5, 38.24859077169107
431, 38.40420678295126
431.5, 38.52365237395462
432, 38.62656719511307
432.5, 38.74698232202976
433, 38.92195684632906
433.5, 39.12113556223613
434, 39.260324546002714
434.5, 39.35977612427697
435, 39.47920810234389
435.5, 39.622700978558356
436, 39.78224404052468
436.5, 39.95211226271532
437, 40.11253467949974
437.5, 40.233406551631774
438, 40.31531817081882
438.5, 40.38257249121087
439, 40.49032952140063
439.5, 40.65530017698685
440, 40.80960268674854
440.5, 40.93257188406472
441, 41.05598631959433
441.5, 41.18745219003093
442, 41.319860967362935
442.5, 41.44061330668187
443, 41.550116413218035
443.5, 41.67496441386187
444, 41.82319597328144
444.5, 41.9800320485487
445, 42.11500860836987
445.5, 42.208952779663086
446, 42.31506789384432
446.5, 42.46262009984046
447, 42.60415781417558
447.5, 42.72921363808126
448, 42.865362757034795
448.5, 42.98638916270312
449, 43.06238208776612
449.5, 43.156902436391974
450, 43.30501659605209
450.5, 43.44656740736661
451, 43.553714900948584
451.5, 43.640177926080426
452, 43.717153590573815
452.5, 43.79400308395899
453, 43.881255763997984
453.5, 43.989671907241586
454, 44.12849120698576
454.5, 44.275876519385406
455, 44.38463136721807
455.5, 44.44781883631937
456, 44.487238500935185
456.5, 44.555171162257864
457, 44.66065136100303
457.5, 44.720703749208695
458, 44.72688542832977
458.5, 44.74849419159979
459, 44.813733059269296
459.5, 44.915586071833545
460, 44.997224653539824
460.5, 45.038742844510374
461, 45.11019913156233
461.5, 45.23080416895946
462, 45.36056481199987
462.5, 45.46018879876605
463, 45.510074030780046
463.5, 45.56046362899512
464, 45.63248671919272
464.5, 45.66417487791318
465, 45.67375459146592
465.5, 45.75092657076742
466, 45.85386340959762
466.5, 45.90010062901938
467, 45.911362750111465
467.5, 45.91428622818614
468, 45.89961945824812
468.5, 45.91651894974074
469, 46.05585728233263
469.5, 46.248388962081734
470, 46.378335908300336
470.5, 46.464329657952455
471, 46.5334997064147
471.5, 46.56863335760523
472, 46.58012636962808
472.5, 46.607519923143066
473, 46.66918706902576
473.5, 46.76412544485945
474, 46.85985885677596
474.5, 46.9280841633115
475, 46.964757914532434
475.5, 47.011767861298885
476, 47.13820064649055
476.5, 47.28813406802927
477, 47.37094159221535
477.5, 47.40673459083178
478, 47.445985867985236
478.5, 47.54170098702847
479, 47.661130732819444
479.5, 47.70885851827312
480, 47.76602952066614
480.5, 47.94707795745293
481, 48.14792826290517
481.5, 48.268160862135474
482, 48.315972990116734
482.5, 48.34281683698866
483, 48.41953310148914
483.5, 48.52488540537119
484, 48.60288161021955
484.5, 48.643226828044014
485, 48.647109729186255
485.5, 48.61683439343695
486, 48.56503047576254
486.5, 48.51263988439646
487, 48.467140055095506
487.5, 48.4301094473482
488, 48.40697610722281
488.5, 48.3935106998633
489, 48.36686311321407
489.5, 48.332531721215226
490, 48.32352594664938
490.5, 48.35575791488006
491, 48.41852460601106
491.5, 48.43394113262255
492, 48.35676910443803
492.5, 48.23257363807152
493, 48.085235807067214
493.5, 47.91115805526079
494, 47.73479514948307
494.5, 47.584600668251035
495, 47.44801114997893
495.5, 47.305919991906954
496, 47.146766423561424
496.5, 46.984499695849
497, 46.84830868189209
497.5, 46.694294923741694
498, 46.46682631242341
498.5, 46.20737421180122
499, 45.96290026631599
499.50000000000006, 45.74527102277502
500, 45.53917873079734
500.5, 45.3109905589142
501.00000000000006, 45.06297597484575
501.5, 44.820867580338685
502, 44.62975193655873
502.5, 44.492273640270774
503, 44.326256406965435
503.5, 44.12614147396523
504, 43.9564630253378
504.5, 43.769980824361134
505.00000000000006, 43.49513859313415
505.5, 43.187639035414065
506, 42.898836452659644
506.5, 42.61433263173274
507, 42.32427876456444
507.5, 42.03119358602012
508, 41.74520257308304
508.5, 41.473219399000115
509.00000000000006, 41.196207416159766
509.5, 40.90523073164953
510, 40.6213460475052
510.50000000000006, 40.35046391350315
511, 40.081045498230395
511.5, 39.80530479642639
512, 39.5192477213776
512.5, 39.22495143784467
513, 38.93229719892489
513.5, 38.661857052482205
514, 38.4081437312858
514.5, 38.14267456537771
515, 37.86546865129863
515.5, 37.58960089183697
516, 37.32173098979549
516.5, 37.06404704100118
517, 36.81289275412898
517.5, 36.555622118665724
518, 36.277213346374666
518.5, 36.01037743753167
519, 35.79350446567486
519.5, 35.594951761560324
520, 35.38590057412057
520.5, 35.174396410947764
521, 34.96604436911295
521.5, 34.761886467787306
522, 34.577489988158405
522.5, 34.426969414324546
523, 34.29059418487405
523.5, 34.14772339960089
524, 33.99120018319233
524.5, 33.811692763149836
525, 33.60385339023139
525.5, 33.425214554146464
526, 33.32795612338998
526.5, 33.22357683871678
527, 33.0477724411123
527.5, 32.84546703930822
528, 32.67123731281663
528.5, 32.56547893620744
529, 32.46944855402489
529.5, 32.30540641875575
530, 32.11171488631095
530.5, 31.943337949386844
531, 31.830877978698993
531.5, 31.740419203618202
532, 31.59267865476822
532.5, 31.42908794664804
533, 31.328810525136788
533.5, 31.280935395139693
534, 31.251912166348006
534.5, 31.207038193052625
535, 31.121437180492066
535.5, 30.98799989007567
536, 30.86750345546909
536.5, 30.81310452142945
537, 30.720715861887044
537.5, 30.54725470428113
538, 30.428794828536724
538.5, 30.378163194794354
539, 30.284994642250098
539.5, 30.16433330704571
540, 30.07658767436638
540.5, 30.006875338538435
541, 29.950025615966894
541.5, 29.950935606654653
542, 30.008654498572128
542.5, 30.071679311151172
543, 30.08090632846684
543.5, 29.99907708114489
544, 29.883275198987533
544.5, 29.785238107049935
545, 29.704451856050895
545.5, 29.642501158773342
546, 29.605555655576325
546.5, 29.57485509379545
547, 29.528293014634215
547.5, 29.47893475158706
548, 29.443920198657906
548.5, 29.431460724742095
549, 29.43422738640396
549.5, 29.43366920678173
550, 29.43489325721052
550.5, 29.438460698270944
551, 29.382099933810068
551.5, 29.26874240009394
552, 29.244509425624003
552.5, 29.310302397910604
553, 29.32782468891932
553.5, 29.293709678017606
554, 29.26078700544619
554.5, 29.22909517010848
555, 29.195111861776766
555.5, 29.171858839563754
556, 29.157617142800078
556.5, 29.137947263538237
557, 29.125539388094097
557.5, 29.137929855899557
558, 29.158569510362412
558.5, 29.17399335244501
559, 29.19203787416137
559.5, 29.225923104470724
560, 29.28736645963248
560.5, 29.35115085512976
561, 29.386957310072404
561.5, 29.415073930417577
562, 29.449618440825304
562.5, 29.470891772887114
563, 29.46737046691861
563.5, 29.44534050980178
564, 29.463826472312448
564.5, 29.572017368635386
565, 29.682724806680525
565.5, 29.731532014979223
566, 29.756404215488814
566.5, 29.771885344078115
567, 29.762737930850676
567.5, 29.743844224244384
568, 29.739055330151174
568.5, 29.74704029158191
569, 29.772894328970608
569.5, 29.843892648343555
570, 29.963887264167667
570.5, 30.103590287605797
571, 30.165468305225957
571.5, 30.076300484825225
572, 29.9823830465226
572.5, 29.974221827099285
573, 29.945066527272175
573.5, 29.889434931310035
574, 29.905561269328274
574.5, 29.969805231157125
575, 30.01239708623497
575.5, 30.02671498944609
576, 30.025425008222527
576.5, 30.0283447807315
577, 30.046555517582107
577.5, 30.0797974885934
578, 30.10979728263196
578.5, 30.12188662412015
579, 30.14836609113985
579.5, 30.211386765930826
580, 30.293159029920886
580.5, 30.373766989701053
581, 30.43901288225075
581.5, 30.504196308446552
582, 30.587127101174104
582.5, 30.659764288624572
583, 30.696063287930087
583.5, 30.695061549660977
584, 30.67537494410017
584.5, 30.667968148055763
585, 30.67183930775164
585.5, 30.673199336708606
586, 30.671063457626772
586.5, 30.680158719425066
587, 30.73625869329065
587.5, 30.823002336811882
588, 30.87843210403439
588.5, 30.896803320407443
589, 30.904274424871204
589.5, 30.938621414179394
590, 31.007323417409182
590.5, 31.058573753345158
591, 31.0858962652909
591.5, 31.125118688276444
592, 31.149686618123994
592.5, 31.122395338022045
593, 31.086368897741778
593.5, 31.06187042409944
594, 30.99383014816948
594.5, 30.890001147751903
595, 30.81633554275217
595.5, 30.754986131635633
596, 30.668175292043998
596.5, 30.604668221290595
597, 30.591223568754657
597.5, 30.57662844996038
598, 30.540796133824458
598.5, 30.49916865318859
599, 30.445886882270116
599.5, 30.36989336771424
600, 30.283166536609855
600.5, 30.19037001111728
601, 30.07358884954546
601.5, 29.941816905950233
602, 29.826718263526985
602.5, 29.71401620332847
603, 29.57587413058866
603.5, 29.42119230928587
604, 29.261263512375464
604.5, 29.095948999065186
605, 28.93534395005483
605.5, 28.797396604427547
606, 28.673804929382328
606.5, 28.547155018050475
607, 28.415476854380643
607.5, 28.284771283199404
608, 28.167979694011933
608.5, 28.057245884065367
609, 27.92677414533233
609.5, 27.773559625411522
610, 27.60927516585862
610.5, 27.45697948477215
611, 27.317741368040885
611.5, 27.150280279424265
612, 26.986960637895564
612.5, 26.916722565886445
613, 26.87530813088874
613.5, 26.75446011024664
614, 26.571348513304386
614.5, 26.37325492412451
615, 26.205423264495096
615.5, 26.066369775857765
616, 25.914807980156965
616.5, 25.74927339294848
617, 25.58595707502907
617.5, 25.43038646414982
618, 25.29512117021774
618.5, 25.209008085640846
619, 25.168380861513782
619.5, 25.136556367740653
620, 25.075800175195994
620.5, 24.960518293827505
621, 24.81079220785658
621.5, 24.65003208877573
622, 24.488861794942437
622.5, 24.363660891144377
623, 24.31962491031895
623.5, 24.25993859046632
624, 24.075852028278447
624.5, 23.880342567846952
625, 23.76602275135366
625.5, 23.69053093914674
626, 23.62777645562562
626.5, 23.57695576834209
627, 23.501113807080714
627.5, 23.365040028572068
628, 23.209989127357616
628.5, 23.088274390939745
629, 23.035354953475036
629.5, 23.010506748137033
630, 22.918199397191984
630.5, 22.79839231617767
631, 22.728392002074187
631.5, 22.669285555926436
632, 22.587223739186967
632.5, 22.507807027712204
633, 22.428633182599185
633.5, 22.320712378654463
634, 22.207990371225776
634.5, 22.119603538342247
635, 22.003628871221565
635.5, 21.84838137732254
636, 21.74761631552309
636.5, 21.693635734056514
637, 21.588169955988988
637.5, 21.477430266939464
638, 21.441042433619117
638.5, 21.408382970708857
639, 21.326295907971087
639.5, 21.238843264947988
640, 21.160689856413043
640.5, 21.07095123344753
641, 20.970934414190722
641.5, 20.872125314029816
642, 20.780525632861583
642.5, 20.709613697149734
643, 20.686925806062845
643.5, 20.69297418771977
644, 20.670592368342255
644.5, 20.634840909838317
645, 20.614814722463194
645.5, 20.555270793290177
646, 20.426075816709726
646.5, 20.28064610312343
647, 20.1724182074217
647.5, 20.136537951077983
648, 20.12888098252256
648.5, 20.0930546368962
649, 20.07263808993733
649.5, 20.092540364415655
650, 20.100810452418216
650.5, 20.079717257934576
651, 20.047793584638853
651.5, 19.98717031025045
652, 19.87808086890962
652.5, 19.76412817901091
653, 19.68144175955578
653.5, 19.62412210211599
654, 19.57798487023345
654.5, 19.530410402290343
655, 19.510924589066633
655.5, 19.539745923631784
656, 19.523878280539975
656.5, 19.421304952184542
657, 19.330938615989282
657.5, 19.291307363486453
658, 19.268595439231532
658.5, 19.22856370564338
659, 19.157096610811223
659.5, 19.111345655513134
660, 19.1160220050605
660.5, 19.106357860668197
661, 19.05113002885105
661.5, 18.961902023990575
662, 18.862446195546482
662.5, 18.78180238951427
663, 18.749137926413468
663.5, 18.766867024986695
664, 18.788786738624992
664.5, 18.785224903736903
665, 18.749630845654835
665.5, 18.694415326445835
666, 18.634563563804576
666.5, 18.56135547282767
667, 18.477208056702864
667.5, 18.41533626851931
668, 18.406243600624023
668.5, 18.464992610359303
669, 18.527320802042667
669.5, 18.515827962293585
670, 18.449911029342687
670.5, 18.36722381251647
671, 18.29534429282947
671.5, 18.23334339667099
672, 18.160188882692594
672.5, 18.104527833712012
673, 18.09977746502058
673.5, 18.10374558049932
674, 18.086134938586426
674.5, 18.071193286793687
675, 18.073797684804077
675.5, 18.09435946266177
676, 18.134087865888688
676.5, 18.198803716696034
677, 18.30863631773215
677.5, 18.426355519109705
678, 18.410973551733164
678.5, 18.29372722818168
679, 18.258180709154644
679.5, 18.30283818161236
680, 18.35144121138083
680.5, 18.39976096550633
681, 18.43974448968524
681.5, 18.42641388847737
682, 18.352384316201395
682.5, 18.255385424422542
683, 18.21799166774177
683.5, 18.301910751962282
684, 18.410354825257727
684.5, 18.45132770839632
685, 18.41266883485281
685.5, 18.323395151006764
686, 18.244673674350423
686.5, 18.246863579589046
687, 18.366782474446836
687.5, 18.500159677821074
688, 18.55660623336881
688.5, 18.534848952414222
689, 18.47967344399993
689.5, 18.45864318565232
690, 18.441670265785078
690.5, 18.377694294342206
691, 18.31884764913343
691.5, 18.313786185486777
692, 18.357981085629774
692.5, 18.409161074101448
693, 18.406459425814262
693.5, 18.38617016418766
694, 18.404365582578265
694.5, 18.411009140631847
695, 18.386043380776215
695.5, 18.407379776234805
696, 18.481515003043796
696.5, 18.54361726101213
697, 18.583664531613664
697.5, 18.62243196870456
698, 18.68982966315555
698.5, 18.76880584543092
699, 18.757969725349838
699.5, 18.67949884528457
700, 18.663945336867016
700.5, 18.69595946813692
701, 18.70498558765452
701.5, 18.68992219097231
702, 18.6703575119935
702.5, 18.672161455529263
703, 18.69177050595927
703.5, 18.700243344407525
704, 18.695297007807767
704.5, 18.689643005389286
705, 18.70120065962766
705.5, 18.723882182970215
706, 18.70911935041144
706.5, 18.68899355654972
707, 18.76098041314475
707.5, 18.894846456500957
708, 19.003754727226323
708.5, 19.028337676939387
709, 18.951434766530397
709.5, 18.822263871795485
710, 18.710227600303455
710.5, 18.68558971987767
711, 18.724492174418472
711.5, 18.77112626401029
712, 18.82292926880956
712.5, 18.886136644664745
713, 18.959136002274306
713.5, 19.023015246646352
714, 19.049486371871367
714.5, 19.061321694924402
715, 19.092434358770006
715.5, 19.12392899360873
716, 19.12921097481157
716.5, 19.092477179464055
717, 19.040189815614895
717.5, 19.030513328094145
718, 19.061739709931103
718.5, 19.10735501887018
719, 19.159955222053327
719.5, 19.21106373089063
720, 19.24203101067259
720.5, 19.237087965653572
721, 19.187879595023546
721.5, 19.115714287230958
722, 19.060128673084208
722.5, 19.074698109967088
723, 19.16189145080476
723.5, 19.227935172293314
724.0000000000001, 19.252047637547847
724.5, 19.2848465222674
725, 19.314215833217403
725.5, 19.313166272053962
726, 19.31912130809856
726.5000000000001, 19.364193478314334
727, 19.44185425722536
727.5, 19.524010657276563
728, 19.57199011543075
728.5, 19.59553415105158
729, 19.623111059079974
729.5, 19.66381045984096
730, 19.71383459266417
730.5, 19.75422295794212
731, 19.766589397391485
731.5, 19.739999189247257
732.0000000000001, 19.707156334379206
732.5, 19.704852403107154
733, 19.705834521144837
733.5, 19.688921716112276
734, 19.67179836680134
734.5000000000001, 19.674234128277163
735, 19.71038895172603
735.5, 19.764866268167722
736, 19.820063639133835
736.5, 19.903606122697354
737, 20.0207699025742
737.5000000000001, 20.117292132788535
738, 20.157401845662264
738.5, 20.133197851947372
739, 20.07164928657194
739.5, 20.02420974506944
740.0000000000001, 20.071553078246296
740.5, 20.213871094290866
741, 20.297685533201616
741.5, 20.29798215268231
742, 20.315341967997355
742.5, 20.354898151803695
743.0000000000001, 20.390955679247526
743.5, 20.4653696570805
744, 20.57505778474888
744.5, 20.61114968573723
745, 20.581626724052143
745.5000000000001, 20.598758178077432
746, 20.635597502922238
746.5, 20.6297595271068
747, 20.647671543434853
747.5, 20.730453206564235
748, 20.81940285258095
748.5, 20.896990037322354
749, 20.99005403724061
749.5, 21.08696173726527
750, 21.15038737827524
750.5, 21.12090392310155
751.0000000000001, 21.010466629374264
751.5, 20.96532997248042
752, 21.01432545614493
752.5, 21.067630639305037
753, 21.084993627677335
753.5000000000001, 21.06595588309402
754, 21.059902066744883
754.5, 21.093438150728588
755, 21.131366987725997
755.5, 21.161824364978656
756, 21.20036790795757
756.5000000000001, 21.255139403811953
757, 21.340230399687258
757.5, 21.506655119519095
758, 21.723266319467783
758.5, 21.800569737498222
759.0000000000001, 21.707029098929667
759.5, 21.57595578964944
760, 21.535854811416513
760.5, 21.653705699037815
761, 21.787326579638872
761.5, 21.845444419714866
762.0000000000001, 21.91676276422875
762.5, 22.03767919936135
763, 22.17634535962884
763.5, 22.29609596818456
764, 22.376445135960907
764.5000000000001, 22.46103048295383
765, 22.565003028514226
765.5, 22.627208276741698
766, 22.651612302018435
766.5, 22.70504845089775
767.0000000000001, 22.80252097202255
767.5000000000001, 22.929348794467728
768, 23.058700228486785
768.5, 23.172318094454695
769, 23.27220451078557
769.5, 23.349821034896664
770.0000000000001, 23.389857575587143
770.5, 23.419380067433025
771, 23.46970631856064
771.5, 23.510675711386924
772, 23.524734086520724
772.5000000000001, 23.543521275317985
773, 23.596242399273848
773.5, 23.698484195491957
774, 23.81436520528861
774.5, 23.89988086672855
775, 23.973191824845074
775.5000000000001, 24.053635487146735
776, 24.1361220199329
776.5, 24.21609477009281
777, 24.295554157813
777.5, 24.405568295827877
778.0000000000001, 24.562485036247068
778.5, 24.675890611162302
779, 24.70329832290213
779.5, 24.732816133079396
780, 24.804068357152474
780.5, 24.89779191693343
781.0000000000001, 24.994936488033744
781.5, 25.075018806033043
782, 25.10781160812043
782.5, 25.079103021449427
783, 25.010738865383047
783.5000000000001, 24.98100690095555
784, 25.090528090825543
784.5, 25.219223207017208
785, 25.207485685527246
785.5, 25.149609030851195
786.0000000000001, 25.13412074286927
786.5000000000001, 25.132297205306457
787, 25.14975737839667
787.5, 25.22966852238696
788, 25.361616563168084
788.5, 25.510047425383974
789.0000000000001, 25.645490400739448
789.5000000000001, 25.757248751700217
790.0000000000001, 25.86558208331624
790.5, 25.979017561250444
791, 26.089958568288395
791.5000000000001, 26.175047807572952
792.0000000000001, 26.209663543803273
792.5000000000001, 26.192050455881798
793, 26.140686895950395
793.5, 26.100657731448365
794, 26.107073068530966
794.5000000000001, 26.172939324054
795.0000000000001, 26.230285000975954
795.5, 26.190769725471768
796, 26.035755842194376
796.5, 25.824035948670797
797.0000000000001, 25.717987295676807
797.5000000000001, 25.722921249259173
798.0000000000001, 25.705885231135923
798.5, 25.696384334110377
799, 25.762567700302114
799.5000000000001, 25.813631710482525
800.0000000000001, 25.782901490424564
800.5000000000001, 25.716590726965165
801, 25.68793962483393
801.5, 25.770340270131214
802, 25.924266572670334
802.5000000000001, 26.062378730009158
803.0000000000001, 26.123460762924765
803.5000000000001, 26.081629408500504
804, 25.966170003769633
804.5, 25.85098663403609
805.0000000000001, 25.82764046528753
805.5000000000001, 25.835813267450305
806.0000000000001, 25.779701719690152
806.5, 25.706623719005535
807, 25.670341750816462
807.5, 25.67338510293854
808.0000000000001, 25.675172031773442
808.5000000000001, 25.61247980998627
809.0000000000001, 25.52538750929159
809.5, 25.476508907508176
810, 25.424699008804737
810.5000000000001, 25.34165697722996
811.0000000000001, 25.265854222602158
811.5000000000001, 25.222463884854136
812, 25.211797747221965
812.5, 25.18845900630852
813, 25.11075623849905
813.5000000000001, 25.030951385719874
814.0000000000001, 24.963336571226165
814.5, 24.82006029390834
815, 24.650253599640095
815.5, 24.61977226540543
816.0000000000001, 24.714630846205893
816.5000000000001, 24.810864801428338
817.0000000000001, 24.709344331720757
817.5, 24.40246029959677
818, 24.246636498783516
818.5000000000001, 24.284195039818698
819.0000000000001, 24.260898190983696
819.5000000000001, 24.205294881411902
820, 24.228436599199227
820.5, 24.219273045197795
821, 24.10417913332853
821.5000000000001, 23.970465209656325
822.0000000000001, 23.880318730432904
822.5000000000001, 23.849533175296855
823, 23.83973402129513
823.5, 23.78994366243427
824.0000000000001, 23.650048091588687
824.5000000000001, 23.442370397547066
825.0000000000001, 23.30881003781549
825.5, 23.24317373479215
826, 23.106544322669848
826.5, 22.907596202828913
827.0000000000001, 22.728989784760913
827.5000000000001, 22.653098277075003
828.0000000000001, 22.68039874453224
828.5, 22.668779556192348
829, 22.591767928148556
829.5000000000001, 22.52698695340665
830.0000000000001, 22.40153811585175
830.5000000000001, 22.131434603893283
831, 21.86820380044965
831.5, 21.711212839043412
832.0000000000001, 21.567711374000055
832.5000000000001, 21.38463193804067
833.0000000000001, 21.16988429811812
833.5000000000001, 20.968384108224
834, 20.82490917562349
834.5, 20.721393922325163
835.0000000000001, 20.616972166883528
835.5000000000001, 20.45902884718086
836.0000000000001, 20.257795820061887
836.5, 20.07962713847691
837, 19.95840801739554
837.5000000000001, 19.88857424805842
838.0000000000001, 19.780831056050303
838.5000000000001, 19.5979674447876
839, 19.42960411301121
839.5, 19.30943052706968
840, 19.203413945284083
840.5000000000001, 19.056315397627912
841.0000000000001, 18.839446393368945
841.5000000000001, 18.655344350364715
842, 18.561685639826692
842.5, 18.481009639432017
843.0000000000001, 18.36295452894113
843.5000000000001, 18.199951937730717
844.0000000000001, 18.016249935426885
844.5, 17.845765840123022
845, 17.70404356915499
845.5, 17.580813179308805
846.0000000000001, 17.429017349436634
846.5000000000001, 17.24640983026292
847.0000000000001, 17.07294559878879
847.5, 16.920765979327143
848, 16.787236904622887
848.5000000000001, 16.667582216047563
849.0000000000001, 16.555522665838254
849.5000000000001, 16.444042718514595
850, 16.349155329868296
850.5, 16.301634388272745
851.0000000000001, 16.276941656719387
851.5000000000001, 16.2291165542931
852.0000000000001, 16.133122350376993
852.5000000000001, 16.0096918292261
853, 15.948045650120903
853.5, 15.925518371346229
854.0000000000001, 15.833741924472008
854.5000000000001, 15.772087540101452
855.0000000000001, 15.842071367197164
855.5, 15.778469446439331
856, 15.488910278451712
856.5000000000001, 15.334507270167236
857.0000000000001, 15.40729962930159
857.5000000000001, 15.515784591510425
858, 15.575540019660934
858.5, 15.571678116921248
859, 15.536232787687311
859.5000000000001, 15.502006100918294
860.0000000000001, 15.482540367568461
860.5000000000001, 15.468010417756517
861, 15.434554220170412
861.5, 15.405888025049052
862.0000000000001, 15.4147834422631
862.5000000000001, 15.441725376743207
863.0000000000001, 15.460737112217899
863.5, 15.457936498759622
864, 15.456685139438633
864.5, 15.497471389681635
865.0000000000001, 15.488391168831512
865.5000000000001, 15.329934740263198
866.0000000000001, 15.131224066516111
866.5, 14.995972404204977
867, 14.929912238354191
867.5000000000001, 14.923134194647488
868.0000000000001, 14.962042350668455
868.5000000000001, 15.04332531046849
869, 15.152864269606923
869.5, 15.218540683753318
870.0000000000001, 15.21376902140075
870.5000000000001, 15.216074198020692
871.0000000000001, 15.254619699934509
871.5000000000001, 15.306845487903445
872, 15.380414821134096
872.5, 15.47708308416071
873.0000000000001, 15.519954868871125
873.5000000000001, 15.471140897827212
874.0000000000001, 15.394933596788945
874.5, 15.332787059019921
875, 15.292574188344219
875.5000000000001, 15.264908009260338
876.0000000000001, 15.240895327727372
876.5000000000001, 15.241572223410657
877, 15.264005376030028
877.5, 15.252573834970008
878, 15.21442691497252
878.5000000000001, 15.214368173108852
879.0000000000001, 15.267586903698813
879.5000000000001, 15.354299922600532
880, 15.417923707316774
880.5, 15.432319767591991
881.0000000000001, 15.440265092454311
881.5000000000001, 15.458398271222052
882.0000000000001, 15.471713058084035
882.5, 15.461677374057757
883, 15.42353925687324
883.5000000000001, 15.40724558065044
884.0000000000001, 15.439991934312289
884.5000000000001, 15.485541528043072
885.0000000000001, 15.515549798691765
885.5, 15.516904024219457
886, 15.489474416394074
886.5000000000001, 15.436355686036876
887.0000000000001, 15.351018853980747
887.5000000000001, 15.269570219052767
888, 15.302741606917294
888.5, 15.433995650963226
889.0000000000001, 15.52869272455618
889.5000000000001, 15.516622054639711
890.0000000000001, 15.386602861583285
890.5000000000001, 15.223151765127042
891, 15.124743708048257
891.5, 15.168718840597592
892.0000000000001, 15.298939709369407
892.5000000000001, 15.359751848140874
893.0000000000001, 15.379036703827907
893.5, 15.42945359137552
894, 15.417801873257346
894.5000000000001, 15.29939042339683
895.0000000000001, 15.184368927159554
895.5000000000001, 15.147808969527233
896.0000000000001, 15.209044031059136
896.5, 15.32502773216899
897, 15.43323467472706
897.5000000000001, 15.506119202436878
898.0000000000001, 15.538989151487314
898.5000000000001, 15.553588342725362
899, 15.569567908833946
899.5, 15.599172113379595
900.0000000000001, 15.631814411075183
900.5000000000001, 15.651410630337594
901.0000000000001, 15.661325784410437
901.5, 15.652687620683508
902, 15.590536969709305
902.5000000000001, 15.522062420970727
903.0000000000001, 15.556111372476437
903.5000000000001, 15.662151094124042
904.0000000000001, 15.75639427984224
904.5, 15.809624556899763
905, 15.834937975969765
905.5000000000001, 15.895220082925945
906.0000000000001, 15.981744922759447
906.5000000000001, 16.021095739927162
907, 15.995072160049176
907.5, 15.925193033315097
908.0000000000001, 15.877109977167777
908.5000000000001, 15.890847379171674
909.0000000000001, 15.94068158354041
909.5000000000001, 15.971711340349827
910, 15.92333840251996
910.5, 15.854876266851363
911.0000000000001, 15.853697754929001
911.5000000000001, 15.89861652156533
912.0000000000001, 15.960716989653548
912.5, 16.041356535500924
913, 16.122763356419384
913.5000000000001, 16.171422373570394
914.0000000000001, 16.193842888851663
914.5000000000001, 16.2109270607057
915.0000000000001, 16.224971188931974
915.5, 16.239204253158164
916.0000000000001, 16.265476523781103
916.5000000000001, 16.299305116068126
917.0000000000001, 16.32485282924023
917.5000000000001, 16.363622770884533
918, 16.428847245615586
918.5, 16.437419021659636
919.0000000000001, 16.35320756603744
919.5000000000001, 16.263615814330905
920.0000000000001, 16.240883145065496
920.5, 16.320167831672123
921, 16.449816021759077
921.5000000000001, 16.561829362165483
922.0000000000001, 16.678084645973115
922.5000000000001, 16.800321185209953
923.0000000000001, 16.860576017807446
923.5, 16.86596583653055
924, 16.892496726414123
924.5000000000001, 16.954468673197695
925.0000000000001, 17.040418415106984
925.5000000000001, 17.15696188868816
926, 17.280797820402498
926.5, 17.331797939880403
927.0000000000001, 17.319428087739638
927.5000000000001, 17.331772646603184
928.0000000000001, 17.375460867320186
928.5000000000001, 17.42901278858102
929, 17.515733617618594
929.5, 17.634328768209954
930.0000000000001, 17.722910235530733
930.5000000000001, 17.762762329897953
931.0000000000001, 17.777969639748562
931.5, 17.766905785651204
932, 17.722944761224767
932.5000000000001, 17.669216840355745
933.0000000000001, 17.64327722270464
933.5000000000001, 17.692997670272277
934.0000000000001, 17.800324330419755
934.5, 17.893303983004756
935.0000000000001, 17.96653808304592
935.5000000000001, 18.037469675759382
936.0000000000001, 18.08716403428585
936.5000000000001, 18.1039742101365
937, 18.105900730477714
937.5, 18.14145558979439
938.0000000000001, 18.268553617249268
938.5000000000001, 18.41765943484856
939.0000000000001, 18.500487790096514
939.5, 18.583395142035215
940, 18.692977099273406
940.5000000000001, 18.72725748422836
941.0000000000001, 18.71589448528914
941.5000000000001, 18.80139526673095
942.0000000000001, 18.952627318450382
942.5, 19.07697649291076
943, 19.168136158679545
943.5000000000001, 19.24557484811247
944.0000000000001, 19.33900176572655
944.5000000000001, 19.47344312749692
945, 19.65846163210864
945.5, 19.82343399973236
946.0000000000001, 19.892119131597184
946.5000000000001, 19.906863363111626
947.0000000000001, 19.90942406674722
947.5000000000001, 19.89446171023164
948, 19.91303900544891
948.5000000000001, 20.055808324228735
949.0000000000001, 20.27617929797873
949.5000000000001, 20.469762753610155
950.0000000000001, 20.56360320052073
950.5, 20.545992331373284
951, 20.501494847993015
951.5000000000001, 20.50815888774106
952.0000000000001, 20.616483907597456
952.5000000000001, 20.78051600480319
953.0000000000001, 20.9293652718938
953.5, 21.067561612621645
954.0000000000001, 21.210988286073274
954.5000000000001, 21.362923880665576
955.0000000000001, 21.489121787852596
955.5000000000001, 21.536157034264377
956, 21.56465169616652
956.5, 21.660385927485905
957.0000000000001, 21.80069268618081
957.5000000000001, 21.936716272889825
958.0000000000001, 22.022517553005997
958.5, 22.116277985057394
959, 22.3417652778259
959.5000000000001, 22.580037655444002
960.0000000000001, 22.672642417312545
960.5000000000001, 22.743480021974804
961.0000000000001, 22.868973132023683
961.5, 22.92921456622578
962, 22.89652553470475
962.5000000000001, 22.845081521352455
963.0000000000001, 22.82853091352834
963.5000000000001, 22.88177451195098
964, 23.013136978210113
964.5, 23.18523583373552
965.0000000000001, 23.29671599271296
965.5000000000001, 23.385065980254566
966.0000000000001, 23.591965820183518
966.5000000000001, 23.816929833084643
967, 23.911112016156196
967.5000000000001, 23.97710378183305
968.0000000000001, 24.105171213980967
968.5000000000001, 24.260210788773193
969.0000000000001, 24.40354719059347
969.5, 24.505908000373665
970, 24.543001479230767
970.5000000000001, 24.52390488788093
971.0000000000001, 24.570775795830343
971.5000000000001, 24.736937246188077
972.0000000000001, 24.908435288896754
972.5, 25.010236266483574
973.0000000000001, 25.033511664085708
973.5000000000001, 25.080383948887686
974.0000000000001, 25.254124386616297
974.5000000000001, 25.47372050915324
975, 25.655481100260246
975.5, 25.788871818444804
976.0000000000001, 25.914229301351014
976.5000000000001, 26.100019594097475
977.0000000000001, 26.320595993808197
977.5000000000001, 26.509045842066655
978, 26.61371411375312
978.5000000000001, 26.639244500017952
979.0000000000001, 26.681213918913883
979.5000000000001, 26.77005364509415
980.0000000000001, 26.869648270470833
980.5, 26.963471686915227
981.0000000000001, 27.05276032756845
981.5000000000001, 27.165032317329278
982.0000000000001, 27.310841196407722
982.5000000000001, 27.46070354524798
983, 27.603899528652576
983.5, 27.751762544215808
984.0000000000001, 27.92231811794707
984.5000000000001, 28.115336605433257
985.0000000000001, 28.25440285251075
985.5000000000001, 28.31284793315325
986, 28.379850517777214
986.5000000000001, 28.465105427164403
987.0000000000001, 28.510959173409333
987.5000000000001, 28.59590810995182
988.0000000000001, 28.79837370705934
988.5, 28.957297807513015
989, 29.004084000505983
989.5000000000001, 29.123568773227973
990.0000000000001, 29.31699450245793
990.5000000000001, 29.41521223353675
991.0000000000001, 29.43529679861517
991.5, 29.468927138960638
992.0000000000001, 29.54570514946404
992.5000000000001, 29.64968318638705
993.0000000000001, 29.71348225004516
993.5000000000001, 29.755661126461646
994, 29.86345843023024
994.5, 30.000747340178336
995.0000000000001, 30.099783004006525
995.5000000000001, 30.194900979974463
996.0000000000001, 30.267307149667886
996.5000000000001, 30.173802375958417
997, 30.01007980706271
997.5000000000001, 30.057359683863112
998.0000000000001, 30.22633084266758
998.5000000000001, 30.329298523318585
999.0000000000001, 30.47254770666015
999.5, 30.743496050367582
1000.0000000000001, 31.07339119304261
1000.5000000000001, 31.34005105534891
1001.0000000000001, 31.40853795042274
1001.5000000000001, 31.3142059199441
1002, 31.170328897846886
1002.5, 31.078533513808836
1003.0000000000001, 31.111590198903755
1003.5000000000001, 31.289659580095275
1004.0000000000001, 31.51008984066324
1004.5000000000001, 31.59525915015176
1005, 31.63002324719129
1005.5000000000001, 31.76338706734289
1006.0000000000001, 31.9194566961542
1006.5000000000001, 31.976307294853484
1007.0000000000001, 31.83243630649403
1007.5, 31.6025673199467
1008, 31.561467433172226
1008.5000000000001, 31.68873331109502
1009.0000000000001, 31.854893209828447
1009.5000000000001, 32.053178754588515
1010.0000000000001, 32.28150583752705
1010.5, 32.49660660662542
1011.0000000000001, 32.66652841131561
1011.5000000000001, 32.771841472459585
1012.0000000000001, 32.778611884245265
1012.5000000000001, 32.69218046353245
1013, 32.685284789522186
1013.5000000000001, 32.82654182682637
1014.0000000000001, 32.94035902543574
1014.5000000000001, 33.02760710073838
1015.0000000000001, 33.24304907143761
1015.5000000000001, 33.48910158687829
1016, 33.614072680208224
1016.5000000000001, 33.713523832043066
1017.0000000000001, 33.84096126998317
1017.5000000000001, 33.88285738213784
1018.0000000000001, 33.88775436138212
1018.5, 34.0412516731799
1019.0000000000001, 34.30703551502701
1019.5000000000001, 34.54086757211449
1020.0000000000001, 34.59845275658225
1020.5000000000001, 34.45967567265771
1021, 34.31898458268127
1021.5, 34.25216573550857
1022.0000000000001, 34.21290981900276
1022.5000000000001, 34.21523365353546
1023.0000000000001, 34.30246483123459
1023.5000000000001, 34.5119473693227
1024, 34.80257962657771
1024.5, 35.004678279669875
1025, 35.114421545711025
1025.5, 35.267288269060614
1026, 35.3969427326728
1026.5, 35.39579137660078
1027, 35.36211862903107
1027.5, 35.39985077791894
1028, 35.53506339882766
1028.5, 35.70430014097619
1029, 35.79322654553482
1029.5, 35.87702786353833
1030, 36.04706099352947
1030.5, 36.12603799090361
1031, 36.04388843992838
1031.5, 36.020938278868954
1032, 36.10610537202845
1032.5, 36.181129453797325
1033, 36.270389223996574
1033.5, 36.43099007571368
1034, 36.58373808803195
1034.5, 36.67763940969594
1035, 36.76593254772075
1035.5, 36.88294157149756
1036, 37.0304973796176
1036.5, 37.16974223701888
1037, 37.2718006683732
1037.5, 37.41084174651034
1038, 37.590762156892936
1038.5, 37.65586227025813
1039, 37.582799296433414
1039.5, 37.48271439993412
1040, 37.447845445180214
1040.5, 37.52660726676765
1041, 37.650074602877915
1041.5, 37.79413504074036
1042, 38.053798971415745
1042.5, 38.373522829794766
1043, 38.572206721326445
1043.5, 38.65803638434295
1044, 38.72380638320887
1044.5, 38.836137272119686
1045, 38.99273801563517
1045.5, 39.084863323965855
1046, 39.10285024302091
1046.5, 39.13061042790857
1047, 39.192660307932435
1047.5, 39.28848095607009
1048, 39.43408540759529
1048.5, 39.61710851868794
1049, 39.77132733023425
1049.5, 39.89317131940857
1050, 40.02844989640217
1050.5, 40.11903800732931
1051, 40.12761994819691
1051.5, 40.27105585246563
1052, 40.605705759717765
1052.5, 40.811451359122906
1053, 40.768856467879495
1053.5, 40.585495413827246
1054, 40.42413554123544
1054.5, 40.418373161181364
1055, 40.51635584901499
1055.5, 40.65707015790165
1056, 40.83682005243171
1056.5, 41.033261050845574
1057, 41.20937213589853
1057.5, 41.38955473207086
1058, 41.61536166899029
1058.5, 41.88375858736171
1059, 42.10992924579037
1059.5, 42.09599284598105
1060, 41.91705863800851
1060.5, 41.8729540664665
1061, 41.97793766745446
1061.5, 42.11831212606734
1062, 42.2198845362223
1062.5, 42.30766106430393
1063, 42.55264985299231
1063.5, 42.86027315386889
1064, 42.930724055829664
1064.5, 42.87220627388814
1065, 42.90810516225902
1065.5, 42.970384222684956
1066, 43.007311097197906
1066.5, 43.10740555108193
1067, 43.24548295900164
1067.5, 43.30336441017661
1068, 43.35426985210061
1068.5, 43.507635869803025
1069, 43.672309968052936
1069.5, 43.77061381418921
1070, 43.83078940742242
1070.5, 43.91293449134641
1071, 44.07394449693015
1071.5, 44.19567008336486
1072, 44.19556932018073
1072.5, 44.41411856404385
1073, 44.93091241046997
1073.5, 45.219042808276214
1074, 45.22712006218459
1074.5, 45.34420237780563
1075, 45.54978758428422
1075.5, 45.66688792932641
1076, 45.67821280639291
1076.5, 45.64661600654447
1077, 45.70620460622615
1077.5, 45.87013216907198
1078, 46.04011949976806
1078.5, 46.16551403597012
1079, 46.235246118055365
1079.5, 46.29306858401181
1080, 46.372500552762475
1080.5, 46.468464643747076
1081, 46.601813826896716
1081.5, 46.80448491777456
1082, 46.981498365077876
1082.5, 47.04802936270587
1083, 47.170943902114935
1083.5, 47.43719211667332
1084, 47.69601881795663
1084.5, 47.87508137242787
1085, 47.99069446042469
1085.5, 48.016688359658254
1086, 47.95626718393253
1086.5, 47.9945033204097
1087, 48.179541877338124
1087.5, 48.260706123291506
1088, 48.2920424825184
1088.5, 48.57573629756317
1089, 48.95603804796667
1089.5, 49.17326917807076
1090, 49.38365469765416
1090.5, 49.676968776277775
1091, 49.86574974194208
1091.5, 49.884604794185314
1092, 49.81338505366635
1092.5, 49.7907307711822
1093, 49.9135853726246
1093.5, 50.0392880328326
1094, 50.112723381561956
1094.5, 50.314817938260276
1095, 50.554382392150075
1095.5, 50.53444292143856
1096, 50.46537515386737
1096.5, 50.65902950115834
1097, 50.922143187924675
1097.5, 51.092966092702696
1098, 51.26192647612524
1098.5, 51.42446941047724
1099, 51.49062046211012
1099.5, 51.56492761186665
1100, 51.77719955679373
1100.5, 52.014187919013764
1101, 52.16661464151581
1101.5, 52.23151342772336
1102, 52.25530829864596
1102.5, 52.30616818187736
1103, 52.34759554824616
1103.5, 52.34043800923295
1104, 52.413537459352774
1104.5, 52.64947994362005
1105, 52.979857143059995
1105.5, 53.28404206395373
1106, 53.43379159417646
1106.5, 53.50280233234864
1107, 53.60201783558464
1107.5, 53.635623854884145
1108, 53.550889719260766
1108.5, 53.45254616793862
1109, 53.43179229815349
1109.5, 53.532604499074395
1110, 53.64242131186917
1110.5, 53.64860592200917
1111, 53.69818202772884
1111.5, 53.84715451066368
1112, 53.90029173178744
1112.5, 53.90102399098892
1113, 54.08368118696499
1113.5, 54.290958125654136
1114, 54.28609450982116
1114.5, 54.218441117490684
1115, 54.2419682506093
1115.5, 54.36185931852165
1116, 54.51406935990437
1116.5, 54.60162616675408
1117, 54.65485401615958
1117.5, 54.730735996604935
1118, 54.766305176459205
1118.5, 54.75215132917241
1119, 54.81457666080816
1119.5, 54.95928278568082
1120, 55.07301380370335
1120.5, 55.0714845139311
1121, 54.94291043706927
1121.5, 54.87854856891808
1122, 54.96889024519444
1122.5, 55.05065275100587
1123, 55.0342854220304
1123.5, 54.92504227277353
1124, 54.75869000331236
1124.5, 54.584439013684815
1125, 54.454187743748946
1125.5, 54.41085158895432
1126, 54.47839144273118
1126.5, 54.63918447083213
1127, 54.83421633765092
1127.5, 54.9639843559823
1128, 54.95429283652611
1128.5, 54.88720725317872
1129, 54.8486527053942
1129.5, 54.863880096356766
1130, 54.84661143869535
1130.5, 54.651718130235295
1131, 54.42198955517367
1131.5, 54.351785423639285
1132, 54.333478083164096
1132.5, 54.246095575724034
1133, 54.07240479476306
1133.5, 53.945778149319906
1134, 54.0773338600271
1134.5, 54.29219434049691
1135, 54.33485747399077
1135.5, 54.31268156320371
1136, 54.32042846502865
1136.5, 54.29043205297259
1137, 54.217560040615886
1137.5, 54.158141349469304
1138, 54.08678886059569
1138.5, 53.97433189703621
1139, 53.91804478736595
1139.5, 53.95747865499193
1140, 53.98359434312641
1140.5, 53.93969236625776
1141, 53.84075743972724
1141.5, 53.781049855913444
1142, 53.815243606560415
1142.5, 53.72941472223978
1143, 53.43923973160506
1143.5, 53.185403300328296
1144, 53.04624468608845
1144.5, 52.93140659286906
1145, 52.82148026938411
1145.5, 52.7314791804809
1146, 52.670673050480865
1146.5, 52.64921218475571
1147, 52.679899967126374
1147.5, 52.75151977327992
1148, 52.82294032177083
1148.5, 52.792717299803755
1149, 52.60542795254404
1149.5, 52.46783515021662
1150, 52.459223702866424
1150.5, 52.34367673467309
1151, 52.11016684756426
1151.5, 51.95204278370463
1152, 51.83609053349709
1152.5, 51.668576533462804
1153, 51.53002907749434
1153.5, 51.49144580387479
1154, 51.53547120691281
1154.5, 51.587396406883634
1155, 51.55101113198327
1155.5, 51.50376290062173
1156, 51.54329964511396
1156.5, 51.54917227004267
1157, 51.47032887076134
1157.5, 51.45454924037325
1158, 51.48222829856652
1158.5, 51.392180736673936
1159, 51.24643936781752
1159.5, 51.15742694879036
1160, 51.03728226918168
1160.5, 50.83745979070358
1161, 50.65461727477325
1161.5, 50.5372271527876
1162, 50.461248925521915
1162.5, 50.28438202363885
1163, 49.90728547724164
1163.5, 49.575612161788555
1164, 49.43700181201002
1164.5, 49.33714260734319
1165, 49.22000594877317
1165.5, 49.13862542703859
1166, 49.08409466103391
1166.5, 49.01226892486308
1167, 48.863525641670584
1167.5, 48.63251028297434
1168, 48.41224943230134
1168.5, 48.24468802993992
1169, 48.1163825833595
1169.5, 48.014323825861126
1170, 47.92890083799923
1170.5, 47.858753599671154
1171, 47.81857167977387
1171.5, 47.84257640401497
1172, 47.861408454999264
1172.5000000000002, 47.72356768718234
1173, 47.383003409797766
1173.5, 46.90635802594557
1174, 46.579829102796744
1174.5, 46.49376294081666
1175.0000000000002, 46.32676224996451
1175.5, 46.08085852977109
1176, 46.03228912422593
1176.5, 46.01739105336667
1177, 45.806089846818324
1177.5000000000002, 45.6765286551174
1178, 45.721525469627274
1178.5, 45.5321593644715
1179, 45.115169336556406
1179.5, 44.849663039464005
1180, 44.723957618466
1180.5, 44.583294787577294
1181, 44.43436246572401
1181.5, 44.3263320937308
1182, 44.3134926414183
1182.5, 44.33932783772479
1183, 44.26826648132273
1183.5000000000002, 44.13320983856706
1184, 44.00678820451528
1184.5, 43.81913144344754
1185, 43.50753144405876
1185.5, 43.08461842155489
1186.0000000000002, 42.699727852190556
1186.5, 42.56723868238058
1187, 42.50187313295074
1187.5, 42.24675030606456
1188, 41.95592800595798
1188.5000000000002, 41.76371221728656
1189, 41.61080520672703
1189.5, 41.46718524637548
1190, 41.344846584633935
1190.5, 41.23853146268367
1191.0000000000002, 41.12674044130118
1191.5, 40.9616639486909
1192, 40.73310859525511
1192.5, 40.50556479833943
1193, 40.319529719314005
1193.5, 40.18152054887555
1194, 40.056508982179665
1194.5000000000002, 39.90372656413601
1195, 39.72883142526771
1195.5, 39.54967067942772
1196, 39.3849034578168
1196.5, 39.20762458082138
1197.0000000000002, 38.963346501838565
1197.5, 38.703201161122884
1198, 38.49374338872795
1198.5, 38.280542108667454
1199, 38.04490027856058
1199.5000000000002, 37.87440075651572
1200, 37.793880636052535
1200.5, 37.75054429943626
1201, 37.60628477081342
1201.5, 37.24615227073959
1202.0000000000002, 36.77448607265828
1202.5, 36.347499912318256
1203, 36.115486304555176
1203.5, 36.01413977578743
1204, 35.818236583315056
1204.5000000000002, 35.55383239807152
1205, 35.332548840051174
1205.5, 35.14549245405931
1206, 34.95735779598084
1206.5, 34.73677080005427
1207, 34.50901346277139
1207.5, 34.347045037519976
1208.0000000000002, 34.29911927120996
1208.5, 34.34719901205668
1209, 34.282533950965075
1209.5, 34.0047932170786
1210, 33.67371374731552
1210.5000000000002, 33.39273496536774
1211, 33.17964194074416
1211.5, 32.96761294140731
1212, 32.69219352505124
1212.5, 32.431428881645616
1213.0000000000002, 32.239097662991426
1213.5, 32.07092591689664
1214, 31.874374850061187
1214.5, 31.615954306592826
1215, 31.396940985230444
1215.5000000000002, 31.296118166694924
1216, 31.093282664788617
1216.5, 30.713885799335117
1217, 30.441942728341246
1217.5, 30.346630739909784
1218, 30.271538481923614
1218.5, 30.06942431768391
1219, 29.697619237279
1219.5, 29.45372938340975
1220, 29.42715537056273
1220.5, 29.23070364909624
1221, 28.818113128115584
1221.5000000000002, 28.472388949579184
1222, 28.307569521943947
1222.5, 28.278077407351887
1223, 28.0718794601797
1223.5, 27.592381546343972
1224.0000000000002, 27.20637377492551
1224.5, 27.000552416744014
1225, 26.79426189812598
1225.5, 26.618775895160226
1226, 26.547023815442557
1226.5000000000002, 26.43702941411412
1227, 26.26230971163686
1227.5, 26.26349688550596
1228, 26.351216450560955
1228.5, 26.16997445311266
1229.0000000000002, 25.792990815425597
1229.5, 25.44608440443652
1230, 25.175755081269372
1230.5, 24.968211557754174
1231, 24.77195661480519
1231.5, 24.486928197045543
1232, 24.017003093530917
1232.5000000000002, 23.605058230817306
1233, 23.50872573137167
1233.5, 23.482481781174556
1234, 23.32314284061627
1234.5, 23.09510272963705
1235.0000000000002, 22.85146494677595
1235.5, 22.616647917678137
1236, 22.45896794821975
1236.5, 22.392541509373046
1237, 22.168031980785656
1237.5000000000002, 21.72004300633101
1238, 21.39129126325942
1238.5, 21.26959146959031
1239, 21.175776696866976
1239.5, 20.929605079642158
1240.0000000000002, 20.461132625225233
1240.5, 20.075817228692543
1241, 19.973898962347974
1241.5, 20.029124375747614
1242, 20.134501909506668
1242.5000000000002, 20.231169958123516
1243, 20.26964902336789
1243.5, 20.210744134792577
1244, 20.039958247156846
1244.5, 19.81305006012576
1245, 19.687069538113775
1245.5, 19.60348301231035
1246.0000000000002, 19.346445962809
1246.5, 19.05218972900714
1247, 18.92515939437
1247.5, 18.826831641352115
1248, 18.679866687261764
1248.5000000000002, 18.63784993324819
1249, 18.708064186265702
1249.5, 18.75257093332499
1250, 18.69021440321552
1250.5, 18.49879157846904
1251.0000000000002, 18.263254441406374
1251.5, 18.063678906744286
1252, 17.929055602236048
1252.5, 17.86006078729868
1253, 17.83520282451984
1253.5000000000002, 17.823252305525074
1254, 17.790559544260887
1254.5, 17.710096290634993
1255, 17.60234904629418
1255.5, 17.56193775088606
1256.0000000000002, 17.573249467570648
1256.5, 17.533760179997316
1257.0000000000002, 17.485869876675167
1257.5, 17.501025923755577
1258, 17.511688988561446
1258.5, 17.442536670402518
1259, 17.26515049934936
1259.5000000000002, 17.083248552988053
1260, 17.078332815762224
1260.5, 17.150727185502703
1261, 17.144614417932758
1261.5, 17.168085027041997
1262.0000000000002, 17.26543224919658
1262.5, 17.274241814422965
1263, 17.13574043324698
1263.5, 16.913633854027324
1264, 16.75253801931872
1264.5000000000002, 16.75881268417544
1265, 16.780002647141174
1265.5, 16.745069238295684
1266, 16.81449610553534
1266.5, 16.979071083278086
1267.0000000000002, 17.075932318881215
1267.5, 17.092872480433584
1268, 17.09245583236431
1268.5, 17.14601160998332
1269, 17.243644767774114
1269.5000000000002, 17.237819822491986
1270, 17.10131498255484
1270.5000000000002, 16.91963493977171
1271, 16.7188495133759
1271.5, 16.51595619199864
1272, 16.398635444674667
1272.5, 16.411731045299078
1273.0000000000002, 16.49854958121604
1273.5, 16.597927613349498
1274, 16.659039932209595
1274.5, 16.67088862989894
1275, 16.65023923991457
1275.5000000000002, 16.646881449544537
1276, 16.64846358984228
1276.5, 16.53116014464402
1277, 16.337313375179633
1277.5, 16.242176292754635
1278.0000000000002, 16.220476829955672
1278.5, 16.18497261946149
1279, 16.163280376761065
1279.5, 16.179755792747173
1280, 16.207235074409155
1280.5000000000002, 16.184420458123697
1281, 16.047293264075364
1281.5, 15.908981206693923
1282, 15.90383103944309
1282.5, 15.953242997449749
1283, 15.973016974342954
1283.5, 15.95344185812803
1284.0000000000002, 15.936157749518756
1284.5, 15.979062711867797
1285, 15.96408023144339
1285.5, 15.781401045941948
1286, 15.635331835376519
1286.5000000000002, 15.621638300029417
1287, 15.540943991772536
1287.5, 15.433909061162268
1288, 15.533001679085473
1288.5, 15.690832077142346
1289.0000000000002, 15.680137333002904
1289.5, 15.618886997892048
1290, 15.618696866774286
1290.5, 15.64842550313223
1291, 15.681111844469086
1291.5000000000002, 15.703860764684478
1292, 15.685170630663805
1292.5, 15.61273583911094
1293, 15.57236765930216
1293.5, 15.618670519097137
1294.0000000000002, 15.714374498636417
1294.5, 15.811869451905892
1295.0000000000002, 15.870844944428583
1295.5, 15.91441964849811
1296, 15.966499554826939
1296.5, 15.952189008620962
1297, 15.848747778983252
1297.5000000000002, 15.757940554941541
1298, 15.719357328210322
1298.5, 15.710614161215204
1299, 15.746367634021937
1299.5, 15.816237714351217
1300.0000000000002, 15.759936460364628
1300.5, 15.546162941724688
1301.0000000000002, 15.414918300691852
1301.5, 15.444392301160079
1302.0000000000002, 15.536782509006528
1302.5000000000002, 15.543026316779631
1303, 15.377046553237221
1303.5000000000002, 15.246004163402887
1304, 15.280542882233831
1304.5000000000002, 15.372546058204549
1305.0000000000002, 15.505875335782719
1305.5, 15.742038295890978
1306.0000000000002, 15.945268041215172
1306.5, 15.955182197554507
1307.0000000000002, 15.847836304744149
1307.5000000000002, 15.705970965338764
1308, 15.538095106914483
1308.5000000000002, 15.432910822766672
1309, 15.521565629562573
1309.5000000000002, 15.662725500487284
1310, 15.655380748220509
1310.5, 15.531469185120969
1311.0000000000002, 15.377377539435017
1311.5, 15.282861476655427
1312.0000000000002, 15.301735832422565
1312.5, 15.436607117854749
1313, 15.548331086552665
1313.5000000000002, 15.497276787903118
1314, 15.367605272550136
1314.5000000000002, 15.240525351942125
1315, 15.10806346501846
1315.5000000000002, 14.979517982156423
1316.0000000000002, 14.880476717239773
1316.5, 14.782822736817593
1317.0000000000002, 14.677393333264092
1317.5, 14.707689553319042
1318.0000000000002, 14.913172431267768
1318.5000000000002, 15.102098296368354
1319, 15.197267095110902
1319.5000000000002, 15.245114012424395
1320, 15.296697000715383
1320.5000000000002, 15.38687819713573
1321.0000000000002, 15.49324348336495
1321.5, 15.591125876502844
1322.0000000000002, 15.672843856075232
1322.5, 15.715137977936806
1323.0000000000002, 15.682910191559003
1323.5, 15.568287848116498
1324, 15.402714935636283
1324.5000000000002, 15.31022186438453
1325, 15.345660030221737
1325.5000000000002, 15.413703824798361
1326, 15.494692411380754
1326.5, 15.633079530791392
1327.0000000000002, 15.745971187223788
1327.5, 15.724421461958173
1328.0000000000002, 15.577245838631427
1328.5, 15.38363527779967
1329.0000000000002, 15.291230516541418
1329.5000000000002, 15.294586663292705
1330, 15.263738219723564
1330.5000000000002, 15.207414190037653
1331, 15.188231245717475
1331.5000000000002, 15.227386537540255
1332.0000000000002, 15.300530908338516
1332.5, 15.32495842056764
1333.0000000000002, 15.298642408200209
1333.5, 15.290700342883326
1334.0000000000002, 15.324160129164412
1334.5, 15.396261654685432
1335, 15.491938432319927
1335.5000000000002, 15.602292900064782
1336, 15.7314596399397
1336.5000000000002, 15.842264158082116
1337, 15.869633768684409
1337.5, 15.825072188276678
1338.0000000000002, 15.749282811123734
1338.5, 15.660740117925798
1339.0000000000002, 15.565746053793788
1339.5, 15.4586904185729
1340.0000000000002, 15.344752224110323
1340.5000000000002, 15.24155136969803
1341, 15.179942381725098
1341.5000000000002, 15.188562381982535
1342, 15.267151309146726
1342.5000000000002, 15.363450331736388
1343.0000000000002, 15.354100084947845
1343.5, 15.255523841032826
1344.0000000000002, 15.197846453169944
1344.5, 15.18050574285536
1345.0000000000002, 15.177567602220819
1345.5000000000002, 15.288544353629064
1346, 15.50526197699564
1346.5000000000002, 15.599360319928564
1347, 15.574100871163253
1347.5000000000002, 15.624584614789825
1348, 15.687844130393685
1348.5, 15.644046985751203
1349.0000000000002, 15.597524706305052
1349.5, 15.618418656838799
1350.0000000000002, 15.637071842562904
1350.5, 15.650733575704905
1351, 15.714139480781057
1351.5000000000002, 15.77268281081362
1352, 15.747777637019865
1352.5000000000002, 15.655417450682194
1353, 15.549263563597776
1353.5000000000002, 15.505584004130156
1354.0000000000002, 15.47958821571524
1354.5, 15.349029543130882
1355.0000000000002, 15.236102539810148
1355.5, 15.290014179091344
1356.0000000000002, 15.360274544993644
1356.5000000000002, 15.340003807558077
1357, 15.309303623684244
1357.5000000000002, 15.334428188140933
1358, 15.434391314138324
1358.5000000000002, 15.489495945391099
1359.0000000000002, 15.40022483928334
1359.5, 15.354784403862837
1360.0000000000002, 15.425645365740309
1360.5, 15.388926390083355
1361.0000000000002, 15.217472761301124
1361.5, 15.066740675754872
1362, 14.951236315686614
1362.5000000000002, 14.851944683188535
1363, 14.866780036969871
1363.5000000000002, 15.020059780481574
1364, 15.17004763147277
1364.5000000000002, 15.254387197016214
1365.0000000000002, 15.30173409327682
1365.5, 15.383707103922106
1366.0000000000002, 15.541576726936043
1366.5, 15.6481316208814
1367.0000000000002, 15.641558934060697
1367.5000000000002, 15.630668402443831
1368, 15.635036039021344
1368.5000000000002, 15.59068034379419
1369, 15.51537768447561
1369.5000000000002, 15.456602100212422
1370.0000000000002, 15.430395179696532
1370.5, 15.431992741251022
1371.0000000000002, 15.432377096955818
1371.5, 15.394416846110033
1372.0000000000002, 15.285684125444902
1372.5000000000002, 15.14734486546702
1373, 15.0568210668511
1373.5000000000002, 15.099512641803827
1374, 15.226760923920352
1374.5000000000002, 15.174442409077997
1375, 15.001755898020136
1375.5, 15.022308935081497
1376.0000000000002, 15.158108649396752
1376.5, 15.211616447691313
1377.0000000000002, 15.20536132183679
1377.5, 15.188698672809679
1378.0000000000002, 15.173523839563785
1378.5000000000002, 15.157563928129434
1379, 15.141369481679519
1379.5000000000002, 15.216622986676683
1380, 15.439798282521465
1380.5000000000002, 15.601106756349054
1381.0000000000002, 15.569652371887813
1381.5, 15.448111371221557
1382.0000000000002, 15.317702027525513
1382.5, 15.226658947405994
1383.0000000000002, 15.272326522717378
1383.5000000000002, 15.494707856129224
1384, 15.656019747325885
1384.5000000000002, 15.653385075103031
1385, 15.70785010610544
1385.5000000000002, 15.837377180162335
1386.0000000000002, 15.866380914780251
1386.5, 15.73393217711319
1387.0000000000002, 15.495398086619218
1387.5, 15.4163312672557
1388.0000000000002, 15.582330093819067
1388.5, 15.703557655431467
1389, 15.693965253457975
1389.5000000000002, 15.672293428471718
1390, 15.689151298540793
1390.5000000000002, 15.785467780929594
1391, 16.085409389568667
1391.5000000000002, 16.529593090427284
1392.0000000000002, 16.735007773070535
1392.5, 16.721022942165135
1393.0000000000002, 16.818417393023438
1393.5, 16.80174082985377
1394.0000000000002, 16.395345965880963
1394.5000000000002, 16.04439977347066
1395, 16.01411527058943
1395.5000000000002, 16.0015414040854
1396, 15.866011013996072
1396.5000000000002, 15.664529845105946
1397.0000000000002, 15.484083554212006
1397.5, 15.38363159044674
1398.0000000000002, 15.288623122001823
1398.5, 15.16628711969264
1399.0000000000002, 15.10247740618938
1399.5, 15.135680848871715
1400, 15.252623000229377
