201.5, 0.8920554003724395
202, 0.8920554003724395
202.49999999999997, 0.8920554003724395
203, 0.8920554003724395
203.5, 0.8920554003724395
204, 0.8920554003724395
205.5, 0.8922831315952824
206, 0.8922831315952824
207, 0.8902335505896959
207.5, 0.8918276691495965
208, 0.8918276691495965
208.5, 0.8922831315952824
208.99999999999997, 0.8922831315952824
209.5, 0.8927385940409683
210, 0.8927385940409683
210.5, 0.8904612818125388
211, 0.8904612818125388
211.49999999999997, 0.8911444754810677
212, 0.8911444754810677
212.5, 0.8925108628181254
213, 0.8925108628181254
213.5, 0.8922831315952824
214, 0.8922831315952824
214.5, 0.8918276691495965
215, 0.8918276691495965
215.49999999999997, 0.8913722067039106
216, 0.8913722067039106
216.5, 0.8927385940409683
217, 0.8927385940409683
217.5, 0.8922831315952824
217.99999999999997, 0.8922831315952824
218.5, 0.8918276691495965
219, 0.8918276691495965
219.5, 0.8913722067039106
220, 0.8913722067039106
220.5, 0.8906890130353817
221, 0.8906890130353817
221.5, 0.889550356921167
221.99999999999997, 0.889550356921167
222.5, 0.8911444754810677
223, 0.8911444754810677
223.5, 0.8909167442582246
224, 0.8909167442582246
224.49999999999997, 0.8902335505896959
225, 0.8902335505896959
225.5, 0.8902335505896959
226, 0.8909167442582246
226.5, 0.8909167442582246
227, 0.8900058193668529
227.5, 0.8900058193668529
228, 0.8913722067039106
228.5, 0.8913722067039106
229, 0.8904612818125388
229.5, 0.8904612818125388
230, 0.8911444754810677
230.5, 0.8911444754810677
230.99999999999997, 0.8906890130353817
231.5, 0.8906890130353817
232, 0.8906890130353817
232.5, 0.8906890130353817
233, 0.8922831315952824
233.49999999999997, 0.8922831315952824
234, 0.8922831315952824
234.5, 0.8922831315952824
235, 0.8918276691495965
235.5, 0.8918276691495965
236, 0.8904612818125388
236.5, 0.8904612818125388
237, 0.8913722067039106
237.49999999999997, 0.8913722067039106
238, 0.8925108628181254
238.5, 0.8925108628181254
239, 0.8931940564866543
239.5, 0.8931940564866543
239.99999999999997, 0.8909167442582246
240.5, 0.8909167442582246
241, 0.8920554003724395
241.5, 0.8920554003724395
242, 0.8934217877094972
242.5, 0.8934217877094972
243, 0.8934217877094972
243.5, 0.8934217877094972
243.99999999999997, 0.8929663252638113
244.5, 0.8929663252638113
245, 0.8934217877094972
245.5, 0.8934217877094972
246, 0.8931940564866543
246.49999999999997, 0.8931940564866543
247, 0.8920554003724395
247.5, 0.8920554003724395
248, 0.8927385940409683
248.5, 0.8927385940409683
248.99999999999997, 0.8922831315952824
249.5, 0.8922831315952824
250, 0.8929663252638113
250.5, 0.8929663252638113
251, 0.8950159062693979
251.5, 0.8950159062693979
252, 0.8950159062693979
252.5, 0.894560443823712
252.99999999999997, 0.894560443823712
253.5, 0.894332712600869
254, 0.894332712600869
254.5, 0.8961545623836127
255, 0.8961545623836127
255.49999999999997, 0.8963822936064556
256, 0.8963822936064556
256.5, 0.894788175046555
257, 0.894788175046555
257.5, 0.8972932184978274
258, 0.8972932184978274
258.5, 0.8959268311607698
259, 0.8959268311607698
259.5, 0.894560443823712
260, 0.894560443823712
260.5, 0.8966100248292985
261, 0.8966100248292985
261.5, 0.8968377560521416
262, 0.8968377560521416
262.5, 0.8961545623836127
263, 0.8961545623836127
263.5, 0.894788175046555
264, 0.894788175046555
264.5, 0.8961545623836127
265, 0.8961545623836127
265.5, 0.8972932184978274
266, 0.8972932184978274
266.5, 0.8968377560521416
267, 0.8968377560521416
267.5, 0.8979764121663563
268, 0.8979764121663563
268.5, 0.8963822936064556
269, 0.8963822936064556
269.5, 0.8977486809435133
270, 0.8977486809435133
270.5, 0.8984318746120422
271, 0.8984318746120422
271.5, 0.8988873370577282
272, 0.8988873370577282
272.5, 0.8991150682805711
273, 0.8991150682805711
273.5, 0.9002537243947859
274, 0.9002537243947859
274.5, 0.9007091868404717
275, 0.9007091868404717
275.5, 0.8997982619491
276, 0.8997982619491
276.5, 0.899570530726257
277, 0.899570530726257
277.5, 0.9000259931719429
278, 0.9000259931719429
278.5, 0.9000259931719429
279, 0.9004814556176288
279.5, 0.9004814556176288
280, 0.899570530726257
280.5, 0.899570530726257
281, 0.899570530726257
281.5, 0.899570530726257
282, 0.9004814556176288
282.5, 0.9004814556176288
283, 0.9011646492861577
283.5, 0.9011646492861577
284, 0.9016201117318435
284.5, 0.9016201117318435
285, 0.9011646492861577
285.5, 0.9011646492861577
286, 0.9027587678460584
286.5, 0.9027587678460584
287, 0.9013923805090006
287.5, 0.9013923805090006
288, 0.9009369180633147
288.5, 0.9009369180633147
289, 0.9007091868404717
289.5, 0.9007091868404717
290, 0.9002537243947859
290.5, 0.9002537243947859
291, 0.9011646492861577
291.5, 0.9011646492861577
292, 0.9020755741775295
292.5, 0.9020755741775295
293, 0.9036696927374301
293.5, 0.9036696927374301
294, 0.9041251551831161
294.5, 0.9041251551831161
295, 0.9061747361887027
295.5, 0.9061747361887027
296, 0.9057192737430168
296.5, 0.9057192737430168
297, 0.9052638112973308
297.5, 0.9052638112973308
298, 0.904580617628802
298.5, 0.904580617628802
299, 0.9054915425201738
299.5, 0.9054915425201738
300, 0.9061747361887027
300.5, 0.9061747361887027
301, 0.9068579298572316
301.5, 0.9068579298572316
302, 0.9073133923029174
302.5, 0.9073133923029174
303, 0.9077688547486034
303.5, 0.9077688547486034
304, 0.9077688547486034
304.5, 0.9077688547486034
305, 0.9077688547486034
305.5, 0.9077688547486034
306, 0.9077688547486034
306.5, 0.9066301986343885
307, 0.9066301986343885
307.5, 0.9084520484171322
308, 0.9084520484171322
308.5, 0.9086797796399751
309, 0.9086797796399751
309.5, 0.9077688547486034
310, 0.9077688547486034
310.5, 0.9082243171942893
311, 0.9082243171942893
311.5, 0.909362973308504
312, 0.909362973308504
312.5, 0.9084520484171322
313, 0.9084520484171322
313.5, 0.9082243171942893
314, 0.9082243171942893
314.5, 0.9095907045313469
315, 0.9095907045313469
315.5, 0.9111848230912477
316, 0.9111848230912477
316.5, 0.9102738981998758
317, 0.9102738981998758
317.5, 0.9114125543140906
318, 0.9114125543140906
318.5, 0.9109570918684047
319, 0.9109570918684047
319.5, 0.9111848230912477
320, 0.9111848230912477
320.5, 0.9125512104283054
321, 0.9125512104283054
321.5, 0.9118680167597766
322, 0.9118680167597766
322.5, 0.9127789416511484
323, 0.9127789416511484
323.5, 0.9134621353196772
324, 0.9134621353196772
324.5, 0.9134621353196772
325, 0.9134621353196772
325.5, 0.9152839851024208
326, 0.9152839851024208
326.5, 0.9139175977653631
327, 0.9139175977653631
327.49999999999994, 0.9132344040968343
328, 0.9132344040968343
328.5, 0.9139175977653631
329, 0.9139175977653631
329.5, 0.9150562538795779
329.99999999999994, 0.9150562538795779
330.5, 0.9164226412166356
331, 0.9164226412166356
331.5, 0.9166503724394786
332, 0.9166503724394786
332.49999999999994, 0.9166503724394786
333, 0.9164226412166356
333.5, 0.9164226412166356
334, 0.9161949099937927
334.5, 0.9161949099937927
334.99999999999994, 0.9168781036623216
335.5, 0.9168781036623216
336, 0.9171058348851645
336.5, 0.9171058348851645
337, 0.9164226412166356
337.5, 0.9164226412166356
338, 0.9184722222222222
338.5, 0.9184722222222222
339, 0.9184722222222222
339.5, 0.9184722222222222
340, 0.9205218032278089
340.5, 0.9205218032278089
341, 0.9214327281191806
341.5, 0.9214327281191806
342, 0.919383147113594
342.5, 0.919383147113594
342.99999999999994, 0.9212049968963377
343.5, 0.9212049968963377
344, 0.9209772656734947
344.5, 0.9209772656734947
345, 0.9223436530105524
345.49999999999994, 0.9223436530105524
346, 0.9218881905648666
346.5, 0.9218881905648666
347, 0.9221159217877095
347.5, 0.9221159217877095
347.99999999999994, 0.9214327281191806
348.5, 0.9214327281191806
349, 0.9241655027932961
349.5, 0.9241655027932961
350, 0.9241655027932961
350.49999999999994, 0.9241655027932961
351, 0.9250764276846679
351.5, 0.9250764276846679
352, 0.9232545779019243
352.5, 0.9232545779019243
353, 0.9230268466790813
353.5, 0.9230268466790813
354, 0.9232545779019243
354.5, 0.9232545779019243
355, 0.9216604593420236
355.5, 0.9216604593420236
356, 0.9200663407821229
356.5, 0.9200663407821229
357, 0.9216604593420236
357.5, 0.9216604593420236
358, 0.924620965238982
358.49999999999994, 0.924620965238982
359, 0.924620965238982
359.5, 0.9264428150217257
360, 0.9264428150217257
360.5, 0.9280369335816263
360.99999999999994, 0.9280369335816263
361.5, 0.9287201272501552
362, 0.9287201272501552
362.5, 0.9282646648044692
363, 0.9282646648044692
363.49999999999994, 0.929403320918684
364, 0.929403320918684
364.5, 0.9309974394785847
365, 0.9309974394785847
365.5, 0.9323638268156424
365.99999999999994, 0.9323638268156424
366.5, 0.9314529019242707
367, 0.9314529019242707
367.5, 0.9314529019242707
368, 0.9314529019242707
368.5, 0.9325915580384854
369, 0.9325915580384854
369.5, 0.9323638268156424
370, 0.9323638268156424
370.5, 0.9316806331471136
371, 0.9316806331471136
371.49999999999994, 0.9323638268156424
372, 0.9323638268156424
372.5, 0.9325915580384854
373, 0.9325915580384854
373.5, 0.9344134078212291
373.99999999999994, 0.9344134078212291
374.5, 0.934868870266915
375, 0.934868870266915
375.5, 0.9360075263811297
376, 0.9360075263811297
376.49999999999994, 0.9364629888268157
377, 0.9364629888268157
377.5, 0.9364629888268157
378, 0.9364629888268157
378.5, 0.9350966014897579
378.99999999999994, 0.9350966014897579
379.5, 0.9364629888268157
380, 0.9364629888268157
380.5, 0.9357797951582868
381, 0.9357797951582868
381.5, 0.9357797951582868
382, 0.9357797951582868
382.5, 0.9353243327126008
383, 0.9353243327126008
383.5, 0.9389680322780881
384, 0.9389680322780881
384.5, 0.9391957635009311
385, 0.9391957635009311
385.5, 0.9391957635009311
386, 0.9389680322780881
386.5, 0.9389680322780881
386.99999999999994, 0.9391957635009311
387.5, 0.9391957635009311
388, 0.9394234947237741
388.5, 0.9394234947237741
389, 0.9405621508379889
389.49999999999994, 0.9405621508379889
390, 0.939651225946617
390.5, 0.939651225946617
391, 0.9389680322780881
391.5, 0.9389680322780881
391.99999999999994, 0.9401066883923029
392.5, 0.9401066883923029
393, 0.9391957635009311
393.5, 0.9391957635009311
394, 0.9417008069522036
394.49999999999994, 0.9417008069522036
395, 0.9403344196151459
395.5, 0.9403344196151459
396, 0.9430671942892613
396.5, 0.9430671942892613
397, 0.9423840006207325
397.5, 0.9423840006207325
398, 0.9417008069522036
398.5, 0.9417008069522036
399, 0.9426117318435754
399.5, 0.9426117318435754
400, 0.9426117318435754
400.5, 0.9426117318435754
401, 0.9455722377405338
401.5, 0.9455722377405338
402, 0.9460277001862197
402.49999999999994, 0.9460277001862197
403, 0.9437503879577902
403.5, 0.9437503879577902
404, 0.9444335816263191
404.5, 0.9444335816263191
404.99999999999994, 0.9460277001862197
405.5, 0.9460277001862197
406, 0.9464831626319057
406.5, 0.9464831626319057
407, 0.944889044072005
407.49999999999994, 0.944889044072005
408, 0.9464831626319057
408.5, 0.9464831626319057
409, 0.9464831626319057
409.5, 0.9464831626319057
409.99999999999994, 0.9464831626319057
410.5, 0.9464831626319057
411, 0.9487604748603352
411.5, 0.9487604748603352
412, 0.9487604748603352
412.5, 0.9464831626319057
413, 0.9464831626319057
413.5, 0.9483050124146493
414, 0.9483050124146493
414.5, 0.9478495499689634
415, 0.9478495499689634
415.49999999999994, 0.9473940875232775
416, 0.9473940875232775
416.5, 0.9462554314090627
417, 0.9462554314090627
417.5, 0.9473940875232775
417.99999999999994, 0.9473940875232775
418.5, 0.9487604748603352
419, 0.9487604748603352
419.5, 0.9503545934202359
420, 0.9503545934202359
420.49999999999994, 0.9492159373060212
421, 0.9492159373060212
421.5, 0.950126862197393
422, 0.950126862197393
422.5, 0.9510377870887647
422.99999999999994, 0.9510377870887647
423.5, 0.949671399751707
424, 0.949671399751707
424.5, 0.9508100558659218
425, 0.9508100558659218
425.49999999999994, 0.9517209807572936
426, 0.9517209807572936
426.5, 0.950126862197393
427, 0.950126862197393
427.5, 0.9508100558659218
428, 0.9508100558659218
428.5, 0.9526319056486654
429, 0.9526319056486654
429.5, 0.9537705617628802
430, 0.9537705617628802
430.5, 0.9537705617628802
430.99999999999994, 0.9537705617628802
431.5, 0.9521764432029796
432, 0.9521764432029796
432.5, 0.9537705617628802
433, 0.9537705617628802
433.49999999999994, 0.9539982929857231
434, 0.9539982929857231
434.5, 0.9537705617628802
435, 0.9537705617628802
435.5, 0.9526319056486654
435.99999999999994, 0.9526319056486654
436.5, 0.9530873680943514
437, 0.9530873680943514
437.5, 0.9549092178770949
438, 0.9549092178770949
438.49999999999994, 0.9549092178770949
439, 0.954681486654252
439.5, 0.954681486654252
440, 0.9544537554314091
440.5, 0.9544537554314091
440.99999999999994, 0.9539982929857231
441.5, 0.9539982929857231
442, 0.9530873680943514
442.5, 0.9530873680943514
443, 0.955136949099938
443.5, 0.955136949099938
444, 0.955136949099938
444.5, 0.955136949099938
445, 0.9558201427684668
445.5, 0.9558201427684668
446, 0.9558201427684668
446.49999999999994, 0.9558201427684668
447, 0.955136949099938
447.5, 0.955136949099938
448, 0.9565033364369957
448.5, 0.9565033364369957
448.99999999999994, 0.9565033364369957
449.5, 0.9565033364369957
450, 0.9565033364369957
450.5, 0.9565033364369957
451, 0.9562756052141527
451.49999999999994, 0.9562756052141527
452, 0.9558201427684668
452.5, 0.9558201427684668
453, 0.9553646803227809
453.5, 0.9553646803227809
453.99999999999994, 0.9539982929857231
454.5, 0.9539982929857231
455, 0.9537705617628802
455.5, 0.9537705617628802
456, 0.9533150993171943
456.5, 0.9533150993171943
457, 0.9528596368715084
457.5, 0.9528596368715084
458, 0.9524041744258225
458.5, 0.9524041744258225
459, 0.9517209807572936
459.49999999999994, 0.9517209807572936
460, 0.9510377870887647
460.5, 0.9510377870887647
461, 0.9521764432029796
461.5, 0.9521764432029796
461.99999999999994, 0.9530873680943514
462.5, 0.9530873680943514
463, 0.9505823246430788
463.5, 0.9505823246430788
464, 0.949671399751707
464.49999999999994, 0.949671399751707
465, 0.9492159373060212
465.5, 0.9492159373060212
466, 0.9492159373060212
466.5, 0.9487604748603352
466.99999999999994, 0.9487604748603352
467.5, 0.9503545934202359
468, 0.9503545934202359
468.5, 0.9492159373060212
469, 0.9492159373060212
469.49999999999994, 0.9489882060831781
470, 0.9489882060831781
470.5, 0.9471663563004346
471, 0.9471663563004346
471.5, 0.9483050124146493
472, 0.9483050124146493
472.5, 0.9473940875232775
473, 0.9473940875232775
473.5, 0.9462554314090627
474, 0.9462554314090627
474.5, 0.9455722377405338
474.99999999999994, 0.9455722377405338
475.5, 0.9444335816263191
476, 0.9444335816263191
476.5, 0.9462554314090627
477, 0.9462554314090627
477.49999999999994, 0.9457999689633768
478, 0.9457999689633768
478.5, 0.944661312849162
479, 0.944661312849162
479.5, 0.9451167752948479
479.99999999999994, 0.9451167752948479
480.5, 0.944889044072005
481, 0.944889044072005
481.5, 0.9435226567349473
482, 0.9435226567349473
482.49999999999994, 0.9442058504034762
483, 0.9442058504034762
483.5, 0.9423840006207325
484, 0.9423840006207325
484.5, 0.9417008069522036
484.99999999999994, 0.9417008069522036
485.5, 0.9435226567349473
486, 0.9435226567349473
486.5, 0.9444335816263191
487, 0.9444335816263191
487.5, 0.9432949255121043
488, 0.9432949255121043
488.5, 0.9442058504034762
489, 0.9442058504034762
489.5, 0.9455722377405338
490, 0.9455722377405338
490.49999999999994, 0.9471663563004346
491, 0.9471663563004346
491.5, 0.9455722377405338
492, 0.9455722377405338
492.5, 0.9455722377405338
492.99999999999994, 0.9442058504034762
493.5, 0.9442058504034762
494, 0.9455722377405338
494.5, 0.9455722377405338
495, 0.9455722377405338
495.49999999999994, 0.9455722377405338
496, 0.9432949255121043
496.5, 0.9432949255121043
497, 0.9437503879577902
497.5, 0.9437503879577902
497.99999999999994, 0.9430671942892613
498.5, 0.9430671942892613
499, 0.9410176132836747
499.5, 0.9410176132836747
500, 0.9421562693978895
500.49999999999994, 0.9421562693978895
501, 0.9428394630664184
501.5, 0.9428394630664184
502, 0.9414730757293607
502.5, 0.9414730757293607
503, 0.9414730757293607
503.49999999999994, 0.9414730757293607
504, 0.9403344196151459
504.5, 0.9403344196151459
505, 0.9401066883923029
505.5, 0.9401066883923029
505.99999999999994, 0.93987895716946
506.5, 0.93987895716946
507, 0.9385125698324023
507.5, 0.9385125698324023
508, 0.9373739137181875
508.49999999999994, 0.9373739137181875
509, 0.9387403010552452
509.5, 0.9387403010552452
510, 0.9376016449410304
510.5, 0.9376016449410304
510.99999999999994, 0.9360075263811297
511.5, 0.9360075263811297
512, 0.9355520639354438
512.5, 0.9355520639354438
513, 0.9341856765983861
513.5, 0.9341856765983861
514, 0.9341856765983861
514.5, 0.9341856765983861
515, 0.9330470204841713
515.5, 0.9330470204841713
516, 0.9323638268156424
516.5, 0.9323638268156424
517, 0.9309974394785847
517.5, 0.9309974394785847
518, 0.9312251707014276
518.5, 0.9312251707014276
519, 0.9312251707014276
519.5, 0.9289478584729981
520, 0.9289478584729981
520.5, 0.929403320918684
521, 0.929403320918684
521.5, 0.9284923960273123
522, 0.9284923960273123
522.5, 0.9278092023587834
523, 0.9278092023587834
523.5, 0.9278092023587834
524, 0.9278092023587834
524.5, 0.9255318901303539
525, 0.9255318901303539
525.5, 0.9232545779019243
526, 0.9232545779019243
526.5, 0.9232545779019243
527, 0.9232545779019243
527.5, 0.9223436530105524
528, 0.9223436530105524
528.5, 0.9200663407821229
529, 0.9200663407821229
529.5, 0.9177890285536934
530, 0.9177890285536934
530.5, 0.9171058348851645
531, 0.9171058348851645
531.5, 0.9166503724394786
532, 0.9166503724394786
532.5, 0.9157394475481068
533, 0.9157394475481068
533.5, 0.9155117163252638
534, 0.9155117163252638
534.5, 0.9132344040968343
535, 0.9132344040968343
535.5, 0.9118680167597766
536, 0.9118680167597766
536.5, 0.90981843575419
537, 0.90981843575419
537.5, 0.9091352420856611
538, 0.9091352420856611
538.5, 0.9073133923029174
539, 0.9073133923029174
539.5, 0.9070856610800745
540, 0.9070856610800745
540.5, 0.9059470049658597
541, 0.9059470049658597
541.5, 0.9052638112973308
542, 0.9052638112973308
542.5, 0.9032142302917443
543, 0.9032142302917443
543.5, 0.9007091868404717
544, 0.9007091868404717
544.5, 0.8988873370577282
545, 0.8988873370577282
545.5, 0.8988873370577282
546, 0.8982041433891993
546.5, 0.8982041433891993
547, 0.8972932184978274
547.5, 0.8972932184978274
548, 0.8959268311607698
548.5, 0.8959268311607698
549, 0.894788175046555
549.5, 0.894788175046555
550, 0.8931940564866543
550.5, 0.8931940564866543
551, 0.8922831315952824
551.5, 0.8922831315952824
552, 0.8925108628181254
552.5, 0.8925108628181254
553, 0.8902335505896959
553.5, 0.8902335505896959
554, 0.8884117008069522
554.5, 0.8884117008069522
555, 0.8872730446927375
555.5, 0.8872730446927375
556, 0.8865898510242085
556.5, 0.8865898510242085
557, 0.8861343885785227
557.5, 0.8861343885785227
558, 0.8849957324643078
558.5, 0.8849957324643078
559, 0.8838570763500931
559.5, 0.8838570763500931
560, 0.8822629577901924
560.5, 0.8822629577901924
561, 0.8804411080074488
561.5, 0.8804411080074488
562, 0.8797579143389199
562.5, 0.8797579143389199
563, 0.8781637957790193
563.5, 0.8781637957790193
564, 0.8779360645561762
564.5, 0.8779360645561762
565, 0.8772528708876475
565.5, 0.8772528708876475
566, 0.8774806021104904
566.5, 0.8774806021104904
567, 0.8761142147734327
567.5, 0.8761142147734327
568, 0.8758864835505897
568.5, 0.8758864835505897
569, 0.8756587523277467
569.5, 0.8756587523277467
570, 0.8754310211049038
570.5, 0.8754310211049038
571, 0.8749755586592178
571.5, 0.8749755586592178
572, 0.8749755586592178
572.5, 0.8726982464307883
573, 0.8726982464307883
573.5, 0.8729259776536313
574, 0.8729259776536313
574.5, 0.8731537088764743
575, 0.8731537088764743
575.5, 0.8724705152079454
576, 0.8724705152079454
576.5, 0.8713318590937306
577, 0.8713318590937306
577.5, 0.8711041278708876
578, 0.8711041278708876
578.5, 0.8708763966480447
579, 0.8708763966480447
579.5, 0.8708763966480447
580, 0.8708763966480447
580.5, 0.8697377405338299
581, 0.8697377405338299
581.5, 0.869282278088144
582, 0.869282278088144
582.5, 0.869054546865301
583, 0.869054546865301
583.5, 0.8685990844196152
584, 0.8685990844196152
584.5, 0.8681436219739292
584.9999999999998, 0.8681436219739292
585.5, 0.8674604283054004
586, 0.8674604283054004
586.5, 0.8672326970825575
587, 0.8672326970825575
587.5, 0.8676881595282433
588, 0.8676881595282433
588.5, 0.8674604283054004
589, 0.8674604283054004
589.5, 0.8674604283054004
589.9999999999998, 0.8674604283054004
590.5, 0.8670049658597144
591, 0.8670049658597144
591.5, 0.8667772346368715
592, 0.8667772346368715
592.5, 0.8670049658597144
593, 0.8670049658597144
593.5, 0.8660940409683426
594, 0.8660940409683426
594.5, 0.8656385785226568
594.9999999999998, 0.8656385785226568
595.5, 0.8663217721911856
596, 0.8663217721911856
596.5, 0.8654108472998138
597, 0.8654108472998138
597.5, 0.8665495034140286
598, 0.8665495034140286
598.5, 0.8656385785226568
599, 0.8656385785226568
599.5, 0.8656385785226568
600, 0.8649553848541278
600.4999999999998, 0.8649553848541278
601, 0.8638167287399131
601.5, 0.8638167287399131
602, 0.864499922408442
602.5, 0.864499922408442
603, 0.864044459962756
603.5, 0.864044459962756
604, 0.8626780726256983
604.5, 0.8626780726256983
605, 0.8619948789571694
605.4999999999998, 0.8619948789571694
606, 0.8604007603972688
606.5, 0.8604007603972688
607, 0.8604007603972688
607.5, 0.8604007603972688
608, 0.859034373060211
608.5, 0.859034373060211
609, 0.8574402545003104
609.5, 0.8574402545003104
610, 0.8560738671632526
610.4999999999998, 0.8560738671632526
610.9999999999998, 0.8553906734947238
611.5, 0.8553906734947238
612, 0.8547074798261949
612.5, 0.8547074798261949
613, 0.854024286157666
613.5, 0.854024286157666
614, 0.8535688237119802
614.5, 0.8535688237119802
615, 0.8526578988206084
615.5, 0.8526578988206084
615.9999999999998, 0.8522024363749224
616.5, 0.8522024363749224
617, 0.8515192427063936
617.5, 0.8515192427063936
618, 0.8501528553693358
618.5, 0.8501528553693358
619, 0.849014199255121
619.5, 0.849014199255121
620, 0.8483310055865922
620.5, 0.8483310055865922
620.9999999999998, 0.8478755431409063
621.5, 0.8478755431409063
622, 0.8469646182495345
622.5, 0.8469646182495345
623, 0.8469646182495345
623.5, 0.8469646182495345
624, 0.8465091558038486
624.5, 0.8465091558038486
625, 0.8455982309124768
625.5, 0.8455982309124768
625.9999999999998, 0.8455982309124768
626.4999999999998, 0.844459574798262
627, 0.844459574798262
627.5, 0.8440041123525761
628, 0.8440041123525761
628.5, 0.8433209186840471
629, 0.8433209186840471
629.5, 0.8424099937926753
630, 0.8424099937926753
630.5, 0.8417268001241465
631, 0.8417268001241465
631.4999999999998, 0.8412713376784606
632, 0.8412713376784606
632.5, 0.8405881440099318
633, 0.8405881440099318
633.5, 0.8399049503414029
634, 0.8399049503414029
634.5, 0.8399049503414029
635, 0.8399049503414029
635.5, 0.8399049503414029
636, 0.8399049503414029
636.4999999999998, 0.839221756672874
637, 0.839221756672874
637.5, 0.838994025450031
638, 0.838994025450031
638.5, 0.839221756672874
639, 0.839221756672874
639.5, 0.8380831005586592
640, 0.8380831005586592
640.5, 0.8378553693358163
641, 0.8378553693358163
641.4999999999998, 0.8378553693358163
641.9999999999998, 0.8378553693358163
642.5, 0.8369444444444445
643, 0.8369444444444445
643.5, 0.8371721756672874
644, 0.8371721756672874
644.5, 0.8369444444444445
645, 0.8369444444444445
645.5, 0.8367167132216015
646, 0.8367167132216015
646.5, 0.8364889819987585
646.9999999999998, 0.8364889819987585
647.5, 0.8367167132216015
648, 0.8367167132216015
648.5, 0.8362612507759156
649, 0.8362612507759156
649.5, 0.8348948634388579
650, 0.8348948634388579
650.5, 0.834211669770329
651, 0.834211669770329
651.5, 0.8344394009931719
651.9999999999998, 0.8344394009931719
652.5, 0.8344394009931719
653, 0.8339839385474861
653.5, 0.8339839385474861
654, 0.8344394009931719
654.5, 0.8344394009931719
655, 0.8337562073246431
655.5, 0.8337562073246431
656, 0.8335284761018001
656.5, 0.8335284761018001
656.9999999999998, 0.8335284761018001
657.4999999999998, 0.8335284761018001
658, 0.8330730136561142
658.5, 0.8330730136561142
659, 0.8326175512104284
659.5, 0.8326175512104284
660, 0.8323898199875853
660.5, 0.8323898199875853
661, 0.8319343575418995
661.5, 0.8319343575418995
662, 0.8310234326505277
662.4999999999998, 0.8310234326505277
663, 0.8319343575418995
663.5, 0.8319343575418995
664, 0.8319343575418995
664.5, 0.8319343575418995
665, 0.8312511638733706
665.5, 0.8312511638733706
666, 0.8317066263190565
666.5, 0.8317066263190565
667, 0.8310234326505277
667.4999999999998, 0.8310234326505277
668, 0.8303402389819987
668.5, 0.8303402389819987
669, 0.8303402389819987
669.5, 0.8303402389819987
670, 0.82965704531347
670.5, 0.82965704531347
671, 0.8301125077591558
671.5, 0.8301125077591558
672, 0.828973851644941
672.4999999999998, 0.828973851644941
672.9999999999998, 0.828973851644941
673.5, 0.828973851644941
674, 0.828746120422098
674.5, 0.828746120422098
675, 0.8282906579764122
675.5, 0.8282906579764122
676, 0.8278351955307263
676.5, 0.8278351955307263
677, 0.8282906579764122
677.5, 0.8282906579764122
677.9999999999998, 0.8282906579764122
678.5, 0.8282906579764122
679, 0.8282906579764122
679.5, 0.8280629267535692
680, 0.8280629267535692
680.5, 0.828746120422098
681, 0.828746120422098
681.5, 0.8278351955307263
682, 0.8278351955307263
682.5, 0.8278351955307263
682.9999999999998, 0.8278351955307263
683.5, 0.8280629267535692
684, 0.8280629267535692
684.5, 0.8276074643078833
685, 0.8276074643078833
685.5, 0.8266965394165116
686, 0.8266965394165116
686.5, 0.8264688081936685
687, 0.8264688081936685
687.5, 0.8266965394165116
687.9999999999998, 0.8266965394165116
688.4999999999998, 0.8264688081936685
689, 0.8264688081936685
689.5, 0.8264688081936685
690, 0.8264688081936685
690.5, 0.8262410769708256
691, 0.8262410769708256
691.5, 0.8262410769708256
692, 0.8262410769708256
692.5, 0.8253301520794538
693, 0.8253301520794538
693.4999999999998, 0.8255578833022967
694, 0.8255578833022967
694.5, 0.8246469584109248
695, 0.8246469584109248
695.5, 0.8246469584109248
696, 0.8246469584109248
696.5, 0.8255578833022967
697, 0.8255578833022967
697.5, 0.8246469584109248
698, 0.8246469584109248
698.4999999999998, 0.824191495965239
698.9999999999998, 0.824191495965239
699.5, 0.8235083022967101
700, 0.8235083022967101
700.5, 0.8235083022967101
701, 0.8235083022967101
701.5, 0.8244192271880819
702, 0.8244192271880819
702.5, 0.8246469584109248
703, 0.8246469584109248
703.4999999999998, 0.8228251086281813
703.9999999999998, 0.8228251086281813
704.5, 0.8228251086281813
705, 0.8228251086281813
705.5, 0.8228251086281813
706, 0.8230528398510242
706.5, 0.8230528398510242
707, 0.8228251086281813
707.5, 0.8228251086281813
708, 0.8223696461824954
708.5, 0.8223696461824954
708.9999999999998, 0.8216864525139664
709.5, 0.8216864525139664
710, 0.8223696461824954
710.5, 0.8223696461824954
711, 0.8214587212911235
711.5, 0.8214587212911235
712, 0.8216864525139664
712.5, 0.8216864525139664
713, 0.8216864525139664
713.5, 0.8216864525139664
713.9999999999998, 0.8216864525139664
714.4999999999998, 0.8216864525139664
715, 0.8210032588454377
715.5, 0.8210032588454377
716, 0.8214587212911235
716.5, 0.8214587212911235
717, 0.8219141837368095
717.5, 0.8219141837368095
718, 0.8210032588454377
718.5, 0.8210032588454377
719, 0.8212309900682806
719.4999999999998, 0.8212309900682806
720, 0.8210032588454377
720.5, 0.8210032588454377
721, 0.8219141837368095
721.5, 0.8219141837368095
722, 0.8207755276225946
722.5, 0.8207755276225946
723, 0.8200923339540658
723.5, 0.8200923339540658
724, 0.8214587212911235
724.4999999999998, 0.8214587212911235
725, 0.8198646027312229
725.5, 0.8198646027312229
726, 0.8196368715083799
726.5, 0.8196368715083799
727, 0.8200923339540658
727.5, 0.8200923339540658
728, 0.8194091402855369
728.5, 0.8194091402855369
729, 0.8205477963997517
729.4999999999998, 0.8205477963997517
729.9999999999998, 0.8196368715083799
730.5, 0.8196368715083799
731, 0.8194091402855369
731.5, 0.8194091402855369
732, 0.8194091402855369
732.5, 0.8196368715083799
733, 0.8196368715083799
733.5, 0.8189536778398511
734, 0.8189536778398511
734.5, 0.819181409062694
734.9999999999998, 0.819181409062694
735.5, 0.818725946617008
736, 0.818725946617008
736.5, 0.8189536778398511
737, 0.8189536778398511
737.5, 0.8196368715083799
738, 0.8196368715083799
738.5, 0.819181409062694
739, 0.819181409062694
739.5, 0.8194091402855369
739.9999999999998, 0.8194091402855369
740.5, 0.8200923339540658
741, 0.8200923339540658
741.5, 0.8196368715083799
742, 0.8196368715083799
742.5, 0.8198646027312229
743, 0.8198646027312229
743.5, 0.8196368715083799
744, 0.8196368715083799
744.5, 0.8198646027312229
744.9999999999998, 0.8198646027312229
745.4999999999998, 0.8207755276225946
746, 0.8207755276225946
746.5, 0.8200923339540658
747, 0.8200923339540658
747.5, 0.8196368715083799
748, 0.8196368715083799
748.5, 0.8198646027312229
749, 0.8198646027312229
749.5, 0.8203200651769087
750, 0.8203200651769087
750.4999999999998, 0.8205477963997517
751, 0.8205477963997517
751.5, 0.8205477963997517
752, 0.8205477963997517
752.5, 0.8205477963997517
753, 0.8205477963997517
753.5, 0.8210032588454377
754, 0.8210032588454377
754.5, 0.8207755276225946
755, 0.8207755276225946
755.4999999999998, 0.8212309900682806
756, 0.8212309900682806
756.5, 0.8214587212911235
757, 0.8214587212911235
757.5, 0.8223696461824954
758, 0.8223696461824954
758.5, 0.8219141837368095
759, 0.8219141837368095
759.5, 0.8219141837368095
760, 0.8216864525139664
760.4999999999998, 0.8216864525139664
760.9999999999998, 0.8228251086281813
761.5, 0.8228251086281813
762, 0.8221419149596524
762.5, 0.8221419149596524
763, 0.8228251086281813
763.5, 0.8228251086281813
764, 0.8239637647423961
764.5, 0.8239637647423961
765, 0.8244192271880819
765.5, 0.8244192271880819
765.9999999999998, 0.824191495965239
766.5, 0.824191495965239
767, 0.8253301520794538
767.5, 0.8253301520794538
768, 0.8255578833022967
768.5, 0.8255578833022967
769, 0.8257856145251397
769.5, 0.8257856145251397
770, 0.8271520018621974
770.5, 0.8271520018621974
770.9999999999998, 0.8269242706393545
771.4999999999998, 0.8269242706393545
772, 0.8276074643078833
772.5, 0.8276074643078833
773, 0.8276074643078833
773.5, 0.8276074643078833
774, 0.8278351955307263
774.5, 0.8278351955307263
775, 0.8285183891992551
775.5, 0.8285183891992551
775.9999999999998, 0.828746120422098
776.4999999999998, 0.828746120422098
777, 0.828746120422098
777.5, 0.828746120422098
778, 0.829201582867784
778.5, 0.829201582867784
779, 0.82965704531347
779.5, 0.82965704531347
780, 0.8310234326505277
780.5, 0.8310234326505277
781, 0.8312511638733706
781.4999999999998, 0.8312511638733706
782, 0.8312511638733706
782.5, 0.8312511638733706
783, 0.8305679702048417
783.5, 0.8305679702048417
784, 0.8307957014276847
784.5, 0.8307957014276847
785, 0.8310234326505277
785.5, 0.8310234326505277
786, 0.8310234326505277
786.4999999999998, 0.8312511638733706
786.9999999999998, 0.8312511638733706
787.5, 0.8314788950962135
788, 0.8314788950962135
788.5, 0.8317066263190565
789, 0.8317066263190565
789.5, 0.8307957014276847
790, 0.8307957014276847
790.5, 0.8310234326505277
791, 0.8310234326505277
791.4999999999998, 0.8312511638733706
791.9999999999998, 0.8312511638733706
792.5, 0.8319343575418995
793, 0.8319343575418995
793.5, 0.8312511638733706
794, 0.8312511638733706
794.5, 0.8312511638733706
795, 0.8312511638733706
795.5, 0.8303402389819987
796, 0.8303402389819987
796.5, 0.8303402389819987
796.9999999999998, 0.8303402389819987
797.5, 0.8294293140906269
798, 0.8294293140906269
798.5, 0.829201582867784
799, 0.829201582867784
799.5, 0.829201582867784
800, 0.829201582867784
800.5, 0.8310234326505277
801, 0.8310234326505277
801.5, 0.8303402389819987
801.9999999999998, 0.8303402389819987
802.4999999999998, 0.8312511638733706
803, 0.8312511638733706
803.5, 0.8303402389819987
804, 0.8303402389819987
804.5, 0.8305679702048417
805, 0.8305679702048417
805.5, 0.829201582867784
806, 0.829201582867784
806.5, 0.8282906579764122
806.9999999999998, 0.8282906579764122
807.4999999999998, 0.8294293140906269
808, 0.8294293140906269
808.5, 0.82965704531347
809, 0.82965704531347
809.5, 0.8294293140906269
810, 0.8294293140906269
810.5, 0.8303402389819987
811, 0.8303402389819987
811.5, 0.8285183891992551
812, 0.8285183891992551
812.4999999999998, 0.8285183891992551
813, 0.8278351955307263
813.5, 0.8278351955307263
814, 0.8276074643078833
814.5, 0.8276074643078833
815, 0.8285183891992551
815.5, 0.8285183891992551
816, 0.8269242706393545
816.5, 0.8269242706393545
817, 0.8264688081936685
817.4999999999998, 0.8264688081936685
817.9999999999998, 0.8264688081936685
818.5, 0.8264688081936685
819, 0.8255578833022967
819.5, 0.8255578833022967
820, 0.8266965394165116
820.5, 0.8266965394165116
821, 0.8260133457479826
821.5, 0.8260133457479826
822, 0.8260133457479826
822.4999999999998, 0.8260133457479826
822.9999999999998, 0.8251024208566108
823.5, 0.8251024208566108
824, 0.8244192271880819
824.5, 0.8244192271880819
825, 0.824191495965239
825.5, 0.824191495965239
826, 0.8235083022967101
826.5, 0.8235083022967101
827, 0.823736033519553
827.5, 0.823736033519553
827.9999999999998, 0.8225973774053383
828.5, 0.8225973774053383
829, 0.8223696461824954
829.5, 0.8223696461824954
830, 0.8214587212911235
830.5, 0.8214587212911235
831, 0.8203200651769087
831.5, 0.8203200651769087
832, 0.8212309900682806
832.5, 0.8212309900682806
832.9999999999998, 0.8205477963997517
833.4999999999998, 0.8205477963997517
834, 0.8196368715083799
834.5, 0.8196368715083799
835, 0.8184982153941651
835.5, 0.8184982153941651
836, 0.8189536778398511
836.5, 0.8189536778398511
837, 0.8184982153941651
837.5, 0.8184982153941651
837.9999999999998, 0.8175872905027933
838.4999999999998, 0.8175872905027933
839, 0.8175872905027933
839.5, 0.8169040968342645
840, 0.8169040968342645
840.5, 0.8171318280571074
841, 0.8171318280571074
841.5, 0.8164486343885785
842, 0.8164486343885785
842.5, 0.8162209031657356
843, 0.8162209031657356
843.4999999999998, 0.8153099782743638
844, 0.8153099782743638
844.5, 0.8148545158286779
845, 0.8148545158286779
845.5, 0.814171322160149
846, 0.814171322160149
846.5, 0.8139435909373061
847, 0.8139435909373061
847.5, 0.8134881284916201
848, 0.8134881284916201
848.4999999999998, 0.8132603972687772
848.9999999999998, 0.8132603972687772
849.5, 0.8128049348230912
850, 0.8128049348230912
850.5, 0.8128049348230912
851, 0.8128049348230912
851.5, 0.8128049348230912
852, 0.8128049348230912
852.5, 0.8118940099317195
853, 0.8118940099317195
853.4999999999998, 0.8109830850403477
853.9999999999998, 0.8109830850403477
854.5, 0.8112108162631906
855, 0.8112108162631906
855.5, 0.8112108162631906
856, 0.8112108162631906
856.5, 0.8109830850403477
857, 0.8109830850403477
857.5, 0.8102998913718188
858, 0.8102998913718188
858.5, 0.8102998913718188
858.9999999999998, 0.8102998913718188
859.4999999999998, 0.8105276225946617
860, 0.8105276225946617
860.5, 0.8096166977032899
861, 0.8096166977032899
861.5, 0.8096166977032899
862, 0.8096166977032899
862.5, 0.809161235257604
863, 0.809161235257604
863.5, 0.8098444289261328
863.9999999999998, 0.8098444289261328
864.4999999999998, 0.8093889664804469
865, 0.8093889664804469
865.5, 0.8093889664804469
866, 0.8096166977032899
866.5, 0.8096166977032899
867, 0.8096166977032899
867.5, 0.8096166977032899
868, 0.8093889664804469
868.5, 0.8093889664804469
868.9999999999998, 0.809161235257604
869.4999999999998, 0.809161235257604
870, 0.808933504034761
870.5, 0.808933504034761
871, 0.8093889664804469
871.5, 0.8093889664804469
872, 0.808933504034761
872.5, 0.808933504034761
873, 0.808933504034761
873.5, 0.808933504034761
874, 0.809161235257604
874.4999999999998, 0.809161235257604
874.9999999999998, 0.8093889664804469
875.5, 0.8093889664804469
876, 0.8093889664804469
876.5, 0.8093889664804469
877, 0.808933504034761
877.5, 0.808933504034761
878, 0.8093889664804469
878.5, 0.8093889664804469
879, 0.809161235257604
879.4999999999998, 0.809161235257604
879.9999999999998, 0.8093889664804469
880.5, 0.8093889664804469
881, 0.808705772811918
881.5, 0.808705772811918
882, 0.809161235257604
882.5, 0.809161235257604
883, 0.8093889664804469
883.5, 0.8093889664804469
884, 0.8084780415890751
884.5, 0.8084780415890751
884.9999999999998, 0.8096166977032899
885.5, 0.8096166977032899
886, 0.809161235257604
886.5, 0.809161235257604
887, 0.809161235257604
887.5, 0.809161235257604
888, 0.8093889664804469
888.5, 0.8093889664804469
889, 0.8093889664804469
889.5, 0.8093889664804469
889.9999999999998, 0.809161235257604
890.4999999999998, 0.809161235257604
891, 0.8096166977032899
891.5, 0.8096166977032899
892, 0.8093889664804469
892.5, 0.8093889664804469
893, 0.8093889664804469
893.5, 0.808705772811918
894, 0.808705772811918
894.5, 0.8098444289261328
894.9999999999998, 0.8098444289261328
895.4999999999998, 0.8100721601489758
896, 0.8100721601489758
896.5, 0.8093889664804469
897, 0.8093889664804469
897.5, 0.8096166977032899
898, 0.8096166977032899
898.5, 0.8093889664804469
899, 0.8093889664804469
899.5, 0.809161235257604
900, 0.809161235257604
900.4999999999998, 0.8093889664804469
901, 0.8093889664804469
901.5, 0.809161235257604
902, 0.809161235257604
902.5, 0.809161235257604
903, 0.809161235257604
903.5, 0.8096166977032899
904, 0.8096166977032899
904.5, 0.8098444289261328
905, 0.8098444289261328
905.4999999999998, 0.8093889664804469
905.9999999999998, 0.8093889664804469
906.5, 0.8096166977032899
907, 0.8096166977032899
907.5, 0.809161235257604
908, 0.809161235257604
908.5, 0.8093889664804469
909, 0.8093889664804469
909.5, 0.8098444289261328
910, 0.8098444289261328
910.4999999999998, 0.8098444289261328
910.9999999999998, 0.8098444289261328
911.5, 0.8098444289261328
912, 0.8098444289261328
912.5, 0.8093889664804469
913, 0.8093889664804469
913.5, 0.8096166977032899
914, 0.8096166977032899
914.5, 0.8100721601489758
915, 0.8100721601489758
915.5, 0.8098444289261328
915.9999999999998, 0.8098444289261328
916.5, 0.8098444289261328
917, 0.8098444289261328
917.5, 0.8098444289261328
918, 0.8098444289261328
918.5, 0.8093889664804469
919, 0.8093889664804469
919.5, 0.8093889664804469
920, 0.8098444289261328
920.5, 0.8098444289261328
920.9999999999998, 0.8098444289261328
921.4999999999998, 0.8098444289261328
922, 0.8102998913718188
922.5, 0.8102998913718188
923, 0.8102998913718188
923.5, 0.8102998913718188
924, 0.8105276225946617
924.5, 0.8105276225946617
925, 0.8100721601489758
925.5, 0.8100721601489758
925.9999999999998, 0.8109830850403477
926.4999999999998, 0.8109830850403477
927, 0.8109830850403477
927.5, 0.8109830850403477
928, 0.8102998913718188
928.5, 0.8102998913718188
929, 0.8109830850403477
929.5, 0.8109830850403477
930, 0.8116662787088764
930.5, 0.8116662787088764
931, 0.8121217411545624
931.4999999999998, 0.8121217411545624
932, 0.8114385474860335
932.5, 0.8114385474860335
933, 0.8112108162631906
933.5, 0.8112108162631906
934, 0.8116662787088764
934.5, 0.8116662787088764
935, 0.8121217411545624
935.5, 0.8121217411545624
936, 0.8128049348230912
936.4999999999998, 0.8128049348230912
936.9999999999998, 0.8125772036002483
937.5, 0.8125772036002483
938, 0.8128049348230912
938.5, 0.8128049348230912
939, 0.8128049348230912
939.5, 0.8128049348230912
940, 0.8137158597144631
940.5, 0.8137158597144631
941, 0.8137158597144631
941.4999999999998, 0.8137158597144631
941.9999999999998, 0.8137158597144631
942.5, 0.8137158597144631
943, 0.8137158597144631
943.5, 0.8137158597144631
944, 0.8130326660459342
944.5, 0.8130326660459342
945, 0.814171322160149
945.5, 0.814171322160149
946, 0.814171322160149
946.5, 0.8143990533829919
946.9999999999998, 0.8143990533829919
947.4999999999998, 0.8146267846058349
948, 0.8146267846058349
948.5, 0.8146267846058349
949, 0.8146267846058349
949.5, 0.8148545158286779
950, 0.8148545158286779
950.5, 0.8148545158286779
951, 0.8148545158286779
951.5, 0.8153099782743638
951.9999999999998, 0.8153099782743638
952.4999999999998, 0.8153099782743638
953, 0.8153099782743638
953.5, 0.8139435909373061
954, 0.8139435909373061
954.5, 0.8150822470515208
955, 0.8150822470515208
955.5, 0.8153099782743638
956, 0.8153099782743638
956.5, 0.8157654407200496
956.9999999999998, 0.8157654407200496
957.4999999999998, 0.8146267846058349
958, 0.8146267846058349
958.5, 0.8157654407200496
959, 0.8157654407200496
959.5, 0.8157654407200496
960, 0.8157654407200496
960.5, 0.8150822470515208
961, 0.8150822470515208
961.5, 0.8148545158286779
962, 0.8148545158286779
962.4999999999998, 0.8155377094972067
962.9999999999998, 0.8155377094972067
963.5, 0.8162209031657356
964, 0.8162209031657356
964.5, 0.8162209031657356
965, 0.8162209031657356
965.5, 0.8153099782743638
966, 0.8153099782743638
966.5, 0.8155377094972067
967, 0.8155377094972067
967.4999999999998, 0.8166763656114215
967.9999999999998, 0.8166763656114215
968.5, 0.8159931719428926
969, 0.8159931719428926
969.5, 0.8155377094972067
970, 0.8155377094972067
970.5, 0.8159931719428926
971, 0.8159931719428926
971.5, 0.8164486343885785
972, 0.8164486343885785
972.4999999999998, 0.8164486343885785
972.9999999999998, 0.8155377094972067
973.5, 0.8155377094972067
974, 0.8162209031657356
974.5, 0.8162209031657356
975, 0.8166763656114215
975.5, 0.8166763656114215
976, 0.8162209031657356
976.5, 0.8162209031657356
977, 0.8159931719428926
977.5, 0.8159931719428926
977.9999999999998, 0.8155377094972067
978.4999999999998, 0.8155377094972067
979, 0.8164486343885785
979.5, 0.8164486343885785
980, 0.8164486343885785
980.5, 0.8164486343885785
981, 0.8166763656114215
981.5, 0.8166763656114215
982, 0.8155377094972067
982.5, 0.8155377094972067
982.9999999999998, 0.8164486343885785
983.4999999999998, 0.8164486343885785
984, 0.8166763656114215
984.5, 0.8166763656114215
985, 0.8166763656114215
985.5, 0.8166763656114215
986, 0.8169040968342645
986.5, 0.8169040968342645
987, 0.8169040968342645
987.5, 0.8169040968342645
987.9999999999998, 0.8169040968342645
988.4999999999998, 0.8169040968342645
989, 0.8173595592799503
989.5, 0.8173595592799503
990, 0.8173595592799503
990.5, 0.8173595592799503
991, 0.8178150217256362
991.5, 0.8178150217256362
992, 0.8178150217256362
992.5, 0.8178150217256362
993, 0.8182704841713222
993.4999999999998, 0.8182704841713222
993.9999999999998, 0.8178150217256362
994.5, 0.8178150217256362
995, 0.8182704841713222
995.5, 0.8182704841713222
996, 0.8178150217256362
996.5, 0.8178150217256362
997, 0.818725946617008
997.5, 0.818725946617008
998, 0.819181409062694
998.4999999999998, 0.819181409062694
998.9999999999998, 0.819181409062694
999.5, 0.8198646027312229
1000, 0.8198646027312229
1000.5, 0.8200923339540658
1001, 0.8200923339540658
1001.5, 0.8207755276225946
1002, 0.8207755276225946
1002.5, 0.8205477963997517
1003, 0.8205477963997517
1003.4999999999998, 0.8214587212911235
1003.9999999999998, 0.8214587212911235
1004.5, 0.8219141837368095
1005, 0.8219141837368095
1005.5, 0.8223696461824954
1006, 0.8223696461824954
1006.5, 0.8216864525139664
1007, 0.8216864525139664
1007.5, 0.8225973774053383
1008, 0.8225973774053383
1008.5, 0.8225973774053383
1008.9999999999998, 0.8225973774053383
1009.4999999999998, 0.8235083022967101
1010, 0.8235083022967101
1010.5, 0.8244192271880819
1011, 0.8244192271880819
1011.5, 0.824191495965239
1012, 0.824191495965239
1012.5, 0.8246469584109248
1013, 0.8246469584109248
1013.5, 0.8253301520794538
1013.9999999999998, 0.8253301520794538
1014.4999999999998, 0.8257856145251397
1015, 0.8257856145251397
1015.5, 0.8260133457479826
1016, 0.8260133457479826
1016.5, 0.8266965394165116
1017, 0.8266965394165116
1017.5, 0.8276074643078833
1018, 0.8276074643078833
1018.5, 0.8276074643078833
1018.9999999999998, 0.8276074643078833
1019.4999999999998, 0.8285183891992551
1020, 0.8285183891992551
1020.5, 0.829201582867784
1021, 0.829201582867784
1021.5, 0.82965704531347
1022, 0.82965704531347
1022.5, 0.8305679702048417
1023, 0.8305679702048417
1023.5, 0.8310234326505277
1024, 0.8310234326505277
1024.4999999999998, 0.8317066263190565
1024.9999999999998, 0.8317066263190565
1025.5, 0.8317066263190565
1026, 0.8326175512104284
1026.5, 0.8326175512104284
1027, 0.8330730136561142
1027.5, 0.8330730136561142
1028, 0.8333007448789571
1028.5, 0.8333007448789571
1029, 0.8337562073246431
1029.4999999999998, 0.8337562073246431
1029.9999999999998, 0.8351225946617008
1030.5, 0.8351225946617008
1031, 0.8362612507759156
1031.5, 0.8362612507759156
1032, 0.8358057883302297
1032.5, 0.8358057883302297
1033, 0.8360335195530726
1033.5, 0.8360335195530726
1034, 0.8371721756672874
1034.4999999999998, 0.8371721756672874
1034.9999999999998, 0.8373999068901303
1035.4999999999998, 0.8373999068901303
1036, 0.8380831005586592
1036.5, 0.8380831005586592
1037, 0.8385385630043451
1037.5, 0.8385385630043451
1038, 0.8401326815642458
1038.5, 0.8401326815642458
1039, 0.8403604127870887
1039.5, 0.8403604127870887
1039.9999999999998, 0.8412713376784606
1040.4999999999998, 0.8412713376784606
1041, 0.8424099937926753
1041.5, 0.8424099937926753
1042, 0.8426377250155184
1042.5, 0.8426377250155184
1043, 0.8440041123525761
1043.5, 0.8440041123525761
1044, 0.844231843575419
1044.5, 0.844231843575419
1044.9999999999998, 0.8446873060211049
1045.4999999999998, 0.8446873060211049
1046, 0.8460536933581626
1046.5, 0.8460536933581626
1047, 0.8471923494723774
1047.5, 0.8471923494723774
1048, 0.8474200806952203
1048.5, 0.8474200806952203
1049, 0.8481032743637492
1049.5, 0.8481032743637492
1050, 0.849469661700807
1050.4999999999998, 0.849469661700807
1050.9999999999998, 0.8503805865921787
1051.5, 0.8503805865921787
1052, 0.8506083178150217
1052.5, 0.8506083178150217
1053, 0.8506083178150217
1053.5, 0.8512915114835506
1054, 0.8512915114835506
1054.5, 0.8519747051520794
1055, 0.8519747051520794
1055.4999999999998, 0.8522024363749224
1055.9999999999998, 0.8522024363749224
1056.5, 0.8524301675977654
1057, 0.8524301675977654
1057.5, 0.854252017380509
1058, 0.854252017380509
1058.5, 0.8556184047175668
1059, 0.8556184047175668
1059.5, 0.8574402545003104
1060, 0.8574402545003104
1060.4999999999998, 0.8569847920546245
1060.9999999999998, 0.8569847920546245
1061.5, 0.8578957169459963
1062, 0.8578957169459963
1062.5, 0.8588066418373681
1063, 0.8588066418373681
1063.5, 0.8599452979515829
1064, 0.8599452979515829
1064.5, 0.8613116852886407
1065, 0.8613116852886407
1065.5, 0.8610839540657976
1065.9999999999998, 0.8610839540657976
1066.4999999999998, 0.8629058038485413
1067, 0.8629058038485413
1067.5, 0.8642721911855991
1068, 0.8642721911855991
1068.5, 0.8649553848541278
1069, 0.8649553848541278
1069.5, 0.8647276536312849
1070, 0.8647276536312849
1070.5, 0.8660940409683426
1070.9999999999998, 0.8660940409683426
1071.4999999999998, 0.8672326970825575
1072, 0.8672326970825575
1072.5, 0.8683713531967722
1073, 0.8683713531967722
1073.5, 0.8701932029795159
1074, 0.8701932029795159
1074.5, 0.8711041278708876
1075, 0.8711041278708876
1075.5, 0.8731537088764743
1075.9999999999998, 0.8731537088764743
1076.4999999999998, 0.8742923649906891
1077, 0.8742923649906891
1077.5, 0.8754310211049038
1078, 0.8754310211049038
1078.5, 0.8765696772191186
1079, 0.8765696772191186
1079.5, 0.8765696772191186
1080, 0.8772528708876475
1080.5, 0.8772528708876475
1081, 0.8781637957790193
1081.4999999999998, 0.8781637957790193
1081.9999999999998, 0.879302451893234
1082.5, 0.879302451893234
1083, 0.8797579143389199
1083.5, 0.8797579143389199
1084, 0.8811243016759777
1084.5, 0.8811243016759777
1085, 0.8824906890130354
1085.5, 0.8824906890130354
1086, 0.8838570763500931
1086.5, 0.8838570763500931
1087, 0.884312538795779
1087.5, 0.884312538795779
1088, 0.8854511949099938
1088.5, 0.8854511949099938
1089, 0.8856789261328367
1089.5, 0.8856789261328367
1090, 0.8861343885785227
1090.5, 0.8861343885785227
1091, 0.8863621198013656
1091.5, 0.8863621198013656
1092, 0.8865898510242085
1092.5, 0.8865898510242085
1093, 0.8859066573556797
1093.5, 0.8859066573556797
1094, 0.8859066573556797
1094.5, 0.8859066573556797
1095, 0.8872730446927375
1095.5, 0.8872730446927375
1096, 0.8879562383612662
1096.5, 0.8879562383612662
1097, 0.8888671632526381
1097.5, 0.8888671632526381
1098, 0.8872730446927375
1098.5, 0.8872730446927375
1099, 0.8886394320297951
1099.5, 0.8886394320297951
1100, 0.8888671632526381
1100.5, 0.8888671632526381
1101, 0.8881839695841093
1101.5, 0.8881839695841093
1102, 0.8875007759155804
1102.5, 0.8875007759155804
1103, 0.8868175822470515
1103.5, 0.8868175822470515
1104, 0.8865898510242085
1104.5, 0.8865898510242085
1104.9999999999998, 0.8856789261328367
1105.5, 0.8856789261328367
1106, 0.8856789261328367
1106.5, 0.8854511949099938
1107, 0.8854511949099938
1107.5, 0.8840848075729361
1108, 0.8840848075729361
1108.5, 0.8822629577901924
1109, 0.8822629577901924
1109.4999999999998, 0.8827184202358783
1110, 0.8827184202358783
1110.4999999999998, 0.8813520328988206
1111, 0.8813520328988206
1111.5, 0.8802133767846059
1112, 0.8802133767846059
1112.5, 0.8806688392302917
1113, 0.8806688392302917
1113.5, 0.8786192582247052
1114, 0.8786192582247052
1114.5, 0.8767974084419615
1114.9999999999998, 0.8767974084419615
1115.5, 0.8758864835505897
1116, 0.8758864835505897
1116.5, 0.8747478274363749
1117, 0.8747478274363749
1117.5, 0.8738369025450031
1118, 0.8738369025450031
1118.5, 0.8733814400993172
1119, 0.8733814400993172
1119.5, 0.8726982464307883
1120, 0.8726982464307883
1120.4999999999998, 0.8713318590937306
1121, 0.8713318590937306
1121.5, 0.869510009310987
1122, 0.869510009310987
1122.5, 0.8676881595282433
1123, 0.8676881595282433
1123.5, 0.8679158907510863
1124, 0.8679158907510863
1124.5, 0.8658663097454997
1124.9999999999998, 0.8658663097454997
1125.5, 0.8658663097454997
1125.9999999999998, 0.8658663097454997
1126.5, 0.8642721911855991
1127, 0.8642721911855991
1127.5, 0.864044459962756
1128, 0.864044459962756
1128.5, 0.8651831160769708
1129, 0.8651831160769708
1129.5, 0.8638167287399131
1130, 0.8638167287399131
1130.4999999999998, 0.8619948789571694
1131, 0.8619948789571694
1131.5, 0.8599452979515829
1132, 0.8599452979515829
1132.5, 0.8599452979515829
1133, 0.8597175667287399
1133.5, 0.8597175667287399
1134, 0.8597175667287399
1134.5, 0.8597175667287399
1135, 0.8588066418373681
1135.5, 0.8588066418373681
1135.9999999999998, 0.8574402545003104
1136.5, 0.8574402545003104
1137, 0.8558461359404097
1137.5, 0.8558461359404097
1138, 0.8563015983860955
1138.5, 0.8563015983860955
1139, 0.8572125232774674
1139.5, 0.8572125232774674
1140, 0.8553906734947238
1140.5, 0.8553906734947238
1141, 0.8547074798261949
1141.4999999999998, 0.8547074798261949
1142, 0.854024286157666
1142.5, 0.854024286157666
1143, 0.8531133612662942
1143.5, 0.8531133612662942
1144, 0.8535688237119802
1144.5, 0.8535688237119802
1145, 0.8522024363749224
1145.5, 0.8522024363749224
1145.9999999999998, 0.8522024363749224
1146.5, 0.8522024363749224
1147, 0.8517469739292365
1147.5, 0.8517469739292365
1148, 0.8510637802607076
1148.5, 0.8510637802607076
1149, 0.8496973929236499
1149.5, 0.8496973929236499
1150, 0.849241930477964
1150.5, 0.849241930477964
1151, 0.8476478119180633
1151.4999999999998, 0.8476478119180633
1152, 0.8467368870266915
1152.5, 0.8467368870266915
1153, 0.844459574798262
1153.5, 0.844459574798262
1154, 0.844459574798262
1154.5, 0.844459574798262
1155, 0.8455982309124768
1155.5, 0.8455982309124768
1156, 0.8462814245810055
1156.5, 0.8462814245810055
1156.9999999999998, 0.8462814245810055
1157.5, 0.8462814245810055
1158, 0.8453704996896337
1158.5, 0.8453704996896337
1159, 0.8453704996896337
1159.5, 0.8440041123525761
1160, 0.8440041123525761
1160.5, 0.8446873060211049
1161, 0.8446873060211049
1161.4999999999998, 0.8453704996896337
1162, 0.8453704996896337
1162.5, 0.844231843575419
1163, 0.844231843575419
1163.5, 0.8437763811297331
1164, 0.8437763811297331
1164.5, 0.8430931874612042
1165, 0.8430931874612042
1165.5, 0.8428654562383613
1166, 0.8428654562383613
1166.5, 0.8430931874612042
1166.9999999999998, 0.8430931874612042
1167.5, 0.8414990689013035
1168, 0.8414990689013035
1168.5, 0.8414990689013035
1169, 0.8414990689013035
1169.5, 0.8405881440099318
1170, 0.8405881440099318
1170.5, 0.8403604127870887
1171, 0.8403604127870887
1171.5, 0.8408158752327747
1172, 0.8408158752327747
1172.4999999999998, 0.8403604127870887
1173, 0.8403604127870887
1173.5, 0.839221756672874
1174, 0.839221756672874
1174.5, 0.8385385630043451
1175, 0.8385385630043451
1175.5, 0.8387662942271881
1176, 0.8387662942271881
1176.5, 0.8373999068901303
1176.9999999999998, 0.8373999068901303
1177.5, 0.8371721756672874
1178, 0.8371721756672874
1178.5, 0.8369444444444445
1179, 0.8369444444444445
1179.5, 0.8367167132216015
1180, 0.8367167132216015
1180.5, 0.8362612507759156
1181, 0.8362612507759156
1181.5, 0.8351225946617008
1182, 0.8351225946617008
1182.4999999999998, 0.8348948634388579
1183, 0.8348948634388579
1183.5, 0.8344394009931719
1184, 0.8344394009931719
1184.5, 0.8335284761018001
1185, 0.8335284761018001
1185.5, 0.8333007448789571
1186, 0.8333007448789571
1186.5, 0.8333007448789571
1187, 0.8333007448789571
1187.5, 0.8333007448789571
1187.9999999999998, 0.8328452824332713
1188.5, 0.8328452824332713
1189, 0.8321620887647424
1189.5, 0.8321620887647424
1190, 0.8307957014276847
1190.5, 0.8307957014276847
1191, 0.8312511638733706
1191.5, 0.8312511638733706
1192, 0.8310234326505277
1192.4999999999998, 0.8310234326505277
1193, 0.8307957014276847
1193.5, 0.8307957014276847
1194, 0.8301125077591558
1194.5, 0.8301125077591558
1195, 0.82965704531347
1195.5, 0.82965704531347
1196, 0.8285183891992551
1196.5, 0.8285183891992551
1197, 0.8282906579764122
1197.5, 0.8282906579764122
1197.9999999999998, 0.8276074643078833
1198.5, 0.8276074643078833
1199, 0.8276074643078833
1199.5, 0.8276074643078833
1200, 0.8266965394165116
1200.5, 0.8266965394165116
1201, 0.8260133457479826
1201.5, 0.8260133457479826
1202, 0.8257856145251397
1202.5, 0.8257856145251397
1203, 0.8248746896337679
1203.4999999999998, 0.8248746896337679
1204, 0.8251024208566108
1204.5, 0.8251024208566108
1205, 0.823736033519553
1205.5, 0.823736033519553
1206, 0.8223696461824954
1206.5, 0.8223696461824954
1207, 0.8228251086281813
1207.5, 0.8228251086281813
1207.9999999999998, 0.8225973774053383
1208.5, 0.8225973774053383
1208.9999999999998, 0.8216864525139664
1209.5, 0.8216864525139664
1210, 0.8216864525139664
1210.5, 0.8216864525139664
1211, 0.8216864525139664
1211.5, 0.8216864525139664
1212, 0.8205477963997517
1212.5, 0.8205477963997517
1213, 0.8205477963997517
1213.4999999999998, 0.8200923339540658
1214, 0.8200923339540658
1214.5, 0.8194091402855369
1215, 0.8194091402855369
1215.5, 0.8194091402855369
1216, 0.8194091402855369
1216.5, 0.8189536778398511
1217, 0.8189536778398511
1217.5, 0.8178150217256362
1218, 0.8178150217256362
1218.5, 0.8180427529484793
1218.9999999999998, 0.8180427529484793
1219.5, 0.8171318280571074
1220, 0.8171318280571074
1220.5, 0.8166763656114215
1221, 0.8166763656114215
1221.5, 0.8159931719428926
1222, 0.8159931719428926
1222.5, 0.8164486343885785
1223, 0.8164486343885785
1223.4999999999998, 0.8155377094972067
1224, 0.8155377094972067
1224.4999999999998, 0.8143990533829919
1225, 0.8143990533829919
1225.5, 0.8148545158286779
1226, 0.8148545158286779
1226.5, 0.8137158597144631
1227, 0.8137158597144631
1227.5, 0.8132603972687772
1228, 0.8132603972687772
1228.5, 0.8128049348230912
1228.9999999999998, 0.8128049348230912
1229.5, 0.8125772036002483
1230, 0.8125772036002483
1230.5, 0.8125772036002483
1231, 0.8125772036002483
1231.5, 0.8121217411545624
1232, 0.8121217411545624
1232.5, 0.8112108162631906
1233, 0.8112108162631906
1233.5, 0.8118940099317195
1234, 0.8118940099317195
1234.4999999999998, 0.8107553538175046
1235, 0.8107553538175046
1235.5, 0.8100721601489758
1236, 0.8100721601489758
1236.5, 0.8100721601489758
1237, 0.8100721601489758
1237.5, 0.8098444289261328
1238, 0.8098444289261328
1238.5, 0.8093889664804469
1238.9999999999998, 0.8093889664804469
1239.5, 0.8093889664804469
1239.9999999999998, 0.808933504034761
1240.5, 0.808933504034761
1241, 0.8084780415890751
1241.5, 0.8084780415890751
1242, 0.808705772811918
1242.5, 0.808705772811918
1243, 0.8084780415890751
1243.5, 0.8084780415890751
1244, 0.8077948479205462
1244.4999999999998, 0.8077948479205462
1245, 0.8071116542520174
1245.5, 0.8071116542520174
1246, 0.8068839230291744
1246.5, 0.8068839230291744
1247, 0.8073393854748603
1247.5, 0.8073393854748603
1248, 0.8066561918063315
1248.5, 0.8066561918063315
1249, 0.8057452669149596
1249.5, 0.8057452669149596
1249.9999999999998, 0.8059729981378027
1250.5, 0.8059729981378027
1251, 0.8062007293606456
1251.5, 0.8062007293606456
1252, 0.8057452669149596
1252.5, 0.8057452669149596
1253, 0.8050620732464308
1253.5, 0.8050620732464308
1254, 0.8046066108007449
1254.4999999999998, 0.8046066108007449
1255, 0.8050620732464308
1255.4999999999998, 0.8050620732464308
1256, 0.8046066108007449
1256.5, 0.8046066108007449
1257, 0.8043788795779019
1257.5, 0.8043788795779019
1258, 0.8043788795779019
1258.5, 0.8043788795779019
1259, 0.804151148355059
1259.5, 0.804151148355059
1259.9999999999998, 0.803923417132216
1260.5, 0.803923417132216
1261, 0.804151148355059
1261.5, 0.804151148355059
1262, 0.804151148355059
1262.5, 0.804151148355059
1263, 0.803923417132216
1263.5, 0.803923417132216
1264, 0.8036956859093731
1264.5, 0.8036956859093731
1265, 0.8034679546865301
1265.4999999999998, 0.8034679546865301
1266, 0.8034679546865301
1266.5, 0.8034679546865301
1267, 0.8034679546865301
1267.5, 0.8036956859093731
1268, 0.8036956859093731
1268.5, 0.8027847610180012
1269, 0.8027847610180012
1269.5, 0.8032402234636872
1269.9999999999998, 0.8032402234636872
1270.5, 0.8030124922408441
1270.9999999999998, 0.8030124922408441
1271.5, 0.8036956859093731
1272, 0.8036956859093731
1272.5, 0.8032402234636872
1273, 0.8032402234636872
1273.5, 0.8032402234636872
1274, 0.8032402234636872
1274.5, 0.8023292985723154
1275, 0.8023292985723154
1275.4999999999998, 0.8023292985723154
1276, 0.8023292985723154
1276.5, 0.8032402234636872
1277, 0.8032402234636872
1277.5, 0.8032402234636872
1278, 0.8032402234636872
1278.5, 0.8030124922408441
1279, 0.8030124922408441
1279.5, 0.8025570297951583
1280, 0.8025570297951583
1280.5, 0.8027847610180012
1280.9999999999998, 0.8027847610180012
1281.5, 0.8021015673494724
1282, 0.8021015673494724
1282.5, 0.8027847610180012
1283, 0.8027847610180012
1283.5, 0.8034679546865301
1284, 0.8034679546865301
1284.5, 0.8025570297951583
1285, 0.8025570297951583
1285.4999999999998, 0.8027847610180012
1286, 0.8027847610180012
1286.4999999999998, 0.8030124922408441
1287, 0.8030124922408441
1287.5, 0.8025570297951583
1288, 0.8025570297951583
1288.5, 0.8021015673494724
1289, 0.8021015673494724
1289.5, 0.8023292985723154
1290, 0.8023292985723154
1290.5, 0.8023292985723154
1290.9999999999998, 0.8023292985723154
1291.5, 0.8025570297951583
1292, 0.8025570297951583
1292.5, 0.8025570297951583
1293, 0.8023292985723154
1293.5, 0.8023292985723154
1294, 0.8025570297951583
1294.5, 0.8025570297951583
1295, 0.8023292985723154
1295.5, 0.8023292985723154
1296, 0.8032402234636872
1296.4999999999998, 0.8032402234636872
1297, 0.8023292985723154
1297.5, 0.8023292985723154
