199.99999999999997, 0.19542558969584112
199.99999999999997, 0.18699953445065187
200.5, 0.19542558969584112
200.5, 0.18699953445065187
201, 0.19542558969584112
201, 0.18699953445065187
202.49999999999997, 0.19087096523898217
203, 0.19087096523898217
203.5, 0.19178189013035385
204, 0.19178189013035385
204.5, 0.18996004034761027
205, 0.18996004034761027
205.5, 0.19109869646182498
206, 0.19109869646182498
206.49999999999997, 0.18950457790192443
207, 0.18950457790192443
207.5, 0.19451466480446944
208, 0.19451466480446944
208.5, 0.1931482774674116
208.99999999999997, 0.1931482774674116
209.5, 0.19383147113594057
210, 0.19383147113594057
210.5, 0.19246508379888272
211, 0.19246508379888272
211.49999999999997, 0.1942869335816264
212, 0.1942869335816264
212.5, 0.1942869335816264
213, 0.1942869335816264
213.5, 0.19610878336437
214, 0.19610878336437
214.5, 0.19747517070142773
215, 0.19747517070142773
215.49999999999997, 0.19542558969584112
216, 0.19542558969584112
216.5, 0.1951978584729983
217, 0.1951978584729983
217.5, 0.19747517070142773
217.99999999999997, 0.19747517070142773
218.5, 0.1951978584729983
219, 0.1951978584729983
219.5, 0.1933760086902545
220, 0.1933760086902545
220.5, 0.19155415890751104
221, 0.19155415890751104
221.5, 0.19383147113594057
221.99999999999997, 0.19383147113594057
222.5, 0.19178189013035385
223, 0.19178189013035385
223.5, 0.1951978584729983
224, 0.1951978584729983
224.49999999999997, 0.19269281502172564
225, 0.19269281502172564
225.5, 0.19269281502172564
226, 0.19269281502172564
226.5, 0.19269281502172564
227, 0.1922373525760399
227.5, 0.1922373525760399
228, 0.19610878336437
228.49999999999997, 0.19610878336437
229, 0.19383147113594057
229.5, 0.19383147113594057
230, 0.19269281502172564
230.5, 0.19269281502172564
230.99999999999997, 0.19087096523898217
231.5, 0.19087096523898217
232, 0.1901877715704533
232.5, 0.1901877715704533
233, 0.18996004034761027
233.49999999999997, 0.18996004034761027
234, 0.18859365301055264
234.5, 0.18859365301055264
235, 0.19178189013035385
235.5, 0.19178189013035385
236, 0.19474239602731225
236.5, 0.19474239602731225
237, 0.19588105214152718
237.49999999999997, 0.19588105214152718
238, 0.1933760086902545
238.5, 0.1933760086902545
239, 0.1931482774674116
239.5, 0.1931482774674116
239.99999999999997, 0.19360373991309754
240.5, 0.19360373991309754
241, 0.19383147113594057
241.5, 0.19383147113594057
242, 0.191326427684668
242.5, 0.191326427684668
243, 0.19087096523898217
243.5, 0.19087096523898217
243.99999999999997, 0.18791045934202377
244.5, 0.18791045934202377
245, 0.19064323401613914
245.5, 0.19064323401613914
246, 0.1942869335816264
246.49999999999997, 0.1942869335816264
247, 0.19064323401613914
247.5, 0.19064323401613914
248, 0.1874549968963377
248.5, 0.1874549968963377
248.99999999999997, 0.19087096523898217
249.5, 0.19087096523898217
250, 0.19269281502172564
250.49999999999997, 0.19269281502172564
251, 0.19155415890751104
251.5, 0.19155415890751104
252, 0.19155415890751104
252.5, 0.19292054624456878
252.99999999999997, 0.19292054624456878
253.5, 0.1901877715704533
254, 0.1901877715704533
254.5, 0.19383147113594057
255, 0.19383147113594057
255.49999999999997, 0.1931482774674116
256, 0.1931482774674116
256.5, 0.19200962135319677
257, 0.19200962135319677
257.5, 0.1904155027932961
258, 0.1904155027932961
258.5, 0.19200962135319677
259, 0.19200962135319677
259.5, 0.1872272656734949
260, 0.1872272656734949
260.5, 0.18996004034761027
261, 0.18996004034761027
261.5, 0.19178189013035385
262, 0.19178189013035385
262.5, 0.19155415890751104
263, 0.19155415890751104
263.5, 0.1904155027932961
264, 0.1904155027932961
264.5, 0.19246508379888272
265, 0.19246508379888272
265.5, 0.19109869646182498
266, 0.19109869646182498
266.5, 0.18904911545623837
267, 0.18904911545623837
267.5, 0.18699953445065187
268, 0.18699953445065187
268.5, 0.1883659217877095
269, 0.1883659217877095
269.5, 0.1904155027932961
270, 0.1904155027932961
270.5, 0.19246508379888272
271, 0.19246508379888272
271.5, 0.191326427684668
272, 0.191326427684668
272.5, 0.19269281502172564
273, 0.19269281502172564
273.5, 0.1904155027932961
274, 0.1904155027932961
274.5, 0.19269281502172564
275, 0.19269281502172564
275.5, 0.19451466480446944
276, 0.19451466480446944
276.5, 0.1922373525760399
277, 0.1922373525760399
277.5, 0.19155415890751104
278, 0.19155415890751104
278.5, 0.19155415890751104
279, 0.19087096523898217
279.5, 0.19087096523898217
280, 0.19405920235878338
280.5, 0.19405920235878338
281, 0.1922373525760399
281.5, 0.1922373525760399
282, 0.19064323401613914
282.5, 0.19064323401613914
283, 0.19405920235878338
283.5, 0.19405920235878338
284, 0.1931482774674116
284.5, 0.1931482774674116
285, 0.19155415890751104
285.5, 0.19155415890751104
286, 0.18768272811918063
286.5, 0.18768272811918063
287, 0.1901877715704533
287.5, 0.1901877715704533
288, 0.19292054624456878
288.5, 0.19292054624456878
289, 0.19200962135319677
289.5, 0.19200962135319677
290, 0.1904155027932961
290.5, 0.1904155027932961
291, 0.1922373525760399
291.5, 0.1922373525760399
292, 0.19292054624456878
292.5, 0.19292054624456878
293, 0.1904155027932961
293.5, 0.1904155027932961
294, 0.19405920235878338
294.5, 0.19405920235878338
295, 0.19178189013035385
295.5, 0.19178189013035385
296, 0.1922373525760399
296.5, 0.1922373525760399
297, 0.1931482774674116
297.5, 0.1931482774674116
298, 0.19200962135319677
298.5, 0.19200962135319677
299, 0.18973230912476724
299.5, 0.18973230912476724
300, 0.18654407200496603
300.5, 0.18654407200496603
301, 0.1851776846679083
301.5, 0.1851776846679083
302, 0.1854054158907511
302.5, 0.1854054158907511
303, 0.18699953445065187
303.5, 0.18699953445065187
304, 0.18950457790192443
304.5, 0.18950457790192443
305, 0.18950457790192443
305.5, 0.18904911545623837
306, 0.18904911545623837
306.5, 0.1883659217877095
307, 0.1883659217877095
307.5, 0.19200962135319677
308, 0.19200962135319677
308.5, 0.1922373525760399
309, 0.1922373525760399
309.5, 0.19360373991309754
310, 0.19360373991309754
310.5, 0.19360373991309754
311, 0.19360373991309754
311.5, 0.1933760086902545
312, 0.1933760086902545
312.5, 0.19246508379888272
313, 0.19246508379888272
313.5, 0.1904155027932961
314, 0.1904155027932961
314.5, 0.19360373991309754
315, 0.19360373991309754
315.5, 0.1951978584729983
316, 0.1951978584729983
316.49999999999994, 0.19269281502172564
316.99999999999994, 0.19269281502172564
317.5, 0.18950457790192443
317.99999999999994, 0.18950457790192443
318.5, 0.19246508379888272
318.99999999999994, 0.19246508379888272
319.49999999999994, 0.1931482774674116
320, 0.1931482774674116
320.49999999999994, 0.19269281502172564
320.99999999999994, 0.19269281502172564
321.5, 0.19292054624456878
322, 0.19292054624456878
322.5, 0.19405920235878338
323, 0.19405920235878338
323.5, 0.1931482774674116
324, 0.1931482774674116
324.5, 0.19383147113594057
325, 0.19383147113594057
325.5, 0.19269281502172564
326, 0.19269281502172564
326.5, 0.19451466480446944
327, 0.19451466480446944
327.49999999999994, 0.19292054624456878
328, 0.19292054624456878
328.5, 0.1931482774674116
329, 0.1931482774674116
329.5, 0.19383147113594057
329.99999999999994, 0.19383147113594057
330.5, 0.19246508379888272
331, 0.19246508379888272
331.5, 0.19178189013035385
332, 0.19178189013035385
332.49999999999994, 0.19178189013035385
333, 0.191326427684668
333.5, 0.191326427684668
334, 0.19383147113594057
334.5, 0.19383147113594057
334.99999999999994, 0.1933760086902545
335.5, 0.1933760086902545
336, 0.19178189013035385
336.5, 0.19178189013035385
337, 0.19292054624456878
337.5, 0.19292054624456878
338, 0.19087096523898217
338.5, 0.19087096523898217
339, 0.19064323401613914
339.5, 0.19064323401613914
340, 0.19087096523898217
340.5, 0.19087096523898217
341, 0.19246508379888272
341.5, 0.19246508379888272
342, 0.19109869646182498
342.5, 0.19109869646182498
342.99999999999994, 0.19292054624456878
343.5, 0.19292054624456878
344, 0.19588105214152718
344.5, 0.19588105214152718
345, 0.19292054624456878
345.49999999999994, 0.19292054624456878
346, 0.19155415890751104
346.5, 0.19155415890751104
347, 0.19246508379888272
347.5, 0.19246508379888272
347.99999999999994, 0.1942869335816264
348.5, 0.1942869335816264
349, 0.19360373991309754
349.5, 0.19360373991309754
350, 0.19269281502172564
350.49999999999994, 0.19269281502172564
351, 0.1904155027932961
351.5, 0.1904155027932961
352, 0.19246508379888272
352.5, 0.19246508379888272
353, 0.19383147113594057
353.5, 0.19383147113594057
354, 0.19497012725015528
354.5, 0.19497012725015528
355, 0.1922373525760399
355.5, 0.1922373525760399
356, 0.1922373525760399
356.5, 0.1922373525760399
357, 0.1942869335816264
357.5, 0.1942869335816264
358, 0.19383147113594057
358.49999999999994, 0.19383147113594057
359, 0.19383147113594057
359.5, 0.19360373991309754
360, 0.19360373991309754
360.5, 0.19383147113594057
360.99999999999994, 0.19383147113594057
361.5, 0.1904155027932961
362, 0.1904155027932961
362.5, 0.19269281502172564
363, 0.19269281502172564
363.49999999999994, 0.19269281502172564
364, 0.19269281502172564
364.5, 0.191326427684668
365, 0.191326427684668
365.5, 0.19109869646182498
365.99999999999994, 0.19109869646182498
366.5, 0.19109869646182498
367, 0.19109869646182498
367.5, 0.1942869335816264
368, 0.1942869335816264
368.5, 0.1933760086902545
369, 0.1933760086902545
369.5, 0.191326427684668
370, 0.191326427684668
370.5, 0.19087096523898217
371, 0.19087096523898217
371.49999999999994, 0.19269281502172564
372, 0.19269281502172564
372.5, 0.19405920235878338
373, 0.19405920235878338
373.5, 0.1922373525760399
373.99999999999994, 0.1922373525760399
374.5, 0.19360373991309754
375, 0.19360373991309754
375.5, 0.19451466480446944
376, 0.19451466480446944
376.49999999999994, 0.19542558969584112
377, 0.19542558969584112
377.5, 0.1942869335816264
378, 0.1942869335816264
378.5, 0.19497012725015528
378.99999999999994, 0.19497012725015528
379.5, 0.1931482774674116
380, 0.1931482774674116
380.5, 0.19565332091868415
381, 0.19565332091868415
381.5, 0.19405920235878338
382, 0.19405920235878338
382.5, 0.19064323401613914
383, 0.19064323401613914
383.5, 0.19064323401613914
384, 0.19064323401613914
384.5, 0.1931482774674116
385, 0.1931482774674116
385.5, 0.1931482774674116
386, 0.1942869335816264
386.5, 0.1942869335816264
386.99999999999994, 0.19451466480446944
387.5, 0.19451466480446944
388, 0.1942869335816264
388.5, 0.1942869335816264
389, 0.19292054624456878
389.49999999999994, 0.19292054624456878
390, 0.19087096523898217
390.5, 0.19087096523898217
391, 0.19178189013035385
391.5, 0.19178189013035385
391.99999999999994, 0.19383147113594057
392.5, 0.19383147113594057
393, 0.19064323401613914
393.5, 0.19064323401613914
394, 0.1931482774674116
394.49999999999994, 0.1931482774674116
395, 0.19838609559279952
395.5, 0.19838609559279952
396, 0.19565332091868415
396.5, 0.19565332091868415
397, 0.19064323401613914
397.5, 0.19064323401613914
398, 0.19360373991309754
398.5, 0.19360373991309754
399, 0.19360373991309754
399.5, 0.19360373991309754
400, 0.1922373525760399
400.5, 0.1922373525760399
401, 0.191326427684668
401.5, 0.191326427684668
402, 0.19360373991309754
402.49999999999994, 0.19360373991309754
403, 0.19269281502172564
403.5, 0.19269281502172564
404, 0.19109869646182498
404.5, 0.19109869646182498
404.99999999999994, 0.19383147113594057
405.5, 0.19383147113594057
406, 0.19497012725015528
406.5, 0.19497012725015528
407, 0.19200962135319677
407.49999999999994, 0.19200962135319677
408, 0.1883659217877095
408.5, 0.1883659217877095
409, 0.1931482774674116
409.5, 0.1931482774674116
409.99999999999994, 0.1931482774674116
410.5, 0.1931482774674116
411, 0.19155415890751104
411.5, 0.19155415890751104
412, 0.19155415890751104
412.5, 0.1922373525760399
413, 0.1922373525760399
413.5, 0.19178189013035385
414, 0.19178189013035385
414.5, 0.1931482774674116
415, 0.1931482774674116
415.49999999999994, 0.19542558969584112
416, 0.19542558969584112
416.5, 0.19405920235878338
417, 0.19405920235878338
417.5, 0.19178189013035385
417.99999999999994, 0.19178189013035385
418.5, 0.1901877715704533
419, 0.1901877715704533
419.5, 0.1904155027932961
420, 0.1904155027932961
420.49999999999994, 0.19292054624456878
421, 0.19292054624456878
421.5, 0.19087096523898217
422, 0.19087096523898217
422.5, 0.19064323401613914
422.99999999999994, 0.19064323401613914
423.5, 0.19178189013035385
424, 0.19178189013035385
424.5, 0.1922373525760399
425, 0.1922373525760399
425.49999999999994, 0.18996004034761027
426, 0.18996004034761027
426.5, 0.19292054624456878
427, 0.19292054624456878
427.5, 0.19360373991309754
428, 0.19360373991309754
428.5, 0.19269281502172564
429, 0.19269281502172564
429.5, 0.1901877715704533
430, 0.1901877715704533
430.5, 0.19292054624456878
430.99999999999994, 0.19292054624456878
431.5, 0.19178189013035385
432, 0.19178189013035385
432.5, 0.191326427684668
433, 0.191326427684668
433.49999999999994, 0.18996004034761027
434, 0.18996004034761027
434.5, 0.1901877715704533
435, 0.1901877715704533
435.5, 0.19360373991309754
435.99999999999994, 0.19360373991309754
436.5, 0.19087096523898217
437, 0.19087096523898217
437.5, 0.19200962135319677
438, 0.19200962135319677
438.49999999999994, 0.19200962135319677
439, 0.19269281502172564
439.5, 0.19269281502172564
440, 0.19064323401613914
440.5, 0.19064323401613914
440.99999999999994, 0.19200962135319677
441.5, 0.19200962135319677
442, 0.1942869335816264
442.5, 0.1942869335816264
443, 0.1931482774674116
443.5, 0.1931482774674116
444, 0.1931482774674116
444.5, 0.1931482774674116
445, 0.19269281502172564
445.5, 0.19269281502172564
446, 0.19269281502172564
446.49999999999994, 0.19269281502172564
447, 0.18904911545623837
447.5, 0.18904911545623837
448, 0.19109869646182498
448.5, 0.19109869646182498
448.99999999999994, 0.19292054624456878
449.5, 0.19292054624456878
450, 0.191326427684668
450.5, 0.191326427684668
451, 0.19109869646182498
451.49999999999994, 0.19109869646182498
452, 0.19269281502172564
452.5, 0.19269281502172564
453, 0.18859365301055264
453.5, 0.18859365301055264
453.99999999999994, 0.19064323401613914
454.5, 0.19064323401613914
455, 0.19109869646182498
455.5, 0.19109869646182498
456, 0.18996004034761027
456.5, 0.18996004034761027
457, 0.18973230912476724
457.5, 0.18973230912476724
458, 0.19246508379888272
458.5, 0.19246508379888272
459, 0.19178189013035385
459.49999999999994, 0.19178189013035385
460, 0.19109869646182498
460.5, 0.19109869646182498
461, 0.1901877715704533
461.5, 0.1901877715704533
461.99999999999994, 0.19064323401613914
462.5, 0.19064323401613914
463, 0.1922373525760399
463.5, 0.1922373525760399
464, 0.19292054624456878
464.49999999999994, 0.19292054624456878
465, 0.1904155027932961
465.5, 0.1904155027932961
466, 0.1904155027932961
466.5, 0.19269281502172564
466.99999999999994, 0.19269281502172564
467.5, 0.19155415890751104
468, 0.19155415890751104
468.5, 0.18996004034761027
469, 0.18996004034761027
469.49999999999994, 0.1904155027932961
470, 0.1904155027932961
470.5, 0.19109869646182498
471, 0.19109869646182498
471.5, 0.19451466480446944
472, 0.19451466480446944
472.5, 0.19155415890751104
473, 0.19155415890751104
473.5, 0.1892768466790814
474, 0.1892768466790814
474.5, 0.19155415890751104
474.99999999999994, 0.19155415890751104
475.5, 0.19246508379888272
476, 0.19246508379888272
476.5, 0.19178189013035385
477, 0.19178189013035385
477.49999999999994, 0.19064323401613914
478, 0.19064323401613914
478.5, 0.18996004034761027
479, 0.18996004034761027
479.5, 0.1933760086902545
479.99999999999994, 0.1933760086902545
480.5, 0.18973230912476724
481, 0.18973230912476724
481.5, 0.19064323401613914
482, 0.19064323401613914
482.49999999999994, 0.19064323401613914
483, 0.19064323401613914
483.5, 0.19269281502172564
484, 0.19269281502172564
484.5, 0.1904155027932961
484.99999999999994, 0.1904155027932961
485.5, 0.191326427684668
486, 0.191326427684668
486.5, 0.19064323401613914
487, 0.19064323401613914
487.5, 0.1901877715704533
488, 0.1901877715704533
488.5, 0.18996004034761027
489, 0.18996004034761027
489.5, 0.19087096523898217
490, 0.19087096523898217
490.49999999999994, 0.18904911545623837
491, 0.18904911545623837
491.5, 0.1904155027932961
492, 0.1904155027932961
492.5, 0.1904155027932961
492.99999999999994, 0.18973230912476724
493.5, 0.18973230912476724
494, 0.18813819056486658
494.5, 0.18813819056486658
495, 0.18973230912476724
495.49999999999994, 0.18973230912476724
496, 0.1901877715704533
496.5, 0.1901877715704533
497, 0.18768272811918063
497.5, 0.18768272811918063
497.99999999999994, 0.18882138423339545
498.5, 0.18882138423339545
499, 0.18973230912476724
499.5, 0.18973230912476724
500, 0.18973230912476724
500.49999999999994, 0.18973230912476724
501, 0.1901877715704533
501.5, 0.1901877715704533
502, 0.18859365301055264
502.5, 0.18859365301055264
503, 0.1883659217877095
503.49999999999994, 0.1883659217877095
504, 0.18996004034761027
504.5, 0.18996004034761027
505, 0.1883659217877095
505.5, 0.1883659217877095
505.99999999999994, 0.18904911545623837
506.5, 0.18904911545623837
507, 0.18813819056486658
507.5, 0.18813819056486658
508, 0.18859365301055264
508.49999999999994, 0.18859365301055264
509, 0.186316340782123
509.5, 0.186316340782123
510, 0.18768272811918063
510.5, 0.18768272811918063
510.99999999999994, 0.1892768466790814
511.5, 0.1892768466790814
512, 0.18859365301055264
512.5, 0.18859365301055264
513, 0.1901877715704533
513.5, 0.1901877715704533
514, 0.19087096523898217
514.5, 0.19087096523898217
515, 0.186316340782123
515.5, 0.186316340782123
516, 0.18677180322780884
516.5, 0.18677180322780884
517, 0.1883659217877095
517.5, 0.1883659217877095
518, 0.18904911545623837
518.5, 0.18904911545623837
519, 0.18904911545623837
519.5, 0.18813819056486658
520, 0.18813819056486658
520.5, 0.1883659217877095
521, 0.1883659217877095
521.5, 0.18813819056486658
522, 0.18813819056486658
522.5, 0.18859365301055264
523, 0.18859365301055264
523.5, 0.18768272811918063
524, 0.18768272811918063
524.5, 0.18563314711359413
525, 0.18563314711359413
525.5, 0.18608860955927997
526, 0.18608860955927997
526.5, 0.18882138423339545
527, 0.18882138423339545
527.5, 0.1901877715704533
528, 0.1901877715704533
528.5, 0.18699953445065187
529, 0.18699953445065187
529.5, 0.18882138423339545
530, 0.18882138423339545
530.5, 0.18882138423339545
531, 0.18882138423339545
531.5, 0.18950457790192443
532, 0.18950457790192443
532.5, 0.18677180322780884
533, 0.18677180322780884
533.5, 0.1874549968963377
534, 0.1874549968963377
534.5, 0.18950457790192443
535, 0.18950457790192443
535.5, 0.18904911545623837
536, 0.18904911545623837
536.5, 0.18882138423339545
537, 0.18882138423339545
537.5, 0.18950457790192443
538, 0.18950457790192443
538.5, 0.18882138423339545
539, 0.18882138423339545
539.5, 0.18654407200496603
540, 0.18654407200496603
540.5, 0.18859365301055264
541, 0.18859365301055264
541.5, 0.18859365301055264
542, 0.18859365301055264
542.5, 0.18768272811918063
543, 0.18768272811918063
543.5, 0.1892768466790814
544, 0.1892768466790814
544.5, 0.1901877715704533
545, 0.1901877715704533
545.5, 0.1901877715704533
546, 0.18768272811918063
546.5, 0.18768272811918063
547, 0.18859365301055264
547.5, 0.18859365301055264
548, 0.19155415890751104
548.5, 0.19155415890751104
549, 0.18996004034761027
549.5, 0.18996004034761027
550, 0.19246508379888272
550.5, 0.19246508379888272
551, 0.19064323401613914
551.5, 0.19064323401613914
552, 0.19200962135319677
552.5, 0.19200962135319677
553, 0.19200962135319677
553.5, 0.19200962135319677
554, 0.191326427684668
554.5, 0.191326427684668
555, 0.1904155027932961
555.5, 0.1904155027932961
556, 0.19064323401613914
556.5, 0.19064323401613914
557, 0.19087096523898217
557.5, 0.19087096523898217
558, 0.19360373991309754
558.5, 0.19360373991309754
559, 0.1933760086902545
559.5, 0.1933760086902545
560, 0.19292054624456878
560.5, 0.19292054624456878
561, 0.19246508379888272
561.5, 0.19246508379888272
562, 0.1931482774674116
562.5, 0.1931482774674116
563, 0.1922373525760399
563.5, 0.1922373525760399
564, 0.19451466480446944
564.5, 0.19451466480446944
565, 0.19701970825574178
565.5, 0.19701970825574178
566, 0.1963365145872129
566.5, 0.1963365145872129
567, 0.19542558969584112
567.5, 0.19542558969584112
568, 0.19906928926132839
568.5, 0.19906928926132839
569, 0.19952475170701445
569.5, 0.19952475170701445
570, 0.19861382681564255
570.5, 0.19861382681564255
571, 0.20043567659838613
571.5, 0.20043567659838613
572, 0.20043567659838613
572.5, 0.19906928926132839
573, 0.19906928926132839
573.5, 0.1999802141527003
574, 0.1999802141527003
574.5, 0.20271298882681565
575, 0.20271298882681565
575.5, 0.2008911390440722
576, 0.2008911390440722
576.5, 0.20316845127250172
577, 0.20316845127250172
577.5, 0.20772307572936066
578, 0.20772307572936066
578.5, 0.20840626939788953
579, 0.20840626939788953
579.5, 0.20840626939788953
580, 0.20840626939788953
580.5, 0.2109113128491621
581, 0.2109113128491621
581.5, 0.21250543140906286
582, 0.21250543140906286
582.5, 0.2170600558659218
583, 0.2170600558659218
583.5, 0.2209314866542521
584, 0.2209314866542521
584.5, 0.21819871198013674
584.9999999999998, 0.21819871198013674
585.5, 0.22366426132836748
586, 0.22366426132836748
586.5, 0.22275333643699569
587, 0.22275333643699569
587.5, 0.22639703600248295
588, 0.22639703600248295
588.5, 0.22525837988826825
589, 0.22525837988826825
589.5, 0.23004073556797022
589.9999999999998, 0.23004073556797022
590.5, 0.23391216635630052
591, 0.23391216635630052
591.5, 0.2336844351334575
592, 0.2336844351334575
592.5, 0.23710040347610184
593, 0.23710040347610184
593.5, 0.24233822160148977
594, 0.24233822160148977
594.5, 0.2434768777157047
594.9999999999998, 0.2434768777157047
595.5, 0.2466651148355059
596, 0.2466651148355059
596.5, 0.24734830850403478
597, 0.24734830850403478
597.5, 0.2455264587212913
598, 0.2455264587212913
598.5, 0.2503088144009932
599, 0.2503088144009932
599.5, 0.2503088144009932
600, 0.25190293296089394
600.4999999999998, 0.25190293296089394
601, 0.2546357076350093
601.5, 0.2546357076350093
602, 0.2550911700806954
602.5, 0.2550911700806954
603, 0.25486343885785245
603.5, 0.25486343885785245
604, 0.25805167597765366
604.5, 0.25805167597765366
605, 0.2601012569832404
605.4999999999998, 0.2601012569832404
606, 0.26101218187461206
606.5, 0.26101218187461206
607, 0.2612399130974551
607.5, 0.2612399130974551
608, 0.26101218187461206
608.5, 0.26101218187461206
609, 0.262150837988827
609.5, 0.262150837988827
610, 0.26602226877715707
610.4999999999998, 0.26602226877715707
610.9999999999998, 0.267160924891372
611.5, 0.267160924891372
612, 0.2685273122284296
612.5, 0.2685273122284296
613, 0.26556680633147123
613.5, 0.26556680633147123
614, 0.26374495654872765
614.5, 0.26374495654872765
615, 0.26488361266294236
615.5, 0.26488361266294236
615.9999999999998, 0.2651113438857854
616.5, 0.2651113438857854
617, 0.26169537554314093
617.5, 0.26169537554314093
618, 0.26374495654872765
618.5, 0.26374495654872765
619, 0.26670546244568594
619.5, 0.26670546244568594
620, 0.2651113438857854
620.5, 0.2651113438857854
620.9999999999998, 0.2623785692116698
621.5, 0.2623785692116698
622, 0.25987352576039735
622.5, 0.25987352576039735
623, 0.2562298261949101
623.5, 0.2562298261949101
624, 0.25782394475481085
624.5, 0.25782394475481085
625, 0.25873486964618253
625.5, 0.25873486964618253
625.9999999999998, 0.25873486964618253
626.4999999999998, 0.2575962135319677
627, 0.2575962135319677
627.5, 0.25873486964618253
628, 0.25873486964618253
628.5, 0.2564575574177531
629, 0.2564575574177531
629.5, 0.25486343885785245
630, 0.25486343885785245
630.5, 0.2534970515207947
631, 0.2534970515207947
631.4999999999998, 0.25190293296089394
632, 0.25190293296089394
632.5, 0.25076427684667923
633, 0.25076427684667923
633.5, 0.2503088144009932
634, 0.2503088144009932
634.5, 0.24689284605834894
635, 0.24689284605834894
635.5, 0.24507099627560525
636, 0.24507099627560525
636.4999999999998, 0.24438780260707638
637, 0.24438780260707638
637.5, 0.24507099627560525
638, 0.24507099627560525
638.5, 0.2434768777157047
639, 0.2434768777157047
639.5, 0.24142729671011798
640, 0.24142729671011798
640.5, 0.23892225325884553
641, 0.23892225325884553
641.4999999999998, 0.2384667908131597
641.9999999999998, 0.2384667908131597
642.5, 0.23505082247051523
643, 0.23505082247051523
643.5, 0.23322897268777165
644, 0.23322897268777165
644.5, 0.23413989757914355
645, 0.23413989757914355
645.5, 0.23004073556797022
646, 0.23004073556797022
646.5, 0.23117939168218515
646.9999999999998, 0.23117939168218515
647.5, 0.2327735102420857
648, 0.2327735102420857
648.5, 0.22981300434512741
649, 0.22981300434512741
649.5, 0.22753569211669789
650, 0.22753569211669789
650.5, 0.22753569211669789
651, 0.22753569211669789
651.5, 0.22639703600248295
651.9999999999998, 0.22639703600248295
652.5, 0.22639703600248295
653, 0.22708022967101182
653.5, 0.22708022967101182
654, 0.22366426132836748
654.5, 0.22366426132836748
655, 0.22024829298572324
655.5, 0.22024829298572324
656, 0.21956509931719448
656.5, 0.21956509931719448
656.9999999999998, 0.22115921787709514
657.4999999999998, 0.22115921787709514
658, 0.22138694909993795
658.5, 0.22138694909993795
659, 0.21774324953445068
659.5, 0.21774324953445068
660, 0.21478274363749228
660.5, 0.21478274363749228
661, 0.21546593730602126
661.5, 0.21546593730602126
662, 0.2150104748603352
662.4999999999998, 0.2150104748603352
663, 0.21660459342023597
663.5, 0.21660459342023597
664, 0.2140995499689634
664.5, 0.2140995499689634
665, 0.21159450651769096
665.5, 0.21159450651769096
666, 0.2090894630664184
666.5, 0.2090894630664184
667, 0.20817853817504672
667.4999999999998, 0.20817853817504672
668, 0.20635668839230292
668.5, 0.20635668839230292
669, 0.2070398820608318
669.5, 0.2070398820608318
670, 0.20635668839230292
670.5, 0.20635668839230292
671, 0.20658441961514595
671.5, 0.20658441961514595
672, 0.2059012259466172
672.4999999999998, 0.2059012259466172
672.9999999999998, 0.2040793761638734
673.5, 0.2040793761638734
674, 0.20202979515828678
674.5, 0.20202979515828678
675, 0.20043567659838613
675.5, 0.20043567659838613
676, 0.201118870266915
676.5, 0.201118870266915
677, 0.20134660148975791
677.5, 0.20134660148975791
677.9999999999998, 0.19770290192427065
678.5, 0.19770290192427065
679, 0.19770290192427065
679.5, 0.19565332091868415
680, 0.19565332091868415
680.5, 0.19679197703289886
681, 0.19679197703289886
681.5, 0.19610878336437
682, 0.19610878336437
682.5, 0.1942869335816264
682.9999999999998, 0.1942869335816264
683.5, 0.19451466480446944
684, 0.19451466480446944
684.5, 0.19246508379888272
685, 0.19246508379888272
685.5, 0.19269281502172564
686, 0.19269281502172564
686.5, 0.19246508379888272
687, 0.19246508379888272
687.5, 0.19064323401613914
687.9999999999998, 0.19064323401613914
688.4999999999998, 0.19200962135319677
689, 0.19200962135319677
689.5, 0.19246508379888272
690, 0.19246508379888272
690.5, 0.1901877715704533
691, 0.1901877715704533
691.5, 0.18973230912476724
692, 0.18973230912476724
692.5, 0.19064323401613914
693, 0.19064323401613914
693.4999999999998, 0.18882138423339545
694, 0.18882138423339545
694.5, 0.18677180322780884
695, 0.18677180322780884
695.5, 0.18882138423339545
696, 0.18882138423339545
696.5, 0.18699953445065187
697, 0.18699953445065187
697.5, 0.18403902855369336
698, 0.18403902855369336
698.4999999999998, 0.18153398510242102
698.9999999999998, 0.18153398510242102
699.5, 0.18198944754810686
700, 0.18198944754810686
700.5, 0.18016759776536329
701, 0.18016759776536329
701.5, 0.18358356610800763
702, 0.18358356610800763
702.5, 0.1824449099937927
703, 0.1824449099937927
703.4999999999998, 0.18290037243947876
703.9999999999998, 0.18290037243947876
704.5, 0.18290037243947876
705, 0.18290037243947876
705.5, 0.18290037243947876
706, 0.1824449099937927
706.5, 0.1824449099937927
707, 0.18176171632526383
707.5, 0.18176171632526383
708, 0.1794844040968343
708.5, 0.1794844040968343
708.9999999999998, 0.1803953289882061
709.5, 0.1803953289882061
710, 0.17880121042830543
710.5, 0.17880121042830543
711, 0.1803953289882061
711.5, 0.1803953289882061
712, 0.17857347920546263
712.5, 0.17857347920546263
713, 0.1783457479826196
713.5, 0.1783457479826196
713.9999999999998, 0.17675162942271883
714.4999999999998, 0.17675162942271883
715, 0.17606843575418996
715.5, 0.17606843575418996
716, 0.17652389819987602
716.5, 0.17652389819987602
717, 0.17538524208566109
717.5, 0.17538524208566109
718, 0.176296166977033
718.5, 0.176296166977033
719, 0.17538524208566109
719.4999999999998, 0.17538524208566109
720, 0.17515751086281817
720.5, 0.17515751086281817
721, 0.17515751086281817
721.5, 0.17515751086281817
722, 0.17515751086281817
722.5, 0.17515751086281817
723, 0.17288019863438875
723.5, 0.17288019863438875
724, 0.17083061762880203
724.4999999999998, 0.17083061762880203
725, 0.17037515518311608
725.5, 0.17037515518311608
726, 0.17174154252017382
726.5, 0.17174154252017382
727, 0.17196927374301685
727.5, 0.17196927374301685
728, 0.1724247361887027
728.5, 0.1724247361887027
729, 0.171513811297331
729.4999999999998, 0.171513811297331
729.9999999999998, 0.17060288640595922
730.5, 0.17060288640595922
731, 0.1694642302917443
731.5, 0.1694642302917443
732, 0.1694642302917443
732.5, 0.17083061762880203
733, 0.17083061762880203
733.5, 0.17037515518311608
734, 0.17037515518311608
734.5, 0.16991969273743035
734.9999999999998, 0.16991969273743035
735.5, 0.16832557417752958
736, 0.16832557417752958
736.5, 0.16809784295468655
737, 0.16809784295468655
737.5, 0.16809784295468655
738, 0.16809784295468655
738.5, 0.16969196151458732
739, 0.16969196151458732
739.5, 0.16627599317194308
739.9999999999998, 0.16627599317194308
740.5, 0.16513733705772815
741, 0.16513733705772815
741.5, 0.16718691806331487
742, 0.16718691806331487
742.5, 0.16878103662321542
743, 0.16878103662321542
743.5, 0.16604826194909994
744, 0.16604826194909994
744.5, 0.16627599317194308
744.9999999999998, 0.16627599317194308
745.4999999999998, 0.1655927995034142
746, 0.1655927995034142
746.5, 0.16718691806331487
747, 0.16718691806331487
747.5, 0.1665037243947859
748, 0.1665037243947859
748.5, 0.16718691806331487
749, 0.16718691806331487
749.5, 0.1667314556176288
750, 0.1667314556176288
750.4999999999998, 0.1655927995034142
751, 0.1655927995034142
751.5, 0.1635432184978276
752, 0.1635432184978276
752.5, 0.16286002482929873
753, 0.16286002482929873
753.5, 0.16331548727498457
754, 0.16331548727498457
754.5, 0.16286002482929873
755, 0.16286002482929873
755.4999999999998, 0.16445414338919928
756, 0.16445414338919928
756.5, 0.16422641216635647
757, 0.16422641216635647
757.5, 0.16149363749224088
758, 0.16149363749224088
758.5, 0.1637709497206704
759, 0.1637709497206704
759.5, 0.1637709497206704
760, 0.1635432184978276
760.4999999999998, 0.1635432184978276
760.9999999999998, 0.16399868094351344
761.5, 0.16399868094351344
762, 0.16604826194909994
762.5, 0.16604826194909994
763, 0.16445414338919928
763.5, 0.16445414338919928
764, 0.16331548727498457
764.5, 0.16331548727498457
765, 0.1635432184978276
765.5, 0.1635432184978276
765.9999999999998, 0.16445414338919928
766.5, 0.16445414338919928
767, 0.16217683116076975
767.5, 0.16217683116076975
768, 0.16103817504655504
768.5, 0.16103817504655504
769, 0.16149363749224088
769.5, 0.16149363749224088
770, 0.16217683116076975
770.5, 0.16217683116076975
770.9999999999998, 0.1617213687150838
771.4999999999998, 0.1617213687150838
772, 0.15989951893234033
772.5, 0.15989951893234033
773, 0.15921632526381146
773.5, 0.15921632526381146
774, 0.160810443823712
774.5, 0.160810443823712
775, 0.1596717877094973
775.5, 0.1596717877094973
775.9999999999998, 0.15989951893234033
776.4999999999998, 0.15989951893234033
777, 0.15921632526381146
777.5, 0.15921632526381146
778, 0.1587608628181254
778.5, 0.1587608628181254
779, 0.1587608628181254
779.5, 0.1587608628181254
780, 0.15921632526381146
780.5, 0.15921632526381146
781, 0.15944405648665427
781.4999999999998, 0.15944405648665427
782, 0.15921632526381146
782.5, 0.15921632526381146
783, 0.15989951893234033
783.5, 0.15989951893234033
784, 0.1576222067039108
784.5, 0.1576222067039108
785, 0.1576222067039108
785.5, 0.1576222067039108
786, 0.1576222067039108
786.4999999999998, 0.1567112818125389
786.9999999999998, 0.1567112818125389
787.5, 0.15716674425822474
788, 0.15716674425822474
788.5, 0.1546617008069523
789, 0.1546617008069523
789.5, 0.1528398510242086
790, 0.1528398510242086
790.5, 0.1537507759155804
791, 0.1537507759155804
791.4999999999998, 0.15397850713842343
791.9999999999998, 0.15397850713842343
792.5, 0.1546617008069523
793, 0.1546617008069523
793.5, 0.15420623836126646
794, 0.15420623836126646
794.5, 0.15488943202979533
795, 0.15488943202979533
795.5, 0.15420623836126646
796, 0.15420623836126646
796.5, 0.1537507759155804
796.9999999999998, 0.1537507759155804
797.5, 0.15420623836126646
798, 0.15420623836126646
798.5, 0.15534489447548117
799, 0.15534489447548117
799.5, 0.15397850713842343
800, 0.15397850713842343
800.5, 0.15397850713842343
801, 0.15397850713842343
801.5, 0.1537507759155804
801.9999999999998, 0.1537507759155804
802.4999999999998, 0.1546617008069523
803, 0.1546617008069523
803.5, 0.15352304469273748
804, 0.15352304469273748
804.5, 0.15306758224705153
805, 0.15306758224705153
805.5, 0.1528398510242086
806, 0.1528398510242086
806.5, 0.15147346368715087
806.9999999999998, 0.15147346368715087
807.4999999999998, 0.15306758224705153
808, 0.15306758224705153
808.5, 0.1528398510242086
809, 0.1528398510242086
809.5, 0.15192892613283693
810, 0.15192892613283693
810.5, 0.15101800124146503
811, 0.15101800124146503
811.5, 0.15215665735567974
812, 0.15215665735567974
812.4999999999998, 0.15215665735567974
813, 0.1528398510242086
813.5, 0.1528398510242086
814, 0.15033480757293616
814.5, 0.15033480757293616
815, 0.1517011949099939
815.5, 0.1517011949099939
816, 0.150790270018622
816.5, 0.150790270018622
817, 0.15010707635009313
817.4999999999998, 0.15010707635009313
817.9999999999998, 0.15147346368715087
818.5, 0.15147346368715087
819, 0.14987934512725032
819.5, 0.14987934512725032
820, 0.1496516139044073
820.5, 0.1496516139044073
821, 0.15033480757293616
821.5, 0.15033480757293616
822, 0.15124573246430806
822.4999999999998, 0.15124573246430806
822.9999999999998, 0.15010707635009313
823.5, 0.15010707635009313
824, 0.15124573246430806
824.5, 0.15124573246430806
825, 0.1505625387957792
825.5, 0.1505625387957792
826, 0.15147346368715087
826.5, 0.15147346368715087
827, 0.15033480757293616
827.5, 0.15033480757293616
827.9999999999998, 0.14987934512725032
828.5, 0.14987934512725032
829, 0.15147346368715087
829.5, 0.15147346368715087
830, 0.15215665735567974
830.5, 0.15215665735567974
831, 0.14987934512725032
831.5, 0.14987934512725032
832, 0.15101800124146503
832.5, 0.15101800124146503
832.9999999999998, 0.1517011949099939
833.4999999999998, 0.1517011949099939
834, 0.15215665735567974
834.5, 0.15215665735567974
835, 0.1517011949099939
835.5, 0.1517011949099939
836, 0.150790270018622
836.5, 0.150790270018622
837, 0.15101800124146503
837.5, 0.15101800124146503
837.9999999999998, 0.15147346368715087
838.4999999999998, 0.15147346368715087
839, 0.15147346368715087
839.5, 0.15192892613283693
840, 0.15192892613283693
840.5, 0.1526121198013658
841, 0.1526121198013658
841.5, 0.15192892613283693
842, 0.15192892613283693
842.5, 0.15147346368715087
843, 0.15147346368715087
843.4999999999998, 0.1537507759155804
844, 0.1537507759155804
844.5, 0.15192892613283693
845, 0.15192892613283693
845.5, 0.15238438857852277
846, 0.15238438857852277
846.5, 0.15443396958410927
847, 0.15443396958410927
847.5, 0.1555726256983242
848, 0.1555726256983242
848.4999999999998, 0.15420623836126646
848.9999999999998, 0.15420623836126646
849.5, 0.15443396958410927
850, 0.15443396958410927
850.5, 0.1537507759155804
851, 0.1537507759155804
851.5, 0.15488943202979533
852, 0.15488943202979533
852.5, 0.15443396958410927
853, 0.15443396958410927
853.4999999999998, 0.15602808814401004
853.9999999999998, 0.15602808814401004
854.5, 0.1567112818125389
855, 0.1567112818125389
855.5, 0.15693901303538194
856, 0.15693901303538194
856.5, 0.15693901303538194
857, 0.15693901303538194
857.5, 0.15807766914959653
858, 0.15807766914959653
858.5, 0.15944405648665427
858.9999999999998, 0.15944405648665427
859.4999999999998, 0.15898859404096843
860, 0.15898859404096843
860.5, 0.1585331315952826
861, 0.1585331315952826
861.5, 0.15830540037243956
862, 0.15830540037243956
862.5, 0.16035498137802617
863, 0.16035498137802617
863.5, 0.1617213687150838
863.9999999999998, 0.1617213687150838
864.4999999999998, 0.16035498137802617
865, 0.16035498137802617
865.5, 0.16035498137802617
866, 0.15989951893234033
866.5, 0.15989951893234033
867, 0.1617213687150838
867.5, 0.1617213687150838
868, 0.1626322936064557
868.5, 0.1626322936064557
868.9999999999998, 0.1637709497206704
869.4999999999998, 0.1637709497206704
870, 0.16445414338919928
870.5, 0.16445414338919928
871, 0.16308775605214154
871.5, 0.16308775605214154
872, 0.16422641216635647
872.5, 0.16422641216635647
873, 0.1646818746120423
873.5, 0.1646818746120423
874, 0.16513733705772815
874.4999999999998, 0.16513733705772815
874.9999999999998, 0.16604826194909994
875.5, 0.16604826194909994
876, 0.16490960583488534
876.5, 0.16490960583488534
877, 0.16627599317194308
877.5, 0.16627599317194308
878, 0.16422641216635647
878.5, 0.16422641216635647
879, 0.16695918684047184
879.4999999999998, 0.16695918684047184
879.9999999999998, 0.16695918684047184
880.5, 0.16695918684047184
881, 0.16878103662321542
881.5, 0.16878103662321542
882, 0.16923649906890148
882.5, 0.16923649906890148
883, 0.16809784295468655
883.5, 0.16809784295468655
884, 0.16809784295468655
884.5, 0.16809784295468655
884.9999999999998, 0.1665037243947859
885.5, 0.1665037243947859
886, 0.16741464928615768
886.5, 0.16741464928615768
887, 0.16832557417752958
887.5, 0.16832557417752958
888, 0.16991969273743035
888.5, 0.16991969273743035
889, 0.16991969273743035
889.5, 0.16991969273743035
889.9999999999998, 0.1676423805090007
890.4999999999998, 0.1676423805090007
891, 0.16878103662321542
891.5, 0.16878103662321542
892, 0.16923649906890148
892.5, 0.16923649906890148
893, 0.16923649906890148
893.5, 0.16809784295468655
894, 0.16809784295468655
894.5, 0.1694642302917443
894.9999999999998, 0.1694642302917443
895.4999999999998, 0.17014742396027316
896, 0.17014742396027316
896.5, 0.17060288640595922
897, 0.17060288640595922
897.5, 0.1694642302917443
898, 0.1694642302917443
898.5, 0.17265246741154572
899, 0.17265246741154572
899.5, 0.17379112352576043
900, 0.17379112352576043
900.4999999999998, 0.17310792985723156
901, 0.17310792985723156
901.5, 0.1724247361887027
902, 0.1724247361887027
902.5, 0.17219700496585988
903, 0.17219700496585988
903.5, 0.17288019863438875
904, 0.17288019863438875
904.5, 0.17219700496585988
905, 0.17219700496585988
905.4999999999998, 0.1742465859714465
905.9999999999998, 0.1742465859714465
906.5, 0.17470204841713222
907, 0.17470204841713222
907.5, 0.17470204841713222
908, 0.17470204841713222
908.5, 0.17538524208566109
909, 0.17538524208566109
909.5, 0.17561297330850412
910, 0.17561297330850412
910.4999999999998, 0.17561297330850412
910.9999999999998, 0.17561297330850412
911.5, 0.1774348230912477
912, 0.1774348230912477
912.5, 0.17789028553693376
913, 0.17789028553693376
913.5, 0.17697936064556186
914, 0.17697936064556186
914.5, 0.1794844040968343
915, 0.1794844040968343
915.5, 0.18198944754810686
915.9999999999998, 0.18198944754810686
916.5, 0.181306253879578
917, 0.181306253879578
917.5, 0.18016759776536329
918, 0.18016759776536329
918.5, 0.18290037243947876
919, 0.18290037243947876
919.5, 0.18290037243947876
920, 0.18312810366232157
920.5, 0.18312810366232157
920.9999999999998, 0.18381129733085044
921.4999999999998, 0.18381129733085044
922, 0.1854054158907511
922.5, 0.1854054158907511
923, 0.18563314711359413
923.5, 0.18563314711359413
924, 0.1874549968963377
924.5, 0.1874549968963377
925, 0.1874549968963377
925.5, 0.1874549968963377
925.9999999999998, 0.18768272811918063
926.4999999999998, 0.18768272811918063
927, 0.18859365301055264
927.5, 0.18859365301055264
928, 0.18996004034761027
928.5, 0.18996004034761027
929, 0.19178189013035385
929.5, 0.19178189013035385
930, 0.1922373525760399
930.5, 0.1922373525760399
931, 0.19360373991309754
931.4999999999998, 0.19360373991309754
932, 0.1942869335816264
932.5, 0.1942869335816264
933, 0.19497012725015528
933.5, 0.19497012725015528
934, 0.19770290192427065
934.5, 0.19770290192427065
935, 0.19679197703289886
935.5, 0.19679197703289886
936, 0.19770290192427065
936.4999999999998, 0.19770290192427065
936.9999999999998, 0.19793063314711368
937.5, 0.19793063314711368
938, 0.20134660148975791
938.5, 0.20134660148975791
939, 0.20362391371818755
939.5, 0.20362391371818755
940, 0.20544576350093113
940.5, 0.20544576350093113
941, 0.20567349472377405
941.4999999999998, 0.20567349472377405
941.9999999999998, 0.20635668839230292
942.5, 0.20635668839230292
943, 0.20840626939788953
943.5, 0.20840626939788953
944, 0.20931719428926132
944.5, 0.20931719428926132
945, 0.20749534450651785
945.5, 0.20749534450651785
946, 0.20749534450651785
946.5, 0.20954492551210446
946.9999999999998, 0.20954492551210446
947.4999999999998, 0.2129608938547487
948, 0.2129608938547487
948.5, 0.2159213997517071
949, 0.2159213997517071
949.5, 0.2140995499689634
950, 0.2140995499689634
950.5, 0.2120499689633768
951, 0.2120499689633768
951.5, 0.21523820608317834
951.9999999999998, 0.21523820608317834
952.4999999999998, 0.2179709807572937
953, 0.2179709807572937
953.5, 0.21910963687150842
954, 0.21910963687150842
954.5, 0.21728778708876484
955, 0.21728778708876484
955.5, 0.21956509931719448
956, 0.21956509931719448
956.5, 0.21842644320297955
956.9999999999998, 0.21842644320297955
957.4999999999998, 0.22252560521415288
958, 0.22252560521415288
958.5, 0.22548611111111128
959, 0.22548611111111128
959.5, 0.22320879888268175
960, 0.22320879888268175
960.5, 0.22594157355679712
961, 0.22594157355679712
961.5, 0.22503064866542521
962, 0.22503064866542521
962.4999999999998, 0.22730796089385474
962.9999999999998, 0.22730796089385474
963.5, 0.22616930477964015
964, 0.22616930477964015
964.5, 0.22571384233395408
965, 0.22571384233395408
965.5, 0.22708022967101182
966, 0.22708022967101182
966.5, 0.22708022967101182
967, 0.22708022967101182
967.4999999999998, 0.2289020794537555
967.9999999999998, 0.2289020794537555
968.5, 0.23095166045934212
969, 0.23095166045934212
969.5, 0.23209031657355683
970, 0.23209031657355683
970.5, 0.23117939168218515
971, 0.23117939168218515
971.5, 0.2325457790192429
972, 0.2325457790192429
972.4999999999998, 0.2325457790192429
972.9999999999998, 0.2307239292364991
973.5, 0.2307239292364991
974, 0.22935754189944135
974.5, 0.22935754189944135
975, 0.22844661700806956
975.5, 0.22844661700806956
976, 0.22867434823091248
976.5, 0.22867434823091248
977, 0.23026846679081325
977.5, 0.23026846679081325
977.9999999999998, 0.23026846679081325
978.4999999999998, 0.23026846679081325
979, 0.2279911545623836
979.5, 0.2279911545623836
980, 0.22981300434512741
980.5, 0.22981300434512741
981, 0.22844661700806956
981.5, 0.22844661700806956
982, 0.22685249844816902
982.5, 0.22685249844816902
982.9999999999998, 0.22912981067659854
983.4999999999998, 0.22912981067659854
984, 0.23004073556797022
984.5, 0.23004073556797022
985, 0.23049619801365628
985.5, 0.23049619801365628
986, 0.22662476722532598
986.5, 0.22662476722532598
987, 0.22753569211669789
987.5, 0.22753569211669789
987.9999999999998, 0.22685249844816902
988.4999999999998, 0.22685249844816902
989, 0.22730796089385474
989.5, 0.22730796089385474
990, 0.2289020794537555
990.5, 0.2289020794537555
991, 0.22821888578522675
991.5, 0.22821888578522675
992, 0.22434745499689634
992.5, 0.22434745499689634
993, 0.22616930477964015
993.4999999999998, 0.22616930477964015
993.9999999999998, 0.22366426132836748
994.5, 0.22366426132836748
995, 0.2279911545623836
995.5, 0.2279911545623836
996, 0.22275333643699569
996.5, 0.22275333643699569
997, 0.22503064866542521
997.5, 0.22503064866542521
998, 0.22708022967101182
998.4999999999998, 0.22708022967101182
998.9999999999998, 0.22708022967101182
999.5, 0.22503064866542521
1000, 0.22503064866542521
1000.5, 0.22571384233395408
1001, 0.22571384233395408
1001.5, 0.22320879888268175
1002, 0.22320879888268175
1002.5, 0.22343653010552456
1003, 0.22343653010552456
1003.4999999999998, 0.22708022967101182
1003.9999999999998, 0.22708022967101182
1004.5, 0.22434745499689634
1005, 0.22434745499689634
1005.5, 0.22343653010552456
1006, 0.22343653010552456
1006.5, 0.22320879888268175
1007, 0.22320879888268175
1007.5, 0.22548611111111128
1008, 0.22548611111111128
1008.5, 0.22503064866542521
1008.9999999999998, 0.22503064866542521
1009.4999999999998, 0.2248029174425824
1010, 0.2248029174425824
1010.5, 0.22366426132836748
1011, 0.22366426132836748
1011.5, 0.22457518621973938
1012, 0.22457518621973938
1012.5, 0.22639703600248295
1013, 0.22639703600248295
1013.5, 0.2277634233395407
1013.9999999999998, 0.2277634233395407
1014.4999999999998, 0.22935754189944135
1015, 0.22935754189944135
1015.5, 0.22594157355679712
1016, 0.22594157355679712
1016.5, 0.22708022967101182
1017, 0.22708022967101182
1017.5, 0.2307239292364991
1018, 0.2307239292364991
1018.5, 0.23049619801365628
1018.9999999999998, 0.23049619801365628
1019.4999999999998, 0.22935754189944135
1020, 0.22935754189944135
1020.5, 0.22912981067659854
1021, 0.22912981067659854
1021.5, 0.23026846679081325
1022, 0.23026846679081325
1022.5, 0.23163485412787088
1023, 0.23163485412787088
1023.5, 0.23322897268777165
1024, 0.23322897268777165
1024.4999999999998, 0.23186258535071402
1024.9999999999998, 0.23186258535071402
1025.5, 0.23186258535071402
1026, 0.23026846679081325
1026.5, 0.23026846679081325
1027, 0.23163485412787088
1027.5, 0.23163485412787088
1028, 0.23436762880198636
1028.5, 0.23436762880198636
1029, 0.2345953600248294
1029.4999999999998, 0.2345953600248294
1029.9999999999998, 0.23300124146492862
1030.5, 0.23300124146492862
1031, 0.23209031657355683
1031.5, 0.23209031657355683
1032, 0.2357340161390441
1032.5, 0.2357340161390441
1033, 0.23732813469894476
1033.5, 0.23732813469894476
1034, 0.23618947858473016
1034.4999999999998, 0.23618947858473016
1034.9999999999998, 0.23527855369335826
1035.4999999999998, 0.23527855369335826
1036, 0.2366449410304159
1036.5, 0.2366449410304159
1037, 0.2405163718187463
1037.5, 0.2405163718187463
1038, 0.2357340161390441
1038.5, 0.2357340161390441
1039, 0.23209031657355683
1039.5, 0.23209031657355683
1039.9999999999998, 0.23823905959031666
1040.4999999999998, 0.23823905959031666
1041, 0.24302141527001864
1041.5, 0.24302141527001864
1042, 0.2405163718187463
1042.5, 0.2405163718187463
1043, 0.24028864059590316
1043.5, 0.24028864059590316
1044, 0.23914998448168856
1044.5, 0.23914998448168856
1044.9999999999998, 0.24233822160148977
1045.4999999999998, 0.24233822160148977
1046, 0.24438780260707638
1046.5, 0.24438780260707638
1047, 0.24188275915580393
1047.5, 0.24188275915580393
1048, 0.23914998448168856
1048.5, 0.23914998448168856
1049, 0.24211049037864696
1049.5, 0.24211049037864696
1050, 0.2446155338299193
1050.4999999999998, 0.2446155338299193
1050.9999999999998, 0.24620965238982018
1051.5, 0.24620965238982018
1052, 0.24529872749844817
1052.5, 0.24529872749844817
1053, 0.24529872749844817
1053.5, 0.2464373836126631
1054, 0.2464373836126631
1054.5, 0.24507099627560525
1055, 0.24507099627560525
1055.4999999999998, 0.2434768777157047
1055.9999999999998, 0.2434768777157047
1056.5, 0.24484326505276244
1057, 0.24484326505276244
1057.5, 0.24598192116697704
1058, 0.24598192116697704
1058.5, 0.2464373836126631
1059, 0.2464373836126631
1059.5, 0.2484869646182497
1060, 0.2484869646182497
1060.4999999999998, 0.24894242706393543
1060.9999999999998, 0.24894242706393543
1061.5, 0.24712057728119197
1062, 0.24712057728119197
1062.5, 0.2466651148355059
1063, 0.2466651148355059
1063.5, 0.2466651148355059
1064, 0.2466651148355059
1064.5, 0.25008108317815025
1065, 0.25008108317815025
1065.5, 0.2484869646182497
1065.9999999999998, 0.2484869646182497
1066.4999999999998, 0.2434768777157047
1067, 0.2434768777157047
1067.5, 0.24575418994413412
1068, 0.24575418994413412
1068.5, 0.24939788950962138
1069, 0.24939788950962138
1069.5, 0.25099200806952204
1070, 0.25099200806952204
1070.5, 0.24689284605834894
1070.9999999999998, 0.24689284605834894
1071.4999999999998, 0.24734830850403478
1072, 0.24734830850403478
1072.5, 0.24598192116697704
1073, 0.24598192116697704
1073.5, 0.24689284605834894
1074, 0.24689284605834894
1074.5, 0.24734830850403478
1075, 0.24734830850403478
1075.5, 0.24598192116697704
1075.9999999999998, 0.24598192116697704
1076.4999999999998, 0.2434768777157047
1077, 0.2434768777157047
1077.5, 0.24279368404717583
1078, 0.24279368404717583
1078.5, 0.2437046089385475
1079, 0.2437046089385475
1079.5, 0.2437046089385475
1080, 0.24324914649286167
1080.5, 0.24324914649286167
1081, 0.24393234016139054
1081.4999999999998, 0.24393234016139054
1081.9999999999998, 0.24438780260707638
1082.5, 0.24438780260707638
1083, 0.2434768777157047
1083.5, 0.2434768777157047
1084, 0.24119956548727517
1084.5, 0.24119956548727517
1085, 0.2407441030415891
1085.5, 0.2407441030415891
1086, 0.23983317815021743
1086.5, 0.23983317815021743
1087, 0.23801132836747363
1087.5, 0.23801132836747363
1088, 0.23732813469894476
1088.5, 0.23732813469894476
1089, 0.2366449410304159
1089.5, 0.2366449410304159
1090, 0.23687267225325903
1090.5, 0.23687267225325903
1091, 0.23596174736188702
1091.5, 0.23596174736188702
1092, 0.2355062849162013
1092.5, 0.2355062849162013
1093, 0.23231804779639975
1093.5, 0.23231804779639975
1094, 0.23186258535071402
1094.5, 0.23186258535071402
1095, 0.23004073556797022
1095.5, 0.23004073556797022
1096, 0.22708022967101182
1096.5, 0.22708022967101182
1097, 0.22867434823091248
1097.5, 0.22867434823091248
1098, 0.22844661700806956
1098.5, 0.22844661700806956
1099, 0.22389199255121062
1099.5, 0.22389199255121062
1100, 0.2248029174425824
1100.5, 0.2248029174425824
1101, 0.22207014276846682
1101.5, 0.22207014276846682
1102, 0.2188819056486656
1102.5, 0.2188819056486656
1103, 0.22024829298572324
1103.5, 0.22024829298572324
1104, 0.2170600558659218
1104.5, 0.2170600558659218
1104.9999999999998, 0.21364408752327746
1105.5, 0.21364408752327746
1106, 0.21364408752327746
1106.5, 0.2129608938547487
1107, 0.2129608938547487
1107.5, 0.20977265673494727
1108, 0.20977265673494727
1108.5, 0.21113904407200512
1109, 0.21113904407200512
1109.4999999999998, 0.20840626939788953
1110, 0.20840626939788953
1110.4999999999998, 0.20772307572936066
1111, 0.20772307572936066
1111.5, 0.20499030105524518
1112, 0.20499030105524518
1112.5, 0.20271298882681565
1113, 0.20271298882681565
1113.5, 0.20043567659838613
1114, 0.20043567659838613
1114.5, 0.19929702048417142
1114.9999999999998, 0.19929702048417142
1115.5, 0.19861382681564255
1116, 0.19861382681564255
1116.5, 0.19861382681564255
1117, 0.19861382681564255
1117.5, 0.19656424581005605
1118, 0.19656424581005605
1118.5, 0.19497012725015528
1119, 0.19497012725015528
1119.5, 0.1933760086902545
1120, 0.1933760086902545
1120.4999999999998, 0.19200962135319677
1121, 0.19200962135319677
1121.5, 0.19064323401613914
1122, 0.19064323401613914
1122.5, 0.19109869646182498
1123, 0.19109869646182498
1123.5, 0.18904911545623837
1124, 0.18904911545623837
1124.5, 0.18654407200496603
1124.9999999999998, 0.18654407200496603
1125.5, 0.18494995344506526
1125.9999999999998, 0.18494995344506526
1126.5, 0.18290037243947876
1127, 0.18290037243947876
1127.5, 0.1803953289882061
1128, 0.1803953289882061
1128.5, 0.17971213531967722
1129, 0.17971213531967722
1129.5, 0.18016759776536329
1130, 0.18016759776536329
1130.4999999999998, 0.17880121042830543
1131, 0.17880121042830543
1131.5, 0.1783457479826196
1132, 0.1783457479826196
1132.5, 0.1783457479826196
1133, 0.17675162942271883
1133.5, 0.17675162942271883
1134, 0.17675162942271883
1134.5, 0.17675162942271883
1135, 0.1742465859714465
1135.5, 0.1742465859714465
1135.9999999999998, 0.1742465859714465
1136.5, 0.1742465859714465
1137, 0.17470204841713222
1137.5, 0.17470204841713222
1138, 0.17196927374301685
1138.5, 0.17196927374301685
1139, 0.17128608007448798
1139.5, 0.17128608007448798
1140, 0.16969196151458732
1140.5, 0.16969196151458732
1141, 0.16878103662321542
1141.4999999999998, 0.16878103662321542
1142, 0.16878103662321542
1142.5, 0.16878103662321542
1143, 0.1676423805090007
1143.5, 0.1676423805090007
1144, 0.16695918684047184
1144.5, 0.16695918684047184
1145, 0.1676423805090007
1145.5, 0.1676423805090007
1145.9999999999998, 0.1665037243947859
1146.5, 0.1665037243947859
1147, 0.16490960583488534
1147.5, 0.16490960583488534
1148, 0.16536506828057118
1148.5, 0.16536506828057118
1149, 0.1635432184978276
1149.5, 0.1635432184978276
1150, 0.16103817504655504
1150.5, 0.16103817504655504
1151, 0.16035498137802617
1151.4999999999998, 0.16035498137802617
1152, 0.16149363749224088
1152.5, 0.16149363749224088
1153, 0.16035498137802617
1153.5, 0.16035498137802617
1154, 0.15989951893234033
1154.5, 0.15989951893234033
1155, 0.1585331315952826
1155.5, 0.1585331315952826
1156, 0.1585331315952826
1156.5, 0.1585331315952826
1156.9999999999998, 0.1585331315952826
1157.5, 0.1585331315952826
1158, 0.15784993792675361
1158.5, 0.15784993792675361
1159, 0.15784993792675361
1159.5, 0.15602808814401004
1160, 0.15602808814401004
1160.5, 0.15602808814401004
1161, 0.15602808814401004
1161.4999999999998, 0.15716674425822474
1162, 0.15716674425822474
1162.5, 0.155800356921167
1163, 0.155800356921167
1163.5, 0.15488943202979533
1164, 0.15488943202979533
1164.5, 0.1567112818125389
1165, 0.1567112818125389
1165.5, 0.1555726256983242
1166, 0.1555726256983242
1166.5, 0.15443396958410927
1166.9999999999998, 0.15443396958410927
1167.5, 0.15420623836126646
1168, 0.15420623836126646
1168.5, 0.15329531346989467
1169, 0.15329531346989467
1169.5, 0.15420623836126646
1170, 0.15420623836126646
1170.5, 0.15397850713842343
1171, 0.15397850713842343
1171.5, 0.15443396958410927
1172, 0.15443396958410927
1172.4999999999998, 0.15397850713842343
1173, 0.15397850713842343
1173.5, 0.15329531346989467
1174, 0.15329531346989467
1174.5, 0.15329531346989467
1175, 0.15329531346989467
1175.5, 0.1537507759155804
1176, 0.1537507759155804
1176.5, 0.15215665735567974
1176.9999999999998, 0.15215665735567974
1177.5, 0.1517011949099939
1178, 0.1517011949099939
1178.5, 0.15238438857852277
1179, 0.15238438857852277
1179.5, 0.15215665735567974
1180, 0.15215665735567974
1180.5, 0.1528398510242086
1181, 0.1528398510242086
1181.5, 0.15238438857852277
1182, 0.15238438857852277
1182.4999999999998, 0.15033480757293616
1183, 0.15033480757293616
1183.5, 0.1505625387957792
1184, 0.1505625387957792
1184.5, 0.15215665735567974
1185, 0.15215665735567974
1185.5, 0.15192892613283693
1186, 0.15192892613283693
1186.5, 0.15192892613283693
1187, 0.15033480757293616
1187.5, 0.15033480757293616
1187.9999999999998, 0.15010707635009313
1188.5, 0.15010707635009313
1189, 0.15124573246430806
1189.5, 0.15124573246430806
1190, 0.15147346368715087
1190.5, 0.15147346368715087
1191, 0.1517011949099939
1191.5, 0.1517011949099939
1192, 0.15101800124146503
1192.4999999999998, 0.15101800124146503
1193, 0.15147346368715087
1193.5, 0.15147346368715087
1194, 0.14987934512725032
1194.5, 0.14987934512725032
1195, 0.15010707635009313
1195.5, 0.15010707635009313
1196, 0.15101800124146503
1196.5, 0.15101800124146503
1197, 0.15192892613283693
1197.5, 0.15192892613283693
1197.9999999999998, 0.15033480757293616
1198.5, 0.15033480757293616
1199, 0.15101800124146503
1199.5, 0.15101800124146503
1200, 0.1505625387957792
1200.5, 0.1505625387957792
1201, 0.1505625387957792
1201.5, 0.1505625387957792
1202, 0.1517011949099939
1202.5, 0.1517011949099939
1203, 0.15215665735567974
1203.4999999999998, 0.15215665735567974
1204, 0.15010707635009313
1204.5, 0.15010707635009313
1205, 0.1505625387957792
1205.5, 0.1505625387957792
1206, 0.15124573246430806
1206.5, 0.15124573246430806
1207, 0.15124573246430806
1207.5, 0.15124573246430806
1207.9999999999998, 0.14919615145872134
1208.5, 0.14919615145872134
1208.9999999999998, 0.15124573246430806
1209.5, 0.15124573246430806
1210, 0.1526121198013658
1210.5, 0.1526121198013658
1211, 0.15124573246430806
1211.5, 0.15124573246430806
1212, 0.14919615145872134
1212.5, 0.14919615145872134
1213, 0.14919615145872134
1213.4999999999998, 0.150790270018622
1214, 0.150790270018622
1214.5, 0.15033480757293616
1215, 0.15033480757293616
1215.5, 0.14896842023587853
1216, 0.14896842023587853
1216.5, 0.14896842023587853
1217, 0.14896842023587853
1217.5, 0.15033480757293616
1218, 0.15033480757293616
1218.5, 0.14987934512725032
1218.9999999999998, 0.14987934512725032
1219.5, 0.15033480757293616
1220, 0.15033480757293616
1220.5, 0.14987934512725032
1221, 0.14987934512725032
1221.5, 0.15010707635009313
1222, 0.15010707635009313
1222.5, 0.1505625387957792
1223, 0.1505625387957792
1223.4999999999998, 0.150790270018622
1224, 0.150790270018622
1224.4999999999998, 0.15033480757293616
1225, 0.15033480757293616
1225.5, 0.15215665735567974
1226, 0.15215665735567974
1226.5, 0.15147346368715087
1227, 0.15147346368715087
1227.5, 0.15033480757293616
1228, 0.15033480757293616
1228.5, 0.1505625387957792
1228.9999999999998, 0.1505625387957792
1229.5, 0.14896842023587853
1230, 0.14896842023587853
1230.5, 0.1496516139044073
1231, 0.1496516139044073
1231.5, 0.14987934512725032
1232, 0.14987934512725032
1232.5, 0.15033480757293616
1233, 0.15033480757293616
1233.5, 0.15033480757293616
1234, 0.15033480757293616
1234.4999999999998, 0.14896842023587853
1235, 0.14896842023587853
1235.5, 0.15101800124146503
1236, 0.15101800124146503
1236.5, 0.1496516139044073
1237, 0.1496516139044073
1237.5, 0.1487406890130354
1238, 0.1487406890130354
1238.5, 0.15010707635009313
1238.9999999999998, 0.15010707635009313
1239.5, 0.15010707635009313
1239.9999999999998, 0.1496516139044073
1240.5, 0.1496516139044073
1241, 0.1496516139044073
1241.5, 0.1496516139044073
1242, 0.1496516139044073
1242.5, 0.1496516139044073
1243, 0.1517011949099939
1243.5, 0.1517011949099939
1244, 0.15033480757293616
1244.4999999999998, 0.15033480757293616
1245, 0.1496516139044073
1245.5, 0.1496516139044073
1246, 0.14942388268156426
1246.5, 0.14942388268156426
1247, 0.15010707635009313
1247.5, 0.15010707635009313
1248, 0.14987934512725032
1248.5, 0.14987934512725032
1249, 0.14919615145872134
1249.5, 0.14919615145872134
1249.9999999999998, 0.14919615145872134
1250.5, 0.14919615145872134
1251, 0.14987934512725032
1251.5, 0.14987934512725032
1252, 0.1496516139044073
1252.5, 0.1496516139044073
1253, 0.14942388268156426
1253.5, 0.14942388268156426
1254, 0.15147346368715087
1254.4999999999998, 0.15147346368715087
1255, 0.150790270018622
1255.4999999999998, 0.150790270018622
1256, 0.15033480757293616
1256.5, 0.15033480757293616
1257, 0.14896842023587853
1257.5, 0.14896842023587853
1258, 0.14942388268156426
1258.5, 0.14942388268156426
1259, 0.15147346368715087
1259.5, 0.15147346368715087
1259.9999999999998, 0.14987934512725032
1260.5, 0.14987934512725032
1261, 0.15033480757293616
1261.5, 0.15033480757293616
1262, 0.14987934512725032
1262.5, 0.14987934512725032
1263, 0.15033480757293616
1263.5, 0.15033480757293616
1264, 0.15147346368715087
1264.5, 0.15147346368715087
1265, 0.15147346368715087
1265.4999999999998, 0.15147346368715087
1266, 0.15147346368715087
1266.5, 0.15010707635009313
1267, 0.15010707635009313
1267.5, 0.15010707635009313
1268, 0.15010707635009313
1268.5, 0.15033480757293616
1269, 0.15033480757293616
1269.5, 0.14987934512725032
1269.9999999999998, 0.14987934512725032
1270.5, 0.15010707635009313
1270.9999999999998, 0.15010707635009313
1271.5, 0.1478297641216636
1272, 0.1478297641216636
1272.5, 0.1487406890130354
1273, 0.1487406890130354
1273.5, 0.14896842023587853
1274, 0.14896842023587853
1274.5, 0.150790270018622
1275, 0.150790270018622
1275.4999999999998, 0.15147346368715087
1276, 0.15147346368715087
1276.5, 0.15147346368715087
1277, 0.15147346368715087
1277.5, 0.15033480757293616
1278, 0.15033480757293616
1278.5, 0.14987934512725032
1279, 0.14987934512725032
1279.5, 0.15101800124146503
1280, 0.15101800124146503
1280.5, 0.14987934512725032
1280.9999999999998, 0.14987934512725032
1281.5, 0.15033480757293616
1282, 0.15033480757293616
1282.5, 0.14987934512725032
1283, 0.14987934512725032
1283.5, 0.15147346368715087
1284, 0.15147346368715087
1284.5, 0.14942388268156426
1285, 0.14942388268156426
1285.4999999999998, 0.14896842023587853
1286, 0.14896842023587853
1286.4999999999998, 0.150790270018622
1287, 0.150790270018622
1287.5, 0.15010707635009313
1288, 0.15010707635009313
1288.5, 0.1496516139044073
1289, 0.1496516139044073
1289.5, 0.14919615145872134
1290, 0.14919615145872134
1290.5, 0.15124573246430806
1290.9999999999998, 0.15124573246430806
1291.5, 0.15033480757293616
1292, 0.15033480757293616
1292.5, 0.15033480757293616
1293, 0.14919615145872134
1293.5, 0.14919615145872134
1294, 0.14942388268156426
1294.5, 0.14942388268156426
1295, 0.14987934512725032
1295.5, 0.14987934512725032
1296, 0.15033480757293616
1296.4999999999998, 0.15033480757293616
1297, 0.15101800124146503
1297.5, 0.15101800124146503
1298, 0.1478297641216636
1298.5, 0.1478297641216636
1299, 0.1478297641216636
1299.5, 0.1478297641216636
1300, 0.1478297641216636
