201.5, 0.28560715394165115
202, 0.28560715394165115
202.49999999999997, 0.2849239602731223
203, 0.2849239602731223
203.5, 0.2821911855990069
204, 0.2821911855990069
204.5, 0.2819634543761639
205, 0.2819634543761639
206.49999999999997, 0.28264664804469275
207, 0.28264664804469275
207.5, 0.2858348851644943
208, 0.2858348851644943
208.5, 0.2872012725015519
208.99999999999997, 0.2872012725015519
209.5, 0.28742900372439495
210, 0.28742900372439495
210.5, 0.28765673494723776
211, 0.28765673494723776
211.49999999999997, 0.28537942271880823
212, 0.28537942271880823
212.5, 0.2860626163873372
213, 0.2860626163873372
213.5, 0.29038950962135335
214, 0.29038950962135335
214.5, 0.2872012725015519
215, 0.2872012725015519
215.49999999999997, 0.28856765983860955
216, 0.28856765983860955
216.5, 0.2899340471756673
217, 0.2899340471756673
217.5, 0.28629034761018
217.99999999999997, 0.28629034761018
218.5, 0.2892508535071384
219, 0.2892508535071384
219.5, 0.2887953910614527
220, 0.2887953910614527
220.5, 0.2867458100558661
221, 0.2867458100558661
221.5, 0.2881121973929238
221.99999999999997, 0.2881121973929238
222.5, 0.2883399286157666
223, 0.2883399286157666
223.5, 0.2869735412787089
224, 0.2869735412787089
224.49999999999997, 0.2851516914959654
225, 0.2851516914959654
225.5, 0.2851516914959654
226, 0.2833298417132216
226.5, 0.2833298417132216
227, 0.2867458100558661
227.5, 0.2867458100558661
228, 0.2872012725015519
228.49999999999997, 0.2872012725015519
229, 0.2840130353817505
229.5, 0.2840130353817505
230, 0.2851516914959654
230.5, 0.2851516914959654
230.99999999999997, 0.2867458100558661
231.5, 0.2867458100558661
232, 0.2872012725015519
232.5, 0.2872012725015519
233, 0.28469622905027936
233.49999999999997, 0.28469622905027936
234, 0.28651807883302305
234.5, 0.28651807883302305
235, 0.2842407666045934
235.5, 0.2842407666045934
236, 0.28651807883302305
236.5, 0.28651807883302305
237, 0.28742900372439495
237.49999999999997, 0.28742900372439495
238, 0.2860626163873372
238.5, 0.2860626163873372
239, 0.2860626163873372
239.5, 0.2860626163873372
239.99999999999997, 0.2867458100558661
240.5, 0.2867458100558661
241, 0.2881121973929238
241.5, 0.2881121973929238
242, 0.2840130353817505
242.5, 0.2840130353817505
243, 0.28537942271880823
243.5, 0.28537942271880823
243.99999999999997, 0.28765673494723776
244.5, 0.28765673494723776
245, 0.2881121973929238
245.5, 0.2881121973929238
246, 0.28629034761018
246.49999999999997, 0.28629034761018
247, 0.2837853041589077
247.5, 0.2837853041589077
248, 0.2840130353817505
248.5, 0.2840130353817505
248.99999999999997, 0.28629034761018
249.5, 0.28629034761018
250, 0.2887953910614527
250.49999999999997, 0.2887953910614527
251, 0.28742900372439495
251.5, 0.28742900372439495
252, 0.28742900372439495
252.5, 0.2858348851644943
252.99999999999997, 0.2858348851644943
253.5, 0.2869735412787089
254, 0.2869735412787089
254.5, 0.2869735412787089
255, 0.2869735412787089
255.49999999999997, 0.28651807883302305
256, 0.28651807883302305
256.5, 0.28469622905027936
257, 0.28469622905027936
257.5, 0.2842407666045934
258, 0.2842407666045934
258.5, 0.2858348851644943
259, 0.2858348851644943
259.5, 0.2833298417132216
260, 0.2833298417132216
260.5, 0.2821911855990069
261, 0.2821911855990069
261.5, 0.28241891682184994
262, 0.28241891682184994
262.5, 0.2840130353817505
263, 0.2840130353817505
263.5, 0.28560715394165115
264, 0.28560715394165115
264.5, 0.28765673494723776
265, 0.28765673494723776
265.5, 0.2860626163873372
266, 0.2860626163873372
266.5, 0.28446849782743655
267, 0.28446849782743655
267.5, 0.2833298417132216
268, 0.2833298417132216
268.5, 0.28560715394165115
269, 0.28560715394165115
269.5, 0.28537942271880823
270, 0.28537942271880823
270.5, 0.2851516914959654
271, 0.2851516914959654
271.5, 0.2860626163873372
272, 0.2860626163873372
272.5, 0.28742900372439495
273, 0.28742900372439495
273.5, 0.28856765983860955
274, 0.28856765983860955
274.5, 0.2867458100558661
275, 0.2867458100558661
275.5, 0.2840130353817505
276, 0.2840130353817505
276.5, 0.2851516914959654
277, 0.2851516914959654
277.5, 0.28765673494723776
278, 0.28765673494723776
278.5, 0.28765673494723776
279, 0.2890231222842955
279.5, 0.2890231222842955
280, 0.2858348851644943
280.5, 0.2858348851644943
281, 0.28856765983860955
281.5, 0.28856765983860955
282, 0.2867458100558661
282.5, 0.2867458100558661
283, 0.2851516914959654
283.5, 0.2851516914959654
284, 0.28537942271880823
284.5, 0.28537942271880823
285, 0.28629034761018
285.5, 0.28629034761018
286, 0.2878844661700807
286.5, 0.2878844661700807
287, 0.2869735412787089
287.5, 0.2869735412787089
288, 0.28560715394165115
288.5, 0.28560715394165115
289, 0.2869735412787089
289.5, 0.2869735412787089
290, 0.2858348851644943
290.5, 0.2858348851644943
291, 0.28742900372439495
291.5, 0.28742900372439495
292, 0.2872012725015519
292.5, 0.2872012725015519
293, 0.2860626163873372
293.5, 0.2860626163873372
294, 0.2872012725015519
294.5, 0.2872012725015519
295, 0.28765673494723776
295.5, 0.28765673494723776
296, 0.2851516914959654
296.5, 0.2851516914959654
297, 0.2858348851644943
297.5, 0.2858348851644943
298, 0.2851516914959654
298.5, 0.2851516914959654
299, 0.281280260707635
299.5, 0.281280260707635
300, 0.28241891682184994
300.5, 0.28241891682184994
301, 0.28241891682184994
301.5, 0.28241891682184994
302, 0.2801416045934204
302.5, 0.2801416045934204
304, 0.28150799193047815
304.5, 0.28150799193047815
305, 0.28150799193047815
305.5, 0.2821911855990069
306, 0.2821911855990069
306.5, 0.28355757293606454
307, 0.28355757293606454
307.5, 0.2860626163873372
308, 0.2860626163873372
308.5, 0.2842407666045934
309, 0.2842407666045934
309.5, 0.28765673494723776
310, 0.28765673494723776
310.5, 0.29016177839851043
311, 0.29016177839851043
311.5, 0.2899340471756673
312, 0.2899340471756673
312.5, 0.2892508535071384
313, 0.2892508535071384
313.5, 0.2860626163873372
314, 0.2860626163873372
314.5, 0.28856765983860955
315, 0.28856765983860955
315.5, 0.28629034761018
316, 0.28629034761018
316.49999999999994, 0.28742900372439495
316.99999999999994, 0.28742900372439495
317.5, 0.28856765983860955
317.99999999999994, 0.28856765983860955
318.5, 0.2881121973929238
318.99999999999994, 0.2881121973929238
319.49999999999994, 0.2878844661700807
320, 0.2878844661700807
320.49999999999994, 0.29038950962135335
320.99999999999994, 0.29038950962135335
321.5, 0.28765673494723776
322, 0.28765673494723776
322.5, 0.28765673494723776
323, 0.28765673494723776
323.5, 0.28446849782743655
324, 0.28446849782743655
324.5, 0.2908449720670392
325, 0.2908449720670392
325.5, 0.2890231222842955
326, 0.2890231222842955
326.5, 0.28537942271880823
327, 0.28537942271880823
327.49999999999994, 0.2858348851644943
328, 0.2858348851644943
328.5, 0.2858348851644943
329, 0.2858348851644943
329.5, 0.2883399286157666
329.99999999999994, 0.2883399286157666
330.5, 0.2878844661700807
331, 0.2878844661700807
331.5, 0.2887953910614527
332, 0.2887953910614527
332.49999999999994, 0.2887953910614527
333, 0.2908449720670392
333.5, 0.2908449720670392
334, 0.2899340471756673
334.5, 0.2899340471756673
334.99999999999994, 0.2908449720670392
335.5, 0.2908449720670392
336, 0.2887953910614527
336.5, 0.2887953910614527
337, 0.2869735412787089
337.5, 0.2869735412787089
338, 0.28651807883302305
338.5, 0.28651807883302305
339, 0.2860626163873372
339.5, 0.2860626163873372
340, 0.28537942271880823
340.5, 0.28537942271880823
341, 0.28765673494723776
341.5, 0.28765673494723776
342, 0.2890231222842955
342.5, 0.2890231222842955
342.99999999999994, 0.2890231222842955
343.5, 0.2890231222842955
344, 0.2869735412787089
344.5, 0.2869735412787089
345, 0.28970631595282437
345.49999999999994, 0.28970631595282437
346, 0.28947858472998156
346.5, 0.28947858472998156
347, 0.28629034761018
347.5, 0.28629034761018
347.99999999999994, 0.28537942271880823
348.5, 0.28537942271880823
349, 0.28560715394165115
349.5, 0.28560715394165115
350, 0.2878844661700807
350.49999999999994, 0.2878844661700807
351, 0.29061724084419616
351.5, 0.29061724084419616
352, 0.291300434512725
352.5, 0.291300434512725
353, 0.2890231222842955
353.5, 0.2890231222842955
354, 0.2899340471756673
354.5, 0.2899340471756673
355, 0.2890231222842955
355.5, 0.2890231222842955
356, 0.28970631595282437
356.5, 0.28970631595282437
357, 0.29061724084419616
357.5, 0.29061724084419616
358, 0.29038950962135335
358.49999999999994, 0.29038950962135335
359, 0.29038950962135335
359.5, 0.2910727032898822
360, 0.2910727032898822
360.5, 0.2878844661700807
360.99999999999994, 0.2878844661700807
361.5, 0.29061724084419616
362, 0.29061724084419616
362.5, 0.291300434512725
363, 0.291300434512725
363.49999999999994, 0.28651807883302305
364, 0.28651807883302305
364.5, 0.2878844661700807
365, 0.2878844661700807
365.5, 0.2890231222842955
365.99999999999994, 0.2890231222842955
366.5, 0.2867458100558661
367, 0.2867458100558661
367.5, 0.2867458100558661
368, 0.2867458100558661
368.5, 0.2892508535071384
369, 0.2892508535071384
369.5, 0.28765673494723776
370, 0.28765673494723776
370.5, 0.2872012725015519
371, 0.2872012725015519
371.49999999999994, 0.29038950962135335
372, 0.29038950962135335
372.5, 0.2922113594040968
373, 0.2922113594040968
373.5, 0.28629034761018
373.99999999999994, 0.28629034761018
374.5, 0.29061724084419616
375, 0.29061724084419616
375.5, 0.2883399286157666
376, 0.2883399286157666
376.49999999999994, 0.29243909062693996
377, 0.29243909062693996
377.5, 0.2917558969584111
378, 0.2917558969584111
378.5, 0.2940332091868405
378.99999999999994, 0.2940332091868405
379.5, 0.2899340471756673
380, 0.2899340471756673
380.5, 0.2890231222842955
381, 0.2890231222842955
381.5, 0.29061724084419616
382, 0.29061724084419616
382.5, 0.2892508535071384
383, 0.2892508535071384
383.5, 0.2887953910614527
384, 0.2887953910614527
384.5, 0.29038950962135335
385, 0.29038950962135335
385.5, 0.29038950962135335
386, 0.29448867163252657
386.5, 0.29448867163252657
386.99999999999994, 0.29266682184978277
387.5, 0.29266682184978277
388, 0.291300434512725
388.5, 0.291300434512725
389, 0.2928945530726257
389.49999999999994, 0.2928945530726257
390, 0.2890231222842955
390.5, 0.2890231222842955
391, 0.28651807883302305
391.5, 0.28651807883302305
391.99999999999994, 0.2899340471756673
392.5, 0.2899340471756673
393, 0.29152816573556806
393.5, 0.29152816573556806
394, 0.28947858472998156
394.49999999999994, 0.28947858472998156
395, 0.2899340471756673
395.5, 0.2899340471756673
396, 0.2922113594040968
396.5, 0.2922113594040968
397, 0.28765673494723776
397.5, 0.28765673494723776
398, 0.28742900372439495
398.5, 0.28742900372439495
399, 0.29038950962135335
399.5, 0.29038950962135335
400, 0.2887953910614527
400.5, 0.2887953910614527
401, 0.28560715394165115
401.5, 0.28560715394165115
402, 0.28742900372439495
402.49999999999994, 0.28742900372439495
403, 0.2892508535071384
403.5, 0.2892508535071384
404, 0.28856765983860955
404.5, 0.28856765983860955
404.99999999999994, 0.2899340471756673
405.5, 0.2899340471756673
406, 0.2910727032898822
406.5, 0.2910727032898822
407, 0.2917558969584111
407.49999999999994, 0.2917558969584111
408, 0.2899340471756673
408.5, 0.2899340471756673
409, 0.2869735412787089
409.5, 0.2869735412787089
409.99999999999994, 0.28947858472998156
410.5, 0.28947858472998156
411, 0.2899340471756673
411.5, 0.2899340471756673
412, 0.2899340471756673
412.5, 0.29038950962135335
413, 0.29038950962135335
413.5, 0.2883399286157666
414, 0.2883399286157666
414.5, 0.28970631595282437
415, 0.28970631595282437
415.49999999999994, 0.28856765983860955
416, 0.28856765983860955
416.5, 0.2899340471756673
417, 0.2899340471756673
417.5, 0.291300434512725
417.99999999999994, 0.291300434512725
418.5, 0.2892508535071384
419, 0.2892508535071384
419.5, 0.2917558969584111
420, 0.2917558969584111
420.49999999999994, 0.29038950962135335
421, 0.29038950962135335
421.5, 0.28947858472998156
422, 0.28947858472998156
422.5, 0.2910727032898822
422.99999999999994, 0.2910727032898822
423.5, 0.29061724084419616
424, 0.29061724084419616
424.5, 0.2919836281812539
425, 0.2919836281812539
425.49999999999994, 0.28947858472998156
426, 0.28947858472998156
426.5, 0.2881121973929238
427, 0.2881121973929238
427.5, 0.28765673494723776
428, 0.28765673494723776
428.5, 0.28947858472998156
429, 0.28947858472998156
429.5, 0.291300434512725
430, 0.291300434512725
430.5, 0.2899340471756673
430.99999999999994, 0.2899340471756673
431.5, 0.29357774674115455
432, 0.29357774674115455
432.5, 0.29016177839851043
433, 0.29016177839851043
433.49999999999994, 0.29061724084419616
434, 0.29061724084419616
434.5, 0.2919836281812539
435, 0.2919836281812539
435.5, 0.29335001551831164
435.99999999999994, 0.29335001551831164
436.5, 0.2922113594040968
437, 0.2922113594040968
437.5, 0.2917558969584111
438, 0.2917558969584111
438.49999999999994, 0.2917558969584111
439, 0.2883399286157666
439.5, 0.2883399286157666
440, 0.29152816573556806
440.5, 0.29152816573556806
440.99999999999994, 0.29448867163252657
441.5, 0.29448867163252657
442, 0.2922113594040968
442.5, 0.2922113594040968
443, 0.2878844661700807
443.5, 0.2878844661700807
444, 0.2892508535071384
444.5, 0.2892508535071384
445, 0.2910727032898822
445.5, 0.2910727032898822
446, 0.2908449720670392
446.49999999999994, 0.2908449720670392
447, 0.291300434512725
447.5, 0.291300434512725
448, 0.29061724084419616
448.5, 0.29061724084419616
448.99999999999994, 0.2892508535071384
449.5, 0.2892508535071384
450, 0.2892508535071384
450.5, 0.2892508535071384
451, 0.29038950962135335
451.49999999999994, 0.29038950962135335
452, 0.29016177839851043
452.5, 0.29016177839851043
453, 0.28947858472998156
453.5, 0.28947858472998156
453.99999999999994, 0.28970631595282437
454.5, 0.28970631595282437
455, 0.2931222842954688
455.5, 0.2931222842954688
456, 0.2928945530726257
456.5, 0.2928945530726257
457, 0.28947858472998156
457.5, 0.28947858472998156
458, 0.2892508535071384
458.5, 0.2892508535071384
459, 0.29016177839851043
459.49999999999994, 0.29016177839851043
460, 0.29152816573556806
460.5, 0.29152816573556806
461, 0.291300434512725
461.5, 0.291300434512725
461.99999999999994, 0.2899340471756673
462.5, 0.2899340471756673
463, 0.2899340471756673
463.5, 0.2899340471756673
464, 0.2922113594040968
464.49999999999994, 0.2922113594040968
465, 0.291300434512725
465.5, 0.291300434512725
466, 0.291300434512725
466.5, 0.28970631595282437
466.99999999999994, 0.28970631595282437
467.5, 0.28947858472998156
468, 0.28947858472998156
468.5, 0.2910727032898822
469, 0.2910727032898822
469.49999999999994, 0.28947858472998156
470, 0.28947858472998156
470.5, 0.29016177839851043
471, 0.29016177839851043
471.5, 0.29243909062693996
472, 0.29243909062693996
472.5, 0.28947858472998156
473, 0.28947858472998156
473.5, 0.29038950962135335
474, 0.29038950962135335
474.5, 0.2908449720670392
474.99999999999994, 0.2908449720670392
475.5, 0.2910727032898822
476, 0.2910727032898822
476.5, 0.29038950962135335
477, 0.29038950962135335
477.49999999999994, 0.28856765983860955
478, 0.28856765983860955
478.5, 0.28856765983860955
479, 0.28856765983860955
479.5, 0.2919836281812539
479.99999999999994, 0.2919836281812539
480.5, 0.2922113594040968
481, 0.2922113594040968
481.5, 0.28970631595282437
482, 0.28970631595282437
482.49999999999994, 0.2881121973929238
483, 0.2881121973929238
483.5, 0.2917558969584111
484, 0.2917558969584111
484.5, 0.29152816573556806
484.99999999999994, 0.29152816573556806
485.5, 0.29038950962135335
486, 0.29038950962135335
486.5, 0.2910727032898822
487, 0.2910727032898822
487.5, 0.29016177839851043
488, 0.29016177839851043
488.5, 0.2910727032898822
489, 0.2910727032898822
489.5, 0.2878844661700807
490, 0.2878844661700807
490.49999999999994, 0.28629034761018
491, 0.28629034761018
491.5, 0.2878844661700807
492, 0.2878844661700807
492.5, 0.2878844661700807
492.99999999999994, 0.28765673494723776
493.5, 0.28765673494723776
494, 0.28765673494723776
494.5, 0.28765673494723776
495, 0.28629034761018
495.49999999999994, 0.28629034761018
496, 0.28742900372439495
496.5, 0.28742900372439495
497, 0.2887953910614527
497.5, 0.2887953910614527
497.99999999999994, 0.28742900372439495
498.5, 0.28742900372439495
499, 0.2878844661700807
499.5, 0.2878844661700807
500, 0.2917558969584111
500.49999999999994, 0.2917558969584111
501, 0.28651807883302305
501.5, 0.28651807883302305
502, 0.2837853041589077
502.5, 0.2837853041589077
503, 0.28856765983860955
503.49999999999994, 0.28856765983860955
504, 0.2881121973929238
504.5, 0.2881121973929238
505, 0.28446849782743655
505.5, 0.28446849782743655
505.99999999999994, 0.28241891682184994
506.5, 0.28241891682184994
507, 0.28560715394165115
507.5, 0.28560715394165115
508, 0.2842407666045934
508.49999999999994, 0.2842407666045934
509, 0.2851516914959654
509.5, 0.2851516914959654
510, 0.28856765983860955
510.5, 0.28856765983860955
510.99999999999994, 0.2883399286157666
511.5, 0.2883399286157666
512, 0.2890231222842955
512.5, 0.2890231222842955
513, 0.2892508535071384
513.5, 0.2892508535071384
514, 0.28651807883302305
514.5, 0.28651807883302305
515, 0.28629034761018
515.5, 0.28629034761018
516, 0.2851516914959654
516.5, 0.2851516914959654
517, 0.28856765983860955
517.5, 0.28856765983860955
518, 0.2883399286157666
518.5, 0.2883399286157666
519, 0.2883399286157666
519.5, 0.28856765983860955
520, 0.28856765983860955
520.5, 0.2887953910614527
521, 0.2887953910614527
521.5, 0.2872012725015519
522, 0.2872012725015519
522.5, 0.2869735412787089
523, 0.2869735412787089
523.5, 0.2890231222842955
524, 0.2890231222842955
524.5, 0.28947858472998156
525, 0.28947858472998156
525.5, 0.28970631595282437
526, 0.28970631595282437
526.5, 0.28742900372439495
527, 0.28742900372439495
527.5, 0.28765673494723776
528, 0.28765673494723776
528.5, 0.2858348851644943
529, 0.2858348851644943
529.5, 0.2887953910614527
530, 0.2887953910614527
530.5, 0.2910727032898822
531, 0.2910727032898822
531.5, 0.2883399286157666
532, 0.2883399286157666
532.5, 0.28742900372439495
533, 0.28742900372439495
533.5, 0.2892508535071384
534, 0.2892508535071384
534.5, 0.2878844661700807
535, 0.2878844661700807
535.5, 0.28629034761018
536, 0.28629034761018
536.5, 0.2872012725015519
537, 0.2872012725015519
537.5, 0.28947858472998156
538, 0.28947858472998156
538.5, 0.2899340471756673
539, 0.2899340471756673
539.5, 0.2867458100558661
540, 0.2867458100558661
540.5, 0.2887953910614527
541, 0.2887953910614527
541.5, 0.28560715394165115
542, 0.28560715394165115
542.5, 0.2858348851644943
543, 0.2858348851644943
543.5, 0.29038950962135335
544, 0.29038950962135335
544.5, 0.29061724084419616
545, 0.29061724084419616
545.5, 0.29061724084419616
546, 0.29038950962135335
546.5, 0.29038950962135335
547, 0.2922113594040968
547.5, 0.2922113594040968
548, 0.29038950962135335
548.5, 0.29038950962135335
549, 0.28970631595282437
549.5, 0.28970631595282437
550, 0.29266682184978277
550.5, 0.29266682184978277
551, 0.291300434512725
551.5, 0.291300434512725
552, 0.2919836281812539
552.5, 0.2919836281812539
553, 0.2938054779639977
553.5, 0.2938054779639977
554, 0.29243909062693996
554.5, 0.29243909062693996
555, 0.2922113594040968
555.5, 0.2922113594040968
556, 0.2919836281812539
556.5, 0.2919836281812539
557, 0.29357774674115455
557.5, 0.29357774674115455
558, 0.2928945530726257
558.5, 0.2928945530726257
559, 0.29335001551831164
559.5, 0.29335001551831164
560, 0.2976769087523278
560.5, 0.2976769087523278
561, 0.29653825263811295
561.5, 0.29653825263811295
562, 0.29744917752948496
562.5, 0.29744917752948496
563, 0.29949875853507146
563.5, 0.29949875853507146
564, 0.30154833954065796
564.5, 0.30154833954065796
565, 0.30314245810055884
565.5, 0.30314245810055884
566, 0.30337018932340176
566.5, 0.30337018932340176
567, 0.30314245810055884
567.5, 0.30314245810055884
568, 0.30838027622594677
568.5, 0.30838027622594677
569, 0.3088357386716326
569.5, 0.3088357386716326
570, 0.30906346989447564
570.5, 0.30906346989447564
571, 0.3088357386716326
571.5, 0.3088357386716326
572, 0.3088357386716326
572.5, 0.311568513345748
573, 0.311568513345748
573.5, 0.31430128801986346
574, 0.31430128801986346
574.5, 0.31134078212290506
575, 0.31134078212290506
575.5, 0.311568513345748
576, 0.311568513345748
576.5, 0.3168063314711361
577, 0.3168063314711361
577.5, 0.3209054934823091
578, 0.3209054934823091
578.5, 0.3245491930477964
579, 0.3245491930477964
579.5, 0.3238659993792675
580, 0.3238659993792675
580.5, 0.3254601179391684
581, 0.3254601179391684
581.5, 0.33024247361887027
582, 0.33024247361887027
582.5, 0.32887608628181253
583, 0.32887608628181253
583.5, 0.3334307107386718
584, 0.3334307107386718
584.5, 0.33479709807572944
584.9999999999998, 0.33479709807572944
585.5, 0.33798533519553076
586, 0.33798533519553076
586.5, 0.3420844972067041
587, 0.3420844972067041
587.5, 0.34686685288640595
588, 0.34686685288640595
588.5, 0.3484609714463067
589, 0.3484609714463067
589.5, 0.3455004655493482
589.9999999999998, 0.3455004655493482
590.5, 0.34595592799503416
591, 0.34595592799503416
591.5, 0.35164920856610815
592, 0.35164920856610815
592.5, 0.3584811452513966
593, 0.3584811452513966
593.5, 0.3591643389199255
594, 0.3591643389199255
594.5, 0.36235257603972704
594.9999999999998, 0.36235257603972704
595.5, 0.3589366076970826
596, 0.3589366076970826
596.5, 0.3621248448168839
597, 0.3621248448168839
597.5, 0.3662240068280571
598, 0.3662240068280571
598.5, 0.37055090006207325
599, 0.37055090006207325
599.5, 0.37055090006207325
600, 0.36440215704531365
600.4999999999998, 0.36440215704531365
601, 0.36941224394785865
601.5, 0.36941224394785865
602, 0.3730559435133459
602.5, 0.3730559435133459
603, 0.3737391371818748
603.5, 0.3737391371818748
604, 0.37442233085040355
604.5, 0.37442233085040355
605, 0.3730559435133459
605.4999999999998, 0.3730559435133459
606, 0.3778382991930478
606.5, 0.3778382991930478
607, 0.3746500620732466
607.5, 0.3746500620732466
608, 0.3739668684047177
608.5, 0.3739668684047177
609, 0.3748777932960894
609.5, 0.3748777932960894
610, 0.37647191185599005
610.4999999999998, 0.37647191185599005
610.9999999999998, 0.3787492240844197
611.5, 0.3787492240844197
612, 0.3746500620732466
612.5, 0.3746500620732466
613, 0.37032316883923044
613.5, 0.37032316883923044
614, 0.3751055245189323
614.5, 0.3751055245189323
615, 0.37146182495344504
615.5, 0.37146182495344504
615.9999999999998, 0.3696399751707016
616.5, 0.3696399751707016
617, 0.36941224394785865
617.5, 0.36941224394785865
618, 0.36645173805090003
618.5, 0.36645173805090003
619, 0.3689567815021726
619.5, 0.3689567815021726
620, 0.36645173805090003
620.5, 0.36645173805090003
620.9999999999998, 0.3682735878336437
621.5, 0.3682735878336437
622, 0.3639466945996276
622.5, 0.3639466945996276
623, 0.3582534140285537
623.5, 0.3582534140285537
624, 0.3584811452513966
624.5, 0.3584811452513966
625, 0.3584811452513966
625.5, 0.3584811452513966
625.9999999999998, 0.3584811452513966
626.4999999999998, 0.3589366076970826
627, 0.3589366076970826
627.5, 0.35574837057728137
628, 0.35574837057728137
628.5, 0.35665929546865316
629, 0.35665929546865316
629.5, 0.3582534140285537
630, 0.3582534140285537
630.5, 0.35574837057728137
631, 0.35574837057728137
631.4999999999998, 0.3530155959031659
632, 0.3530155959031659
632.5, 0.3493718963376786
633, 0.3493718963376786
633.5, 0.34868870266914975
634, 0.34868870266914975
634.5, 0.34777777777777796
635, 0.34777777777777796
635.5, 0.34276769087523296
636, 0.34276769087523296
636.4999999999998, 0.34276769087523296
637, 0.34276769087523296
637.5, 0.3411735723153321
638, 0.3411735723153321
638.5, 0.3445895406579764
639, 0.3445895406579764
639.5, 0.3432231533209187
640, 0.3432231533209187
640.5, 0.34094584109248915
641, 0.34094584109248915
641.4999999999998, 0.3393517225325886
641.9999999999998, 0.3393517225325886
642.5, 0.3363912166356302
643, 0.3363912166356302
643.5, 0.3325197858472998
644, 0.3325197858472998
644.5, 0.33183659217877093
645, 0.33183659217877093
645.5, 0.3293315487274985
646, 0.3293315487274985
646.5, 0.32978701117318454
646.9999999999998, 0.32978701117318454
647.5, 0.32796516139044074
648, 0.32796516139044074
648.5, 0.32682650527622603
649, 0.32682650527622603
649.5, 0.32591558038485413
650, 0.32591558038485413
650.5, 0.32295507448789573
651, 0.32295507448789573
651.5, 0.32409373060211066
651.9999999999998, 0.32409373060211066
652.5, 0.32409373060211066
653, 0.3254601179391684
653.5, 0.3254601179391684
654, 0.3234105369335818
654.5, 0.3234105369335818
655, 0.3204500310366234
655.5, 0.3204500310366234
656, 0.3204500310366234
656.5, 0.3204500310366234
656.9999999999998, 0.3197668373680945
657.4999999999998, 0.3197668373680945
658, 0.3174895251396649
658.5, 0.3174895251396649
659, 0.3127071694599629
659.5, 0.3127071694599629
660, 0.31612313780260726
660.5, 0.31612313780260726
661, 0.31225170701427685
661.5, 0.31225170701427685
662, 0.3104298572315334
662.4999999999998, 0.3104298572315334
663, 0.30838027622594677
663.5, 0.30838027622594677
664, 0.3056475015518312
664.5, 0.3056475015518312
665, 0.30815254500310374
665.5, 0.30815254500310374
666, 0.3088357386716326
666.5, 0.3088357386716326
667, 0.307469351334575
667.4999999999998, 0.307469351334575
668, 0.3056475015518312
668.5, 0.3056475015518312
669, 0.30405338299193063
669.5, 0.30405338299193063
670, 0.30245926443203
670.5, 0.30245926443203
671, 0.3047365766604595
671.5, 0.3047365766604595
672, 0.30245926443203
672.4999999999998, 0.30245926443203
672.9999999999998, 0.2997264897579145
673.5, 0.2997264897579145
674, 0.29744917752948496
674.5, 0.29744917752948496
675, 0.29631052141527003
675.5, 0.29631052141527003
676, 0.2931222842954688
676.5, 0.2931222842954688
677, 0.2942609404096834
677.5, 0.2942609404096834
677.9999999999998, 0.2942609404096834
678.5, 0.2942609404096834
679, 0.2942609404096834
679.5, 0.2931222842954688
680, 0.2931222842954688
680.5, 0.2917558969584111
681, 0.2917558969584111
681.5, 0.29448867163252657
682, 0.29448867163252657
682.5, 0.2931222842954688
682.9999999999998, 0.2931222842954688
683.5, 0.2917558969584111
684, 0.2917558969584111
684.5, 0.2908449720670392
685, 0.2908449720670392
685.5, 0.2892508535071384
686, 0.2892508535071384
686.5, 0.2883399286157666
687, 0.2883399286157666
687.5, 0.2858348851644943
687.9999999999998, 0.2858348851644943
688.4999999999998, 0.2881121973929238
689, 0.2881121973929238
689.5, 0.2881121973929238
690, 0.2881121973929238
690.5, 0.2867458100558661
691, 0.2867458100558661
691.5, 0.28560715394165115
692, 0.28560715394165115
692.5, 0.2842407666045934
693, 0.2842407666045934
693.4999999999998, 0.28537942271880823
694, 0.28537942271880823
694.5, 0.28469622905027936
695, 0.28469622905027936
695.5, 0.2837853041589077
696, 0.2837853041589077
696.5, 0.28173572315332107
697, 0.28173572315332107
697.5, 0.2787752172563627
698, 0.2787752172563627
698.4999999999998, 0.27991387337057727
698.9999999999998, 0.27991387337057727
699.5, 0.27740882991930493
700, 0.27740882991930493
700.5, 0.2758147113594043
701, 0.2758147113594043
701.5, 0.27740882991930493
702, 0.27740882991930493
702.5, 0.2780920235878338
703, 0.2780920235878338
703.4999999999998, 0.2801416045934204
703.9999999999998, 0.2801416045934204
704.5, 0.27945841092489154
705, 0.27945841092489154
705.5, 0.27945841092489154
706, 0.2783197548106766
706.5, 0.2783197548106766
707, 0.27695336747361887
707.5, 0.27695336747361887
708, 0.27558698013656113
708.5, 0.27558698013656113
708.9999999999998, 0.27444832402234653
709.5, 0.27444832402234653
710, 0.2758147113594043
710.5, 0.2758147113594043
711, 0.27376513035381767
711.5, 0.27376513035381767
712, 0.2733096679081316
712.5, 0.2733096679081316
713, 0.27627017380509
713.5, 0.27627017380509
713.9999999999998, 0.2739928615766605
714.4999999999998, 0.2739928615766605
715, 0.271260086902545
715.5, 0.271260086902545
716, 0.27148781812538814
716.5, 0.27148781812538814
717, 0.2703491620111732
717.5, 0.2703491620111732
718, 0.27194328057107386
718.5, 0.27194328057107386
719, 0.27194328057107386
719.4999999999998, 0.27194328057107386
720, 0.2680718497827438
720.5, 0.2680718497827438
721, 0.2680718497827438
721.5, 0.2680718497827438
722, 0.2692105058969585
722.5, 0.2692105058969585
723, 0.26966596834264434
723.5, 0.26966596834264434
724, 0.26875504345127266
724.4999999999998, 0.26875504345127266
725, 0.26784411855990087
725.5, 0.26784411855990087
726, 0.26556680633147123
726.5, 0.26556680633147123
727, 0.2642004189944135
727.5, 0.2642004189944135
728, 0.26488361266294236
728.5, 0.26488361266294236
729, 0.26556680633147123
729.4999999999998, 0.26556680633147123
729.9999999999998, 0.26693319366852886
730.5, 0.26693319366852886
731, 0.26670546244568594
731.5, 0.26670546244568594
732, 0.26670546244568594
732.5, 0.26374495654872765
733, 0.26374495654872765
733.5, 0.26488361266294236
734, 0.26488361266294236
734.5, 0.2653390751086282
734.9999999999998, 0.2653390751086282
735.5, 0.2646558814400993
736, 0.2646558814400993
736.5, 0.26602226877715707
737, 0.26602226877715707
737.5, 0.26579453755431426
738, 0.26579453755431426
738.5, 0.2644281502172565
739, 0.2644281502172565
739.5, 0.2632894941030416
739.9999999999998, 0.2632894941030416
740.5, 0.2632894941030416
741, 0.2632894941030416
741.5, 0.26351722532588473
742, 0.26351722532588473
742.5, 0.26169537554314093
743, 0.26169537554314093
743.5, 0.2605567194289262
744, 0.2605567194289262
744.5, 0.262150837988827
744.9999999999998, 0.262150837988827
745.4999999999998, 0.2632894941030416
746, 0.2632894941030416
746.5, 0.26192310676598385
747, 0.26192310676598385
747.5, 0.26101218187461206
748, 0.26101218187461206
748.5, 0.26169537554314093
749, 0.26169537554314093
749.5, 0.2623785692116698
750, 0.2623785692116698
750.4999999999998, 0.2614676443202981
751, 0.2614676443202981
751.5, 0.2591903320918686
752, 0.2591903320918686
752.5, 0.2603289882060832
753, 0.2603289882060832
753.5, 0.262150837988827
754, 0.262150837988827
754.5, 0.26283403165735586
755, 0.26283403165735586
755.4999999999998, 0.26169537554314093
756, 0.26169537554314093
756.5, 0.2594180633147115
757, 0.2594180633147115
757.5, 0.2575962135319677
758, 0.2575962135319677
758.5, 0.25896260086902545
759, 0.25896260086902545
759.5, 0.25896260086902545
760, 0.2601012569832404
760.4999999999998, 0.2601012569832404
760.9999999999998, 0.25987352576039735
761.5, 0.25987352576039735
762, 0.25896260086902545
762.5, 0.25896260086902545
763, 0.2596457945375543
763.5, 0.2596457945375543
764, 0.26078445065176925
764.5, 0.26078445065176925
765, 0.2573684823091248
765.5, 0.2573684823091248
765.9999999999998, 0.257140751086282
766.5, 0.257140751086282
767, 0.2591903320918686
767.5, 0.2591903320918686
768, 0.25805167597765366
768.5, 0.25805167597765366
769, 0.257140751086282
769.5, 0.257140751086282
770, 0.25873486964618253
770.5, 0.25873486964618253
770.9999999999998, 0.25600209497206705
771.4999999999998, 0.25600209497206705
772, 0.25805167597765366
772.5, 0.25805167597765366
773, 0.25987352576039735
773.5, 0.25987352576039735
774, 0.2585071384233397
774.5, 0.2585071384233397
775, 0.2566852886405959
775.5, 0.2566852886405959
775.9999999999998, 0.2573684823091248
776.4999999999998, 0.2573684823091248
777, 0.2575962135319677
777.5, 0.2575962135319677
778, 0.25805167597765366
778.5, 0.25805167597765366
779, 0.2564575574177531
779.5, 0.2564575574177531
780, 0.25600209497206705
780.5, 0.25600209497206705
781, 0.2564575574177531
781.4999999999998, 0.2564575574177531
782, 0.2555466325263812
782.5, 0.2555466325263812
783, 0.25577436374922424
783.5, 0.25577436374922424
784, 0.25600209497206705
784.5, 0.25600209497206705
785, 0.25600209497206705
785.5, 0.25600209497206705
786, 0.25600209497206705
786.4999999999998, 0.2537247827436375
786.9999999999998, 0.2537247827436375
787.5, 0.25304158907510865
788, 0.25304158907510865
788.5, 0.25281385785226584
789, 0.25281385785226584
789.5, 0.25099200806952204
790, 0.25099200806952204
790.5, 0.2512197392923651
791, 0.2512197392923651
791.4999999999998, 0.252130664183737
791.9999999999998, 0.252130664183737
792.5, 0.25076427684667923
793, 0.25076427684667923
793.5, 0.2512197392923651
794, 0.2512197392923651
794.5, 0.25304158907510865
795, 0.25304158907510865
795.5, 0.25281385785226584
796, 0.25281385785226584
796.5, 0.2523583954065798
796.9999999999998, 0.2523583954065798
797.5, 0.2514474705152081
798, 0.2514474705152081
798.5, 0.2505365456238363
799, 0.2505365456238363
799.5, 0.24917015828677858
800, 0.24917015828677858
800.5, 0.2516752017380509
801, 0.2516752017380509
801.5, 0.2505365456238363
801.9999999999998, 0.2505365456238363
802.4999999999998, 0.2475760397268778
803, 0.2475760397268778
803.5, 0.24871469584109251
804, 0.24871469584109251
804.5, 0.24825923339540668
805, 0.24825923339540668
805.5, 0.2484869646182497
806, 0.2484869646182497
806.5, 0.24825923339540668
806.9999999999998, 0.24825923339540668
807.4999999999998, 0.24871469584109251
808, 0.24871469584109251
808.5, 0.24894242706393543
809, 0.24894242706393543
809.5, 0.24734830850403478
810, 0.24734830850403478
810.5, 0.2455264587212913
811, 0.2455264587212913
811.5, 0.2475760397268778
812, 0.2475760397268778
812.4999999999998, 0.2475760397268778
813, 0.2464373836126631
813.5, 0.2464373836126631
814, 0.24689284605834894
814.5, 0.24689284605834894
815, 0.2466651148355059
815.5, 0.2466651148355059
816, 0.2464373836126631
816.5, 0.2464373836126631
817, 0.2466651148355059
817.4999999999998, 0.2466651148355059
817.9999999999998, 0.24712057728119197
818.5, 0.24712057728119197
819, 0.24689284605834894
819.5, 0.24689284605834894
820, 0.2455264587212913
820.5, 0.2455264587212913
821, 0.24484326505276244
821.5, 0.24484326505276244
822, 0.24575418994413412
822.4999999999998, 0.24575418994413412
822.9999999999998, 0.24689284605834894
823.5, 0.24689284605834894
824, 0.2464373836126631
824.5, 0.2464373836126631
825, 0.24507099627560525
825.5, 0.24507099627560525
826, 0.2434768777157047
826.5, 0.2434768777157047
827, 0.24507099627560525
827.5, 0.24507099627560525
827.9999999999998, 0.24529872749844817
828.5, 0.24529872749844817
829, 0.24734830850403478
829.5, 0.24734830850403478
830, 0.24620965238982018
830.5, 0.24620965238982018
831, 0.24620965238982018
831.5, 0.24620965238982018
832, 0.24689284605834894
832.5, 0.24689284605834894
832.9999999999998, 0.2466651148355059
833.4999999999998, 0.2466651148355059
834, 0.24507099627560525
834.5, 0.24507099627560525
835, 0.24507099627560525
835.5, 0.24507099627560525
836, 0.24598192116697704
836.5, 0.24598192116697704
837, 0.2464373836126631
837.5, 0.2464373836126631
837.9999999999998, 0.24689284605834894
838.4999999999998, 0.24689284605834894
839, 0.24689284605834894
839.5, 0.2475760397268778
840, 0.2475760397268778
840.5, 0.24598192116697704
841, 0.24598192116697704
841.5, 0.24620965238982018
842, 0.24620965238982018
842.5, 0.24598192116697704
843, 0.24598192116697704
843.4999999999998, 0.24734830850403478
844, 0.24734830850403478
844.5, 0.2464373836126631
845, 0.2464373836126631
845.5, 0.24780377094972084
846, 0.24780377094972084
846.5, 0.24734830850403478
847, 0.24734830850403478
847.5, 0.24803150217256364
848, 0.24803150217256364
848.4999999999998, 0.24985335195530745
848.9999999999998, 0.24985335195530745
849.5, 0.24734830850403478
850, 0.24734830850403478
850.5, 0.24871469584109251
851, 0.24871469584109251
851.5, 0.24917015828677858
852, 0.24917015828677858
852.5, 0.25008108317815025
853, 0.25008108317815025
853.4999999999998, 0.24985335195530745
853.9999999999998, 0.24985335195530745
854.5, 0.25008108317815025
855, 0.25008108317815025
855.5, 0.2505365456238363
856, 0.2505365456238363
856.5, 0.2484869646182497
857, 0.2484869646182497
857.5, 0.2503088144009932
858, 0.2503088144009932
858.5, 0.2512197392923651
858.9999999999998, 0.2512197392923651
859.4999999999998, 0.25190293296089394
860, 0.25190293296089394
860.5, 0.2523583954065798
861, 0.2523583954065798
861.5, 0.2516752017380509
862, 0.2516752017380509
862.5, 0.25281385785226584
863, 0.25281385785226584
863.5, 0.2525861266294228
863.9999999999998, 0.2525861266294228
864.4999999999998, 0.25281385785226584
865, 0.25281385785226584
865.5, 0.25281385785226584
866, 0.2537247827436375
866.5, 0.2537247827436375
867, 0.25395251396648044
867.5, 0.25395251396648044
868, 0.2532693202979516
868.5, 0.2532693202979516
868.9999999999998, 0.2550911700806954
869.4999999999998, 0.2550911700806954
870, 0.2537247827436375
870.5, 0.2537247827436375
871, 0.2534970515207947
871.5, 0.2534970515207947
872, 0.2553189013035382
872.5, 0.2553189013035382
873, 0.25577436374922424
873.5, 0.25577436374922424
874, 0.25691301986343895
874.4999999999998, 0.25691301986343895
874.9999999999998, 0.25577436374922424
875.5, 0.25577436374922424
876, 0.25691301986343895
876.5, 0.25691301986343895
877, 0.25873486964618253
877.5, 0.25873486964618253
878, 0.25805167597765366
878.5, 0.25805167597765366
879, 0.2594180633147115
879.4999999999998, 0.2594180633147115
879.9999999999998, 0.2575962135319677
880.5, 0.2575962135319677
881, 0.2582794072004966
881.5, 0.2582794072004966
882, 0.2591903320918686
882.5, 0.2591903320918686
883, 0.25805167597765366
883.5, 0.25805167597765366
884, 0.2582794072004966
884.5, 0.2582794072004966
884.9999999999998, 0.2596457945375543
885.5, 0.2596457945375543
886, 0.2612399130974551
886.5, 0.2612399130974551
887, 0.26101218187461206
887.5, 0.26101218187461206
888, 0.2601012569832404
888.5, 0.2601012569832404
889, 0.26192310676598385
889.5, 0.26192310676598385
889.9999999999998, 0.2614676443202981
890.4999999999998, 0.2614676443202981
891, 0.2626063004345127
891.5, 0.2626063004345127
892, 0.26169537554314093
892.5, 0.26169537554314093
893, 0.26169537554314093
893.5, 0.26169537554314093
894, 0.26169537554314093
894.5, 0.26306176288019867
894.9999999999998, 0.26306176288019867
895.4999999999998, 0.26192310676598385
896, 0.26192310676598385
896.5, 0.2626063004345127
897, 0.2626063004345127
897.5, 0.26283403165735586
898, 0.26283403165735586
898.5, 0.2644281502172565
899, 0.2644281502172565
899.5, 0.26397268777157046
900, 0.26397268777157046
900.4999999999998, 0.26488361266294236
901, 0.26488361266294236
901.5, 0.2653390751086282
902, 0.2653390751086282
902.5, 0.26579453755431426
903, 0.26579453755431426
903.5, 0.26397268777157046
904, 0.26397268777157046
904.5, 0.26579453755431426
905, 0.26579453755431426
905.4999999999998, 0.26647773122284313
905.9999999999998, 0.26647773122284313
906.5, 0.26693319366852886
907, 0.26693319366852886
907.5, 0.2673886561142148
908, 0.2673886561142148
908.5, 0.26693319366852886
909, 0.26693319366852886
909.5, 0.2682995810055866
910, 0.2682995810055866
910.4999999999998, 0.26875504345127266
910.9999999999998, 0.26875504345127266
911.5, 0.2692105058969585
912, 0.2692105058969585
912.5, 0.2705768932340161
913, 0.2705768932340161
913.5, 0.2710323556797021
914, 0.2710323556797021
914.5, 0.2730819366852888
915, 0.2730819366852888
915.5, 0.27353739913097463
915.9999999999998, 0.27353739913097463
916.5, 0.272171011793917
917, 0.272171011793917
917.5, 0.27285420546244576
918, 0.27285420546244576
918.5, 0.27467605524518934
919, 0.27467605524518934
919.5, 0.27467605524518934
920, 0.27558698013656113
920.5, 0.27558698013656113
920.9999999999998, 0.2758147113594043
921.4999999999998, 0.2758147113594043
922, 0.27558698013656113
922.5, 0.27558698013656113
923, 0.27740882991930493
923.5, 0.27740882991930493
924, 0.2810525294847921
924.5, 0.2810525294847921
925, 0.2821911855990069
925.5, 0.2821911855990069
925.9999999999998, 0.2819634543761639
926.4999999999998, 0.2819634543761639
927, 0.2837853041589077
927.5, 0.2837853041589077
928, 0.2833298417132216
928.5, 0.2833298417132216
929, 0.2842407666045934
929.5, 0.2842407666045934
930, 0.2867458100558661
930.5, 0.2867458100558661
931, 0.2892508535071384
931.4999999999998, 0.2892508535071384
932, 0.28947858472998156
932.5, 0.28947858472998156
933, 0.2892508535071384
933.5, 0.2892508535071384
934, 0.2917558969584111
934.5, 0.2917558969584111
935, 0.2931222842954688
935.5, 0.2931222842954688
936, 0.29448867163252657
936.4999999999998, 0.29448867163252657
936.9999999999998, 0.2949441340782123
937.5, 0.2949441340782123
938, 0.29631052141527003
938.5, 0.29631052141527003
939, 0.2988155648665427
939.5, 0.2988155648665427
940, 0.2997264897579145
940.5, 0.2997264897579145
941, 0.29836010242085664
941.4999999999998, 0.29836010242085664
941.9999999999998, 0.3008651458721291
942.5, 0.3008651458721291
943, 0.30314245810055884
943.5, 0.30314245810055884
944, 0.30337018932340176
944.5, 0.30337018932340176
945, 0.3047365766604595
945.5, 0.3047365766604595
946, 0.3047365766604595
946.5, 0.3058752327746741
946.9999999999998, 0.3058752327746741
947.4999999999998, 0.3070138888888889
948, 0.3070138888888889
948.5, 0.30633069522036005
949, 0.30633069522036005
949.5, 0.30655842644320297
950, 0.30655842644320297
950.5, 0.3076970825574179
951, 0.3076970825574179
951.5, 0.30951893234016137
951.9999999999998, 0.30951893234016137
952.4999999999998, 0.3129349006828057
953, 0.3129349006828057
953.5, 0.3104298572315334
954, 0.3104298572315334
954.5, 0.30951893234016137
955, 0.30951893234016137
955.5, 0.31225170701427685
956, 0.31225170701427685
956.5, 0.31703406269397905
956.9999999999998, 0.31703406269397905
957.4999999999998, 0.3177172563625079
958, 0.3177172563625079
958.5, 0.316578600248293
959, 0.316578600248293
959.5, 0.3138458255741776
960, 0.3138458255741776
960.5, 0.3174895251396649
961, 0.3174895251396649
961.5, 0.321588687150838
962, 0.321588687150838
962.4999999999998, 0.3209054934823091
962.9999999999998, 0.3209054934823091
963.5, 0.3209054934823091
964, 0.3209054934823091
964.5, 0.32227188081936686
965, 0.32227188081936686
965.5, 0.32227188081936686
966, 0.32227188081936686
966.5, 0.31999456859093733
967, 0.31999456859093733
967.4999999999998, 0.3204500310366234
967.9999999999998, 0.3204500310366234
968.5, 0.31817271880819376
969, 0.31817271880819376
969.5, 0.321816418373681
970, 0.321816418373681
970.5, 0.3224996120422099
971, 0.3224996120422099
971.5, 0.3224996120422099
972, 0.3224996120422099
972.4999999999998, 0.3224996120422099
972.9999999999998, 0.31999456859093733
973.5, 0.31999456859093733
974, 0.31999456859093733
974.5, 0.31999456859093733
975, 0.3209054934823091
975.5, 0.3209054934823091
976, 0.32113322470515226
976.5, 0.32113322470515226
977, 0.32113322470515226
977.5, 0.32113322470515226
977.9999999999998, 0.3195391061452514
978.4999999999998, 0.3195391061452514
979, 0.3179449875853507
979.5, 0.3179449875853507
980, 0.3209054934823091
980.5, 0.3209054934823091
981, 0.321588687150838
981.5, 0.321588687150838
982, 0.31908364369956566
982.5, 0.31908364369956566
982.9999999999998, 0.31703406269397905
983.4999999999998, 0.31703406269397905
984, 0.3179449875853507
984.5, 0.3179449875853507
985, 0.3197668373680945
985.5, 0.3197668373680945
986, 0.3184004500310368
986.5, 0.3184004500310368
987, 0.3158954065797641
987.5, 0.3158954065797641
987.9999999999998, 0.3154399441340784
988.4999999999998, 0.3154399441340784
989, 0.31931137492240846
989.5, 0.31931137492240846
990, 0.31612313780260726
990.5, 0.31612313780260726
991, 0.3177172563625079
991.5, 0.3177172563625079
992, 0.31521221291123525
992.5, 0.31521221291123525
993, 0.31703406269397905
993.4999999999998, 0.31703406269397905
993.9999999999998, 0.31612313780260726
994.5, 0.31612313780260726
995, 0.3149844816883923
995.5, 0.3149844816883923
996, 0.316578600248293
996.5, 0.316578600248293
997, 0.31430128801986346
997.5, 0.31430128801986346
998, 0.31635086902545007
998.4999999999998, 0.31635086902545007
998.9999999999998, 0.31635086902545007
999.5, 0.3147567504655495
1000, 0.3147567504655495
1000.5, 0.3133903631284918
1001, 0.3133903631284918
1001.5, 0.3145290192427064
1002, 0.3145290192427064
1002.5, 0.3145290192427064
1003, 0.3145290192427064
1003.4999999999998, 0.3158954065797641
1003.9999999999998, 0.3158954065797641
1004.5, 0.316578600248293
1005, 0.316578600248293
1005.5, 0.31430128801986346
1006, 0.31430128801986346
1006.5, 0.31817271880819376
1007, 0.31817271880819376
1007.5, 0.3186281812538796
1008, 0.3186281812538796
1008.5, 0.3186281812538796
1008.9999999999998, 0.3186281812538796
1009.4999999999998, 0.3156676753569212
1010, 0.3156676753569212
1010.5, 0.31430128801986346
1011, 0.31430128801986346
1011.5, 0.31612313780260726
1012, 0.31612313780260726
1012.5, 0.31726179391682185
1013, 0.31726179391682185
1013.5, 0.31999456859093733
1013.9999999999998, 0.31999456859093733
1014.4999999999998, 0.31908364369956566
1015, 0.31908364369956566
1015.5, 0.3174895251396649
1016, 0.3174895251396649
1016.5, 0.3195391061452514
1017, 0.3195391061452514
1017.5, 0.31817271880819376
1018, 0.31817271880819376
1018.5, 0.3224996120422099
1018.9999999999998, 0.3224996120422099
1019.4999999999998, 0.32113322470515226
1020, 0.32113322470515226
1020.5, 0.32022229981378025
1021, 0.32022229981378025
1021.5, 0.3236382681564246
1022, 0.3236382681564246
1022.5, 0.32295507448789573
1023, 0.32295507448789573
1023.5, 0.32318280571073865
1024, 0.32318280571073865
1024.4999999999998, 0.3209054934823091
1024.9999999999998, 0.3209054934823091
1025.5, 0.3209054934823091
1026, 0.326598774053383
1026.5, 0.326598774053383
1027, 0.32591558038485413
1027.5, 0.32591558038485413
1028, 0.32477692427063953
1028.5, 0.32477692427063953
1029, 0.3275096989447548
1029.4999999999998, 0.3275096989447548
1029.9999999999998, 0.32728196772191187
1030.5, 0.32728196772191187
1031, 0.33115339851024217
1031.5, 0.33115339851024217
1032, 0.33092566728739914
1032.5, 0.33092566728739914
1033, 0.33092566728739914
1033.5, 0.33092566728739914
1034, 0.33092566728739914
1034.4999999999998, 0.33092566728739914
1034.9999999999998, 0.3322920546244569
1035.4999999999998, 0.3322920546244569
1036, 0.331608860955928
1036.5, 0.331608860955928
1037, 0.3325197858472998
1037.5, 0.3325197858472998
1038, 0.33320297951582867
1038.5, 0.33320297951582867
1039, 0.33616348541278707
1039.5, 0.33616348541278707
1039.9999999999998, 0.3411735723153321
1040.4999999999998, 0.3411735723153321
1041, 0.33889626008690255
1041.5, 0.33889626008690255
1042, 0.3375298727498448
1042.5, 0.3375298727498448
1043, 0.3375298727498448
1043.5, 0.3375298727498448
1044, 0.34185676598386094
1044.5, 0.34185676598386094
1044.9999999999998, 0.3375298727498448
1045.4999999999998, 0.3375298727498448
1046, 0.3414013035381752
1046.5, 0.3414013035381752
1047, 0.3445895406579764
1047.5, 0.3445895406579764
1048, 0.34276769087523296
1048.5, 0.34276769087523296
1049, 0.3452727343265053
1049.5, 0.3452727343265053
1050, 0.3432231533209187
1050.4999999999998, 0.3432231533209187
1050.9999999999998, 0.34572819677219135
1051.5, 0.34572819677219135
1052, 0.3441340782122906
1052.5, 0.3441340782122906
1053, 0.3441340782122906
1053.5, 0.3423122284295469
1054, 0.3423122284295469
1054.5, 0.3461836592178771
1055, 0.3461836592178771
1055.4999999999998, 0.34868870266914975
1055.9999999999998, 0.34868870266914975
1056.5, 0.3461836592178771
1057, 0.3461836592178771
1057.5, 0.34572819677219135
1058, 0.34572819677219135
1058.5, 0.34663912166356303
1059, 0.34663912166356303
1059.5, 0.34959962756052143
1060, 0.34959962756052143
1060.4999999999998, 0.3480055090006209
1060.9999999999998, 0.3480055090006209
1061.5, 0.3482332402234637
1062, 0.3482332402234637
1062.5, 0.3530155959031659
1063, 0.3530155959031659
1063.5, 0.3559761018001243
1064, 0.3559761018001243
1064.5, 0.352332402234637
1065, 0.352332402234637
1065.5, 0.35073828367473636
1065.9999999999998, 0.35073828367473636
1066.4999999999998, 0.3521046710117941
1067, 0.3521046710117941
1067.5, 0.352332402234637
1068, 0.352332402234637
1068.5, 0.35574837057728137
1069, 0.35574837057728137
1069.5, 0.35643156424581024
1070, 0.35643156424581024
1070.5, 0.3550651769087525
1070.9999999999998, 0.3550651769087525
1071.4999999999998, 0.35256013345747983
1072, 0.35256013345747983
1072.5, 0.35392652079453757
1073, 0.35392652079453757
1073.5, 0.35460971446306644
1074, 0.35460971446306644
1074.5, 0.3559761018001243
1075, 0.3559761018001243
1075.5, 0.35369878957169476
1075.9999999999998, 0.35369878957169476
1076.4999999999998, 0.35483744568590936
1077, 0.35483744568590936
1077.5, 0.35278786468032286
1078, 0.35278786468032286
1078.5, 0.357114757914339
1079, 0.357114757914339
1079.5, 0.357114757914339
1080, 0.35552063935443823
1080.5, 0.35552063935443823
1081, 0.35187693978895096
1081.4999999999998, 0.35187693978895096
1081.9999999999998, 0.35483744568590936
1082.5, 0.35483744568590936
1083, 0.3550651769087525
1083.5, 0.3550651769087525
1084, 0.3505105524518932
1084.5, 0.3505105524518932
1085, 0.35142147734326523
1085.5, 0.35142147734326523
1086, 0.35574837057728137
1086.5, 0.35574837057728137
1087, 0.35256013345747983
1087.5, 0.35256013345747983
1088, 0.35574837057728137
1088.5, 0.35574837057728137
1089, 0.35256013345747983
1089.5, 0.35256013345747983
1090, 0.3511937461204221
1090.5, 0.3511937461204221
1091, 0.352332402234637
1091.5, 0.352332402234637
1092, 0.3530155959031659
1092.5, 0.3530155959031659
1093, 0.35073828367473636
1093.5, 0.35073828367473636
1094, 0.347322315332092
1094.5, 0.347322315332092
1095, 0.3452727343265053
1095.5, 0.3452727343265053
1096, 0.3452727343265053
1096.5, 0.3452727343265053
1097, 0.3432231533209187
1097.5, 0.3432231533209187
1098, 0.34276769087523296
1098.5, 0.34276769087523296
1099, 0.34094584109248915
1099.5, 0.34094584109248915
1100, 0.3429954220980759
1100.5, 0.3429954220980759
1101, 0.3420844972067041
1101.5, 0.3420844972067041
1102, 0.3400349162011175
1102.5, 0.3400349162011175
1103, 0.336618947858473
1103.5, 0.336618947858473
1104, 0.3343416356300436
1104.5, 0.3343416356300436
1104.9999999999998, 0.33320297951582867
1105.5, 0.33320297951582867
1106, 0.33320297951582867
1106.5, 0.3286483550589696
1107, 0.3286483550589696
1107.5, 0.326598774053383
1108, 0.326598774053383
1108.5, 0.3256878491620113
1109, 0.3256878491620113
1109.4999999999998, 0.32523238671632526
1110, 0.32523238671632526
1110.4999999999998, 0.32409373060211066
1111, 0.32409373060211066
1111.5, 0.3236382681564246
1112, 0.3236382681564246
1112.5, 0.321816418373681
1113, 0.321816418373681
1113.5, 0.31817271880819376
1114, 0.31817271880819376
1114.5, 0.3156676753569212
1114.9999999999998, 0.3156676753569212
1115.5, 0.31316263190564875
1116, 0.31316263190564875
1116.5, 0.31225170701427685
1117, 0.31225170701427685
1117.5, 0.31020212600869024
1118, 0.31020212600869024
1118.5, 0.30929120111731845
1119, 0.30929120111731845
1119.5, 0.3070138888888889
1120, 0.3070138888888889
1120.4999999999998, 0.30655842644320297
1121, 0.30655842644320297
1121.5, 0.3047365766604595
1122, 0.3047365766604595
1122.5, 0.30154833954065796
1123, 0.30154833954065796
1123.5, 0.3020038019863439
1124, 0.3020038019863439
1124.5, 0.2997264897579145
1124.9999999999998, 0.2997264897579145
1125.5, 0.29562732774674116
1125.9999999999998, 0.29562732774674116
1126.5, 0.29243909062693996
1127, 0.29243909062693996
1127.5, 0.2899340471756673
1128, 0.2899340471756673
1128.5, 0.2887953910614527
1129, 0.2887953910614527
1129.5, 0.2908449720670392
1130, 0.2908449720670392
1130.4999999999998, 0.291300434512725
1131, 0.291300434512725
1131.5, 0.2872012725015519
1132, 0.2872012725015519
1132.5, 0.2872012725015519
1133, 0.28469622905027936
1133.5, 0.28469622905027936
1134, 0.28560715394165115
1134.5, 0.28560715394165115
1135, 0.2840130353817505
1135.5, 0.2840130353817505
1135.9999999999998, 0.28241891682184994
1136.5, 0.28241891682184994
1137, 0.27968614214773435
1137.5, 0.27968614214773435
1138, 0.27740882991930493
1138.5, 0.27740882991930493
1139, 0.27695336747361887
1139.5, 0.27695336747361887
1140, 0.27558698013656113
1140.5, 0.27558698013656113
1141, 0.27444832402234653
1141.4999999999998, 0.27444832402234653
1142, 0.27353739913097463
1142.5, 0.27353739913097463
1143, 0.27194328057107386
1143.5, 0.27194328057107386
1144, 0.271260086902545
1144.5, 0.271260086902545
1145, 0.2685273122284296
1145.5, 0.2685273122284296
1145.9999999999998, 0.2682995810055866
1146.5, 0.2682995810055866
1147, 0.267160924891372
1147.5, 0.267160924891372
1148, 0.26579453755431426
1148.5, 0.26579453755431426
1149, 0.26579453755431426
1149.5, 0.26579453755431426
1150, 0.2646558814400993
1150.5, 0.2646558814400993
1151, 0.26283403165735586
1151.4999999999998, 0.26283403165735586
1152, 0.262150837988827
1152.5, 0.262150837988827
1153, 0.2612399130974551
1153.5, 0.2612399130974551
1154, 0.26078445065176925
1154.5, 0.26078445065176925
1155, 0.2596457945375543
1155.5, 0.2596457945375543
1156, 0.2601012569832404
1156.5, 0.2601012569832404
1156.9999999999998, 0.2596457945375543
1157.5, 0.2596457945375543
1158, 0.25896260086902545
1158.5, 0.25896260086902545
1159, 0.25896260086902545
1159.5, 0.2585071384233397
1160, 0.2585071384233397
1160.5, 0.2575962135319677
1161, 0.2575962135319677
1161.4999999999998, 0.2564575574177531
1162, 0.2564575574177531
1162.5, 0.2555466325263812
1163, 0.2555466325263812
1163.5, 0.25486343885785245
1164, 0.25486343885785245
1164.5, 0.25395251396648044
1165, 0.25395251396648044
1165.5, 0.2553189013035382
1166, 0.2553189013035382
1166.5, 0.25395251396648044
1166.9999999999998, 0.25395251396648044
1167.5, 0.2534970515207947
1168, 0.2534970515207947
1168.5, 0.25190293296089394
1169, 0.25190293296089394
1169.5, 0.2516752017380509
1170, 0.2516752017380509
1170.5, 0.2525861266294228
1171, 0.2525861266294228
1171.5, 0.2516752017380509
1172, 0.2516752017380509
1172.4999999999998, 0.25076427684667923
1173, 0.25076427684667923
1173.5, 0.2496256207324643
1174, 0.2496256207324643
1174.5, 0.25008108317815025
1175, 0.25008108317815025
1175.5, 0.25099200806952204
1176, 0.25099200806952204
1176.5, 0.25008108317815025
1176.9999999999998, 0.25008108317815025
1177.5, 0.24939788950962138
1178, 0.24939788950962138
1178.5, 0.24917015828677858
1179, 0.24917015828677858
1179.5, 0.24939788950962138
1180, 0.24939788950962138
1180.5, 0.2466651148355059
1181, 0.2466651148355059
1181.5, 0.24689284605834894
1182, 0.24689284605834894
1182.4999999999998, 0.24712057728119197
1183, 0.24712057728119197
1183.5, 0.24871469584109251
1184, 0.24871469584109251
1184.5, 0.24825923339540668
1185, 0.24825923339540668
1185.5, 0.2466651148355059
1186, 0.2466651148355059
1186.5, 0.2466651148355059
1187, 0.2464373836126631
1187.5, 0.2464373836126631
1187.9999999999998, 0.24712057728119197
1188.5, 0.24712057728119197
1189, 0.24620965238982018
1189.5, 0.24620965238982018
1190, 0.24620965238982018
1190.5, 0.24620965238982018
1191, 0.2466651148355059
1191.5, 0.2466651148355059
1192, 0.24780377094972084
1192.4999999999998, 0.24780377094972084
1193, 0.2466651148355059
1193.5, 0.2466651148355059
1194, 0.24712057728119197
1194.5, 0.24712057728119197
1195, 0.2464373836126631
1195.5, 0.2464373836126631
1196, 0.24734830850403478
1196.5, 0.24734830850403478
1197, 0.24689284605834894
1197.5, 0.24689284605834894
1197.9999999999998, 0.2466651148355059
1198.5, 0.2466651148355059
1199, 0.24575418994413412
1199.5, 0.24575418994413412
1200, 0.2466651148355059
1200.5, 0.2466651148355059
1201, 0.24484326505276244
1201.5, 0.24484326505276244
1202, 0.24416007138423357
1202.5, 0.24416007138423357
1203, 0.2455264587212913
1203.4999999999998, 0.2455264587212913
1204, 0.24712057728119197
1204.5, 0.24712057728119197
1205, 0.24598192116697704
1205.5, 0.24598192116697704
1206, 0.24438780260707638
1206.5, 0.24438780260707638
1207, 0.24575418994413412
1207.5, 0.24575418994413412
1207.9999999999998, 0.24507099627560525
1208.5, 0.24507099627560525
1208.9999999999998, 0.2446155338299193
1209.5, 0.2446155338299193
1210, 0.2466651148355059
1210.5, 0.2466651148355059
1211, 0.24620965238982018
1211.5, 0.24620965238982018
1212, 0.2446155338299193
1212.5, 0.2446155338299193
1213, 0.2446155338299193
1213.4999999999998, 0.2446155338299193
1214, 0.2446155338299193
1214.5, 0.24689284605834894
1215, 0.24689284605834894
1215.5, 0.24529872749844817
1216, 0.24529872749844817
1216.5, 0.24529872749844817
1217, 0.24529872749844817
1217.5, 0.2455264587212913
1218, 0.2455264587212913
1218.5, 0.24393234016139054
1218.9999999999998, 0.24393234016139054
1219.5, 0.24620965238982018
1220, 0.24620965238982018
1220.5, 0.24529872749844817
1221, 0.24529872749844817
1221.5, 0.24416007138423357
1222, 0.24416007138423357
1222.5, 0.24438780260707638
1223, 0.24438780260707638
1223.4999999999998, 0.24598192116697704
1224, 0.24598192116697704
1224.4999999999998, 0.24575418994413412
1225, 0.24575418994413412
1225.5, 0.24484326505276244
1226, 0.24484326505276244
1226.5, 0.24507099627560525
1227, 0.24507099627560525
1227.5, 0.24484326505276244
1228, 0.24484326505276244
1228.5, 0.2446155338299193
1228.9999999999998, 0.2446155338299193
1229.5, 0.24575418994413412
1230, 0.24575418994413412
1230.5, 0.24529872749844817
1231, 0.24529872749844817
1231.5, 0.24575418994413412
1232, 0.24575418994413412
1232.5, 0.2446155338299193
1233, 0.2446155338299193
1233.5, 0.24529872749844817
1234, 0.24529872749844817
1234.4999999999998, 0.24620965238982018
1235, 0.24620965238982018
1235.5, 0.2446155338299193
1236, 0.2446155338299193
1236.5, 0.24507099627560525
1237, 0.24507099627560525
1237.5, 0.24484326505276244
1238, 0.24484326505276244
1238.5, 0.24575418994413412
1238.9999999999998, 0.24575418994413412
1239.5, 0.24575418994413412
1239.9999999999998, 0.24689284605834894
1240.5, 0.24689284605834894
1241, 0.24438780260707638
1241.5, 0.24438780260707638
1242, 0.24416007138423357
1242.5, 0.24416007138423357
1243, 0.24507099627560525
1243.5, 0.24507099627560525
1244, 0.24529872749844817
1244.4999999999998, 0.24529872749844817
1245, 0.2437046089385475
1245.5, 0.2437046089385475
1246, 0.24507099627560525
1246.5, 0.24507099627560525
1247, 0.24575418994413412
1247.5, 0.24575418994413412
1248, 0.24484326505276244
1248.5, 0.24484326505276244
1249, 0.24484326505276244
1249.5, 0.24484326505276244
1249.9999999999998, 0.24393234016139054
1250.5, 0.24393234016139054
1251, 0.24416007138423357
1251.5, 0.24416007138423357
1252, 0.24507099627560525
1252.5, 0.24507099627560525
1253, 0.2434768777157047
1253.5, 0.2434768777157047
1254, 0.2455264587212913
1254.4999999999998, 0.2455264587212913
1255, 0.24507099627560525
1255.4999999999998, 0.24507099627560525
1256, 0.24416007138423357
1256.5, 0.24416007138423357
1257, 0.24233822160148977
1257.5, 0.24233822160148977
1258, 0.24484326505276244
1258.5, 0.24484326505276244
1259, 0.2446155338299193
1259.5, 0.2446155338299193
1259.9999999999998, 0.2455264587212913
1260.5, 0.2455264587212913
1261, 0.24393234016139054
1261.5, 0.24393234016139054
1262, 0.24438780260707638
1262.5, 0.24438780260707638
1263, 0.24529872749844817
1263.5, 0.24529872749844817
1264, 0.2437046089385475
1264.5, 0.2437046089385475
1265, 0.24529872749844817
1265.4999999999998, 0.24529872749844817
1266, 0.24529872749844817
1266.5, 0.24529872749844817
1267, 0.24529872749844817
1267.5, 0.2446155338299193
1268, 0.2446155338299193
1268.5, 0.24507099627560525
1269, 0.24507099627560525
1269.5, 0.24438780260707638
1269.9999999999998, 0.24438780260707638
1270.5, 0.24484326505276244
1270.9999999999998, 0.24484326505276244
1271.5, 0.24324914649286167
1272, 0.24324914649286167
1272.5, 0.24416007138423357
1273, 0.24416007138423357
1273.5, 0.24302141527001864
1274, 0.24302141527001864
1274.5, 0.2446155338299193
1275, 0.2446155338299193
1275.4999999999998, 0.24529872749844817
1276, 0.24529872749844817
1276.5, 0.24598192116697704
1277, 0.24598192116697704
1277.5, 0.24438780260707638
1278, 0.24438780260707638
1278.5, 0.2437046089385475
1279, 0.2437046089385475
1279.5, 0.24484326505276244
1280, 0.24484326505276244
1280.5, 0.24529872749844817
1280.9999999999998, 0.24529872749844817
1281.5, 0.24507099627560525
1282, 0.24507099627560525
1282.5, 0.2446155338299193
1283, 0.2446155338299193
1283.5, 0.2446155338299193
1284, 0.2446155338299193
1284.5, 0.24438780260707638
1285, 0.24438780260707638
1285.4999999999998, 0.24507099627560525
1286, 0.24507099627560525
1286.4999999999998, 0.24438780260707638
1287, 0.24438780260707638
1287.5, 0.2437046089385475
1288, 0.2437046089385475
1288.5, 0.24393234016139054
1289, 0.24393234016139054
1289.5, 0.24484326505276244
1290, 0.24484326505276244
1290.5, 0.24529872749844817
1290.9999999999998, 0.24529872749844817
1291.5, 0.24575418994413412
1292, 0.24575418994413412
1292.5, 0.24575418994413412
1293, 0.2446155338299193
1293.5, 0.2446155338299193
1294, 0.2437046089385475
1294.5, 0.2437046089385475
1295, 0.24416007138423357
1295.5, 0.24416007138423357
1296, 0.24324914649286167
1296.4999999999998, 0.24324914649286167
1297, 0.24507099627560525
1297.5, 0.24507099627560525
1298, 0.2455264587212913
1298.5, 0.2455264587212913
1299, 0.24529872749844817
1299.5, 0.24529872749844817
1300, 0.24529872749844817
