202.49999999999997, 0.38148199875853506
203, 0.38148199875853506
203.5, 0.3796601489757916
204, 0.3796601489757916
204.5, 0.37829376163873385
205, 0.37829376163873385
205.5, 0.3789769553072627
206, 0.3789769553072627
206.49999999999997, 0.38034334264432046
207, 0.38034334264432046
207.5, 0.3821651924270639
208, 0.3821651924270639
208.5, 0.3848979671011794
208.99999999999997, 0.3848979671011794
209.5, 0.3887693978895096
210, 0.3887693978895096
210.5, 0.38649208566108006
211, 0.38649208566108006
211.49999999999997, 0.3830761173184358
212, 0.3830761173184358
212.5, 0.3817097299813782
213, 0.3817097299813782
213.5, 0.38421477343265054
214, 0.38421477343265054
214.5, 0.38535342954686547
215, 0.38535342954686547
215.49999999999997, 0.38444250465549346
216, 0.38444250465549346
216.5, 0.3839870422098077
217, 0.3839870422098077
217.5, 0.3851256983240223
217.99999999999997, 0.3851256983240223
218.5, 0.38353157976412167
219, 0.38353157976412167
219.5, 0.3821651924270639
220, 0.3821651924270639
220.5, 0.3798878801986344
221, 0.3798878801986344
221.5, 0.38148199875853506
221.99999999999997, 0.38148199875853506
222.5, 0.38148199875853506
223, 0.38148199875853506
223.5, 0.381937461204221
224, 0.381937461204221
224.49999999999997, 0.3796601489757916
225, 0.3796601489757916
225.5, 0.3796601489757916
226, 0.38148199875853506
226.5, 0.38148199875853506
227, 0.3839870422098077
227.5, 0.3839870422098077
228, 0.3858088919925512
228.49999999999997, 0.3858088919925512
229, 0.3846702358783366
229.5, 0.3846702358783366
230, 0.3828483860955928
230.5, 0.3828483860955928
230.99999999999997, 0.3821651924270639
231.5, 0.3821651924270639
232, 0.3817097299813782
232.5, 0.3817097299813782
233, 0.3817097299813782
233.49999999999997, 0.3817097299813782
234, 0.3807988050900062
234.5, 0.3807988050900062
235, 0.3807988050900062
235.5, 0.3807988050900062
236, 0.38353157976412167
236.5, 0.38353157976412167
237, 0.3837593109869646
237.49999999999997, 0.3837593109869646
238, 0.3817097299813782
238.5, 0.3817097299813782
239, 0.3821651924270639
239.5, 0.3821651924270639
239.99999999999997, 0.38239292364990707
240.5, 0.38239292364990707
241, 0.38125426753569214
241.5, 0.38125426753569214
242, 0.3807988050900062
242.5, 0.3807988050900062
243, 0.3817097299813782
243.5, 0.3817097299813782
243.99999999999997, 0.38239292364990707
244.5, 0.38239292364990707
245, 0.3828483860955928
245.5, 0.3828483860955928
246, 0.38125426753569214
246.49999999999997, 0.38125426753569214
247, 0.38262065487275
247.5, 0.38262065487275
248, 0.38125426753569214
248.5, 0.38125426753569214
248.99999999999997, 0.3787492240844197
249.5, 0.3787492240844197
250, 0.3798878801986344
250.49999999999997, 0.3798878801986344
251, 0.3801156114214773
251.5, 0.3801156114214773
252, 0.3801156114214773
252.5, 0.3807988050900062
252.99999999999997, 0.3807988050900062
253.5, 0.3801156114214773
254, 0.3801156114214773
254.5, 0.38262065487275
255, 0.38262065487275
255.49999999999997, 0.381937461204221
256, 0.381937461204221
256.5, 0.3807988050900062
257, 0.3807988050900062
257.5, 0.37943241775294845
258, 0.37943241775294845
258.5, 0.37852149286157666
259, 0.37852149286157666
259.5, 0.38057107386716327
260, 0.38057107386716327
260.5, 0.38102653631284933
261, 0.38102653631284933
261.5, 0.3789769553072627
262, 0.3789769553072627
262.5, 0.3807988050900062
263, 0.3807988050900062
263.5, 0.38125426753569214
264, 0.38125426753569214
264.5, 0.3828483860955928
265, 0.3828483860955928
265.5, 0.381937461204221
266, 0.381937461204221
266.5, 0.38148199875853506
267, 0.38148199875853506
267.5, 0.38057107386716327
268, 0.38057107386716327
268.5, 0.3821651924270639
269, 0.3821651924270639
269.5, 0.3828483860955928
270, 0.3828483860955928
270.5, 0.38444250465549346
271, 0.38444250465549346
271.5, 0.3821651924270639
272, 0.3821651924270639
272.5, 0.38125426753569214
273, 0.38125426753569214
273.5, 0.3821651924270639
274, 0.3821651924270639
274.5, 0.38262065487275
275, 0.38262065487275
275.5, 0.3807988050900062
276, 0.3807988050900062
276.5, 0.38057107386716327
277, 0.38057107386716327
277.5, 0.38239292364990707
278, 0.38239292364990707
278.5, 0.38239292364990707
279, 0.38353157976412167
279.5, 0.38353157976412167
280, 0.38057107386716327
280.5, 0.38057107386716327
281, 0.38125426753569214
281.5, 0.38125426753569214
282, 0.38421477343265054
282.5, 0.38421477343265054
283, 0.38330384854127886
283.5, 0.38330384854127886
284, 0.38353157976412167
284.5, 0.38353157976412167
285, 0.3796601489757916
285.5, 0.3796601489757916
286, 0.381937461204221
286.5, 0.381937461204221
287, 0.38330384854127886
287.5, 0.38330384854127886
288, 0.3828483860955928
288.5, 0.3828483860955928
289, 0.381937461204221
289.5, 0.381937461204221
290, 0.3839870422098077
290.5, 0.3839870422098077
291, 0.3848979671011794
291.5, 0.3848979671011794
292, 0.38262065487275
292.5, 0.38262065487275
293, 0.3817097299813782
293.5, 0.3817097299813782
294, 0.3848979671011794
294.5, 0.3848979671011794
295, 0.38421477343265054
295.5, 0.38421477343265054
296, 0.3821651924270639
296.5, 0.3821651924270639
297, 0.3807988050900062
297.5, 0.3807988050900062
298, 0.37920468653010553
298.5, 0.37920468653010553
299, 0.3771551055245189
299.5, 0.3771551055245189
300, 0.37533325574177545
300.5, 0.37533325574177545
304, 0.3778382991930478
304.5, 0.3778382991930478
305, 0.3778382991930478
305.5, 0.37533325574177545
306, 0.37533325574177545
306.5, 0.38034334264432046
307, 0.38034334264432046
307.5, 0.3855811607697083
308, 0.3855811607697083
308.5, 0.38353157976412167
309, 0.38353157976412167
309.5, 0.38125426753569214
310, 0.38125426753569214
310.5, 0.3798878801986344
311, 0.3798878801986344
311.5, 0.3821651924270639
312, 0.3821651924270639
312.5, 0.3851256983240223
313, 0.3851256983240223
313.5, 0.3855811607697083
314, 0.3855811607697083
314.5, 0.3839870422098077
315, 0.3839870422098077
315.5, 0.3848979671011794
316, 0.3848979671011794
316.49999999999994, 0.38535342954686547
316.99999999999994, 0.38535342954686547
317.5, 0.3839870422098077
317.99999999999994, 0.3839870422098077
318.5, 0.3855811607697083
318.99999999999994, 0.3855811607697083
319.49999999999994, 0.38239292364990707
320, 0.38239292364990707
320.49999999999994, 0.3837593109869646
320.99999999999994, 0.3837593109869646
321.5, 0.381937461204221
322, 0.381937461204221
322.5, 0.3821651924270639
323, 0.3821651924270639
323.5, 0.38148199875853506
324, 0.38148199875853506
324.5, 0.3848979671011794
325, 0.3848979671011794
325.5, 0.3851256983240223
326, 0.3851256983240223
326.5, 0.3839870422098077
327, 0.3839870422098077
327.49999999999994, 0.381937461204221
328, 0.381937461204221
328.5, 0.3830761173184358
329, 0.3830761173184358
329.5, 0.38603662321539434
329.99999999999994, 0.38603662321539434
330.5, 0.38649208566108006
331, 0.38649208566108006
331.5, 0.3828483860955928
332, 0.3828483860955928
332.49999999999994, 0.3828483860955928
333, 0.3839870422098077
333.5, 0.3839870422098077
334, 0.38330384854127886
334.5, 0.38330384854127886
334.99999999999994, 0.38421477343265054
335.5, 0.38421477343265054
336, 0.3848979671011794
336.5, 0.3848979671011794
337, 0.3830761173184358
337.5, 0.3830761173184358
338, 0.38262065487275
338.5, 0.38262065487275
339, 0.3848979671011794
339.5, 0.3848979671011794
340, 0.3821651924270639
340.5, 0.3821651924270639
341, 0.3801156114214773
341.5, 0.3801156114214773
342, 0.37943241775294845
342.5, 0.37943241775294845
342.99999999999994, 0.38353157976412167
343.5, 0.38353157976412167
344, 0.38330384854127886
344.5, 0.38330384854127886
345, 0.38535342954686547
345.49999999999994, 0.38535342954686547
346, 0.38421477343265054
346.5, 0.38421477343265054
347, 0.38330384854127886
347.5, 0.38330384854127886
347.99999999999994, 0.3848979671011794
348.5, 0.3848979671011794
349, 0.38353157976412167
349.5, 0.38353157976412167
350, 0.3830761173184358
350.49999999999994, 0.3830761173184358
351, 0.3839870422098077
351.5, 0.3839870422098077
352, 0.3858088919925512
352.5, 0.3858088919925512
353, 0.387630741775295
353.5, 0.387630741775295
354, 0.3851256983240223
354.5, 0.3851256983240223
355, 0.38603662321539434
355.5, 0.38603662321539434
356, 0.3817097299813782
356.5, 0.3817097299813782
357, 0.3796601489757916
357.5, 0.3796601489757916
358, 0.3830761173184358
358.49999999999994, 0.3830761173184358
359, 0.3830761173184358
359.5, 0.38421477343265054
360, 0.38421477343265054
360.5, 0.38330384854127886
360.99999999999994, 0.38330384854127886
361.5, 0.38649208566108006
362, 0.38649208566108006
362.5, 0.3828483860955928
363, 0.3828483860955928
363.49999999999994, 0.3855811607697083
364, 0.3855811607697083
364.5, 0.3858088919925512
365, 0.3858088919925512
365.5, 0.3830761173184358
365.99999999999994, 0.3830761173184358
366.5, 0.3851256983240223
367, 0.3851256983240223
367.5, 0.38603662321539434
368, 0.38603662321539434
368.5, 0.387630741775295
369, 0.387630741775295
369.5, 0.38330384854127886
370, 0.38330384854127886
370.5, 0.3846702358783366
371, 0.3846702358783366
371.49999999999994, 0.3878584729981378
372, 0.3878584729981378
372.5, 0.38740301055245197
373, 0.38740301055245197
373.5, 0.38444250465549346
373.99999999999994, 0.38444250465549346
374.5, 0.3817097299813782
375, 0.3817097299813782
375.5, 0.38444250465549346
376, 0.38444250465549346
376.49999999999994, 0.3887693978895096
377, 0.3887693978895096
377.5, 0.38444250465549346
378, 0.38444250465549346
378.5, 0.38421477343265054
378.99999999999994, 0.38421477343265054
379.5, 0.38649208566108006
380, 0.38649208566108006
380.5, 0.38649208566108006
381, 0.38649208566108006
381.5, 0.3867198168839232
382, 0.3867198168839232
382.5, 0.3858088919925512
383, 0.3858088919925512
383.5, 0.3830761173184358
384, 0.3830761173184358
384.5, 0.3851256983240223
385, 0.3851256983240223
385.5, 0.3851256983240223
386, 0.3867198168839232
386.5, 0.3867198168839232
386.99999999999994, 0.3846702358783366
387.5, 0.3846702358783366
388, 0.3828483860955928
388.5, 0.3828483860955928
389, 0.3851256983240223
389.49999999999994, 0.3851256983240223
390, 0.3880862042209807
390.5, 0.3880862042209807
391, 0.38717527932960893
391.5, 0.38717527932960893
391.99999999999994, 0.3851256983240223
392.5, 0.3851256983240223
393, 0.3848979671011794
393.5, 0.3848979671011794
394, 0.3848979671011794
394.49999999999994, 0.3848979671011794
395, 0.3855811607697083
395.5, 0.3855811607697083
396, 0.3848979671011794
396.5, 0.3848979671011794
397, 0.3839870422098077
397.5, 0.3839870422098077
398, 0.3855811607697083
398.5, 0.3855811607697083
399, 0.3867198168839232
399.5, 0.3867198168839232
400, 0.3855811607697083
400.5, 0.3855811607697083
401, 0.38421477343265054
401.5, 0.38421477343265054
402, 0.38444250465549346
402.49999999999994, 0.38444250465549346
403, 0.3851256983240223
403.5, 0.3851256983240223
404, 0.38444250465549346
404.5, 0.38444250465549346
404.99999999999994, 0.3839870422098077
405.5, 0.3839870422098077
406, 0.3851256983240223
406.5, 0.3851256983240223
407, 0.3869475481067661
407.49999999999994, 0.3869475481067661
408, 0.3851256983240223
408.5, 0.3851256983240223
409, 0.3869475481067661
409.5, 0.3869475481067661
409.99999999999994, 0.3896803227808816
410.5, 0.3896803227808816
411, 0.3869475481067661
411.5, 0.3869475481067661
412, 0.3869475481067661
412.5, 0.3855811607697083
413, 0.3855811607697083
413.5, 0.38717527932960893
414, 0.38717527932960893
414.5, 0.38535342954686547
415, 0.38535342954686547
415.49999999999994, 0.38353157976412167
416, 0.38353157976412167
416.5, 0.38626435443823715
417, 0.38626435443823715
417.5, 0.38740301055245197
417.99999999999994, 0.38740301055245197
418.5, 0.3846702358783366
419, 0.3846702358783366
419.5, 0.38353157976412167
420, 0.38353157976412167
420.49999999999994, 0.38649208566108006
421, 0.38649208566108006
421.5, 0.3858088919925512
422, 0.3858088919925512
422.5, 0.3867198168839232
422.99999999999994, 0.3867198168839232
423.5, 0.3880862042209807
424, 0.3880862042209807
424.5, 0.38649208566108006
425, 0.38649208566108006
425.49999999999994, 0.3867198168839232
426, 0.3867198168839232
426.5, 0.3867198168839232
427, 0.3867198168839232
427.5, 0.38717527932960893
428, 0.38717527932960893
428.5, 0.3851256983240223
429, 0.3851256983240223
429.5, 0.3869475481067661
430, 0.3869475481067661
430.5, 0.3830761173184358
430.99999999999994, 0.3830761173184358
431.5, 0.38353157976412167
432, 0.38353157976412167
432.5, 0.38649208566108006
433, 0.38649208566108006
433.49999999999994, 0.3858088919925512
434, 0.3858088919925512
434.5, 0.38603662321539434
435, 0.38603662321539434
435.5, 0.38353157976412167
435.99999999999994, 0.38353157976412167
436.5, 0.38626435443823715
437, 0.38626435443823715
437.5, 0.38899712911235274
438, 0.38899712911235274
438.49999999999994, 0.38899712911235274
439, 0.38649208566108006
439.5, 0.38649208566108006
440, 0.3851256983240223
440.5, 0.3851256983240223
440.99999999999994, 0.38603662321539434
441.5, 0.38603662321539434
442, 0.3878584729981378
442.5, 0.3878584729981378
443, 0.38626435443823715
443.5, 0.38626435443823715
444, 0.3885416666666667
444.5, 0.3885416666666667
445, 0.3867198168839232
445.5, 0.3867198168839232
446, 0.38603662321539434
446.49999999999994, 0.38603662321539434
447, 0.3880862042209807
447.5, 0.3880862042209807
448, 0.38831393544382387
448.5, 0.38831393544382387
448.99999999999994, 0.3867198168839232
449.5, 0.3867198168839232
450, 0.3855811607697083
450.5, 0.3855811607697083
451, 0.38899712911235274
451.49999999999994, 0.38899712911235274
452, 0.38717527932960893
452.5, 0.38717527932960893
453, 0.38626435443823715
453.5, 0.38626435443823715
453.99999999999994, 0.38603662321539434
454.5, 0.38603662321539434
455, 0.38421477343265054
455.5, 0.38421477343265054
456, 0.3837593109869646
456.5, 0.3837593109869646
457, 0.3858088919925512
457.5, 0.3858088919925512
458, 0.3851256983240223
458.5, 0.3851256983240223
459, 0.387630741775295
459.49999999999994, 0.387630741775295
460, 0.3878584729981378
460.5, 0.3878584729981378
461, 0.3896803227808816
461.5, 0.3896803227808816
461.99999999999994, 0.3867198168839232
462.5, 0.3867198168839232
463, 0.3846702358783366
463.5, 0.3846702358783366
464, 0.38626435443823715
464.49999999999994, 0.38626435443823715
465, 0.38649208566108006
465.5, 0.38649208566108006
466, 0.38649208566108006
466.5, 0.38626435443823715
466.99999999999994, 0.38626435443823715
467.5, 0.3837593109869646
468, 0.3837593109869646
468.5, 0.38535342954686547
469, 0.38535342954686547
469.49999999999994, 0.38831393544382387
470, 0.38831393544382387
470.5, 0.3878584729981378
471, 0.3878584729981378
471.5, 0.3855811607697083
472, 0.3855811607697083
472.5, 0.3830761173184358
473, 0.3830761173184358
473.5, 0.38603662321539434
474, 0.38603662321539434
474.5, 0.38603662321539434
474.99999999999994, 0.38603662321539434
475.5, 0.3839870422098077
476, 0.3839870422098077
476.5, 0.38649208566108006
477, 0.38649208566108006
477.49999999999994, 0.3848979671011794
478, 0.3848979671011794
478.5, 0.3848979671011794
479, 0.3848979671011794
479.5, 0.3867198168839232
479.99999999999994, 0.3867198168839232
480.5, 0.38353157976412167
481, 0.38353157976412167
481.5, 0.3821651924270639
482, 0.3821651924270639
482.49999999999994, 0.3851256983240223
483, 0.3851256983240223
483.5, 0.38717527932960893
484, 0.38717527932960893
484.5, 0.3867198168839232
484.99999999999994, 0.3867198168839232
485.5, 0.3851256983240223
486, 0.3851256983240223
486.5, 0.38444250465549346
487, 0.38444250465549346
487.5, 0.3837593109869646
488, 0.3837593109869646
488.5, 0.3846702358783366
489, 0.3846702358783366
489.5, 0.3821651924270639
490, 0.3821651924270639
490.49999999999994, 0.3830761173184358
491, 0.3830761173184358
491.5, 0.38444250465549346
492, 0.38444250465549346
492.5, 0.38444250465549346
492.99999999999994, 0.38535342954686547
493.5, 0.38535342954686547
494, 0.3830761173184358
494.5, 0.3830761173184358
495, 0.3828483860955928
495.49999999999994, 0.3828483860955928
496, 0.38444250465549346
496.5, 0.38444250465549346
497, 0.38421477343265054
497.5, 0.38421477343265054
497.99999999999994, 0.3848979671011794
498.5, 0.3848979671011794
499, 0.3846702358783366
499.5, 0.3846702358783366
500, 0.3867198168839232
500.49999999999994, 0.3867198168839232
501, 0.3846702358783366
501.5, 0.3846702358783366
502, 0.3828483860955928
502.5, 0.3828483860955928
503, 0.3846702358783366
503.49999999999994, 0.3846702358783366
504, 0.3851256983240223
504.5, 0.3851256983240223
505, 0.38148199875853506
505.5, 0.38148199875853506
505.99999999999994, 0.38148199875853506
506.5, 0.38148199875853506
507, 0.38148199875853506
507.5, 0.38148199875853506
508, 0.38262065487275
508.49999999999994, 0.38262065487275
509, 0.3796601489757916
509.5, 0.3796601489757916
510, 0.37920468653010553
510.5, 0.37920468653010553
510.99999999999994, 0.38125426753569214
511.5, 0.38125426753569214
512, 0.38125426753569214
512.5, 0.38125426753569214
513, 0.38057107386716327
513.5, 0.38057107386716327
514, 0.38239292364990707
514.5, 0.38239292364990707
515, 0.3828483860955928
515.5, 0.3828483860955928
516, 0.3801156114214773
516.5, 0.3801156114214773
517, 0.3821651924270639
517.5, 0.3821651924270639
518, 0.381937461204221
518.5, 0.381937461204221
519, 0.381937461204221
519.5, 0.38148199875853506
520, 0.38148199875853506
520.5, 0.381937461204221
521, 0.381937461204221
521.5, 0.3828483860955928
522, 0.3828483860955928
522.5, 0.38102653631284933
523, 0.38102653631284933
523.5, 0.38125426753569214
524, 0.38125426753569214
524.5, 0.38262065487275
525, 0.38262065487275
525.5, 0.37943241775294845
526, 0.37943241775294845
526.5, 0.38262065487275
527, 0.38262065487275
527.5, 0.38239292364990707
528, 0.38239292364990707
528.5, 0.3798878801986344
529, 0.3798878801986344
529.5, 0.38057107386716327
530, 0.38057107386716327
530.5, 0.37920468653010553
531, 0.37920468653010553
531.5, 0.3821651924270639
532, 0.3821651924270639
532.5, 0.38353157976412167
533, 0.38353157976412167
533.5, 0.381937461204221
534, 0.381937461204221
534.5, 0.3821651924270639
535, 0.3821651924270639
535.5, 0.381937461204221
536, 0.381937461204221
536.5, 0.3828483860955928
537, 0.3828483860955928
537.5, 0.38353157976412167
538, 0.38353157976412167
538.5, 0.3858088919925512
539, 0.3858088919925512
539.5, 0.3858088919925512
540, 0.3858088919925512
540.5, 0.3869475481067661
541, 0.3869475481067661
541.5, 0.38603662321539434
542, 0.38603662321539434
542.5, 0.38444250465549346
543, 0.38444250465549346
543.5, 0.3851256983240223
544, 0.3851256983240223
544.5, 0.3851256983240223
545, 0.3851256983240223
545.5, 0.3851256983240223
546, 0.3851256983240223
546.5, 0.3851256983240223
547, 0.38603662321539434
547.5, 0.38603662321539434
548, 0.3885416666666667
548.5, 0.3885416666666667
549, 0.3917299037864681
549.5, 0.3917299037864681
550, 0.39104671011793934
550.5, 0.39104671011793934
551, 0.3880862042209807
551.5, 0.3880862042209807
552, 0.3915021725636251
552.5, 0.3915021725636251
553, 0.3933240223463689
553.5, 0.3933240223463689
554, 0.39446267846058347
554.5, 0.39446267846058347
555, 0.3958290657976412
555.5, 0.3958290657976412
556, 0.3935517535692117
556.5, 0.3935517535692117
557, 0.39514587212911234
557.5, 0.39514587212911234
558, 0.39696772191185614
558.5, 0.39696772191185614
559, 0.3958290657976412
559.5, 0.3958290657976412
560, 0.3997004965859716
560.5, 0.3997004965859716
561, 0.4006114214773434
561.5, 0.4006114214773434
562, 0.40106688392302914
562.5, 0.40106688392302914
563, 0.4053937771570454
563.5, 0.4053937771570454
564, 0.40698789571694616
564.5, 0.40698789571694616
565, 0.4058492396027312
565.5, 0.4058492396027312
566, 0.40402738981998776
566.5, 0.40402738981998776
567, 0.4074433581626319
567.5, 0.4074433581626319
568, 0.41085932650527623
568.5, 0.41085932650527623
569, 0.411770251396648
569.5, 0.411770251396648
570, 0.41313663873370576
570.5, 0.41313663873370576
571, 0.41678033829919303
571.5, 0.41678033829919303
572, 0.41678033829919303
572.5, 0.42087950031036625
573, 0.42087950031036625
573.5, 0.42384000620732465
574, 0.42384000620732465
574.5, 0.4224736188702669
575, 0.4224736188702669
575.5, 0.42588958721291126
576, 0.42588958721291126
576.5, 0.4254341247672253
577, 0.4254341247672253
577.5, 0.43272152389819984
578, 0.43272152389819984
578.5, 0.43477110490378645
579, 0.43477110490378645
579.5, 0.4331769863438858
580, 0.4331769863438858
580.5, 0.4363652234636871
581, 0.4363652234636871
581.5, 0.44160304158907526
582, 0.44160304158907526
582.5, 0.4450190099317195
583, 0.4450190099317195
583.5, 0.44342489137181873
584, 0.44342489137181873
584.5, 0.44661312849162027
584.9999999999998, 0.44661312849162027
585.5, 0.4550391837368094
586, 0.4550391837368094
586.5, 0.45230640906269415
587, 0.45230640906269415
587.5, 0.4568610335195531
588, 0.4568610335195531
588.5, 0.45731649596523904
589, 0.45731649596523904
589.5, 0.45731649596523904
589.9999999999998, 0.45731649596523904
590.5, 0.4598215394165115
591, 0.4598215394165115
591.5, 0.4675644009931721
592, 0.4675644009931721
592.5, 0.46915851955307264
593, 0.46915851955307264
593.5, 0.46893078833022983
594, 0.46893078833022983
594.5, 0.47325768156424597
594.9999999999998, 0.47325768156424597
595.5, 0.47712911235257605
596, 0.47712911235257605
596.5, 0.4775845747982621
597, 0.4775845747982621
597.5, 0.47416860645561765
598, 0.47416860645561765
598.5, 0.47485180012414663
599, 0.47485180012414663
599.5, 0.47485180012414663
600, 0.4730299503414028
600.4999999999998, 0.4730299503414028
601, 0.4764459186840472
601.5, 0.4764459186840472
602, 0.47712911235257605
602.5, 0.47712911235257605
603, 0.47530726256983247
603.5, 0.47530726256983247
604, 0.4728022191185599
604.5, 0.4728022191185599
605, 0.47211902545003104
605.4999999999998, 0.47211902545003104
606, 0.4737131440099317
606.5, 0.4737131440099317
607, 0.4757627250155183
607.5, 0.4757627250155183
608, 0.47416860645561765
608.5, 0.47416860645561765
609, 0.47507953134698944
609.5, 0.47507953134698944
610, 0.47485180012414663
610.4999999999998, 0.47485180012414663
610.9999999999998, 0.47211902545003104
611.5, 0.47211902545003104
612, 0.46847532588454377
612.5, 0.46847532588454377
613, 0.46619801365611435
613.5, 0.46619801365611435
614, 0.46733666977032895
614.5, 0.46733666977032895
615, 0.46437616387337055
615.5, 0.46437616387337055
615.9999999999998, 0.4659702824332713
616.5, 0.4659702824332713
617, 0.462098851644941
617.5, 0.462098851644941
618, 0.4639207014276848
618.5, 0.4639207014276848
619, 0.46346523898199876
619.5, 0.46346523898199876
620, 0.4609601955307264
620.5, 0.4609601955307264
620.9999999999998, 0.4589106145251398
621.5, 0.4589106145251398
622, 0.4557223774053383
622.5, 0.4557223774053383
623, 0.45549464618249536
623.5, 0.45549464618249536
624, 0.4559501086281814
624.5, 0.4559501086281814
625, 0.45071229050279327
625.5, 0.45071229050279327
625.9999999999998, 0.45071229050279327
626.4999999999998, 0.45071229050279327
627, 0.45071229050279327
627.5, 0.447979515828678
628, 0.447979515828678
628.5, 0.44729632216014914
629, 0.44729632216014914
629.5, 0.44775178460583487
630, 0.44775178460583487
630.5, 0.4468408597144631
631, 0.4468408597144631
631.4999999999998, 0.442969428926133
632, 0.442969428926133
632.5, 0.44251396648044694
633, 0.44251396648044694
633.5, 0.4409198479205464
634, 0.4409198479205464
634.5, 0.43659295468653025
635, 0.43659295468653025
635.5, 0.432038330229671
636, 0.432038330229671
636.4999999999998, 0.43386018001241466
637, 0.43386018001241466
637.5, 0.4324937926753569
638, 0.4324937926753569
638.5, 0.4324937926753569
639, 0.4324937926753569
639.5, 0.4304442116697703
640, 0.4304442116697703
640.5, 0.42862236188702685
641, 0.42862236188702685
641.4999999999998, 0.4295332867783985
641.9999999999998, 0.4295332867783985
642.5, 0.42588958721291126
643, 0.42588958721291126
643.5, 0.4263450496585972
644, 0.4263450496585972
644.5, 0.4233845437616387
645, 0.4233845437616387
645.5, 0.4201963066418374
646, 0.4201963066418374
646.5, 0.42087950031036625
646.9999999999998, 0.42087950031036625
647.5, 0.4201963066418374
648, 0.4201963066418374
648.5, 0.41769126319056493
649, 0.41769126319056493
649.5, 0.4151862197392924
650, 0.4151862197392924
650.5, 0.4163248758535073
651, 0.4163248758535073
651.5, 0.4145030260707635
651.9999999999998, 0.4145030260707635
652.5, 0.4145030260707635
653, 0.41108705772811915
653.5, 0.41108705772811915
654, 0.41199798261949117
654.5, 0.41199798261949117
655, 0.4085820142768467
655.5, 0.4085820142768467
656, 0.4056215083798884
656.5, 0.4056215083798884
656.9999999999998, 0.407671089385475
657.4999999999998, 0.407671089385475
658, 0.40789882060831784
658.5, 0.40789882060831784
659, 0.40402738981998776
659.5, 0.40402738981998776
660, 0.40402738981998776
660.5, 0.40402738981998776
661, 0.40220554003724396
661.5, 0.40220554003724396
662, 0.4003836902545004
662.4999999999998, 0.4003836902545004
663, 0.4008391527001862
663.5, 0.4008391527001862
664, 0.3985618404717567
664.5, 0.3985618404717567
665, 0.3978786468032278
665.5, 0.3978786468032278
666, 0.397650915580385
666.5, 0.397650915580385
667, 0.396739990689013
667.4999999999998, 0.396739990689013
668, 0.39605679702048424
668.5, 0.39605679702048424
669, 0.3915021725636251
669.5, 0.3915021725636251
670, 0.39241309745499686
670.5, 0.39241309745499686
671, 0.39127444134078226
671.5, 0.39127444134078226
672, 0.39218536623215394
672.4999999999998, 0.39218536623215394
672.9999999999998, 0.3896803227808816
673.5, 0.3896803227808816
674, 0.38717527932960893
674.5, 0.38717527932960893
675, 0.3855811607697083
675.5, 0.3855811607697083
676, 0.3821651924270639
676.5, 0.3821651924270639
677, 0.3828483860955928
677.5, 0.3828483860955928
677.9999999999998, 0.38148199875853506
678.5, 0.38148199875853506
679, 0.38148199875853506
679.5, 0.38330384854127886
680, 0.38330384854127886
680.5, 0.38444250465549346
681, 0.38444250465549346
681.5, 0.38239292364990707
682, 0.38239292364990707
682.5, 0.38057107386716327
682.9999999999998, 0.38057107386716327
683.5, 0.3817097299813782
684, 0.3817097299813782
684.5, 0.37806603041589093
685, 0.37806603041589093
685.5, 0.3766996430788332
686, 0.3766996430788332
686.5, 0.37624418063314713
687, 0.37624418063314713
687.5, 0.37647191185599005
687.9999999999998, 0.37647191185599005
688.4999999999998, 0.37442233085040355
689, 0.37442233085040355
689.5, 0.37624418063314713
690, 0.37624418063314713
690.5, 0.3771551055245189
691, 0.3771551055245189
691.5, 0.3748777932960894
692, 0.3748777932960894
692.5, 0.3737391371818748
693, 0.3737391371818748
693.4999999999998, 0.3748777932960894
694, 0.3748777932960894
694.5, 0.3739668684047177
695, 0.3739668684047177
695.5, 0.3728282122905028
696, 0.3728282122905028
696.5, 0.37055090006207325
697, 0.37055090006207325
697.5, 0.3678181253879578
698, 0.3678181253879578
698.4999999999998, 0.3659962756052143
698.9999999999998, 0.3659962756052143
699.5, 0.3682735878336437
700, 0.3682735878336437
700.5, 0.3666794692737432
701, 0.3666794692737432
701.5, 0.36554081315952824
702, 0.36554081315952824
702.5, 0.3671349317194289
703, 0.3671349317194289
703.4999999999998, 0.3662240068280571
703.9999999999998, 0.3662240068280571
704.5, 0.36736266294227204
705, 0.36736266294227204
705.5, 0.36736266294227204
706, 0.3666794692737432
706.5, 0.3666794692737432
707, 0.36554081315952824
707.5, 0.36554081315952824
708, 0.3641744258224705
708.5, 0.3641744258224705
708.9999999999998, 0.36462988826815645
709.5, 0.36462988826815645
710, 0.3632635009310987
710.5, 0.3632635009310987
711, 0.36144165114835514
711.5, 0.36144165114835514
712, 0.36166938237119817
712.5, 0.36166938237119817
713, 0.36235257603972704
713.5, 0.36235257603972704
713.9999999999998, 0.3607584574798264
714.4999999999998, 0.3607584574798264
715, 0.36144165114835514
715.5, 0.36144165114835514
716, 0.35939207014276864
716.5, 0.35939207014276864
717, 0.35870887647423977
717.5, 0.35870887647423977
718, 0.36053072625698324
718.5, 0.36053072625698324
719, 0.35961980136561145
719.4999999999998, 0.35961980136561145
720, 0.35757022036002484
720.5, 0.35757022036002484
721, 0.35757022036002484
721.5, 0.35757022036002484
722, 0.35665929546865316
722.5, 0.35665929546865316
723, 0.35392652079453757
723.5, 0.35392652079453757
724, 0.3552929081315953
724.4999999999998, 0.3552929081315953
725, 0.35688702669149597
725.5, 0.35688702669149597
726, 0.3559761018001243
726.5, 0.3559761018001243
727, 0.3550651769087525
727.5, 0.3550651769087525
728, 0.35438198324022363
728.5, 0.35438198324022363
729, 0.35552063935443823
729.4999999999998, 0.35552063935443823
729.9999999999998, 0.35643156424581024
730.5, 0.35643156424581024
731, 0.35483744568590936
731.5, 0.35483744568590936
732, 0.35483744568590936
732.5, 0.35460971446306644
733, 0.35460971446306644
733.5, 0.35665929546865316
734, 0.35665929546865316
734.5, 0.35278786468032286
734.9999999999998, 0.35278786468032286
735.5, 0.3534710583488516
736, 0.3534710583488516
736.5, 0.35278786468032286
737, 0.35278786468032286
737.5, 0.35164920856610815
738, 0.35164920856610815
738.5, 0.34982735878336435
739, 0.34982735878336435
739.5, 0.3493718963376786
739.9999999999998, 0.3493718963376786
740.5, 0.3521046710117941
741, 0.3521046710117941
741.5, 0.3532433271260087
742, 0.3532433271260087
742.5, 0.3511937461204221
743, 0.3511937461204221
743.5, 0.3505105524518932
744, 0.3505105524518932
744.5, 0.34891643389199256
744.9999999999998, 0.34891643389199256
745.4999999999998, 0.3502828212290503
746, 0.3502828212290503
746.5, 0.35073828367473636
747, 0.35073828367473636
747.5, 0.3505105524518932
748, 0.3505105524518932
748.5, 0.3491441651148355
749, 0.3491441651148355
749.5, 0.3493718963376786
750, 0.3493718963376786
750.4999999999998, 0.34959962756052143
751, 0.34959962756052143
751.5, 0.3493718963376786
752, 0.3493718963376786
752.5, 0.34891643389199256
753, 0.34891643389199256
753.5, 0.34982735878336435
754, 0.34982735878336435
754.5, 0.34868870266914975
755, 0.34868870266914975
755.4999999999998, 0.3500550900062075
756, 0.3500550900062075
756.5, 0.3464113904407202
757, 0.3464113904407202
757.5, 0.34572819677219135
758, 0.34572819677219135
758.5, 0.347322315332092
759, 0.347322315332092
759.5, 0.347322315332092
760, 0.3482332402234637
760.4999999999998, 0.3482332402234637
760.9999999999998, 0.3482332402234637
761.5, 0.3482332402234637
762, 0.3484609714463067
762.5, 0.3484609714463067
763, 0.3480055090006209
763.5, 0.3480055090006209
764, 0.3493718963376786
764.5, 0.3493718963376786
765, 0.3482332402234637
765.5, 0.3482332402234637
765.9999999999998, 0.3461836592178771
766.5, 0.3461836592178771
767, 0.34572819677219135
767.5, 0.34572819677219135
768, 0.3464113904407202
768.5, 0.3464113904407202
769, 0.3475500465549348
769.5, 0.3475500465549348
770, 0.3470945841092491
770.5, 0.3470945841092491
770.9999999999998, 0.347322315332092
771.4999999999998, 0.347322315332092
772, 0.34572819677219135
772.5, 0.34572819677219135
773, 0.3461836592178771
773.5, 0.3461836592178771
774, 0.3455004655493482
774.5, 0.3455004655493482
775, 0.3461836592178771
775.5, 0.3461836592178771
775.9999999999998, 0.3475500465549348
776.4999999999998, 0.3475500465549348
777, 0.3455004655493482
777.5, 0.3455004655493482
778, 0.34572819677219135
778.5, 0.34572819677219135
779, 0.34663912166356303
779.5, 0.34663912166356303
780, 0.3441340782122906
780.5, 0.3441340782122906
781, 0.3432231533209187
781.4999999999998, 0.3432231533209187
782, 0.34481727188081934
782.5, 0.34481727188081934
783, 0.34572819677219135
783.5, 0.34572819677219135
784, 0.3461836592178771
784.5, 0.3461836592178771
785, 0.3443618094351336
785.5, 0.3443618094351336
786, 0.3443618094351336
786.4999999999998, 0.34367861576660474
786.9999999999998, 0.34367861576660474
787.5, 0.3434508845437618
788, 0.3434508845437618
788.5, 0.3425399596523898
789, 0.3425399596523898
789.5, 0.341629034761018
790, 0.341629034761018
790.5, 0.3391239913097456
791, 0.3391239913097456
791.4999999999998, 0.33866852886405974
791.9999999999998, 0.33866852886405974
792.5, 0.3400349162011175
793, 0.3400349162011175
793.5, 0.33866852886405974
794, 0.33866852886405974
794.5, 0.3391239913097456
795, 0.3391239913097456
795.5, 0.3400349162011175
796, 0.3400349162011175
796.5, 0.3414013035381752
796.9999999999998, 0.3414013035381752
797.5, 0.34094584109248915
798, 0.34094584109248915
798.5, 0.34071810986964635
799, 0.34071810986964635
799.5, 0.3400349162011175
800, 0.3400349162011175
800.5, 0.33980718497827445
801, 0.33980718497827445
801.5, 0.3384407976412168
801.9999999999998, 0.3384407976412168
802.4999999999998, 0.336618947858473
803, 0.336618947858473
803.5, 0.33866852886405974
804, 0.33866852886405974
804.5, 0.33775760397268795
805, 0.33775760397268795
805.5, 0.336618947858473
806, 0.336618947858473
806.5, 0.3345693668528864
806.9999999999998, 0.3345693668528864
807.4999999999998, 0.3352525605214153
808, 0.3352525605214153
808.5, 0.33616348541278707
809, 0.33616348541278707
809.5, 0.3354802917442583
810, 0.3354802917442583
810.5, 0.33616348541278707
811, 0.33616348541278707
811.5, 0.336618947858473
812, 0.336618947858473
812.4999999999998, 0.336618947858473
813, 0.33479709807572944
813.5, 0.33479709807572944
814, 0.3325197858472998
814.5, 0.3325197858472998
815, 0.33274751707014294
815.5, 0.33274751707014294
816, 0.33320297951582867
816.5, 0.33320297951582867
817, 0.33502482929857247
817.4999999999998, 0.33502482929857247
817.9999999999998, 0.33320297951582867
818.5, 0.33320297951582867
819, 0.3336584419615146
819.5, 0.3336584419615146
820, 0.33183659217877093
820.5, 0.33183659217877093
821, 0.33183659217877093
821.5, 0.33183659217877093
822, 0.33274751707014294
822.4999999999998, 0.33274751707014294
822.9999999999998, 0.3325197858472998
823.5, 0.3325197858472998
824, 0.33183659217877093
824.5, 0.33183659217877093
825, 0.33092566728739914
825.5, 0.33092566728739914
826, 0.331608860955928
826.5, 0.331608860955928
827, 0.33024247361887027
827.5, 0.33024247361887027
827.9999999999998, 0.3313811297330852
828.5, 0.3313811297330852
829, 0.33274751707014294
829.5, 0.33274751707014294
830, 0.33001474239602746
830.5, 0.33001474239602746
831, 0.32978701117318454
831.5, 0.32978701117318454
832, 0.33069793606455633
832.5, 0.33069793606455633
832.9999999999998, 0.3304702048417133
833.4999999999998, 0.3304702048417133
834, 0.3313811297330852
834.5, 0.3313811297330852
835, 0.331608860955928
835.5, 0.331608860955928
836, 0.3313811297330852
836.5, 0.3313811297330852
837, 0.3304702048417133
837.5, 0.3304702048417133
837.9999999999998, 0.32978701117318454
838.4999999999998, 0.32978701117318454
839, 0.32978701117318454
839.5, 0.33092566728739914
840, 0.33092566728739914
840.5, 0.33069793606455633
841, 0.33069793606455633
841.5, 0.33183659217877093
842, 0.33183659217877093
842.5, 0.3325197858472998
843, 0.3325197858472998
843.4999999999998, 0.33206432340161407
844, 0.33206432340161407
844.5, 0.33183659217877093
845, 0.33183659217877093
845.5, 0.33069793606455633
846, 0.33069793606455633
846.5, 0.33115339851024217
847, 0.33115339851024217
847.5, 0.331608860955928
848, 0.331608860955928
848.4999999999998, 0.3313811297330852
848.9999999999998, 0.3313811297330852
849.5, 0.3313811297330852
850, 0.3313811297330852
850.5, 0.3322920546244569
851, 0.3322920546244569
852.5, 0.331608860955928
853, 0.331608860955928
853.4999999999998, 0.3341139044072007
853.9999999999998, 0.3341139044072007
854.5, 0.3334307107386718
855, 0.3334307107386718
855.5, 0.33479709807572944
856, 0.33479709807572944
856.5, 0.3334307107386718
857, 0.3334307107386718
857.5, 0.3343416356300436
858, 0.3343416356300436
858.5, 0.3341139044072007
858.9999999999998, 0.3341139044072007
859.4999999999998, 0.3341139044072007
860, 0.3341139044072007
860.5, 0.33479709807572944
861, 0.33479709807572944
861.5, 0.3343416356300436
862, 0.3343416356300436
862.5, 0.33570802296710134
863, 0.33570802296710134
863.5, 0.33798533519553076
863.9999999999998, 0.33798533519553076
864.4999999999998, 0.3363912166356302
865, 0.3363912166356302
865.5, 0.3363912166356302
866, 0.3370744103041591
866.5, 0.3370744103041591
867, 0.3370744103041591
867.5, 0.3370744103041591
868, 0.336618947858473
868.5, 0.336618947858473
868.9999999999998, 0.33684667908131594
869.4999999999998, 0.33684667908131594
870, 0.3375298727498448
870.5, 0.3375298727498448
871, 0.3391239913097456
871.5, 0.3391239913097456
872, 0.3391239913097456
872.5, 0.3391239913097456
873, 0.33775760397268795
873.5, 0.33775760397268795
874, 0.3384407976412168
874.4999999999998, 0.3384407976412168
874.9999999999998, 0.3391239913097456
875.5, 0.3391239913097456
876, 0.3402626474239603
876.5, 0.3402626474239603
877, 0.3414013035381752
877.5, 0.3414013035381752
878, 0.341629034761018
878.5, 0.341629034761018
879, 0.3395794537554314
879.4999999999998, 0.3395794537554314
879.9999999999998, 0.3402626474239603
880.5, 0.3402626474239603
881, 0.3423122284295469
881.5, 0.3423122284295469
882, 0.34071810986964635
882.5, 0.34071810986964635
883, 0.3414013035381752
883.5, 0.3414013035381752
884, 0.34185676598386094
884.5, 0.34185676598386094
884.9999999999998, 0.3411735723153321
885.5, 0.3411735723153321
886, 0.3429954220980759
886.5, 0.3429954220980759
887, 0.3425399596523898
887.5, 0.3425399596523898
888, 0.3450450031036625
888.5, 0.3450450031036625
889, 0.3452727343265053
889.5, 0.3452727343265053
889.9999999999998, 0.34595592799503416
890.4999999999998, 0.34595592799503416
891, 0.3461836592178771
891.5, 0.3461836592178771
892, 0.3445895406579764
892.5, 0.3445895406579764
893, 0.3445895406579764
893.5, 0.3429954220980759
894, 0.3429954220980759
894.5, 0.3443618094351336
894.9999999999998, 0.3443618094351336
895.4999999999998, 0.3475500465549348
896, 0.3475500465549348
896.5, 0.34686685288640595
897, 0.34686685288640595
897.5, 0.3455004655493482
898, 0.3455004655493482
898.5, 0.3461836592178771
899, 0.3461836592178771
899.5, 0.34686685288640595
900, 0.34686685288640595
900.4999999999998, 0.3484609714463067
901, 0.3484609714463067
901.5, 0.34959962756052143
902, 0.34959962756052143
902.5, 0.3484609714463067
903, 0.3484609714463067
903.5, 0.34777777777777796
904, 0.34777777777777796
904.5, 0.34959962756052143
905, 0.34959962756052143
905.4999999999998, 0.3511937461204221
905.9999999999998, 0.3511937461204221
906.5, 0.3511937461204221
907, 0.3511937461204221
907.5, 0.35142147734326523
908, 0.35142147734326523
908.5, 0.35096601489757917
909, 0.35096601489757917
909.5, 0.3541542520173805
910, 0.3541542520173805
910.4999999999998, 0.35278786468032286
910.9999999999998, 0.35278786468032286
911.5, 0.3530155959031659
912, 0.3530155959031659
912.5, 0.3550651769087525
913, 0.3550651769087525
913.5, 0.3552929081315953
914, 0.3552929081315953
914.5, 0.357114757914339
915, 0.357114757914339
915.5, 0.35552063935443823
915.9999999999998, 0.35552063935443823
916.5, 0.3559761018001243
917, 0.3559761018001243
917.5, 0.35757022036002484
918, 0.35757022036002484
918.5, 0.3591643389199255
919, 0.3591643389199255
919.5, 0.3591643389199255
920, 0.35939207014276864
920.5, 0.35939207014276864
920.9999999999998, 0.361897113594041
921.4999999999998, 0.361897113594041
922, 0.36166938237119817
922.5, 0.36166938237119817
923, 0.36440215704531365
923.5, 0.36440215704531365
924, 0.366907200496586
924.5, 0.366907200496586
925, 0.3659962756052143
925.5, 0.3659962756052143
925.9999999999998, 0.366907200496586
926.4999999999998, 0.366907200496586
927, 0.36736266294227204
927.5, 0.36736266294227204
928, 0.3691845127250155
928.5, 0.3691845127250155
929, 0.3737391371818748
929.5, 0.3737391371818748
930, 0.3716895561762882
930.5, 0.3716895561762882
931, 0.3730559435133459
931.4999999999998, 0.3730559435133459
932, 0.3748777932960894
932.5, 0.3748777932960894
933, 0.37647191185599005
933.5, 0.37647191185599005
934, 0.3778382991930478
934.5, 0.3778382991930478
935, 0.3787492240844197
935.5, 0.3787492240844197
936, 0.38125426753569214
936.4999999999998, 0.38125426753569214
936.9999999999998, 0.3801156114214773
937.5, 0.3801156114214773
938, 0.3839870422098077
938.5, 0.3839870422098077
939, 0.38535342954686547
939.5, 0.38535342954686547
940, 0.3839870422098077
940.5, 0.3839870422098077
941, 0.3855811607697083
941.4999999999998, 0.3855811607697083
941.9999999999998, 0.3880862042209807
942.5, 0.3880862042209807
943, 0.38945259155803846
943.5, 0.38945259155803846
944, 0.3903635164494105
944.5, 0.3903635164494105
945, 0.39127444134078226
945.5, 0.39127444134078226
946, 0.39127444134078226
946.5, 0.3935517535692117
946.9999999999998, 0.3935517535692117
947.4999999999998, 0.39423494723774055
948, 0.39423494723774055
948.5, 0.3935517535692117
949, 0.3935517535692117
949.5, 0.3949181409062694
950, 0.3949181409062694
950.5, 0.39719545313469895
951, 0.39719545313469895
951.5, 0.39810637802607074
951.9999999999998, 0.39810637802607074
952.4999999999998, 0.397650915580385
953, 0.397650915580385
953.5, 0.39992822780881454
954, 0.39992822780881454
954.5, 0.4008391527001862
955, 0.4008391527001862
955.5, 0.401750077591558
956, 0.401750077591558
956.5, 0.40106688392302914
956.9999999999998, 0.40106688392302914
957.4999999999998, 0.4047105834885165
958, 0.4047105834885165
958.5, 0.40402738981998776
959, 0.40402738981998776
959.5, 0.4012946151458723
960, 0.4012946151458723
960.5, 0.4058492396027312
961, 0.4058492396027312
961.5, 0.40789882060831784
962, 0.40789882060831784
962.4999999999998, 0.40721562693978897
962.9999999999998, 0.40721562693978897
963.5, 0.4053937771570454
964, 0.4053937771570454
964.5, 0.4088097454996896
965, 0.4088097454996896
965.5, 0.40812655183116076
966, 0.40812655183116076
966.5, 0.4088097454996896
967, 0.4088097454996896
967.4999999999998, 0.4097206703910615
967.9999999999998, 0.4097206703910615
968.5, 0.4063047020484173
969, 0.4063047020484173
969.5, 0.40994840161390456
970, 0.40994840161390456
970.5, 0.411770251396648
971, 0.411770251396648
971.5, 0.4074433581626319
972, 0.4074433581626319
972.4999999999998, 0.4074433581626319
972.9999999999998, 0.40812655183116076
973.5, 0.40812655183116076
974, 0.40789882060831784
974.5, 0.40789882060831784
975, 0.40493831471135955
975.5, 0.40493831471135955
976, 0.4044828522656735
976.5, 0.4044828522656735
977, 0.4056215083798884
977.5, 0.4056215083798884
977.9999999999998, 0.4033441961514589
978.4999999999998, 0.4033441961514589
979, 0.4033441961514589
979.5, 0.4033441961514589
980, 0.40698789571694616
980.5, 0.40698789571694616
981, 0.4053937771570454
981.5, 0.4053937771570454
982, 0.40311646492861575
982.5, 0.40311646492861575
982.9999999999998, 0.4024332712600869
983.4999999999998, 0.4024332712600869
984, 0.4058492396027312
984.5, 0.4058492396027312
985, 0.4037996585971446
985.5, 0.4037996585971446
986, 0.40220554003724396
986.5, 0.40220554003724396
987, 0.39924503414028556
987.5, 0.39924503414028556
987.9999999999998, 0.3987895716945996
988.4999999999998, 0.3987895716945996
989, 0.4015223463687151
989.5, 0.4015223463687151
990, 0.4035719273743017
990.5, 0.4035719273743017
991, 0.40015595903165735
991.5, 0.40015595903165735
992, 0.3987895716945996
992.5, 0.3987895716945996
993, 0.4006114214773434
993.4999999999998, 0.4006114214773434
993.9999999999998, 0.3997004965859716
994.5, 0.3997004965859716
995, 0.39992822780881454
995.5, 0.39992822780881454
996, 0.397650915580385
996.5, 0.397650915580385
997, 0.3985618404717567
997.5, 0.3985618404717567
998, 0.39901730291744275
998.4999999999998, 0.39901730291744275
998.9999999999998, 0.39901730291744275
999.5, 0.4024332712600869
1000, 0.4024332712600869
1000.5, 0.3994727653631285
1001, 0.3994727653631285
1001.5, 0.3985618404717567
1002, 0.3985618404717567
1002.5, 0.3985618404717567
1003, 0.3985618404717567
1003.4999999999998, 0.40197780881440115
1003.9999999999998, 0.40197780881440115
1004.5, 0.3983341092489139
1005, 0.3983341092489139
1005.5, 0.39901730291744275
1006, 0.39901730291744275
1006.5, 0.3983341092489139
1007, 0.3983341092489139
1007.5, 0.4006114214773434
1008, 0.4006114214773434
1008.5, 0.401750077591558
1008.9999999999998, 0.401750077591558
1009.4999999999998, 0.4006114214773434
1010, 0.4006114214773434
1010.5, 0.40266100248293
1011, 0.40266100248293
1011.5, 0.401750077591558
1012, 0.401750077591558
1012.5, 0.40220554003724396
1013, 0.40220554003724396
1013.5, 0.40425512104283057
1013.9999999999998, 0.40425512104283057
1014.4999999999998, 0.40288873370577283
1015, 0.40288873370577283
1015.5, 0.40402738981998776
1016, 0.40402738981998776
1016.5, 0.40607697082557415
1017, 0.40607697082557415
1017.5, 0.40516604593420236
1018, 0.40516604593420236
1018.5, 0.4065324332712601
1018.9999999999998, 0.4065324332712601
1019.4999999999998, 0.4044828522656735
1020, 0.4044828522656735
1020.5, 0.4085820142768467
1021, 0.4085820142768467
1021.5, 0.41085932650527623
1022, 0.41085932650527623
1022.5, 0.4094929391682185
1023, 0.4094929391682185
1023.5, 0.41085932650527623
1024, 0.41085932650527623
1024.4999999999998, 0.4097206703910615
1024.9999999999998, 0.4097206703910615
1025.5, 0.4097206703910615
1026, 0.41108705772811915
1026.5, 0.41108705772811915
1027, 0.4142752948479207
1027.5, 0.4142752948479207
1028, 0.41381983240223463
1028.5, 0.41381983240223463
1029, 0.4163248758535073
1029.4999999999998, 0.4163248758535073
1029.9999999999998, 0.41404756362507766
1030.5, 0.41404756362507766
1031, 0.411770251396648
1031.5, 0.411770251396648
1032, 0.41769126319056493
1032.5, 0.41769126319056493
1033, 0.417235800744879
1033.5, 0.417235800744879
1034, 0.4195131129733085
1034.4999999999998, 0.4195131129733085
1034.9999999999998, 0.42065176908752344
1035.4999999999998, 0.42065176908752344
1036, 0.4215626939788951
1036.5, 0.4215626939788951
1037, 0.4233845437616387
1037.5, 0.4233845437616387
1038, 0.42179042520173804
1038.5, 0.42179042520173804
1039, 0.41996857541899457
1039.5, 0.41996857541899457
1039.9999999999998, 0.42179042520173804
1040.4999999999998, 0.42179042520173804
1041, 0.42657278088144024
1041.5, 0.42657278088144024
1042, 0.4304442116697703
1042.5, 0.4304442116697703
1043, 0.4281668994413408
1043.5, 0.4281668994413408
1044, 0.4293055555555557
1044.5, 0.4293055555555557
1044.9999999999998, 0.4311274053382992
1045.4999999999998, 0.4311274053382992
1046, 0.432038330229671
1046.5, 0.432038330229671
1047, 0.432038330229671
1047.5, 0.432038330229671
1048, 0.43386018001241466
1048.5, 0.43386018001241466
1049, 0.43932572936064573
1049.5, 0.43932572936064573
1050, 0.43750387957790193
1050.4999999999998, 0.43750387957790193
1050.9999999999998, 0.4388702669149597
1051.5, 0.4388702669149597
1052, 0.43568202979515835
1052.5, 0.43568202979515835
1053, 0.43568202979515835
1053.5, 0.437048417132216
1054, 0.437048417132216
1054.5, 0.44069211669770336
1055, 0.44069211669770336
1055.4999999999998, 0.4400089230291745
1055.9999999999998, 0.4400089230291745
1056.5, 0.4409198479205464
1057, 0.4409198479205464
1057.5, 0.44274169770328986
1058, 0.44274169770328986
1058.5, 0.44843497827436374
1059, 0.44843497827436374
1059.5, 0.44661312849162027
1060, 0.44661312849162027
1060.4999999999998, 0.4468408597144631
1060.9999999999998, 0.4468408597144631
1061.5, 0.44661312849162027
1062, 0.44661312849162027
1062.5, 0.4491181719428926
1063, 0.4491181719428926
1063.5, 0.45230640906269415
1064, 0.45230640906269415
1064.5, 0.45435599006828054
1065, 0.45435599006828054
1065.5, 0.4491181719428926
1065.9999999999998, 0.4491181719428926
1066.4999999999998, 0.4511677529484792
1067, 0.4511677529484792
1067.5, 0.45321733395406594
1068, 0.45321733395406594
1068.5, 0.45435599006828054
1069, 0.45435599006828054
1069.5, 0.4561778398510242
1070, 0.4561778398510242
1070.5, 0.4561778398510242
1070.9999999999998, 0.4561778398510242
1071.4999999999998, 0.4550391837368094
1072, 0.4550391837368094
1072.5, 0.4577719584109249
1073, 0.4577719584109249
1073.5, 0.457088764742396
1074, 0.457088764742396
1074.5, 0.4591383457479826
1075, 0.4591383457479826
1075.5, 0.4550391837368094
1075.9999999999998, 0.4550391837368094
1076.4999999999998, 0.4568610335195531
1077, 0.4568610335195531
1077.5, 0.45936607697082554
1078, 0.45936607697082554
1078.5, 0.4598215394165115
1079, 0.4598215394165115
1079.5, 0.4598215394165115
1080, 0.4607324643078833
1080.5, 0.4607324643078833
1081, 0.4589106145251398
1081.4999999999998, 0.4589106145251398
1081.9999999999998, 0.46232658286778405
1082.5, 0.46232658286778405
1083, 0.46027700186219755
1083.5, 0.46027700186219755
1084, 0.46050473308504036
1084.5, 0.46050473308504036
1085, 0.46141565797641215
1085.5, 0.46141565797641215
1086, 0.4609601955307264
1086.5, 0.4609601955307264
1087, 0.4618711204220982
1087.5, 0.4618711204220982
1088, 0.4627820453134699
1088.5, 0.4627820453134699
1089, 0.4598215394165115
1089.5, 0.4598215394165115
1090, 0.4625543140906271
1090.5, 0.4625543140906271
1091, 0.46323750775915595
1091.5, 0.46323750775915595
1092, 0.4618711204220982
1092.5, 0.4618711204220982
1093, 0.46232658286778405
1093.5, 0.46232658286778405
1094, 0.4591383457479826
1094.5, 0.4591383457479826
1095, 0.4591383457479826
1095.5, 0.4591383457479826
1096, 0.4577719584109249
1096.5, 0.4577719584109249
1097, 0.4609601955307264
1097.5, 0.4609601955307264
1098, 0.4591383457479826
1098.5, 0.4591383457479826
1099, 0.4566333022967103
1099.5, 0.4566333022967103
1100, 0.4566333022967103
1100.5, 0.4566333022967103
1101, 0.45640557107386714
1101.5, 0.45640557107386714
1102, 0.4550391837368094
1102.5, 0.4550391837368094
1103, 0.45139548417132214
1103.5, 0.45139548417132214
1104, 0.4500290968342644
1104.5, 0.4500290968342644
1104.9999999999998, 0.4468408597144631
1105.5, 0.4468408597144631
1106, 0.4468408597144631
1106.5, 0.4450190099317195
1107, 0.4450190099317195
1107.5, 0.44183077281191807
1108, 0.44183077281191807
1108.5, 0.43955346058348865
1109, 0.43955346058348865
1109.4999999999998, 0.4411475791433892
1110, 0.4411475791433892
1110.4999999999998, 0.44228623525760413
1111, 0.44228623525760413
1111.5, 0.4361374922408442
1112, 0.4361374922408442
1112.5, 0.432038330229671
1113, 0.432038330229671
1113.5, 0.4295332867783985
1114, 0.4295332867783985
1114.5, 0.4274837057728119
1114.9999999999998, 0.4274837057728119
1115.5, 0.42657278088144024
1116, 0.42657278088144024
1116.5, 0.4261173184357542
1117, 0.4261173184357542
1117.5, 0.42566185599006845
1118, 0.42566185599006845
1118.5, 0.42179042520173804
1119, 0.42179042520173804
1119.5, 0.41814672563625077
1120, 0.41814672563625077
1120.4999999999998, 0.4183744568590938
1121, 0.4183744568590938
1121.5, 0.41814672563625077
1122, 0.41814672563625077
1122.5, 0.4147307572936064
1123, 0.4147307572936064
1123.5, 0.4094929391682185
1124, 0.4094929391682185
1124.5, 0.4094929391682185
1124.9999999999998, 0.4094929391682185
1125.5, 0.4047105834885165
1125.9999999999998, 0.4047105834885165
1126.5, 0.3997004965859716
1127, 0.3997004965859716
1127.5, 0.39719545313469895
1128, 0.39719545313469895
1128.5, 0.3949181409062694
1129, 0.3949181409062694
1129.5, 0.39400721601489774
1130, 0.39400721601489774
1130.4999999999998, 0.39605679702048424
1131, 0.39605679702048424
1131.5, 0.3953736033519555
1132, 0.3953736033519555
1132.5, 0.3953736033519555
1133, 0.39104671011793934
1133.5, 0.39104671011793934
1134, 0.3887693978895096
1134.5, 0.3887693978895096
1135, 0.387630741775295
1135.5, 0.387630741775295
1135.9999999999998, 0.3839870422098077
1136.5, 0.3839870422098077
1137, 0.3821651924270639
1137.5, 0.3821651924270639
1138, 0.3801156114214773
1138.5, 0.3801156114214773
1139, 0.37920468653010553
1139.5, 0.37920468653010553
1140, 0.37647191185599005
1140.5, 0.37647191185599005
1141, 0.3746500620732466
1141.4999999999998, 0.3746500620732466
1142, 0.3739668684047177
1142.5, 0.3739668684047177
1143, 0.371917287399131
1143.5, 0.371917287399131
1144, 0.3691845127250155
1144.5, 0.3691845127250155
1145, 0.36759039416511485
1145.5, 0.36759039416511485
1145.9999999999998, 0.36759039416511485
1146.5, 0.36759039416511485
1147, 0.36554081315952824
1147.5, 0.36554081315952824
1148, 0.3648576194909994
1148.5, 0.3648576194909994
1149, 0.36462988826815645
1149.5, 0.36462988826815645
1150, 0.3609861887026693
1150.5, 0.3609861887026693
1151, 0.35779795158286776
1151.4999999999998, 0.35779795158286776
1152, 0.3584811452513966
1152.5, 0.3584811452513966
1153, 0.35665929546865316
1153.5, 0.35665929546865316
1154, 0.3552929081315953
1154.5, 0.3552929081315953
1155, 0.35438198324022363
1155.5, 0.35438198324022363
1156, 0.3550651769087525
1156.5, 0.3550651769087525
1156.9999999999998, 0.35369878957169476
1157.5, 0.35369878957169476
1158, 0.35278786468032286
1158.5, 0.35278786468032286
1159, 0.35278786468032286
1159.5, 0.3511937461204221
1160, 0.3511937461204221
1160.5, 0.34959962756052143
1161, 0.34959962756052143
1161.4999999999998, 0.34982735878336435
1162, 0.34982735878336435
1162.5, 0.3470945841092491
1163, 0.3470945841092491
1163.5, 0.3475500465549348
1164, 0.3475500465549348
1164.5, 0.3475500465549348
1165, 0.3475500465549348
1165.5, 0.3470945841092491
1166, 0.3470945841092491
1166.5, 0.3455004655493482
1166.9999999999998, 0.3455004655493482
1167.5, 0.34390634698944755
1168, 0.34390634698944755
1168.5, 0.34367861576660474
1169, 0.34367861576660474
1169.5, 0.3443618094351336
1170, 0.3443618094351336
1170.5, 0.3434508845437618
1171, 0.3434508845437618
1171.5, 0.3404903786468032
1172, 0.3404903786468032
1172.4999999999998, 0.341629034761018
1173, 0.341629034761018
1173.5, 0.34276769087523296
1174, 0.34276769087523296
1174.5, 0.34071810986964635
1175, 0.34071810986964635
1175.5, 0.3395794537554314
1176, 0.3395794537554314
1176.5, 0.33889626008690255
1176.9999999999998, 0.33889626008690255
1177.5, 0.3393517225325886
1178, 0.3393517225325886
1178.5, 0.33775760397268795
1179, 0.33775760397268795
1179.5, 0.33684667908131594
1180, 0.33684667908131594
1180.5, 0.33684667908131594
1181, 0.33684667908131594
1181.5, 0.33570802296710134
1182, 0.33570802296710134
1182.4999999999998, 0.33502482929857247
1183, 0.33502482929857247
1183.5, 0.336618947858473
1184, 0.336618947858473
1184.5, 0.3345693668528864
1185, 0.3345693668528864
1185.5, 0.3336584419615146
1186, 0.3336584419615146
1186.5, 0.3336584419615146
1187, 0.3354802917442583
1187.5, 0.3354802917442583
1187.9999999999998, 0.33479709807572944
1188.5, 0.33479709807572944
1189, 0.3354802917442583
1189.5, 0.3354802917442583
1190, 0.3352525605214153
1190.5, 0.3352525605214153
1191, 0.33479709807572944
1191.5, 0.33479709807572944
1192, 0.3345693668528864
1192.4999999999998, 0.3345693668528864
1193, 0.3336584419615146
1193.5, 0.3336584419615146
1194, 0.33274751707014294
1194.5, 0.33274751707014294
1195, 0.33320297951582867
1195.5, 0.33320297951582867
1196, 0.33092566728739914
1196.5, 0.33092566728739914
1197, 0.3325197858472998
1197.5, 0.3325197858472998
1197.9999999999998, 0.33297524829298575
1198.5, 0.33297524829298575
1199, 0.3336584419615146
1199.5, 0.3336584419615146
1200, 0.331608860955928
1200.5, 0.331608860955928
1201, 0.33115339851024217
1201.5, 0.33115339851024217
1202, 0.33206432340161407
1202.5, 0.33206432340161407
1203, 0.3322920546244569
1203.4999999999998, 0.3322920546244569
1204, 0.33297524829298575
1204.5, 0.33297524829298575
1205, 0.33115339851024217
1205.5, 0.33115339851024217
1206, 0.33183659217877093
1206.5, 0.33183659217877093
1207, 0.33297524829298575
1207.5, 0.33297524829298575
1207.9999999999998, 0.33297524829298575
1208.5, 0.33297524829298575
1208.9999999999998, 0.33274751707014294
1209.5, 0.33274751707014294
1210, 0.33092566728739914
1210.5, 0.33092566728739914
1211, 0.3325197858472998
1211.5, 0.3325197858472998
1212, 0.33092566728739914
1212.5, 0.33092566728739914
1213, 0.33092566728739914
1213.4999999999998, 0.3304702048417133
1214, 0.3304702048417133
1214.5, 0.3304702048417133
1215, 0.3304702048417133
1215.5, 0.3322920546244569
1216, 0.3322920546244569
1216.5, 0.33115339851024217
1217, 0.33115339851024217
1217.5, 0.33001474239602746
1218, 0.33001474239602746
1218.5, 0.33206432340161407
1218.9999999999998, 0.33206432340161407
1219.5, 0.33206432340161407
1220, 0.33206432340161407
1220.5, 0.331608860955928
1221, 0.331608860955928
1221.5, 0.33024247361887027
1222, 0.33024247361887027
1222.5, 0.3313811297330852
1223, 0.3313811297330852
1223.4999999999998, 0.33320297951582867
1224, 0.33320297951582867
1224.4999999999998, 0.3313811297330852
1225, 0.3313811297330852
1225.5, 0.33069793606455633
1226, 0.33069793606455633
1226.5, 0.33001474239602746
1227, 0.33001474239602746
1227.5, 0.3313811297330852
1228, 0.3313811297330852
1228.5, 0.33274751707014294
1228.9999999999998, 0.33274751707014294
1229.5, 0.331608860955928
1230, 0.331608860955928
1230.5, 0.331608860955928
1231, 0.331608860955928
1231.5, 0.33115339851024217
1232, 0.33115339851024217
1232.5, 0.33001474239602746
1233, 0.33001474239602746
1233.5, 0.3313811297330852
1234, 0.3313811297330852
1234.4999999999998, 0.33115339851024217
1235, 0.33115339851024217
1235.5, 0.33001474239602746
1236, 0.33001474239602746
1236.5, 0.33183659217877093
1237, 0.33183659217877093
1237.5, 0.331608860955928
1238, 0.331608860955928
1238.5, 0.3304702048417133
1238.9999999999998, 0.3304702048417133
1239.5, 0.3304702048417133
1239.9999999999998, 0.33183659217877093
1240.5, 0.33183659217877093
1241, 0.33206432340161407
1241.5, 0.33206432340161407
1242, 0.3295592799503414
1242.5, 0.3295592799503414
1243, 0.32978701117318454
1243.5, 0.32978701117318454
1244, 0.33183659217877093
1244.4999999999998, 0.33183659217877093
1245, 0.33001474239602746
1245.5, 0.33001474239602746
1246, 0.32819289261328366
1246.5, 0.32819289261328366
1247, 0.3313811297330852
1247.5, 0.3313811297330852
1248, 0.33297524829298575
1248.5, 0.33297524829298575
1249, 0.33092566728739914
1249.5, 0.33092566728739914
1249.9999999999998, 0.33115339851024217
1250.5, 0.33115339851024217
1251, 0.33069793606455633
1251.5, 0.33069793606455633
1252, 0.33069793606455633
1252.5, 0.33069793606455633
1253, 0.3295592799503414
1253.5, 0.3295592799503414
1254, 0.3295592799503414
1254.4999999999998, 0.3295592799503414
1255, 0.3313811297330852
1255.4999999999998, 0.3313811297330852
1256, 0.33092566728739914
1256.5, 0.33092566728739914
1257, 0.33069793606455633
1257.5, 0.33069793606455633
1258, 0.33092566728739914
1258.5, 0.33092566728739914
1259, 0.32978701117318454
1259.5, 0.32978701117318454
1259.9999999999998, 0.33115339851024217
1260.5, 0.33115339851024217
1261, 0.3322920546244569
1261.5, 0.3322920546244569
1262, 0.3295592799503414
1262.5, 0.3295592799503414
1263, 0.33092566728739914
1263.5, 0.33092566728739914
1264, 0.3325197858472998
1264.5, 0.3325197858472998
1265, 0.33024247361887027
1265.4999999999998, 0.33024247361887027
1266, 0.33024247361887027
1266.5, 0.33001474239602746
1267, 0.33001474239602746
1267.5, 0.33274751707014294
1268, 0.33274751707014294
1268.5, 0.3313811297330852
1269, 0.3313811297330852
1269.5, 0.33001474239602746
1269.9999999999998, 0.33001474239602746
1270.5, 0.33069793606455633
1270.9999999999998, 0.33069793606455633
1271.5, 0.3313811297330852
1272, 0.3313811297330852
1272.5, 0.33024247361887027
1273, 0.33024247361887027
1273.5, 0.3295592799503414
1274, 0.3295592799503414
1274.5, 0.33115339851024217
1275, 0.33115339851024217
1275.4999999999998, 0.33320297951582867
1276, 0.33320297951582867
1276.5, 0.3325197858472998
1277, 0.3325197858472998
1277.5, 0.33069793606455633
1278, 0.33069793606455633
1278.5, 0.3304702048417133
1279, 0.3304702048417133
1279.5, 0.32796516139044074
1280, 0.32796516139044074
1280.5, 0.3295592799503414
1280.9999999999998, 0.3295592799503414
1281.5, 0.33092566728739914
1282, 0.33092566728739914
1282.5, 0.33001474239602746
1283, 0.33001474239602746
1283.5, 0.33069793606455633
1284, 0.33069793606455633
1284.5, 0.33092566728739914
1285, 0.33092566728739914
1285.4999999999998, 0.3304702048417133
1286, 0.3304702048417133
1286.4999999999998, 0.33069793606455633
1287, 0.33069793606455633
1287.5, 0.3304702048417133
1288, 0.3304702048417133
1288.5, 0.33183659217877093
1289, 0.33183659217877093
1289.5, 0.3313811297330852
1290, 0.3313811297330852
1290.5, 0.33069793606455633
1290.9999999999998, 0.33069793606455633
1291.5, 0.3304702048417133
1292, 0.3304702048417133
1292.5, 0.3304702048417133
1293, 0.3293315487274985
1293.5, 0.3293315487274985
1294, 0.33024247361887027
1294.5, 0.33024247361887027
1295, 0.3304702048417133
1295.5, 0.3304702048417133
1296, 0.32887608628181253
1296.4999999999998, 0.32887608628181253
1297, 0.33092566728739914
1297.5, 0.33092566728739914
