202.49999999999997, 0.5730039571694601
203, 0.5730039571694601
203.5, 0.572548494723774
204, 0.572548494723774
204.5, 0.5736871508379888
205, 0.5736871508379888
205.5, 0.5734594196151459
206, 0.5734594196151459
206.5, 0.5739148820608317
207, 0.5739148820608317
207.5, 0.5736871508379888
208, 0.5736871508379888
208.5, 0.5730039571694601
208.99999999999997, 0.5730039571694601
209.5, 0.573231688392303
210, 0.573231688392303
210.5, 0.5736871508379888
211, 0.5736871508379888
211.49999999999997, 0.5734594196151459
212, 0.5734594196151459
212.5, 0.5730039571694601
213, 0.5730039571694601
213.5, 0.5730039571694601
214, 0.5730039571694601
214.5, 0.5730039571694601
215, 0.5730039571694601
226, 0.5714098386095594
226.5, 0.5714098386095594
227, 0.5714098386095594
227.5, 0.5714098386095594
228, 0.5718653010552452
228.5, 0.5718653010552452
229, 0.5716375698324023
229.5, 0.5716375698324023
230, 0.5714098386095594
230.5, 0.5714098386095594
230.99999999999997, 0.5718653010552452
231.5, 0.5718653010552452
232, 0.5714098386095594
232.5, 0.5714098386095594
233, 0.5723207635009311
233.49999999999997, 0.5723207635009311
234, 0.5720930322780882
234.5, 0.5720930322780882
235, 0.5720930322780882
236, 0.5709543761638733
236.5, 0.5709543761638733
237, 0.5707266449410304
237.49999999999997, 0.5707266449410304
238, 0.5718653010552452
238.5, 0.5718653010552452
241, 0.5709543761638733
241.5, 0.5709543761638733
242, 0.5711821073867163
242.5, 0.5711821073867163
243, 0.5716375698324023
243.5, 0.5716375698324023
243.99999999999997, 0.5720930322780882
244.5, 0.5720930322780882
245, 0.5714098386095594
245.5, 0.5714098386095594
256.5, 0.5716375698324023
257, 0.5716375698324023
257.5, 0.5720930322780882
258.5, 0.5718653010552452
259, 0.5718653010552452
259.5, 0.5718653010552452
260, 0.5718653010552452
260.5, 0.5711821073867163
261, 0.5711821073867163
263.5, 0.5709543761638733
264, 0.5709543761638733
264.5, 0.5702711824953446
265, 0.5702711824953446
265.5, 0.5716375698324023
266, 0.5716375698324023
266.5, 0.5716375698324023
267, 0.5716375698324023
267.5, 0.572548494723774
268, 0.572548494723774
268.5, 0.5718653010552452
269, 0.5718653010552452
285, 0.5709543761638733
285.5, 0.5709543761638733
302, 0.5718653010552452
302.5, 0.5718653010552452
303.5, 0.572776225946617
304, 0.5720930322780882
304.5, 0.5720930322780882
305, 0.5714098386095594
305.5, 0.5714098386095594
306, 0.5714098386095594
306.5, 0.5723207635009311
307, 0.5723207635009311
307.5, 0.572548494723774
308, 0.572548494723774
308.5, 0.572548494723774
309, 0.572548494723774
309.5, 0.572776225946617
310, 0.572776225946617
310.5, 0.5720930322780882
311, 0.5720930322780882
311.5, 0.5720930322780882
312, 0.5720930322780882
312.5, 0.573231688392303
313, 0.573231688392303
313.5, 0.572776225946617
314, 0.572776225946617
314.5, 0.5720930322780882
315, 0.5720930322780882
315.5, 0.5720930322780882
316, 0.5720930322780882
322.5, 0.5730039571694601
323, 0.5730039571694601
323.5, 0.572548494723774
324, 0.572548494723774
324.5, 0.572548494723774
325, 0.572548494723774
325.5, 0.5730039571694601
326, 0.5730039571694601
326.5, 0.572776225946617
327, 0.572776225946617
327.49999999999994, 0.5736871508379888
328, 0.5736871508379888
328.5, 0.572776225946617
329, 0.572776225946617
329.5, 0.5720930322780882
329.99999999999994, 0.5720930322780882
330.5, 0.5730039571694601
331, 0.5730039571694601
331.5, 0.572776225946617
332, 0.572776225946617
332.49999999999994, 0.572776225946617
333, 0.5730039571694601
333.5, 0.5730039571694601
334, 0.5736871508379888
334.5, 0.5736871508379888
334.99999999999994, 0.5730039571694601
335.5, 0.5730039571694601
336, 0.5730039571694601
336.5, 0.5730039571694601
337, 0.572776225946617
337.5, 0.572776225946617
338, 0.5723207635009311
338.5, 0.5723207635009311
339, 0.5734594196151459
339.5, 0.5734594196151459
340, 0.5734594196151459
340.5, 0.5734594196151459
341, 0.573231688392303
341.5, 0.573231688392303
342, 0.5739148820608317
342.5, 0.5739148820608317
342.99999999999994, 0.5736871508379888
343.5, 0.5736871508379888
344, 0.5743703445065178
344.5, 0.5743703445065178
345, 0.5745980757293607
345.49999999999994, 0.5745980757293607
346, 0.5739148820608317
346.5, 0.5739148820608317
347, 0.5739148820608317
347.5, 0.5739148820608317
347.99999999999994, 0.5739148820608317
348.5, 0.5739148820608317
349, 0.5736871508379888
349.5, 0.5736871508379888
350, 0.5743703445065178
350.49999999999994, 0.5743703445065178
351, 0.5748258069522036
351.5, 0.5748258069522036
352, 0.5745980757293607
352.5, 0.5745980757293607
353, 0.5739148820608317
353.5, 0.5739148820608317
354, 0.5734594196151459
354.5, 0.5734594196151459
355, 0.572776225946617
355.5, 0.572776225946617
356, 0.572548494723774
356.5, 0.572548494723774
357, 0.5723207635009311
357.5, 0.5723207635009311
358, 0.5736871508379888
358.49999999999994, 0.5736871508379888
359, 0.5736871508379888
359.5, 0.573231688392303
360, 0.573231688392303
360.5, 0.5736871508379888
360.99999999999994, 0.5736871508379888
361.5, 0.5752812693978895
362, 0.5752812693978895
362.5, 0.5745980757293607
363, 0.5745980757293607
363.49999999999994, 0.5745980757293607
364, 0.5745980757293607
364.5, 0.5748258069522036
365, 0.5748258069522036
365.5, 0.5757367318435755
365.99999999999994, 0.5757367318435755
366.5, 0.5752812693978895
367, 0.5752812693978895
367.5, 0.5757367318435755
368, 0.5757367318435755
368.5, 0.5757367318435755
369, 0.5757367318435755
369.5, 0.5759644630664185
370, 0.5759644630664185
370.5, 0.5755090006207324
371, 0.5755090006207324
371.49999999999994, 0.5750535381750466
372, 0.5750535381750466
372.5, 0.5759644630664185
373, 0.5759644630664185
373.5, 0.5755090006207324
373.99999999999994, 0.5755090006207324
374.5, 0.5757367318435755
375, 0.5757367318435755
375.5, 0.5752812693978895
376, 0.5752812693978895
376.49999999999994, 0.5745980757293607
377, 0.5745980757293607
377.5, 0.5757367318435755
378, 0.5757367318435755
378.5, 0.5755090006207324
378.99999999999994, 0.5755090006207324
379.5, 0.5755090006207324
380, 0.5755090006207324
380.5, 0.5764199255121043
381, 0.5764199255121043
381.5, 0.5764199255121043
382, 0.5764199255121043
382.5, 0.5771031191806332
383, 0.5771031191806332
383.5, 0.5773308504034762
384, 0.5773308504034762
384.5, 0.5761921942892614
385, 0.5761921942892614
385.5, 0.5761921942892614
386, 0.5759644630664185
386.5, 0.5759644630664185
386.99999999999994, 0.5768753879577901
387.5, 0.5768753879577901
388, 0.5771031191806332
388.5, 0.5771031191806332
389, 0.5759644630664185
389.49999999999994, 0.5759644630664185
390, 0.5764199255121043
390.5, 0.5764199255121043
391, 0.5757367318435755
391.5, 0.5757367318435755
391.99999999999994, 0.5757367318435755
392.5, 0.5757367318435755
393, 0.5768753879577901
393.5, 0.5768753879577901
394, 0.5766476567349472
394.49999999999994, 0.5766476567349472
395, 0.5771031191806332
395.5, 0.5771031191806332
396, 0.5768753879577901
396.5, 0.5768753879577901
397, 0.5775585816263191
397.5, 0.5775585816263191
398, 0.5771031191806332
398.5, 0.5771031191806332
399, 0.5771031191806332
399.5, 0.5771031191806332
400, 0.5764199255121043
400.5, 0.5764199255121043
401, 0.5771031191806332
401.5, 0.5771031191806332
402, 0.5775585816263191
402.49999999999994, 0.5775585816263191
403, 0.577786312849162
403.5, 0.577786312849162
404, 0.5768753879577901
404.5, 0.5768753879577901
404.99999999999994, 0.5768753879577901
405.5, 0.5768753879577901
406, 0.5766476567349472
406.5, 0.5766476567349472
407, 0.5775585816263191
407.49999999999994, 0.5775585816263191
408, 0.5764199255121043
408.5, 0.5764199255121043
409, 0.577786312849162
409.5, 0.577786312849162
409.99999999999994, 0.5773308504034762
410.5, 0.5773308504034762
411, 0.5784695065176909
411.5, 0.5784695065176909
412, 0.5784695065176909
412.5, 0.578014044072005
413, 0.578014044072005
413.5, 0.5775585816263191
414, 0.5775585816263191
414.5, 0.578014044072005
415, 0.578014044072005
415.49999999999994, 0.5784695065176909
416, 0.5784695065176909
416.5, 0.5782417752948479
417, 0.5782417752948479
417.5, 0.5775585816263191
417.99999999999994, 0.5775585816263191
418.5, 0.5775585816263191
419, 0.5775585816263191
419.5, 0.5782417752948479
420, 0.5782417752948479
420.49999999999994, 0.5782417752948479
421, 0.5782417752948479
421.5, 0.5786972377405339
422, 0.5786972377405339
422.5, 0.5784695065176909
422.99999999999994, 0.5784695065176909
423.5, 0.5784695065176909
424, 0.5784695065176909
424.5, 0.5784695065176909
425, 0.5784695065176909
425.49999999999994, 0.5789249689633769
426, 0.5789249689633769
426.5, 0.5784695065176909
427, 0.5784695065176909
427.5, 0.5784695065176909
428, 0.5784695065176909
428.5, 0.5789249689633769
429, 0.5789249689633769
429.5, 0.5791527001862198
430, 0.5791527001862198
430.5, 0.5791527001862198
430.99999999999994, 0.5791527001862198
431.5, 0.5791527001862198
432, 0.5791527001862198
432.5, 0.5796081626319056
433, 0.5796081626319056
433.49999999999994, 0.5796081626319056
434, 0.5796081626319056
434.5, 0.5793804314090627
435, 0.5793804314090627
435.5, 0.5793804314090627
435.99999999999994, 0.5793804314090627
436.5, 0.5796081626319056
437, 0.5796081626319056
437.5, 0.5793804314090627
438, 0.5793804314090627
438.49999999999994, 0.5793804314090627
439, 0.5796081626319056
439.5, 0.5796081626319056
440, 0.5796081626319056
440.5, 0.5796081626319056
440.99999999999994, 0.5798358938547485
441.5, 0.5798358938547485
442, 0.5798358938547485
442.5, 0.5798358938547485
443, 0.5798358938547485
443.5, 0.5798358938547485
444, 0.5789249689633769
444.5, 0.5789249689633769
445, 0.5798358938547485
445.5, 0.5798358938547485
446, 0.5796081626319056
446.49999999999994, 0.5796081626319056
447, 0.5800636250775917
447.5, 0.5800636250775917
448, 0.5807468187461204
448.5, 0.5807468187461204
448.99999999999994, 0.5809745499689634
449.5, 0.5809745499689634
450, 0.5802913563004346
450.5, 0.5802913563004346
451, 0.5800636250775917
451.49999999999994, 0.5800636250775917
452, 0.5802913563004346
452.5, 0.5802913563004346
453, 0.5809745499689634
453.5, 0.5809745499689634
453.99999999999994, 0.5809745499689634
454.5, 0.5809745499689634
455, 0.5798358938547485
455.5, 0.5798358938547485
456, 0.5796081626319056
456.5, 0.5796081626319056
457, 0.5800636250775917
457.5, 0.5800636250775917
458, 0.5805190875232775
458.5, 0.5805190875232775
459, 0.5805190875232775
459.49999999999994, 0.5805190875232775
460, 0.5798358938547485
460.5, 0.5798358938547485
461, 0.5796081626319056
461.5, 0.5796081626319056
461.99999999999994, 0.5805190875232775
462.5, 0.5805190875232775
463, 0.5812022811918063
463.5, 0.5812022811918063
464, 0.5807468187461204
464.49999999999994, 0.5807468187461204
465, 0.5800636250775917
465.5, 0.5800636250775917
466, 0.5800636250775917
466.5, 0.5800636250775917
466.99999999999994, 0.5800636250775917
467.5, 0.5809745499689634
468, 0.5809745499689634
468.5, 0.5802913563004346
469, 0.5802913563004346
469.49999999999994, 0.5805190875232775
470, 0.5805190875232775
470.5, 0.5800636250775917
471, 0.5800636250775917
471.5, 0.5805190875232775
472, 0.5805190875232775
472.5, 0.5812022811918063
473, 0.5812022811918063
473.5, 0.5802913563004346
474, 0.5802913563004346
474.5, 0.5789249689633769
474.99999999999994, 0.5789249689633769
475.5, 0.5789249689633769
476, 0.5789249689633769
476.5, 0.5789249689633769
477, 0.5789249689633769
477.49999999999994, 0.5784695065176909
478, 0.5784695065176909
478.5, 0.5786972377405339
479, 0.5786972377405339
479.5, 0.5786972377405339
479.99999999999994, 0.5786972377405339
480.5, 0.5798358938547485
481, 0.5798358938547485
481.5, 0.5782417752948479
482, 0.5782417752948479
482.49999999999994, 0.5782417752948479
483, 0.5782417752948479
483.5, 0.577786312849162
484, 0.577786312849162
484.5, 0.5771031191806332
484.99999999999994, 0.5771031191806332
485.5, 0.5775585816263191
486, 0.5775585816263191
486.5, 0.5775585816263191
487, 0.5775585816263191
487.5, 0.5775585816263191
488, 0.5775585816263191
488.5, 0.5773308504034762
489, 0.5773308504034762
489.5, 0.578014044072005
490, 0.578014044072005
490.49999999999994, 0.578014044072005
491, 0.578014044072005
491.5, 0.577786312849162
492, 0.577786312849162
492.5, 0.577786312849162
492.99999999999994, 0.578014044072005
493.5, 0.578014044072005
494, 0.5775585816263191
494.5, 0.5775585816263191
495, 0.5782417752948479
495.49999999999994, 0.5782417752948479
496, 0.5775585816263191
496.5, 0.5775585816263191
497, 0.5764199255121043
497.5, 0.5764199255121043
497.99999999999994, 0.5766476567349472
498.5, 0.5766476567349472
499, 0.5773308504034762
499.5, 0.5773308504034762
500, 0.5764199255121043
500.49999999999994, 0.5764199255121043
501, 0.5766476567349472
501.5, 0.5766476567349472
502, 0.5766476567349472
502.5, 0.5766476567349472
503, 0.5771031191806332
503.49999999999994, 0.5771031191806332
504, 0.5771031191806332
504.5, 0.5771031191806332
505, 0.5766476567349472
505.5, 0.5766476567349472
505.99999999999994, 0.5764199255121043
506.5, 0.5764199255121043
507, 0.5768753879577901
507.5, 0.5768753879577901
508, 0.5759644630664185
508.49999999999994, 0.5759644630664185
509, 0.5764199255121043
509.5, 0.5764199255121043
510, 0.5771031191806332
510.5, 0.5771031191806332
510.99999999999994, 0.5775585816263191
511.5, 0.5775585816263191
512, 0.5771031191806332
512.5, 0.5771031191806332
513, 0.577786312849162
513.5, 0.577786312849162
514, 0.5771031191806332
514.5, 0.5771031191806332
515, 0.5775585816263191
515.5, 0.5775585816263191
516, 0.5773308504034762
516.5, 0.5773308504034762
517, 0.5771031191806332
517.5, 0.5771031191806332
518, 0.5773308504034762
518.5, 0.5773308504034762
519, 0.5773308504034762
519.5, 0.5775585816263191
520, 0.5775585816263191
520.5, 0.5784695065176909
521, 0.5784695065176909
521.5, 0.577786312849162
522, 0.577786312849162
522.5, 0.5791527001862198
523, 0.5791527001862198
523.5, 0.5802913563004346
524, 0.5802913563004346
524.5, 0.5798358938547485
525, 0.5798358938547485
525.5, 0.5798358938547485
526, 0.5798358938547485
526.5, 0.5805190875232775
527, 0.5805190875232775
527.5, 0.5812022811918063
528, 0.5812022811918063
528.5, 0.582568668528864
529, 0.582568668528864
529.5, 0.5823409373060211
530, 0.5823409373060211
530.5, 0.582796399751707
531, 0.582796399751707
531.5, 0.5839350558659218
532, 0.5839350558659218
532.5, 0.5848459807572937
533, 0.5848459807572937
533.5, 0.5853014432029795
534, 0.5853014432029795
534.5, 0.5862123680943514
535, 0.5862123680943514
535.5, 0.5868955617628802
536, 0.5868955617628802
536.5, 0.5878064866542521
537, 0.5878064866542521
537.5, 0.588717411545624
538, 0.588717411545624
538.5, 0.5896283364369956
539, 0.5896283364369956
539.5, 0.5903115301055246
540, 0.5903115301055246
540.5, 0.5914501862197393
541, 0.5914501862197393
541.5, 0.5916779174425824
542, 0.5916779174425824
542.5, 0.5941829608938547
543, 0.5941829608938547
543.5, 0.5953216170080695
544, 0.5953216170080695
544.5, 0.5957770794537555
545, 0.5957770794537555
545.5, 0.5957770794537555
546, 0.5975989292364992
546.5, 0.5975989292364992
547, 0.5989653165735568
547.5, 0.5989653165735568
548, 0.5996485102420857
548.5, 0.5996485102420857
549, 0.5994207790192427
549.5, 0.5994207790192427
550, 0.6007871663563005
550.5, 0.6007871663563005
551, 0.6019258224705153
551.5, 0.6019258224705153
552, 0.603519941030416
552.5, 0.603519941030416
553, 0.6044308659217877
553.5, 0.6044308659217877
554, 0.6048863283674737
554.5, 0.6048863283674737
555, 0.6053417908131595
555.5, 0.6053417908131595
556, 0.6069359093730602
556.5, 0.6069359093730602
557, 0.6083022967101179
557.5, 0.6083022967101179
558, 0.608074565487275
558.5, 0.608074565487275
559, 0.6085300279329608
559.5, 0.6085300279329608
560, 0.6096686840471757
560.5, 0.6096686840471757
561, 0.6089854903786469
561.5, 0.6089854903786469
562, 0.6094409528243327
562.5, 0.6094409528243327
563, 0.6096686840471757
563.5, 0.6096686840471757
564, 0.6098964152700186
564.5, 0.6098964152700186
565, 0.6110350713842334
565.5, 0.6110350713842334
566, 0.6112628026070763
566.5, 0.6112628026070763
567, 0.6110350713842334
567.5, 0.6110350713842334
568, 0.6105796089385476
568.5, 0.6105796089385476
569, 0.6110350713842334
569.5, 0.6110350713842334
570, 0.6112628026070763
570.5, 0.6112628026070763
571, 0.6117182650527623
571.5, 0.6117182650527623
572, 0.6117182650527623
572.5, 0.6103518777157046
573, 0.6103518777157046
573.5, 0.6103518777157046
574, 0.6103518777157046
574.5, 0.6098964152700186
575, 0.6098964152700186
575.5, 0.6101241464928615
576, 0.6101241464928615
576.5, 0.6098964152700186
577, 0.6098964152700186
577.5, 0.6101241464928615
578, 0.6101241464928615
578.5, 0.6105796089385476
579, 0.6105796089385476
579.5, 0.6094409528243327
580, 0.6094409528243327
580.5, 0.6094409528243327
581, 0.6094409528243327
581.5, 0.6083022967101179
582, 0.6083022967101179
582.5, 0.6076191030415892
583, 0.6076191030415892
583.5, 0.6071636405959031
584, 0.6071636405959031
584.5, 0.6073913718187461
584.9999999999998, 0.6073913718187461
585.5, 0.6067081781502173
586, 0.6067081781502173
586.5, 0.6057972532588454
587, 0.6057972532588454
587.5, 0.6051140595903166
588, 0.6051140595903166
588.5, 0.6046585971446308
589, 0.6046585971446308
589.5, 0.6039754034761018
589.9999999999998, 0.6039754034761018
590.5, 0.6039754034761018
591, 0.6039754034761018
591.5, 0.6032922098075729
592, 0.6032922098075729
592.5, 0.60306447858473
593, 0.60306447858473
593.5, 0.602609016139044
594, 0.602609016139044
594.5, 0.6014703600248292
594.9999999999998, 0.6014703600248292
595.5, 0.6010148975791434
596, 0.6010148975791434
596.5, 0.6001039726877716
597, 0.6001039726877716
597.5, 0.5994207790192427
598, 0.5994207790192427
598.5, 0.5982821229050279
599, 0.5982821229050279
599.5, 0.5982821229050279
600, 0.5982821229050279
600.4999999999998, 0.5982821229050279
601, 0.5971434667908131
601.5, 0.5971434667908131
602, 0.5966880043451273
602.5, 0.5966880043451273
603, 0.5964602731222843
603.5, 0.5964602731222843
604, 0.5950938857852266
604.5, 0.5950938857852266
605, 0.5941829608938547
605.4999999999998, 0.5941829608938547
606, 0.5930443047796401
606.5, 0.5930443047796401
607, 0.5914501862197393
607.5, 0.5914501862197393
608, 0.5919056486654253
608.5, 0.5919056486654253
609, 0.5903115301055246
609.5, 0.5903115301055246
610, 0.5889451427684669
610.4999999999998, 0.5889451427684669
610.9999999999998, 0.5889451427684669
611.5, 0.5889451427684669
612, 0.5891728739913098
612.5, 0.5891728739913098
613, 0.5878064866542521
613.5, 0.5878064866542521
614, 0.5866678305400372
614.5, 0.5866678305400372
615, 0.5855291744258224
615.5, 0.5855291744258224
615.9999999999998, 0.5855291744258224
616.5, 0.5855291744258224
617, 0.5846182495344507
617.5, 0.5846182495344507
618, 0.5834795934202359
618.5, 0.5834795934202359
619, 0.582796399751707
619.5, 0.582796399751707
620, 0.5818854748603353
620.5, 0.5818854748603353
620.9999999999998, 0.5816577436374923
621.5, 0.5816577436374923
622, 0.5812022811918063
622.5, 0.5812022811918063
623, 0.5800636250775917
623.5, 0.5800636250775917
624, 0.5798358938547485
624.5, 0.5798358938547485
625, 0.5786972377405339
625.5, 0.5786972377405339
625.9999999999998, 0.5786972377405339
626.4999999999998, 0.578014044072005
627, 0.578014044072005
627.5, 0.5773308504034762
628, 0.5773308504034762
628.5, 0.5771031191806332
629, 0.5771031191806332
629.5, 0.5757367318435755
630, 0.5757367318435755
630.5, 0.5745980757293607
631, 0.5745980757293607
631.4999999999998, 0.5743703445065178
632, 0.5743703445065178
632.5, 0.5741426132836748
633, 0.5741426132836748
633.5, 0.5730039571694601
634, 0.5730039571694601
634.5, 0.5723207635009311
635, 0.5723207635009311
635.5, 0.5723207635009311
636, 0.5723207635009311
636.4999999999998, 0.572776225946617
637, 0.572776225946617
637.5, 0.5720930322780882
638, 0.5720930322780882
638.5, 0.5711821073867163
639, 0.5711821073867163
639.5, 0.5711821073867163
640, 0.5711821073867163
640.5, 0.5707266449410304
641, 0.5707266449410304
641.4999999999998, 0.5702711824953446
641.9999999999998, 0.5702711824953446
642.5, 0.5698157200496586
643, 0.5698157200496586
643.5, 0.5693602576039727
644, 0.5693602576039727
644.5, 0.5689047951582868
645, 0.5689047951582868
645.5, 0.567993870266915
646, 0.567993870266915
646.5, 0.5668552141527001
646.9999999999998, 0.5668552141527001
647.5, 0.5668552141527001
648, 0.5668552141527001
648.5, 0.5659442892613284
649, 0.5659442892613284
649.5, 0.5657165580384855
650, 0.5657165580384855
650.5, 0.5652610955927995
651, 0.5652610955927995
651.5, 0.5645779019242707
651.9999999999998, 0.5645779019242707
652.5, 0.5645779019242707
653, 0.5638947082557417
653.5, 0.5638947082557417
654, 0.5641224394785848
654.5, 0.5641224394785848
655, 0.5636669770328988
655.5, 0.5636669770328988
656, 0.5634392458100559
656.5, 0.5634392458100559
656.9999999999998, 0.562528320918684
657.4999999999998, 0.562528320918684
658, 0.5618451272501552
658.5, 0.5618451272501552
659, 0.5611619335816264
659.5, 0.5611619335816264
660, 0.5611619335816264
660.5, 0.5611619335816264
661, 0.5609342023587833
661.5, 0.5609342023587833
662, 0.5600232774674117
662.4999999999998, 0.5600232774674117
663, 0.5593400837988827
663.5, 0.5593400837988827
664, 0.5597955462445686
664.5, 0.5597955462445686
665, 0.5595678150217256
665.5, 0.5595678150217256
666, 0.558429158907511
666.5, 0.558429158907511
667, 0.557745965238982
667.4999999999998, 0.557745965238982
668, 0.5575182340161391
668.5, 0.5575182340161391
669, 0.5570627715704533
669.5, 0.5570627715704533
670, 0.5570627715704533
670.5, 0.5570627715704533
671, 0.5566073091247672
671.5, 0.5566073091247672
672, 0.5556963842333955
672.4999999999998, 0.5556963842333955
672.9999999999998, 0.5559241154562384
673.5, 0.5559241154562384
674, 0.5550131905648665
674.5, 0.5550131905648665
675, 0.5543299968963378
675.5, 0.5543299968963378
676, 0.5543299968963378
676.5, 0.5543299968963378
677, 0.5536468032278088
677.5, 0.5536468032278088
677.9999999999998, 0.5538745344506517
678.5, 0.5538745344506517
679, 0.5538745344506517
679.5, 0.5538745344506517
680, 0.5538745344506517
680.5, 0.55296360955928
681, 0.55296360955928
681.5, 0.552508147113594
682, 0.552508147113594
682.5, 0.5527358783364371
682.9999999999998, 0.5527358783364371
683.5, 0.552280415890751
684, 0.552280415890751
684.5, 0.5518249534450652
685, 0.5518249534450652
685.5, 0.5511417597765363
686, 0.5511417597765363
686.5, 0.5506862973308504
687, 0.5506862973308504
687.5, 0.5511417597765363
687.9999999999998, 0.5511417597765363
688.4999999999998, 0.5506862973308504
689, 0.5506862973308504
689.5, 0.5502308348851646
690, 0.5502308348851646
690.5, 0.5497753724394787
691, 0.5497753724394787
691.5, 0.5493199099937927
692, 0.5493199099937927
692.5, 0.5490921787709497
693, 0.5490921787709497
693.4999999999998, 0.5486367163252639
694, 0.5486367163252639
694.5, 0.548408985102421
695, 0.548408985102421
695.5, 0.547725791433892
696, 0.547725791433892
696.5, 0.5474980602110491
697, 0.5474980602110491
697.5, 0.5479535226567349
698, 0.5479535226567349
698.4999999999998, 0.5472703289882062
698.9999999999998, 0.5472703289882062
699.5, 0.5470425977653632
700, 0.5470425977653632
700.5, 0.5470425977653632
701, 0.5470425977653632
701.5, 0.5468148665425202
702, 0.5468148665425202
702.5, 0.5463594040968343
703, 0.5463594040968343
703.4999999999998, 0.5459039416511484
703.9999999999998, 0.5459039416511484
704.5, 0.5456762104283055
705, 0.5456762104283055
705.5, 0.5456762104283055
706, 0.5454484792054626
706.5, 0.5454484792054626
707, 0.5456762104283055
707.5, 0.5456762104283055
708, 0.5447652855369336
708.5, 0.5447652855369336
708.9999999999998, 0.5443098230912478
709.5, 0.5443098230912478
710, 0.5438543606455617
710.5, 0.5438543606455617
711, 0.5436266294227188
711.5, 0.5436266294227188
712, 0.5438543606455617
712.5, 0.5438543606455617
713, 0.5438543606455617
713.5, 0.5438543606455617
713.9999999999998, 0.5431711669770329
714.4999999999998, 0.5431711669770329
715, 0.5431711669770329
715.5, 0.5431711669770329
716, 0.54294343575419
716.5, 0.54294343575419
717, 0.54294343575419
717.5, 0.54294343575419
718, 0.5427157045313471
718.5, 0.5427157045313471
719, 0.542260242085661
719.4999999999998, 0.542260242085661
720, 0.5420325108628181
720.5, 0.5420325108628181
721, 0.5420325108628181
721.5, 0.5420325108628181
722, 0.5415770484171323
722.5, 0.5415770484171323
723, 0.5415770484171323
723.5, 0.5415770484171323
724, 0.5413493171942892
724.4999999999998, 0.5413493171942892
725, 0.5411215859714464
725.5, 0.5411215859714464
726, 0.5406661235257604
726.5, 0.5406661235257604
727, 0.5408938547486033
727.5, 0.5408938547486033
728, 0.5408938547486033
728.5, 0.5408938547486033
729, 0.5404383923029175
729.4999999999998, 0.5404383923029175
729.9999999999998, 0.5406661235257604
730.5, 0.5406661235257604
731, 0.5399829298572316
731.5, 0.5399829298572316
732, 0.5399829298572316
732.5, 0.5397551986343886
733, 0.5397551986343886
733.5, 0.5392997361887026
734, 0.5392997361887026
734.5, 0.5397551986343886
734.9999999999998, 0.5397551986343886
735.5, 0.5395274674115456
736, 0.5395274674115456
736.5, 0.5397551986343886
737, 0.5397551986343886
737.5, 0.5397551986343886
738, 0.5397551986343886
738.5, 0.5388442737430168
739, 0.5388442737430168
739.5, 0.5395274674115456
739.9999999999998, 0.5395274674115456
740.5, 0.5395274674115456
741, 0.5395274674115456
741.5, 0.5392997361887026
742, 0.5392997361887026
742.5, 0.5395274674115456
743, 0.5395274674115456
743.5, 0.5397551986343886
744, 0.5397551986343886
744.5, 0.5397551986343886
744.9999999999998, 0.5397551986343886
745.4999999999998, 0.5402106610800745
746, 0.5402106610800745
746.5, 0.5399829298572316
747, 0.5399829298572316
747.5, 0.5392997361887026
748, 0.5392997361887026
748.5, 0.5395274674115456
749, 0.5395274674115456
749.5, 0.5399829298572316
750, 0.5399829298572316
750.4999999999998, 0.5392997361887026
751, 0.5392997361887026
751.5, 0.5397551986343886
752, 0.5397551986343886
752.5, 0.5397551986343886
753, 0.5397551986343886
753.5, 0.5402106610800745
754, 0.5402106610800745
754.5, 0.5395274674115456
755, 0.5395274674115456
755.4999999999998, 0.5402106610800745
756, 0.5402106610800745
756.5, 0.5397551986343886
757, 0.5397551986343886
757.5, 0.5397551986343886
758, 0.5397551986343886
758.5, 0.5397551986343886
759, 0.5397551986343886
759.5, 0.5397551986343886
760, 0.5402106610800745
760.4999999999998, 0.5402106610800745
760.9999999999998, 0.5399829298572316
761.5, 0.5399829298572316
762, 0.5397551986343886
762.5, 0.5397551986343886
763, 0.5404383923029175
763.5, 0.5404383923029175
764, 0.5402106610800745
764.5, 0.5402106610800745
765, 0.5406661235257604
765.5, 0.5406661235257604
765.9999999999998, 0.5406661235257604
766.5, 0.5406661235257604
767, 0.5404383923029175
767.5, 0.5404383923029175
768, 0.5406661235257604
768.5, 0.5406661235257604
769, 0.5404383923029175
769.5, 0.5404383923029175
770, 0.5411215859714464
770.5, 0.5411215859714464
770.9999999999998, 0.5404383923029175
771.4999999999998, 0.5404383923029175
772, 0.5406661235257604
772.5, 0.5406661235257604
773, 0.5411215859714464
773.5, 0.5411215859714464
774, 0.5406661235257604
774.5, 0.5406661235257604
775, 0.5404383923029175
775.5, 0.5404383923029175
775.9999999999998, 0.5406661235257604
776.4999999999998, 0.5406661235257604
777, 0.5411215859714464
777.5, 0.5411215859714464
778, 0.5404383923029175
778.5, 0.5404383923029175
779, 0.5406661235257604
779.5, 0.5406661235257604
780, 0.5406661235257604
780.5, 0.5406661235257604
781, 0.5408938547486033
781.4999999999998, 0.5408938547486033
782, 0.5415770484171323
782.5, 0.5415770484171323
783, 0.5408938547486033
783.5, 0.5408938547486033
784, 0.5406661235257604
784.5, 0.5406661235257604
785, 0.5404383923029175
785.5, 0.5404383923029175
786, 0.5404383923029175
786.4999999999998, 0.5408938547486033
786.9999999999998, 0.5408938547486033
787.5, 0.5402106610800745
788, 0.5402106610800745
788.5, 0.5399829298572316
789, 0.5399829298572316
789.5, 0.5406661235257604
790, 0.5406661235257604
790.5, 0.5402106610800745
791, 0.5402106610800745
791.4999999999998, 0.5397551986343886
791.9999999999998, 0.5397551986343886
792.5, 0.5397551986343886
793, 0.5397551986343886
793.5, 0.5392997361887026
794, 0.5392997361887026
794.5, 0.5392997361887026
795, 0.5392997361887026
795.5, 0.5388442737430168
796, 0.5388442737430168
796.5, 0.5386165425201739
796.9999999999998, 0.5386165425201739
797.5, 0.538161080074488
798, 0.538161080074488
798.5, 0.537705617628802
799, 0.537705617628802
799.5, 0.5386165425201739
800, 0.5386165425201739
800.5, 0.5383888112973308
801, 0.5383888112973308
801.5, 0.5379333488516449
801.9999999999998, 0.5379333488516449
802.4999999999998, 0.5383888112973308
803, 0.5383888112973308
803.5, 0.5379333488516449
804, 0.5379333488516449
804.5, 0.5379333488516449
805, 0.5379333488516449
805.5, 0.537705617628802
806, 0.537705617628802
806.5, 0.5374778864059591
806.9999999999998, 0.5374778864059591
807.4999999999998, 0.5370224239602731
808, 0.5370224239602731
808.5, 0.5374778864059591
809, 0.5374778864059591
809.5, 0.5370224239602731
810, 0.5370224239602731
810.5, 0.5365669615145872
811, 0.5365669615145872
811.5, 0.5363392302917442
812, 0.5363392302917442
812.4999999999998, 0.5363392302917442
813, 0.5356560366232155
813.5, 0.5356560366232155
814, 0.5358837678460584
814.5, 0.5358837678460584
815, 0.5354283054003725
815.5, 0.5354283054003725
816, 0.5352005741775294
816.5, 0.5352005741775294
817, 0.5347451117318436
817.4999999999998, 0.5347451117318436
817.9999999999998, 0.5347451117318436
818.5, 0.5347451117318436
819, 0.5347451117318436
819.5, 0.5347451117318436
820, 0.5340619180633147
820.5, 0.5340619180633147
821, 0.5336064556176288
821.5, 0.5336064556176288
822, 0.5333787243947858
822.4999999999998, 0.5333787243947858
822.9999999999998, 0.5329232619491
823.5, 0.5329232619491
824, 0.5329232619491
824.5, 0.5329232619491
825, 0.5329232619491
825.5, 0.5329232619491
826, 0.5324677995034142
826.5, 0.5324677995034142
827, 0.532695530726257
827.5, 0.532695530726257
827.9999999999998, 0.5317846058348853
828.5, 0.5317846058348853
829, 0.5317846058348853
829.5, 0.5317846058348853
830, 0.5313291433891993
830.5, 0.5313291433891993
831, 0.5311014121663563
831.5, 0.5311014121663563
832, 0.5308736809435133
832.5, 0.5308736809435133
832.9999999999998, 0.5306459497206704
833.4999999999998, 0.5306459497206704
834, 0.5306459497206704
834.5, 0.5306459497206704
835, 0.5306459497206704
835.5, 0.5306459497206704
836, 0.5306459497206704
836.5, 0.5306459497206704
837, 0.5301904872749845
837.5, 0.5301904872749845
837.9999999999998, 0.5301904872749845
838.4999999999998, 0.5301904872749845
839, 0.5301904872749845
839.5, 0.5301904872749845
840, 0.5301904872749845
840.5, 0.5301904872749845
841, 0.5301904872749845
841.5, 0.5299627560521416
842, 0.5299627560521416
842.5, 0.5295072936064558
843, 0.5295072936064558
843.4999999999998, 0.5301904872749845
844, 0.5301904872749845
844.5, 0.5297350248292986
845, 0.5297350248292986
845.5, 0.5297350248292986
846, 0.5297350248292986
846.5, 0.5297350248292986
847, 0.5297350248292986
847.5, 0.5297350248292986
848, 0.5297350248292986
848.4999999999998, 0.5292795623836126
848.9999999999998, 0.5292795623836126
849.5, 0.5295072936064558
850, 0.5295072936064558
850.5, 0.5295072936064558
851, 0.5295072936064558
851.5, 0.5295072936064558
852, 0.5295072936064558
852.5, 0.5299627560521416
853, 0.5299627560521416
853.4999999999998, 0.5292795623836126
853.9999999999998, 0.5292795623836126
854.5, 0.5295072936064558
855, 0.5295072936064558
855.5, 0.5297350248292986
856, 0.5297350248292986
856.5, 0.5292795623836126
857, 0.5292795623836126
857.5, 0.5295072936064558
858, 0.5295072936064558
858.5, 0.5295072936064558
858.9999999999998, 0.5295072936064558
859.4999999999998, 0.5292795623836126
860, 0.5292795623836126
860.5, 0.5297350248292986
861, 0.5297350248292986
861.5, 0.5292795623836126
862, 0.5292795623836126
862.5, 0.5292795623836126
863, 0.5292795623836126
863.5, 0.5297350248292986
863.9999999999998, 0.5297350248292986
864.4999999999998, 0.5292795623836126
865, 0.5292795623836126
865.5, 0.5292795623836126
866, 0.5297350248292986
866.5, 0.5297350248292986
867, 0.5299627560521416
867.5, 0.5299627560521416
868, 0.5292795623836126
868.5, 0.5292795623836126
868.9999999999998, 0.5295072936064558
869.4999999999998, 0.5295072936064558
870, 0.5297350248292986
870.5, 0.5297350248292986
871, 0.5301904872749845
871.5, 0.5301904872749845
872, 0.5301904872749845
872.5, 0.5301904872749845
873, 0.5299627560521416
873.5, 0.5299627560521416
874, 0.5301904872749845
874.4999999999998, 0.5301904872749845
874.9999999999998, 0.5301904872749845
875.5, 0.5301904872749845
876, 0.5301904872749845
876.5, 0.5301904872749845
877, 0.5301904872749845
877.5, 0.5301904872749845
878, 0.5304182184978274
878.5, 0.5304182184978274
879, 0.5304182184978274
879.4999999999998, 0.5304182184978274
879.9999999999998, 0.5301904872749845
880.5, 0.5301904872749845
881, 0.5304182184978274
881.5, 0.5304182184978274
882, 0.5301904872749845
882.5, 0.5301904872749845
883, 0.5306459497206704
883.5, 0.5306459497206704
884, 0.5306459497206704
884.5, 0.5306459497206704
884.9999999999998, 0.5308736809435133
885.5, 0.5308736809435133
886, 0.5308736809435133
886.5, 0.5308736809435133
887, 0.5313291433891993
887.5, 0.5313291433891993
888, 0.5311014121663563
888.5, 0.5311014121663563
889, 0.5311014121663563
889.5, 0.5311014121663563
889.9999999999998, 0.5311014121663563
890.4999999999998, 0.5311014121663563
891, 0.5308736809435133
891.5, 0.5308736809435133
892, 0.5308736809435133
892.5, 0.5308736809435133
893, 0.5308736809435133
893.5, 0.5311014121663563
894, 0.5311014121663563
894.5, 0.5313291433891993
894.9999999999998, 0.5313291433891993
895.4999999999998, 0.5317846058348853
896, 0.5317846058348853
896.5, 0.5315568746120423
897, 0.5315568746120423
897.5, 0.5317846058348853
898, 0.5317846058348853
898.5, 0.5315568746120423
899, 0.5315568746120423
899.5, 0.532240068280571
900, 0.532240068280571
900.4999999999998, 0.5320123370577281
901, 0.5320123370577281
901.5, 0.5317846058348853
902, 0.5317846058348853
902.5, 0.532240068280571
903, 0.532240068280571
903.5, 0.532695530726257
904, 0.532695530726257
904.5, 0.5324677995034142
905, 0.5324677995034142
905.4999999999998, 0.532695530726257
905.9999999999998, 0.532695530726257
906.5, 0.5331509931719429
907, 0.5331509931719429
907.5, 0.5329232619491
908, 0.5329232619491
908.5, 0.5333787243947858
909, 0.5333787243947858
909.5, 0.5338341868404719
910, 0.5338341868404719
910.4999999999998, 0.5338341868404719
910.9999999999998, 0.5338341868404719
911.5, 0.5338341868404719
912, 0.5338341868404719
912.5, 0.5340619180633147
913, 0.5340619180633147
913.5, 0.5345173805090007
914, 0.5345173805090007
914.5, 0.5345173805090007
915, 0.5345173805090007
915.5, 0.5349728429546865
915.9999999999998, 0.5349728429546865
916.5, 0.5356560366232155
917, 0.5356560366232155
917.5, 0.5356560366232155
918, 0.5356560366232155
918.5, 0.5356560366232155
919, 0.5356560366232155
919.5, 0.5356560366232155
920, 0.5361114990689013
920.5, 0.5361114990689013
920.9999999999998, 0.5365669615145872
921.4999999999998, 0.5365669615145872
922, 0.5367946927374303
922.5, 0.5367946927374303
923, 0.5379333488516449
923.5, 0.5379333488516449
924, 0.5379333488516449
924.5, 0.5379333488516449
925, 0.538161080074488
925.5, 0.538161080074488
925.9999999999998, 0.5388442737430168
926.4999999999998, 0.5388442737430168
927, 0.5395274674115456
927.5, 0.5395274674115456
928, 0.5397551986343886
928.5, 0.5397551986343886
929, 0.5397551986343886
929.5, 0.5397551986343886
930, 0.5406661235257604
930.5, 0.5406661235257604
931, 0.5413493171942892
931.4999999999998, 0.5413493171942892
932, 0.5418047796399752
932.5, 0.5418047796399752
933, 0.542260242085661
933.5, 0.542260242085661
934, 0.54294343575419
934.5, 0.54294343575419
935, 0.54294343575419
935.5, 0.54294343575419
936, 0.5433988981998759
936.4999999999998, 0.5433988981998759
936.9999999999998, 0.5438543606455617
937.5, 0.5438543606455617
938, 0.5445375543140907
938.5, 0.5445375543140907
939, 0.5443098230912478
939.5, 0.5443098230912478
940, 0.5454484792054626
940.5, 0.5454484792054626
941, 0.5456762104283055
941.4999999999998, 0.5456762104283055
941.9999999999998, 0.5459039416511484
942.5, 0.5459039416511484
943, 0.5459039416511484
943.5, 0.5459039416511484
944, 0.5468148665425202
944.5, 0.5468148665425202
945, 0.5465871353196772
945.5, 0.5465871353196772
946, 0.5465871353196772
946.5, 0.5472703289882062
946.9999999999998, 0.5472703289882062
947.4999999999998, 0.5479535226567349
948, 0.5479535226567349
948.5, 0.548408985102421
949, 0.548408985102421
949.5, 0.5488644475481068
950, 0.5488644475481068
950.5, 0.5488644475481068
951, 0.5488644475481068
951.5, 0.5493199099937927
951.9999999999998, 0.5493199099937927
952.4999999999998, 0.5490921787709497
953, 0.5490921787709497
953.5, 0.5493199099937927
954, 0.5493199099937927
954.5, 0.5495476412166356
955, 0.5495476412166356
955.5, 0.5504585661080075
956, 0.5504585661080075
956.5, 0.5502308348851646
956.9999999999998, 0.5502308348851646
957.4999999999998, 0.5502308348851646
958, 0.5502308348851646
958.5, 0.5506862973308504
959, 0.5506862973308504
959.5, 0.5502308348851646
960, 0.5502308348851646
960.5, 0.5500031036623216
961, 0.5500031036623216
961.5, 0.5502308348851646
962, 0.5502308348851646
962.4999999999998, 0.5500031036623216
962.9999999999998, 0.5500031036623216
963.5, 0.5502308348851646
964, 0.5502308348851646
964.5, 0.5506862973308504
965, 0.5506862973308504
965.5, 0.5500031036623216
966, 0.5500031036623216
966.5, 0.5500031036623216
967, 0.5500031036623216
967.4999999999998, 0.5500031036623216
967.9999999999998, 0.5500031036623216
968.5, 0.5502308348851646
969, 0.5502308348851646
969.5, 0.5502308348851646
970, 0.5502308348851646
970.5, 0.5495476412166356
971, 0.5495476412166356
971.5, 0.5495476412166356
972, 0.5495476412166356
972.4999999999998, 0.5495476412166356
972.9999999999998, 0.5497753724394787
973.5, 0.5497753724394787
974, 0.5495476412166356
974.5, 0.5495476412166356
975, 0.5488644475481068
975.5, 0.5488644475481068
976, 0.5488644475481068
976.5, 0.5488644475481068
977, 0.5488644475481068
977.5, 0.5488644475481068
977.9999999999998, 0.548408985102421
978.4999999999998, 0.548408985102421
979, 0.5488644475481068
979.5, 0.5488644475481068
980, 0.5486367163252639
980.5, 0.5486367163252639
981, 0.548408985102421
981.5, 0.548408985102421
982, 0.5481812538795778
982.5, 0.5481812538795778
982.9999999999998, 0.5479535226567349
983.4999999999998, 0.5479535226567349
984, 0.5481812538795778
984.5, 0.5481812538795778
985, 0.5481812538795778
985.5, 0.5481812538795778
986, 0.547725791433892
986.5, 0.547725791433892
987, 0.5481812538795778
987.5, 0.5481812538795778
987.9999999999998, 0.5481812538795778
988.4999999999998, 0.5481812538795778
989, 0.5481812538795778
989.5, 0.5481812538795778
990, 0.5481812538795778
990.5, 0.5481812538795778
991, 0.5474980602110491
991.5, 0.5474980602110491
992, 0.547725791433892
992.5, 0.547725791433892
993, 0.5474980602110491
993.4999999999998, 0.5474980602110491
993.9999999999998, 0.5474980602110491
994.5, 0.5474980602110491
995, 0.5479535226567349
995.5, 0.5479535226567349
996, 0.5486367163252639
996.5, 0.5486367163252639
997, 0.548408985102421
997.5, 0.548408985102421
998, 0.548408985102421
998.4999999999998, 0.548408985102421
998.9999999999998, 0.548408985102421
999.5, 0.5486367163252639
1000, 0.5486367163252639
1000.5, 0.5490921787709497
1001, 0.5490921787709497
1001.5, 0.5497753724394787
1002, 0.5497753724394787
1002.5, 0.5493199099937927
1003, 0.5493199099937927
1003.4999999999998, 0.5497753724394787
1003.9999999999998, 0.5497753724394787
1004.5, 0.5502308348851646
1005, 0.5502308348851646
1005.5, 0.5506862973308504
1006, 0.5506862973308504
1006.5, 0.5511417597765363
1007, 0.5511417597765363
1007.5, 0.5513694909993794
1008, 0.5513694909993794
1008.5, 0.5511417597765363
1008.9999999999998, 0.5511417597765363
1009.4999999999998, 0.5511417597765363
1010, 0.5511417597765363
1010.5, 0.5515972222222223
1011, 0.5515972222222223
1011.5, 0.552280415890751
1012, 0.552280415890751
1012.5, 0.552508147113594
1013, 0.552508147113594
1013.5, 0.55296360955928
1013.9999999999998, 0.55296360955928
1014.4999999999998, 0.553191340782123
1015, 0.553191340782123
1015.5, 0.5538745344506517
1016, 0.5538745344506517
1016.5, 0.5545577281191807
1017, 0.5545577281191807
1017.5, 0.5550131905648665
1018, 0.5550131905648665
1018.5, 0.5556963842333955
1018.9999999999998, 0.5556963842333955
1019.4999999999998, 0.5556963842333955
1020, 0.5556963842333955
1020.5, 0.5566073091247672
1021, 0.5566073091247672
1021.5, 0.5568350403476101
1022, 0.5568350403476101
1022.5, 0.557745965238982
1023, 0.557745965238982
1023.5, 0.558429158907511
1024, 0.558429158907511
1024.4999999999998, 0.5586568901303539
1024.9999999999998, 0.5586568901303539
1025.5, 0.5586568901303539
1026, 0.5593400837988827
1026.5, 0.5593400837988827
1027, 0.5597955462445686
1027.5, 0.5597955462445686
1028, 0.5600232774674117
1028.5, 0.5600232774674117
1029, 0.5602510086902546
1029.4999999999998, 0.5602510086902546
1029.9999999999998, 0.5616173960273123
1030.5, 0.5616173960273123
1031, 0.5616173960273123
1031.5, 0.5616173960273123
1032, 0.562528320918684
1032.5, 0.562528320918684
1033, 0.562528320918684
1033.5, 0.562528320918684
1034, 0.563211514587213
1034.4999999999998, 0.563211514587213
1034.9999999999998, 0.5636669770328988
1035.4999999999998, 0.5636669770328988
1036, 0.5645779019242707
1036.5, 0.5645779019242707
1037, 0.5648056331471136
1037.5, 0.5648056331471136
1038, 0.5652610955927995
1038.5, 0.5652610955927995
1039, 0.5659442892613284
1039.5, 0.5659442892613284
1039.9999999999998, 0.5670829453755433
1040.4999999999998, 0.5670829453755433
1041, 0.567993870266915
1041.5, 0.567993870266915
1042, 0.5686770639354439
1042.5, 0.5686770639354439
1043, 0.5693602576039727
1043.5, 0.5693602576039727
1044, 0.5695879888268156
1044.5, 0.5695879888268156
1044.9999999999998, 0.5704989137181875
1045.4999999999998, 0.5704989137181875
1046, 0.5711821073867163
1046.5, 0.5711821073867163
1047, 0.5716375698324023
1047.5, 0.5716375698324023
1048, 0.572548494723774
1048.5, 0.572548494723774
1049, 0.5734594196151459
1049.5, 0.5734594196151459
1050, 0.5741426132836748
1050.4999999999998, 0.5741426132836748
1050.9999999999998, 0.5745980757293607
1051.5, 0.5745980757293607
1052, 0.5755090006207324
1052.5, 0.5755090006207324
1053, 0.5755090006207324
1053.5, 0.5768753879577901
1054, 0.5768753879577901
1054.5, 0.5768753879577901
1055, 0.5768753879577901
1055.4999999999998, 0.5773308504034762
1055.9999999999998, 0.5773308504034762
1056.5, 0.5782417752948479
1057, 0.5782417752948479
1057.5, 0.5789249689633769
1058, 0.5789249689633769
1058.5, 0.5805190875232775
1059, 0.5805190875232775
1059.5, 0.5814300124146493
1060, 0.5814300124146493
1060.4999999999998, 0.5814300124146493
1060.9999999999998, 0.5814300124146493
1061.5, 0.5823409373060211
1062, 0.5823409373060211
1062.5, 0.5837073246430788
1063, 0.5837073246430788
1063.5, 0.5839350558659218
1064, 0.5839350558659218
1064.5, 0.5848459807572937
1065, 0.5848459807572937
1065.5, 0.5855291744258224
1065.9999999999998, 0.5855291744258224
1066.4999999999998, 0.5862123680943514
1067, 0.5862123680943514
1067.5, 0.5873510242085662
1068, 0.5873510242085662
1068.5, 0.5882619490999379
1069, 0.5882619490999379
1069.5, 0.5884896803227808
1070, 0.5884896803227808
1070.5, 0.5891728739913098
1070.9999999999998, 0.5891728739913098
1071.4999999999998, 0.5900837988826816
1072, 0.5900837988826816
1072.5, 0.5919056486654253
1073, 0.5919056486654253
1073.5, 0.593272036002483
1074, 0.593272036002483
1074.5, 0.593272036002483
1075, 0.593272036002483
1075.5, 0.5941829608938547
1075.9999999999998, 0.5941829608938547
1076.4999999999998, 0.5953216170080695
1077, 0.5953216170080695
1077.5, 0.5962325418994414
1078, 0.5962325418994414
1078.5, 0.5960048106765985
1079, 0.5960048106765985
1079.5, 0.5960048106765985
1080, 0.5966880043451273
1080.5, 0.5966880043451273
1081, 0.5975989292364992
1081.4999999999998, 0.5975989292364992
1081.9999999999998, 0.5991930477963998
1082.5, 0.5991930477963998
1083, 0.5989653165735568
1083.5, 0.5989653165735568
1084, 0.6003317039106146
1084.5, 0.6003317039106146
1085, 0.6007871663563005
1085.5, 0.6007871663563005
1086, 0.6023812849162011
1086.5, 0.6023812849162011
1087, 0.6037476722532589
1087.5, 0.6037476722532589
1088, 0.602836747361887
1088.5, 0.602836747361887
1089, 0.6032922098075729
1089.5, 0.6032922098075729
1090, 0.6042031346989447
1090.5, 0.6042031346989447
1091, 0.6044308659217877
1091.5, 0.6044308659217877
1092, 0.6039754034761018
1092.5, 0.6039754034761018
1093, 0.6044308659217877
1093.5, 0.6044308659217877
1094, 0.6055695220360024
1094.5, 0.6055695220360024
1095, 0.6060249844816885
1095.5, 0.6060249844816885
1096, 0.6064804469273744
1096.5, 0.6064804469273744
1097, 0.6064804469273744
1097.5, 0.6064804469273744
1098, 0.6071636405959031
1098.5, 0.6071636405959031
1099, 0.6076191030415892
1099.5, 0.6076191030415892
1100, 0.6087577591558039
1100.5, 0.6087577591558039
1101, 0.6087577591558039
1101.5, 0.6087577591558039
1102, 0.6076191030415892
1102.5, 0.6076191030415892
1103, 0.6078468342644321
1103.5, 0.6078468342644321
1104, 0.6071636405959031
1104.5, 0.6071636405959031
1104.9999999999998, 0.6078468342644321
1105.5, 0.6078468342644321
1106, 0.6078468342644321
1106.5, 0.6071636405959031
1107, 0.6071636405959031
1107.5, 0.6069359093730602
1108, 0.6069359093730602
1108.5, 0.6060249844816885
1109, 0.6060249844816885
1109.4999999999998, 0.6071636405959031
1110, 0.6071636405959031
1110.4999999999998, 0.6064804469273744
1111, 0.6064804469273744
1111.5, 0.6051140595903166
1112, 0.6051140595903166
1112.5, 0.6039754034761018
1113, 0.6039754034761018
1113.5, 0.6037476722532589
1114, 0.6037476722532589
1114.5, 0.603519941030416
1114.9999999999998, 0.603519941030416
1115.5, 0.6023812849162011
1116, 0.6023812849162011
1116.5, 0.6016980912476724
1117, 0.6016980912476724
1117.5, 0.6001039726877716
1118, 0.6001039726877716
1118.5, 0.5998762414649286
1119, 0.5998762414649286
1119.5, 0.5985098541278708
1120, 0.5985098541278708
1120.4999999999998, 0.5973711980136562
1121, 0.5973711980136562
1121.5, 0.5962325418994414
1122, 0.5962325418994414
1122.5, 0.5948661545623837
1123, 0.5948661545623837
1123.5, 0.5941829608938547
1124, 0.5941829608938547
1124.5, 0.5934997672253259
1124.9999999999998, 0.5934997672253259
1125.5, 0.592588842333954
1125.9999999999998, 0.592588842333954
1126.5, 0.5907669925512105
1127, 0.5907669925512105
1127.5, 0.5894006052141527
1128, 0.5894006052141527
1128.5, 0.5884896803227808
1129, 0.5884896803227808
1129.5, 0.5884896803227808
1130, 0.5884896803227808
1130.4999999999998, 0.5866678305400372
1131, 0.5866678305400372
1131.5, 0.5848459807572937
1132, 0.5848459807572937
1132.5, 0.5848459807572937
1133, 0.5839350558659218
1133.5, 0.5839350558659218
1134, 0.582796399751707
1134.5, 0.582796399751707
1135, 0.5809745499689634
1135.5, 0.5809745499689634
1135.9999999999998, 0.5791527001862198
1136.5, 0.5791527001862198
1137, 0.5789249689633769
1137.5, 0.5789249689633769
1138, 0.578014044072005
1138.5, 0.578014044072005
1139, 0.5775585816263191
1139.5, 0.5775585816263191
1140, 0.5755090006207324
1140.5, 0.5755090006207324
1141, 0.5739148820608317
1141.4999999999998, 0.5739148820608317
1142, 0.5734594196151459
1142.5, 0.5734594196151459
1143, 0.572548494723774
1143.5, 0.572548494723774
1144, 0.5711821073867163
1144.5, 0.5711821073867163
1145, 0.5700434512725017
1145.5, 0.5700434512725017
1145.9999999999998, 0.5691325263811298
1146.5, 0.5691325263811298
1147, 0.567993870266915
1147.5, 0.567993870266915
1148, 0.5670829453755433
1148.5, 0.5670829453755433
1149, 0.5661720204841714
1149.5, 0.5661720204841714
1150, 0.5648056331471136
1150.5, 0.5648056331471136
1151, 0.56298378336437
1151.4999999999998, 0.56298378336437
1152, 0.5611619335816264
1152.5, 0.5611619335816264
1153, 0.5607064711359404
1153.5, 0.5607064711359404
1154, 0.5591123525760398
1154.5, 0.5591123525760398
1155, 0.5593400837988827
1155.5, 0.5593400837988827
1156, 0.5588846213531968
1156.5, 0.5588846213531968
1156.9999999999998, 0.5579736964618249
1157.5, 0.5579736964618249
1158, 0.5568350403476101
1158.5, 0.5568350403476101
1159, 0.5568350403476101
1159.5, 0.5556963842333955
1160, 0.5556963842333955
1160.5, 0.5556963842333955
1161, 0.5556963842333955
1161.4999999999998, 0.5545577281191807
1162, 0.5545577281191807
1162.5, 0.5538745344506517
1163, 0.5538745344506517
1163.5, 0.5527358783364371
1164, 0.5527358783364371
1164.5, 0.5518249534450652
1165, 0.5518249534450652
1165.5, 0.5511417597765363
1166, 0.5511417597765363
1166.5, 0.5506862973308504
1166.9999999999998, 0.5506862973308504
1167.5, 0.5500031036623216
1168, 0.5500031036623216
1168.5, 0.5490921787709497
1169, 0.5490921787709497
1169.5, 0.5488644475481068
1170, 0.5488644475481068
1170.5, 0.548408985102421
1171, 0.548408985102421
1171.5, 0.5472703289882062
1172, 0.5472703289882062
1172.4999999999998, 0.5463594040968343
1173, 0.5463594040968343
1173.5, 0.5456762104283055
1174, 0.5456762104283055
1174.5, 0.5456762104283055
1175, 0.5456762104283055
1175.5, 0.5449930167597765
1176, 0.5449930167597765
1176.5, 0.5445375543140907
1176.9999999999998, 0.5445375543140907
1177.5, 0.5436266294227188
1178, 0.5436266294227188
1178.5, 0.5427157045313471
1179, 0.5427157045313471
1179.5, 0.5420325108628181
1180, 0.5420325108628181
1180.5, 0.542260242085661
1181, 0.542260242085661
1181.5, 0.5415770484171323
1182, 0.5415770484171323
1182.4999999999998, 0.5411215859714464
1183, 0.5411215859714464
1183.5, 0.5402106610800745
1184, 0.5402106610800745
1184.5, 0.5397551986343886
1185, 0.5397551986343886
1185.5, 0.5392997361887026
1186, 0.5392997361887026
1186.5, 0.5392997361887026
1187, 0.5386165425201739
1187.5, 0.5386165425201739
1187.9999999999998, 0.538161080074488
1188.5, 0.538161080074488
1189, 0.5379333488516449
1189.5, 0.5379333488516449
1190, 0.5374778864059591
1190.5, 0.5374778864059591
1191, 0.5370224239602731
1191.5, 0.5370224239602731
1192, 0.5370224239602731
1192.4999999999998, 0.5370224239602731
1193, 0.5363392302917442
1193.5, 0.5363392302917442
1194, 0.5361114990689013
1194.5, 0.5361114990689013
1195, 0.5361114990689013
1195.5, 0.5361114990689013
1196, 0.5354283054003725
1196.5, 0.5354283054003725
1197, 0.5345173805090007
1197.5, 0.5345173805090007
1197.9999999999998, 0.5347451117318436
1198.5, 0.5347451117318436
1199, 0.5342896492861577
1199.5, 0.5342896492861577
1200, 0.5338341868404719
1200.5, 0.5338341868404719
1201, 0.5336064556176288
1201.5, 0.5336064556176288
1202, 0.5329232619491
1202.5, 0.5329232619491
1203, 0.532695530726257
1203.4999999999998, 0.532695530726257
1204, 0.5324677995034142
1204.5, 0.5324677995034142
1205, 0.532240068280571
1205.5, 0.532240068280571
1206, 0.5313291433891993
1206.5, 0.5313291433891993
1207, 0.5320123370577281
1207.5, 0.5320123370577281
1207.9999999999998, 0.5315568746120423
1208.5, 0.5315568746120423
1208.9999999999998, 0.5313291433891993
1209.5, 0.5313291433891993
1210, 0.5311014121663563
1210.5, 0.5311014121663563
1211, 0.5308736809435133
1211.5, 0.5308736809435133
1212, 0.5306459497206704
1212.5, 0.5306459497206704
1213, 0.5306459497206704
1213.4999999999998, 0.5306459497206704
1214, 0.5306459497206704
1214.5, 0.5306459497206704
1215, 0.5306459497206704
1215.5, 0.5304182184978274
1216, 0.5304182184978274
1216.5, 0.5299627560521416
1217, 0.5299627560521416
1217.5, 0.5295072936064558
1218, 0.5295072936064558
1218.5, 0.5297350248292986
1218.9999999999998, 0.5297350248292986
1219.5, 0.5295072936064558
1220, 0.5295072936064558
1220.5, 0.5290518311607697
1221, 0.5290518311607697
1221.5, 0.5288240999379268
1222, 0.5288240999379268
1222.5, 0.5292795623836126
1223, 0.5292795623836126
1223.4999999999998, 0.5288240999379268
1224, 0.5288240999379268
1224.4999999999998, 0.5288240999379268
1225, 0.5288240999379268
1225.5, 0.5285963687150839
1226, 0.5285963687150839
1226.5, 0.5283686374922408
1227, 0.5283686374922408
1227.5, 0.5283686374922408
1228, 0.5283686374922408
1228.5, 0.528140906269398
1228.9999999999998, 0.528140906269398
1229.5, 0.5283686374922408
1230, 0.5283686374922408
1230.5, 0.5283686374922408
1231, 0.5283686374922408
1231.5, 0.528140906269398
1232, 0.528140906269398
1232.5, 0.528140906269398
1233, 0.528140906269398
1233.5, 0.527685443823712
1234, 0.527685443823712
1234.4999999999998, 0.5274577126008692
1235, 0.5274577126008692
1235.5, 0.5279131750465549
1236, 0.5279131750465549
1236.5, 0.5274577126008692
1237, 0.5274577126008692
1237.5, 0.5274577126008692
1238, 0.5274577126008692
1238.5, 0.5274577126008692
1238.9999999999998, 0.5274577126008692
1239.5, 0.5274577126008692
1239.9999999999998, 0.5274577126008692
1240.5, 0.5274577126008692
1241, 0.5274577126008692
1241.5, 0.5274577126008692
1242, 0.5274577126008692
1242.5, 0.5274577126008692
1243, 0.5274577126008692
1243.5, 0.5274577126008692
1244, 0.5272299813780261
1244.4999999999998, 0.5272299813780261
1245, 0.5274577126008692
1245.5, 0.5274577126008692
1246, 0.527685443823712
1246.5, 0.527685443823712
1247, 0.5274577126008692
1247.5, 0.5274577126008692
1248, 0.5274577126008692
1248.5, 0.5274577126008692
1249, 0.5272299813780261
1249.5, 0.5272299813780261
1249.9999999999998, 0.5270022501551832
1250.5, 0.5270022501551832
1251, 0.5270022501551832
1251.5, 0.5270022501551832
1252, 0.5272299813780261
1252.5, 0.5272299813780261
1253, 0.5272299813780261
1253.5, 0.5272299813780261
1254, 0.5270022501551832
1254.4999999999998, 0.5270022501551832
1255, 0.5270022501551832
1255.4999999999998, 0.5270022501551832
1256, 0.5270022501551832
1256.5, 0.5270022501551832
1257, 0.5270022501551832
1257.5, 0.5270022501551832
1258, 0.5267745189323402
1258.5, 0.5267745189323402
1259, 0.5265467877094971
1259.5, 0.5265467877094971
1259.9999999999998, 0.5272299813780261
1260.5, 0.5272299813780261
1261, 0.5270022501551832
1261.5, 0.5270022501551832
1262, 0.5270022501551832
1262.5, 0.5270022501551832
1263, 0.5267745189323402
1263.5, 0.5267745189323402
1264, 0.5272299813780261
1264.5, 0.5272299813780261
1265, 0.5267745189323402
1265.4999999999998, 0.5267745189323402
1266, 0.5267745189323402
1266.5, 0.5267745189323402
1267, 0.5267745189323402
1267.5, 0.5270022501551832
1268, 0.5270022501551832
1268.5, 0.5265467877094971
1269, 0.5265467877094971
1269.5, 0.5265467877094971
1269.9999999999998, 0.5265467877094971
1270.5, 0.5270022501551832
1270.9999999999998, 0.5270022501551832
1271.5, 0.5265467877094971
1272, 0.5265467877094971
1272.5, 0.5270022501551832
1273, 0.5270022501551832
1273.5, 0.5270022501551832
1274, 0.5270022501551832
1274.5, 0.5267745189323402
1275, 0.5267745189323402
1275.4999999999998, 0.5265467877094971
1276, 0.5265467877094971
1276.5, 0.5270022501551832
1277, 0.5270022501551832
1277.5, 0.5270022501551832
1278, 0.5270022501551832
1278.5, 0.5267745189323402
1279, 0.5267745189323402
1279.5, 0.5265467877094971
1280, 0.5265467877094971
1280.5, 0.5270022501551832
1280.9999999999998, 0.5270022501551832
1281.5, 0.5265467877094971
1282, 0.5265467877094971
1282.5, 0.5265467877094971
1283, 0.5265467877094971
1283.5, 0.5265467877094971
1284, 0.5265467877094971
1284.5, 0.5265467877094971
1285, 0.5265467877094971
1285.4999999999998, 0.5260913252638113
1286, 0.5260913252638113
1286.4999999999998, 0.5267745189323402
1287, 0.5267745189323402
1287.5, 0.5265467877094971
1288, 0.5265467877094971
1288.5, 0.5267745189323402
1289, 0.5267745189323402
1289.5, 0.5265467877094971
1290, 0.5265467877094971
1290.5, 0.5265467877094971
1290.9999999999998, 0.5265467877094971
1291.5, 0.5265467877094971
1292, 0.5265467877094971
1292.5, 0.5265467877094971
1293, 0.5265467877094971
1293.5, 0.5265467877094971
1294, 0.5265467877094971
1294.5, 0.5265467877094971
1295, 0.5265467877094971
1295.5, 0.5265467877094971
1296, 0.5270022501551832
1296.4999999999998, 0.5270022501551832
1297, 0.5265467877094971
1297.5, 0.5265467877094971
294.3094135802469, 0.5709962756052142
277.43055555555554, 0.5720739361335265
250.90663580246914, 0.5709962756052142
221.97145061728398, 0.5726127663976825
