202.49999999999997, 0.6654628336436996
203, 0.6654628336436996
203.5, 0.6647796399751706
204, 0.6647796399751706
204.5, 0.6652351024208567
205, 0.6652351024208567
205.5, 0.6640964463066419
206, 0.6640964463066419
206.5, 0.6643241775294848
207, 0.6643241775294848
207.5, 0.6650073711980137
208, 0.6650073711980137
208.5, 0.6656905648665425
208.99999999999997, 0.6656905648665425
209.5, 0.6650073711980137
210, 0.6650073711980137
210.5, 0.6645519087523277
211, 0.6645519087523277
211.49999999999997, 0.6640964463066419
212, 0.6640964463066419
212.5, 0.6645519087523277
213, 0.6645519087523277
213.5, 0.6654628336436996
214, 0.6654628336436996
214.5, 0.6640964463066419
215, 0.6640964463066419
215.49999999999997, 0.6643241775294848
216, 0.6643241775294848
216.5, 0.663868715083799
217, 0.663868715083799
217.5, 0.6636409838609559
217.99999999999997, 0.6636409838609559
218.5, 0.6652351024208567
219, 0.6652351024208567
219.5, 0.6650073711980137
220, 0.6650073711980137
220.5, 0.6647796399751706
221, 0.6647796399751706
221.5, 0.6640964463066419
221.99999999999997, 0.6640964463066419
222.5, 0.6645519087523277
223, 0.6645519087523277
223.5, 0.6640964463066419
224, 0.6640964463066419
224.49999999999997, 0.6636409838609559
225, 0.6636409838609559
225.5, 0.6636409838609559
226, 0.663868715083799
226.5, 0.663868715083799
227, 0.6636409838609559
227.5, 0.6636409838609559
228, 0.6629577901924271
228.5, 0.6629577901924271
229, 0.6620468653010553
229.5, 0.6620468653010553
230, 0.6627300589695841
230.5, 0.6627300589695841
230.99999999999997, 0.6629577901924271
231.5, 0.6629577901924271
232, 0.6647796399751706
232.5, 0.6647796399751706
233, 0.6645519087523277
233.49999999999997, 0.6645519087523277
234, 0.663868715083799
234.5, 0.663868715083799
235, 0.6629577901924271
235.5, 0.6629577901924271
236, 0.6643241775294848
236.5, 0.6643241775294848
237, 0.663868715083799
237.49999999999997, 0.663868715083799
238, 0.6634132526381129
238.5, 0.6634132526381129
239, 0.6640964463066419
239.5, 0.6640964463066419
239.99999999999997, 0.6634132526381129
240.5, 0.6634132526381129
241, 0.663868715083799
241.5, 0.663868715083799
242, 0.6643241775294848
242.5, 0.6643241775294848
243, 0.6645519087523277
243.5, 0.6645519087523277
243.99999999999997, 0.6650073711980137
244.5, 0.6650073711980137
245, 0.6645519087523277
245.5, 0.6645519087523277
246, 0.663868715083799
246.49999999999997, 0.663868715083799
247, 0.6629577901924271
247.5, 0.6629577901924271
248, 0.6622745965238983
248.5, 0.6622745965238983
248.99999999999997, 0.6620468653010553
249.5, 0.6620468653010553
250, 0.663868715083799
250.5, 0.663868715083799
251, 0.6645519087523277
251.5, 0.6645519087523277
252, 0.6645519087523277
252.5, 0.6640964463066419
252.99999999999997, 0.6640964463066419
253.5, 0.6636409838609559
254, 0.6636409838609559
254.5, 0.6643241775294848
255, 0.6643241775294848
255.49999999999997, 0.663868715083799
256, 0.663868715083799
256.5, 0.6647796399751706
257, 0.6647796399751706
257.5, 0.6647796399751706
258, 0.6647796399751706
258.5, 0.6643241775294848
259, 0.6643241775294848
259.5, 0.6643241775294848
260, 0.6643241775294848
260.5, 0.6659182960893855
261, 0.6659182960893855
261.5, 0.6650073711980137
262, 0.6650073711980137
262.5, 0.6643241775294848
263, 0.6643241775294848
263.5, 0.6652351024208567
264, 0.6652351024208567
264.5, 0.6647796399751706
265, 0.6647796399751706
265.5, 0.6659182960893855
266, 0.6659182960893855
266.5, 0.6654628336436996
267, 0.6654628336436996
267.5, 0.6645519087523277
268, 0.6645519087523277
268.5, 0.6650073711980137
269, 0.6650073711980137
269.5, 0.6663737585350714
270, 0.6663737585350714
270.5, 0.6661460273122284
271, 0.6661460273122284
271.5, 0.6647796399751706
272, 0.6647796399751706
272.5, 0.6666014897579144
273, 0.6666014897579144
273.5, 0.6663737585350714
274, 0.6663737585350714
274.5, 0.6659182960893855
275, 0.6659182960893855
275.5, 0.6666014897579144
276, 0.6666014897579144
276.5, 0.6656905648665425
277, 0.6656905648665425
277.5, 0.6666014897579144
278, 0.6666014897579144
278.5, 0.6666014897579144
279, 0.6663737585350714
279.5, 0.6663737585350714
280, 0.6652351024208567
280.5, 0.6652351024208567
281, 0.6645519087523277
281.5, 0.6645519087523277
282, 0.6654628336436996
282.5, 0.6654628336436996
283, 0.6666014897579144
283.5, 0.6666014897579144
284, 0.6661460273122284
284.5, 0.6661460273122284
285, 0.6668292209807574
285.5, 0.6668292209807574
286, 0.6656905648665425
286.5, 0.6656905648665425
287, 0.6659182960893855
287.5, 0.6659182960893855
288, 0.6656905648665425
288.5, 0.6656905648665425
289, 0.6666014897579144
289.5, 0.6666014897579144
290, 0.6659182960893855
290.5, 0.6659182960893855
291, 0.6661460273122284
291.5, 0.6661460273122284
292, 0.6659182960893855
292.5, 0.6659182960893855
293, 0.6668292209807574
293.5, 0.6668292209807574
294, 0.6675124146492861
294.5, 0.6675124146492861
295, 0.6691065332091868
295.5, 0.6691065332091868
296, 0.6679678770949721
296.5, 0.6679678770949721
297, 0.6695619956548728
297.5, 0.6695619956548728
298, 0.6681956083178151
298.5, 0.6681956083178151
299, 0.6679678770949721
299.5, 0.6679678770949721
300, 0.6661460273122284
300.5, 0.6661460273122284
301, 0.6675124146492861
301.5, 0.6675124146492861
302, 0.6679678770949721
302.5, 0.6679678770949721
303, 0.6666014897579144
303.5, 0.6666014897579144
304, 0.667740145872129
304.5, 0.667740145872129
305, 0.6670569522036003
305.5, 0.6670569522036003
306, 0.6670569522036003
306.5, 0.6670569522036003
307, 0.6670569522036003
307.5, 0.6686510707635009
308, 0.6686510707635009
308.5, 0.6679678770949721
309, 0.6679678770949721
309.5, 0.668423339540658
310, 0.668423339540658
310.5, 0.6686510707635009
311, 0.6686510707635009
311.5, 0.6688788019863439
312, 0.6688788019863439
312.5, 0.6681956083178151
313, 0.6681956083178151
313.5, 0.668423339540658
314, 0.668423339540658
314.5, 0.668423339540658
315, 0.668423339540658
315.5, 0.6700174581005587
316, 0.6700174581005587
316.5, 0.6702451893234016
317, 0.6702451893234016
317.5, 0.6691065332091868
318, 0.6691065332091868
318.5, 0.668423339540658
319, 0.668423339540658
319.5, 0.6700174581005587
320, 0.6700174581005587
320.5, 0.6707006517690876
321, 0.6707006517690876
321.5, 0.6679678770949721
322, 0.6679678770949721
322.5, 0.6691065332091868
323, 0.6691065332091868
323.5, 0.6700174581005587
324, 0.6700174581005587
324.5, 0.6707006517690876
325, 0.6707006517690876
325.5, 0.6702451893234016
326, 0.6702451893234016
326.5, 0.6711561142147735
327, 0.6711561142147735
327.49999999999994, 0.6700174581005587
328, 0.6700174581005587
328.5, 0.6704729205462445
329, 0.6704729205462445
329.5, 0.6700174581005587
329.99999999999994, 0.6700174581005587
330.5, 0.6713838454376164
331, 0.6713838454376164
331.5, 0.6709283829919306
332, 0.6709283829919306
332.49999999999994, 0.6709283829919306
333, 0.6713838454376164
333.5, 0.6713838454376164
334, 0.6725225015518312
334.5, 0.6725225015518312
334.99999999999994, 0.6720670391061452
335.5, 0.6720670391061452
336, 0.6716115766604593
336.5, 0.6716115766604593
337, 0.6702451893234016
337.5, 0.6702451893234016
338, 0.6718393078833023
338.5, 0.6718393078833023
339, 0.6716115766604593
339.5, 0.6716115766604593
340, 0.6729779639975171
340.5, 0.6729779639975171
341, 0.6743443513345748
341.5, 0.6743443513345748
342, 0.6725225015518312
342.5, 0.6725225015518312
342.99999999999994, 0.6725225015518312
343.5, 0.6725225015518312
344, 0.6743443513345748
344.5, 0.6743443513345748
345, 0.673888888888889
345.49999999999994, 0.673888888888889
346, 0.6743443513345748
346.5, 0.6743443513345748
347, 0.6734334264432029
347.5, 0.6734334264432029
347.99999999999994, 0.6743443513345748
348.5, 0.6743443513345748
349, 0.6750275450031037
349.5, 0.6750275450031037
350, 0.6759384698944755
350.49999999999994, 0.6759384698944755
351, 0.6741166201117319
351.5, 0.6741166201117319
352, 0.6750275450031037
352.5, 0.6750275450031037
353, 0.6757107386716326
353.5, 0.6757107386716326
354, 0.6745720825574177
354.5, 0.6745720825574177
355, 0.67320569522036
355.5, 0.67320569522036
356, 0.6722947703289882
356.5, 0.6722947703289882
357, 0.6727502327746742
357.5, 0.6727502327746742
358, 0.67320569522036
358.49999999999994, 0.67320569522036
359, 0.67320569522036
359.5, 0.6754830074487896
360, 0.6754830074487896
360.5, 0.6775325884543761
360.99999999999994, 0.6775325884543761
361.5, 0.6761662011173184
362, 0.6761662011173184
362.5, 0.6777603196772191
363, 0.6777603196772191
363.49999999999994, 0.6782157821229051
364, 0.6782157821229051
364.5, 0.6777603196772191
365, 0.6777603196772191
365.5, 0.6761662011173184
365.99999999999994, 0.6761662011173184
366.5, 0.6766216635630043
367, 0.6766216635630043
367.5, 0.6777603196772191
368, 0.6777603196772191
368.5, 0.678671244568591
369, 0.678671244568591
369.5, 0.6782157821229051
370, 0.6782157821229051
370.5, 0.6775325884543761
371, 0.6775325884543761
371.49999999999994, 0.6791267070142768
372, 0.6791267070142768
372.5, 0.6793544382371198
373, 0.6793544382371198
373.5, 0.678671244568591
373.99999999999994, 0.678671244568591
374.5, 0.678443513345748
375, 0.678443513345748
375.5, 0.6793544382371198
376, 0.6793544382371198
376.49999999999994, 0.6804930943513345
377, 0.6804930943513345
377.5, 0.6809485567970205
378, 0.6809485567970205
378.5, 0.6798099006828058
378.99999999999994, 0.6798099006828058
379.5, 0.6788989757914339
380, 0.6788989757914339
380.5, 0.6802653631284916
381, 0.6802653631284916
381.5, 0.6816317504655494
382, 0.6816317504655494
382.5, 0.6814040192427064
383, 0.6814040192427064
383.5, 0.6820872129112352
384, 0.6820872129112352
384.5, 0.6804930943513345
385, 0.6804930943513345
385.5, 0.6804930943513345
386, 0.6809485567970205
386.5, 0.6809485567970205
386.99999999999994, 0.6818594816883923
387.5, 0.6818594816883923
388, 0.6818594816883923
388.5, 0.6818594816883923
389, 0.6814040192427064
389.49999999999994, 0.6814040192427064
390, 0.6829981378026071
390.5, 0.6829981378026071
391, 0.6825426753569213
391.5, 0.6825426753569213
391.99999999999994, 0.6820872129112352
392.5, 0.6820872129112352
393, 0.6807208255741775
393.5, 0.6807208255741775
394, 0.6811762880198635
394.49999999999994, 0.6811762880198635
395, 0.6814040192427064
395.5, 0.6814040192427064
396, 0.6816317504655494
396.5, 0.6816317504655494
397, 0.6825426753569213
397.5, 0.6825426753569213
398, 0.68322586902545
398.5, 0.68322586902545
399, 0.6829981378026071
399.5, 0.6829981378026071
400, 0.6843645251396648
400.5, 0.6843645251396648
401, 0.6834536002482929
401.5, 0.6834536002482929
402, 0.6834536002482929
402.49999999999994, 0.6834536002482929
403, 0.6841367939168219
403.5, 0.6841367939168219
404, 0.6841367939168219
404.5, 0.6841367939168219
404.99999999999994, 0.6855031812538797
405.5, 0.6855031812538797
406, 0.6850477188081936
406.5, 0.6850477188081936
407, 0.683909062693979
407.49999999999994, 0.683909062693979
408, 0.6845922563625078
408.5, 0.6845922563625078
409, 0.6857309124767226
409.5, 0.6857309124767226
409.99999999999994, 0.6852754500310366
410.5, 0.6852754500310366
411, 0.6855031812538797
411.5, 0.6855031812538797
412, 0.6855031812538797
412.5, 0.6848199875853507
413, 0.6848199875853507
413.5, 0.6859586436995655
414, 0.6859586436995655
414.5, 0.6857309124767226
415, 0.6857309124767226
415.49999999999994, 0.6861863749224084
416, 0.6861863749224084
416.5, 0.6861863749224084
417, 0.6861863749224084
417.5, 0.6861863749224084
417.99999999999994, 0.6861863749224084
418.5, 0.6870972998137803
419, 0.6870972998137803
419.5, 0.6880082247051521
420, 0.6880082247051521
420.49999999999994, 0.6873250310366232
421, 0.6873250310366232
421.5, 0.6864141061452513
422, 0.6864141061452513
422.5, 0.6880082247051521
422.99999999999994, 0.6880082247051521
423.5, 0.6868695685909374
424, 0.6868695685909374
424.5, 0.6877804934823091
425, 0.6877804934823091
425.49999999999994, 0.6875527622594662
426, 0.6875527622594662
426.5, 0.6880082247051521
427, 0.6880082247051521
427.5, 0.6896023432650528
428, 0.6896023432650528
428.5, 0.68937461204221
429, 0.68937461204221
429.5, 0.6889191495965239
430, 0.6889191495965239
430.5, 0.6877804934823091
430.99999999999994, 0.6877804934823091
431.5, 0.6868695685909374
432, 0.6868695685909374
432.5, 0.688691418373681
433, 0.688691418373681
433.49999999999994, 0.6896023432650528
434, 0.6896023432650528
434.5, 0.6891468808193668
435, 0.6891468808193668
435.5, 0.6875527622594662
435.99999999999994, 0.6875527622594662
436.5, 0.6880082247051521
437, 0.6880082247051521
437.5, 0.6905132681564246
438, 0.6905132681564246
438.49999999999994, 0.6905132681564246
439, 0.6902855369335816
439.5, 0.6902855369335816
440, 0.68937461204221
440.5, 0.68937461204221
440.99999999999994, 0.6902855369335816
441.5, 0.6902855369335816
442, 0.6916519242706394
442.5, 0.6916519242706394
443, 0.6907409993792675
443.5, 0.6907409993792675
444, 0.6907409993792675
444.5, 0.6907409993792675
445, 0.6905132681564246
445.5, 0.6905132681564246
446, 0.6902855369335816
446.49999999999994, 0.6902855369335816
447, 0.6905132681564246
447.5, 0.6905132681564246
448, 0.6916519242706394
448.5, 0.6916519242706394
448.99999999999994, 0.6918796554934823
449.5, 0.6918796554934823
450, 0.6911964618249535
450.5, 0.6911964618249535
451, 0.6918796554934823
451.49999999999994, 0.6918796554934823
452, 0.6907409993792675
452.5, 0.6907409993792675
453, 0.6907409993792675
453.5, 0.6907409993792675
453.99999999999994, 0.6911964618249535
454.5, 0.6911964618249535
455, 0.6909687306021105
455.5, 0.6909687306021105
456, 0.6918796554934823
456.5, 0.6918796554934823
457, 0.6916519242706394
457.5, 0.6916519242706394
458, 0.6900578057107387
458.5, 0.6900578057107387
459, 0.6902855369335816
459.49999999999994, 0.6902855369335816
460, 0.68937461204221
460.5, 0.68937461204221
461, 0.6914241930477965
461.5, 0.6914241930477965
461.99999999999994, 0.6916519242706394
462.5, 0.6916519242706394
463, 0.6900578057107387
463.5, 0.6900578057107387
464, 0.6898300744878958
464.49999999999994, 0.6898300744878958
465, 0.6911964618249535
465.5, 0.6911964618249535
466, 0.6911964618249535
466.5, 0.6902855369335816
466.99999999999994, 0.6902855369335816
467.5, 0.6900578057107387
468, 0.6900578057107387
468.5, 0.688463687150838
469, 0.688463687150838
469.49999999999994, 0.6898300744878958
470, 0.6898300744878958
470.5, 0.6905132681564246
471, 0.6905132681564246
471.5, 0.6900578057107387
472, 0.6900578057107387
472.5, 0.6898300744878958
473, 0.6898300744878958
473.5, 0.6891468808193668
474, 0.6891468808193668
474.5, 0.68937461204221
474.99999999999994, 0.68937461204221
475.5, 0.6891468808193668
476, 0.6891468808193668
476.5, 0.6866418373680944
477, 0.6866418373680944
477.49999999999994, 0.6875527622594662
478, 0.6875527622594662
478.5, 0.6870972998137803
479, 0.6870972998137803
479.5, 0.688463687150838
479.99999999999994, 0.688463687150838
480.5, 0.688463687150838
481, 0.688463687150838
481.5, 0.6864141061452513
482, 0.6864141061452513
482.49999999999994, 0.6855031812538797
483, 0.6855031812538797
483.5, 0.6859586436995655
484, 0.6859586436995655
484.5, 0.6843645251396648
484.99999999999994, 0.6843645251396648
485.5, 0.6855031812538797
486, 0.6855031812538797
486.5, 0.6848199875853507
487, 0.6848199875853507
487.5, 0.6852754500310366
488, 0.6852754500310366
488.5, 0.6864141061452513
489, 0.6864141061452513
489.5, 0.6875527622594662
490, 0.6875527622594662
490.49999999999994, 0.6864141061452513
491, 0.6864141061452513
491.5, 0.6866418373680944
492, 0.6866418373680944
492.5, 0.6866418373680944
492.99999999999994, 0.6868695685909374
493.5, 0.6868695685909374
494, 0.6873250310366232
494.5, 0.6873250310366232
495, 0.6864141061452513
495.49999999999994, 0.6864141061452513
496, 0.6877804934823091
496.5, 0.6877804934823091
497, 0.6861863749224084
497.5, 0.6861863749224084
497.99999999999994, 0.6866418373680944
498.5, 0.6866418373680944
499, 0.6866418373680944
499.5, 0.6866418373680944
500, 0.6861863749224084
500.49999999999994, 0.6861863749224084
501, 0.6866418373680944
501.5, 0.6866418373680944
502, 0.6864141061452513
502.5, 0.6864141061452513
503, 0.6880082247051521
503.49999999999994, 0.6880082247051521
504, 0.6880082247051521
504.5, 0.6880082247051521
505, 0.688691418373681
505.5, 0.688691418373681
505.99999999999994, 0.6868695685909374
506.5, 0.6868695685909374
507, 0.6868695685909374
507.5, 0.6868695685909374
508, 0.688463687150838
508.49999999999994, 0.688463687150838
509, 0.6875527622594662
509.5, 0.6875527622594662
510, 0.6877804934823091
510.5, 0.6877804934823091
510.99999999999994, 0.688463687150838
511.5, 0.688463687150838
512, 0.6896023432650528
512.5, 0.6896023432650528
513, 0.6909687306021105
513.5, 0.6909687306021105
514, 0.6900578057107387
514.5, 0.6900578057107387
515, 0.6891468808193668
515.5, 0.6891468808193668
516, 0.6898300744878958
516.5, 0.6898300744878958
517, 0.6907409993792675
517.5, 0.6907409993792675
518, 0.6921073867163252
518.5, 0.6921073867163252
519, 0.6921073867163252
519.5, 0.6921073867163252
520, 0.6921073867163252
520.5, 0.6921073867163252
521, 0.6921073867163252
521.5, 0.6937015052762261
522, 0.6937015052762261
522.5, 0.6939292364990689
523, 0.6939292364990689
523.5, 0.693473774053383
524, 0.693473774053383
524.5, 0.6943846989447549
525, 0.6943846989447549
525.5, 0.6939292364990689
526, 0.6939292364990689
526.5, 0.6946124301675978
527, 0.6946124301675978
527.5, 0.6962065487274984
528, 0.6962065487274984
528.5, 0.6964342799503414
529, 0.6964342799503414
529.5, 0.6946124301675978
530, 0.6946124301675978
530.5, 0.6964342799503414
531, 0.6964342799503414
531.5, 0.6978006672873991
532, 0.6978006672873991
532.5, 0.6973452048417133
533, 0.6973452048417133
533.5, 0.698256129733085
534, 0.698256129733085
534.5, 0.6980283985102422
535, 0.6980283985102422
535.5, 0.6984838609559281
536, 0.6984838609559281
536.5, 0.6980283985102422
537, 0.6980283985102422
537.5, 0.6991670546244568
538, 0.6991670546244568
538.5, 0.6978006672873991
539, 0.6978006672873991
539.5, 0.6971174736188703
540, 0.6971174736188703
540.5, 0.698256129733085
541, 0.698256129733085
541.5, 0.6989393234016139
542, 0.6989393234016139
542.5, 0.6975729360645562
543, 0.6975729360645562
543.5, 0.6973452048417133
544, 0.6973452048417133
544.5, 0.6989393234016139
545, 0.6989393234016139
545.5, 0.6989393234016139
546, 0.698711592178771
546.5, 0.698711592178771
547, 0.6964342799503414
547.5, 0.6964342799503414
548, 0.6959788175046555
548.5, 0.6959788175046555
549, 0.6962065487274984
549.5, 0.6962065487274984
550, 0.6959788175046555
550.5, 0.6959788175046555
551, 0.6941569677219119
551.5, 0.6941569677219119
552, 0.693473774053383
552.5, 0.693473774053383
553, 0.6923351179391682
553.5, 0.6923351179391682
554, 0.6907409993792675
554.5, 0.6907409993792675
555, 0.6905132681564246
555.5, 0.6905132681564246
556, 0.6900578057107387
556.5, 0.6900578057107387
557, 0.688463687150838
557.5, 0.688463687150838
558, 0.688691418373681
558.5, 0.688691418373681
559, 0.688463687150838
559.5, 0.688463687150838
560, 0.6873250310366232
560.5, 0.6873250310366232
561, 0.6845922563625078
561.5, 0.6845922563625078
562, 0.6829981378026071
562.5, 0.6829981378026071
563, 0.6825426753569213
563.5, 0.6825426753569213
564, 0.6827704065797642
564.5, 0.6827704065797642
565, 0.683681331471136
565.5, 0.683681331471136
566, 0.6823149441340782
566.5, 0.6823149441340782
567, 0.6807208255741775
567.5, 0.6807208255741775
568, 0.6814040192427064
568.5, 0.6814040192427064
569, 0.6809485567970205
569.5, 0.6809485567970205
570, 0.6811762880198635
570.5, 0.6811762880198635
571, 0.6795821694599629
571.5, 0.6795821694599629
572, 0.6795821694599629
572.5, 0.6782157821229051
573, 0.6782157821229051
573.5, 0.6775325884543761
574, 0.6775325884543761
574.5, 0.6768493947858474
575, 0.6768493947858474
575.5, 0.6761662011173184
576, 0.6761662011173184
576.5, 0.6754830074487896
577, 0.6754830074487896
577.5, 0.6757107386716326
578, 0.6757107386716326
578.5, 0.6763939323401613
579, 0.6763939323401613
579.5, 0.6754830074487896
580, 0.6754830074487896
580.5, 0.6745720825574177
581, 0.6745720825574177
581.5, 0.673661157666046
582, 0.673661157666046
582.5, 0.6743443513345748
583, 0.6743443513345748
583.5, 0.6734334264432029
584, 0.6734334264432029
584.5, 0.6727502327746742
584.9999999999998, 0.6727502327746742
585.5, 0.6720670391061452
586, 0.6720670391061452
586.5, 0.6713838454376164
587, 0.6713838454376164
587.5, 0.6718393078833023
588, 0.6718393078833023
588.5, 0.6709283829919306
589, 0.6709283829919306
589.5, 0.6697897268777158
589.9999999999998, 0.6697897268777158
590.5, 0.6695619956548728
591, 0.6695619956548728
591.5, 0.6702451893234016
592, 0.6702451893234016
592.5, 0.6700174581005587
593, 0.6700174581005587
593.5, 0.6700174581005587
594, 0.6700174581005587
594.5, 0.6693342644320298
594.9999999999998, 0.6693342644320298
595.5, 0.668423339540658
596, 0.668423339540658
596.5, 0.6688788019863439
597, 0.6688788019863439
597.5, 0.6679678770949721
598, 0.6679678770949721
598.5, 0.6668292209807574
599, 0.6668292209807574
599.5, 0.6668292209807574
600, 0.6666014897579144
600.4999999999998, 0.6666014897579144
601, 0.6668292209807574
601.5, 0.6668292209807574
602, 0.6666014897579144
602.5, 0.6666014897579144
603, 0.6659182960893855
603.5, 0.6659182960893855
604, 0.6645519087523277
604.5, 0.6645519087523277
605, 0.6627300589695841
605.4999999999998, 0.6627300589695841
606, 0.66318552141527
606.5, 0.66318552141527
607, 0.6625023277467412
607.5, 0.6625023277467412
608, 0.6620468653010553
608.5, 0.6620468653010553
609, 0.6609082091868406
609.5, 0.6609082091868406
610, 0.6602250155183116
610.4999999999998, 0.6602250155183116
610.9999999999998, 0.6597695530726257
611.5, 0.6597695530726257
612, 0.6588586281812538
612.5, 0.6588586281812538
613, 0.6581754345127251
613.5, 0.6581754345127251
614, 0.6568090471756673
614.5, 0.6568090471756673
615, 0.6570367783985103
615.5, 0.6570367783985103
615.9999999999998, 0.6563535847299814
616.5, 0.6563535847299814
617, 0.6554426598386096
617.5, 0.6554426598386096
618, 0.653848541278709
618.5, 0.653848541278709
619, 0.65316534761018
619.5, 0.65316534761018
620, 0.653393078833023
620.5, 0.653393078833023
620.9999999999998, 0.6527098851644941
621.5, 0.6527098851644941
622, 0.6522544227188083
622.5, 0.6522544227188083
623, 0.6522544227188083
623.5, 0.6522544227188083
624, 0.6515712290502793
624.5, 0.6515712290502793
625, 0.6515712290502793
625.5, 0.6515712290502793
625.9999999999998, 0.6515712290502793
626.4999999999998, 0.6511157666045935
627, 0.6511157666045935
627.5, 0.6506603041589075
628, 0.6506603041589075
628.5, 0.6492939168218499
629, 0.6492939168218499
629.5, 0.6486107231533209
630, 0.6486107231533209
630.5, 0.6481552607076351
631, 0.6481552607076351
631.4999999999998, 0.6472443358162632
632, 0.6472443358162632
632.5, 0.6465611421477344
633, 0.6465611421477344
633.5, 0.6463334109248914
634, 0.6463334109248914
634.5, 0.6456502172563625
635, 0.6456502172563625
635.5, 0.6463334109248914
636, 0.6463334109248914
636.4999999999998, 0.6461056797020484
637, 0.6461056797020484
637.5, 0.6458779484792054
638, 0.6458779484792054
638.5, 0.6449670235878338
639, 0.6449670235878338
639.5, 0.6451947548106767
640, 0.6451947548106767
640.5, 0.6445115611421477
641, 0.6445115611421477
641.4999999999998, 0.6438283674736189
641.9999999999998, 0.6438283674736189
642.5, 0.6438283674736189
643, 0.6438283674736189
643.5, 0.64314517380509
644, 0.64314517380509
644.5, 0.643600636250776
645, 0.643600636250776
645.5, 0.6426897113594041
646, 0.6426897113594041
646.5, 0.6426897113594041
646.9999999999998, 0.6426897113594041
647.5, 0.64314517380509
648, 0.64314517380509
648.5, 0.6422342489137183
649, 0.6422342489137183
649.5, 0.6422342489137183
650, 0.6422342489137183
650.5, 0.6410955927995035
651, 0.6410955927995035
651.5, 0.6406401303538176
651.9999999999998, 0.6406401303538176
652.5, 0.6406401303538176
653, 0.6410955927995035
653.5, 0.6410955927995035
654, 0.6408678615766605
654.5, 0.6408678615766605
655, 0.6404123991309747
655.5, 0.6404123991309747
656, 0.6397292054624457
656.5, 0.6397292054624457
656.9999999999998, 0.6392737430167599
657.4999999999998, 0.6392737430167599
658, 0.6397292054624457
658.5, 0.6397292054624457
659, 0.6392737430167599
659.5, 0.6392737430167599
660, 0.6388182805710738
660.5, 0.6388182805710738
661, 0.6385905493482309
661.5, 0.6385905493482309
662, 0.6379073556797021
662.4999999999998, 0.6379073556797021
663, 0.638362818125388
663.5, 0.638362818125388
664, 0.6385905493482309
664.5, 0.6385905493482309
665, 0.6379073556797021
665.5, 0.6379073556797021
666, 0.6369964307883302
666.5, 0.6369964307883302
667, 0.6367686995654873
667.4999999999998, 0.6367686995654873
668, 0.6367686995654873
668.5, 0.6367686995654873
669, 0.6365409683426444
669.5, 0.6365409683426444
670, 0.6365409683426444
670.5, 0.6365409683426444
671, 0.6360855058969586
671.5, 0.6360855058969586
672, 0.6358577746741154
672.4999999999998, 0.6358577746741154
672.9999999999998, 0.6354023122284296
673.5, 0.6354023122284296
674, 0.6347191185599007
674.5, 0.6347191185599007
675, 0.6344913873370577
675.5, 0.6344913873370577
676, 0.6354023122284296
676.5, 0.6354023122284296
677, 0.6340359248913718
677.5, 0.6340359248913718
677.9999999999998, 0.633580462445686
678.5, 0.633580462445686
679, 0.633580462445686
679.5, 0.6340359248913718
680, 0.6340359248913718
680.5, 0.633352731222843
681, 0.633352731222843
681.5, 0.6338081936685289
682, 0.6338081936685289
682.5, 0.6331249999999999
682.9999999999998, 0.6331249999999999
683.5, 0.632897268777157
684, 0.632897268777157
684.5, 0.6326695375543141
685, 0.6326695375543141
685.5, 0.6315308814400993
686, 0.6315308814400993
686.5, 0.6317586126629424
687, 0.6317586126629424
687.5, 0.6317586126629424
687.9999999999998, 0.6317586126629424
688.4999999999998, 0.6313031502172564
689, 0.6313031502172564
689.5, 0.6313031502172564
690, 0.6313031502172564
690.5, 0.6308476877715705
691, 0.6308476877715705
691.5, 0.6308476877715705
692, 0.6308476877715705
692.5, 0.6306199565487276
693, 0.6306199565487276
693.4999999999998, 0.6299367628801986
694, 0.6299367628801986
694.5, 0.6292535692116699
695, 0.6292535692116699
695.5, 0.6297090316573557
696, 0.6297090316573557
696.5, 0.6297090316573557
697, 0.6297090316573557
697.5, 0.6290258379888268
698, 0.6290258379888268
698.4999999999998, 0.6290258379888268
698.9999999999998, 0.6290258379888268
699.5, 0.628342644320298
700, 0.628342644320298
700.5, 0.6278871818746121
701, 0.6278871818746121
701.5, 0.628342644320298
702, 0.628342644320298
702.5, 0.628342644320298
703, 0.628342644320298
703.4999999999998, 0.628342644320298
703.9999999999998, 0.628342644320298
704.5, 0.6274317194289263
705, 0.6274317194289263
705.5, 0.6274317194289263
706, 0.6276594506517692
706.5, 0.6276594506517692
707, 0.6274317194289263
707.5, 0.6274317194289263
708, 0.6265207945375544
708.5, 0.6265207945375544
708.9999999999998, 0.6262930633147115
709.5, 0.6262930633147115
710, 0.6265207945375544
710.5, 0.6265207945375544
711, 0.6262930633147115
711.5, 0.6262930633147115
712, 0.6258376008690254
712.5, 0.6258376008690254
713, 0.6253821384233396
713.5, 0.6253821384233396
713.9999999999998, 0.6256098696461825
714.4999999999998, 0.6256098696461825
715, 0.6253821384233396
715.5, 0.6253821384233396
716, 0.6256098696461825
716.5, 0.6256098696461825
717, 0.6253821384233396
717.5, 0.6253821384233396
718, 0.6249266759776537
718.5, 0.6249266759776537
719, 0.6251544072004966
719.4999999999998, 0.6251544072004966
720, 0.6249266759776537
720.5, 0.6249266759776537
721, 0.6244712135319677
721.5, 0.6244712135319677
722, 0.6237880198634389
722.5, 0.6237880198634389
723, 0.6242434823091247
723.5, 0.6242434823091247
724, 0.6246989447548107
724.4999999999998, 0.6246989447548107
725, 0.6237880198634389
725.5, 0.6237880198634389
726, 0.623560288640596
726.5, 0.623560288640596
727, 0.6237880198634389
727.5, 0.6237880198634389
728, 0.6233325574177531
728.5, 0.6233325574177531
729, 0.6233325574177531
729.4999999999998, 0.6233325574177531
729.9999999999998, 0.623560288640596
730.5, 0.623560288640596
731, 0.622877094972067
731.5, 0.622877094972067
732, 0.622877094972067
732.5, 0.6226493637492241
733, 0.6226493637492241
733.5, 0.6226493637492241
734, 0.6226493637492241
734.5, 0.6226493637492241
734.9999999999998, 0.6226493637492241
735.5, 0.6217384388578523
736, 0.6217384388578523
736.5, 0.6226493637492241
737, 0.6226493637492241
737.5, 0.6219661700806953
738, 0.6219661700806953
738.5, 0.622877094972067
739, 0.622877094972067
739.5, 0.6231048261949101
739.9999999999998, 0.6231048261949101
740.5, 0.6224216325263812
741, 0.6224216325263812
741.5, 0.6226493637492241
742, 0.6226493637492241
742.5, 0.6226493637492241
743, 0.6226493637492241
743.5, 0.6231048261949101
744, 0.6231048261949101
744.5, 0.6224216325263812
744.9999999999998, 0.6224216325263812
745.4999999999998, 0.6226493637492241
746, 0.6226493637492241
746.5, 0.6221939013035382
747, 0.6221939013035382
747.5, 0.6224216325263812
748, 0.6224216325263812
748.5, 0.623560288640596
749, 0.623560288640596
749.5, 0.622877094972067
750, 0.622877094972067
750.4999999999998, 0.6224216325263812
751, 0.6224216325263812
751.5, 0.623560288640596
752, 0.623560288640596
752.5, 0.6224216325263812
753, 0.6224216325263812
753.5, 0.6233325574177531
754, 0.6233325574177531
754.5, 0.6237880198634389
755, 0.6237880198634389
755.4999999999998, 0.6237880198634389
756, 0.6237880198634389
756.5, 0.6246989447548107
757, 0.6246989447548107
757.5, 0.6240157510862818
758, 0.6240157510862818
758.5, 0.6242434823091247
759, 0.6242434823091247
759.5, 0.6242434823091247
760, 0.6242434823091247
760.4999999999998, 0.6242434823091247
760.9999999999998, 0.6237880198634389
761.5, 0.6237880198634389
762, 0.6253821384233396
762.5, 0.6253821384233396
763, 0.6253821384233396
763.5, 0.6253821384233396
764, 0.6260653320918684
764.5, 0.6260653320918684
765, 0.6253821384233396
765.5, 0.6253821384233396
765.9999999999998, 0.6256098696461825
766.5, 0.6256098696461825
767, 0.6260653320918684
767.5, 0.6260653320918684
768, 0.6260653320918684
768.5, 0.6260653320918684
769, 0.6256098696461825
769.5, 0.6256098696461825
770, 0.6253821384233396
770.5, 0.6253821384233396
770.9999999999998, 0.6267485257603973
771.4999999999998, 0.6267485257603973
772, 0.6269762569832402
772.5, 0.6269762569832402
773, 0.6265207945375544
773.5, 0.6265207945375544
774, 0.6274317194289263
774.5, 0.6274317194289263
775, 0.6276594506517692
775.5, 0.6276594506517692
775.9999999999998, 0.6269762569832402
776.4999999999998, 0.6269762569832402
777, 0.6274317194289263
777.5, 0.6274317194289263
778, 0.6276594506517692
778.5, 0.6276594506517692
779, 0.6278871818746121
779.5, 0.6278871818746121
780, 0.6278871818746121
780.5, 0.6278871818746121
781, 0.6287981067659838
781.4999999999998, 0.6287981067659838
782, 0.628114913097455
782.5, 0.628114913097455
783, 0.6278871818746121
783.5, 0.6278871818746121
784, 0.628114913097455
784.5, 0.628114913097455
785, 0.628342644320298
785.5, 0.628342644320298
786, 0.628342644320298
786.4999999999998, 0.6285703755431409
786.9999999999998, 0.6285703755431409
787.5, 0.6285703755431409
788, 0.6285703755431409
788.5, 0.6276594506517692
789, 0.6276594506517692
789.5, 0.6285703755431409
790, 0.6285703755431409
790.5, 0.6285703755431409
791, 0.6285703755431409
791.4999999999998, 0.6287981067659838
791.9999999999998, 0.6287981067659838
792.5, 0.628114913097455
793, 0.628114913097455
793.5, 0.6272039882060831
794, 0.6272039882060831
794.5, 0.6272039882060831
795, 0.6272039882060831
795.5, 0.6272039882060831
796, 0.6272039882060831
796.5, 0.6262930633147115
796.9999999999998, 0.6262930633147115
797.5, 0.6256098696461825
798, 0.6256098696461825
798.5, 0.6258376008690254
799, 0.6258376008690254
799.5, 0.6265207945375544
800, 0.6265207945375544
800.5, 0.6265207945375544
801, 0.6265207945375544
801.5, 0.6269762569832402
801.9999999999998, 0.6269762569832402
802.4999999999998, 0.6272039882060831
803, 0.6272039882060831
803.5, 0.6272039882060831
804, 0.6272039882060831
804.5, 0.6262930633147115
805, 0.6262930633147115
805.5, 0.6256098696461825
806, 0.6256098696461825
806.5, 0.6251544072004966
806.9999999999998, 0.6251544072004966
807.4999999999998, 0.6249266759776537
808, 0.6249266759776537
808.5, 0.6262930633147115
809, 0.6262930633147115
809.5, 0.6253821384233396
810, 0.6253821384233396
810.5, 0.6253821384233396
811, 0.6253821384233396
811.5, 0.6253821384233396
812, 0.6253821384233396
812.4999999999998, 0.6253821384233396
813, 0.6246989447548107
813.5, 0.6246989447548107
814, 0.6240157510862818
814.5, 0.6240157510862818
815, 0.6242434823091247
815.5, 0.6242434823091247
816, 0.6242434823091247
816.5, 0.6242434823091247
817, 0.6233325574177531
817.4999999999998, 0.6233325574177531
817.9999999999998, 0.6231048261949101
818.5, 0.6231048261949101
819, 0.622877094972067
819.5, 0.622877094972067
820, 0.6219661700806953
820.5, 0.6219661700806953
821, 0.6219661700806953
821.5, 0.6219661700806953
822, 0.6217384388578523
822.4999999999998, 0.6217384388578523
822.9999999999998, 0.6212829764121663
823.5, 0.6212829764121663
824, 0.6217384388578523
824.5, 0.6217384388578523
825, 0.6212829764121663
825.5, 0.6212829764121663
826, 0.6203720515207946
826.5, 0.6203720515207946
827, 0.6205997827436376
827.5, 0.6205997827436376
827.9999999999998, 0.6196888578522657
828.5, 0.6196888578522657
829, 0.6194611266294228
829.5, 0.6194611266294228
830, 0.618322470515208
830.5, 0.618322470515208
831, 0.6185502017380509
831.5, 0.6185502017380509
832, 0.618322470515208
832.5, 0.618322470515208
832.9999999999998, 0.6178670080695221
833.4999999999998, 0.6178670080695221
834, 0.6169560831781502
834.5, 0.6169560831781502
835, 0.6167283519553073
835.5, 0.6167283519553073
836, 0.6169560831781502
836.5, 0.6169560831781502
837, 0.6162728895096214
837.5, 0.6162728895096214
837.9999999999998, 0.6165006207324644
838.4999999999998, 0.6165006207324644
839, 0.6165006207324644
839.5, 0.6162728895096214
840, 0.6162728895096214
840.5, 0.6160451582867784
841, 0.6160451582867784
841.5, 0.6155896958410925
842, 0.6155896958410925
842.5, 0.6146787709497208
843, 0.6146787709497208
843.4999999999998, 0.6144510397268776
844, 0.6144510397268776
844.5, 0.6142233085040347
845, 0.6142233085040347
845.5, 0.6137678460583489
846, 0.6137678460583489
846.5, 0.6146787709497208
847, 0.6146787709497208
847.5, 0.6139955772811918
848, 0.6139955772811918
848.4999999999998, 0.61308465238982
848.9999999999998, 0.61308465238982
849.5, 0.6137678460583489
850, 0.6137678460583489
850.5, 0.612856921166977
851, 0.612856921166977
851.5, 0.613312383612663
852, 0.613312383612663
852.5, 0.6137678460583489
853, 0.6137678460583489
853.4999999999998, 0.6126291899441341
853.9999999999998, 0.6126291899441341
854.5, 0.61308465238982
855, 0.61308465238982
855.5, 0.613540114835506
856, 0.613540114835506
856.5, 0.613312383612663
857, 0.613312383612663
857.5, 0.612856921166977
858, 0.612856921166977
858.5, 0.612856921166977
858.9999999999998, 0.612856921166977
859.4999999999998, 0.6124014587212911
860, 0.6124014587212911
860.5, 0.612856921166977
861, 0.612856921166977
861.5, 0.6126291899441341
862, 0.6126291899441341
862.5, 0.6124014587212911
863, 0.6124014587212911
863.5, 0.61308465238982
863.9999999999998, 0.61308465238982
864.4999999999998, 0.612856921166977
865, 0.612856921166977
865.5, 0.612856921166977
866, 0.6124014587212911
866.5, 0.6124014587212911
867, 0.612856921166977
867.5, 0.612856921166977
868, 0.6126291899441341
868.5, 0.6126291899441341
868.9999999999998, 0.612856921166977
869.4999999999998, 0.612856921166977
870, 0.61308465238982
870.5, 0.61308465238982
871, 0.6126291899441341
871.5, 0.6126291899441341
872, 0.6121737274984482
872.5, 0.6121737274984482
873, 0.6121737274984482
873.5, 0.6121737274984482
874, 0.6124014587212911
874.4999999999998, 0.6124014587212911
874.9999999999998, 0.6121737274984482
875.5, 0.6121737274984482
876, 0.6124014587212911
876.5, 0.6124014587212911
877, 0.6114905338299192
877.5, 0.6114905338299192
878, 0.6126291899441341
878.5, 0.6126291899441341
879, 0.6124014587212911
879.4999999999998, 0.6124014587212911
879.9999999999998, 0.6124014587212911
880.5, 0.6124014587212911
881, 0.612856921166977
881.5, 0.612856921166977
882, 0.6121737274984482
882.5, 0.6121737274984482
883, 0.6124014587212911
883.5, 0.6124014587212911
884, 0.6126291899441341
884.5, 0.6126291899441341
884.9999999999998, 0.612856921166977
885.5, 0.612856921166977
886, 0.612856921166977
886.5, 0.612856921166977
887, 0.612856921166977
887.5, 0.612856921166977
888, 0.6126291899441341
888.5, 0.6126291899441341
889, 0.6126291899441341
889.5, 0.6126291899441341
889.9999999999998, 0.612856921166977
890.4999999999998, 0.612856921166977
891, 0.612856921166977
891.5, 0.612856921166977
892, 0.6126291899441341
892.5, 0.6126291899441341
893, 0.6126291899441341
893.5, 0.612856921166977
894, 0.612856921166977
894.5, 0.61308465238982
894.9999999999998, 0.61308465238982
895.4999999999998, 0.613312383612663
896, 0.613312383612663
896.5, 0.61308465238982
897, 0.61308465238982
897.5, 0.61308465238982
898, 0.61308465238982
898.5, 0.61308465238982
899, 0.61308465238982
899.5, 0.61308465238982
900, 0.61308465238982
900.4999999999998, 0.613312383612663
901, 0.613312383612663
901.5, 0.613312383612663
902, 0.613312383612663
902.5, 0.61308465238982
903, 0.61308465238982
903.5, 0.613312383612663
904, 0.613312383612663
904.5, 0.613312383612663
905, 0.613312383612663
905.4999999999998, 0.6137678460583489
905.9999999999998, 0.6137678460583489
906.5, 0.613312383612663
907, 0.613312383612663
907.5, 0.6142233085040347
908, 0.6142233085040347
908.5, 0.6137678460583489
909, 0.6137678460583489
909.5, 0.61308465238982
910, 0.61308465238982
910.4999999999998, 0.6139955772811918
910.9999999999998, 0.6139955772811918
911.5, 0.6142233085040347
912, 0.6142233085040347
912.5, 0.6139955772811918
913, 0.6139955772811918
913.5, 0.6142233085040347
914, 0.6142233085040347
914.5, 0.6149065021725637
915, 0.6149065021725637
915.5, 0.6146787709497208
915.9999999999998, 0.6146787709497208
916.5, 0.6153619646182495
917, 0.6153619646182495
917.5, 0.6149065021725637
918, 0.6149065021725637
918.5, 0.6146787709497208
919, 0.6146787709497208
919.5, 0.6146787709497208
920, 0.6146787709497208
920.5, 0.6146787709497208
920.9999999999998, 0.6151342333954066
921.4999999999998, 0.6151342333954066
922, 0.6155896958410925
922.5, 0.6155896958410925
923, 0.6162728895096214
923.5, 0.6162728895096214
924, 0.6167283519553073
924.5, 0.6167283519553073
925, 0.6171838144009931
925.5, 0.6171838144009931
925.9999999999998, 0.6174115456238362
926.4999999999998, 0.6174115456238362
927, 0.6174115456238362
927.5, 0.6174115456238362
928, 0.6171838144009931
928.5, 0.6171838144009931
929, 0.618094739292365
929.5, 0.618094739292365
930, 0.6178670080695221
930.5, 0.6178670080695221
931, 0.6185502017380509
931.4999999999998, 0.6185502017380509
932, 0.618322470515208
932.5, 0.618322470515208
933, 0.618322470515208
933.5, 0.618322470515208
934, 0.6190056641837369
934.5, 0.6190056641837369
935, 0.6192333954065798
935.5, 0.6192333954065798
936, 0.6190056641837369
936.4999999999998, 0.6190056641837369
936.9999999999998, 0.6199165890751086
937.5, 0.6199165890751086
938, 0.6201443202979515
938.5, 0.6201443202979515
939, 0.6205997827436376
939.5, 0.6205997827436376
940, 0.6208275139664805
940.5, 0.6208275139664805
941, 0.6212829764121663
941.4999999999998, 0.6212829764121663
941.9999999999998, 0.6212829764121663
942.5, 0.6212829764121663
943, 0.6212829764121663
943.5, 0.6212829764121663
944, 0.6215107076350093
944.5, 0.6215107076350093
945, 0.6219661700806953
945.5, 0.6219661700806953
946, 0.6219661700806953
946.5, 0.6224216325263812
946.9999999999998, 0.6224216325263812
947.4999999999998, 0.6219661700806953
948, 0.6219661700806953
948.5, 0.6226493637492241
949, 0.6226493637492241
949.5, 0.6237880198634389
950, 0.6237880198634389
950.5, 0.6224216325263812
951, 0.6224216325263812
951.5, 0.622877094972067
951.9999999999998, 0.622877094972067
952.4999999999998, 0.623560288640596
953, 0.623560288640596
953.5, 0.6240157510862818
954, 0.6240157510862818
954.5, 0.6242434823091247
955, 0.6242434823091247
955.5, 0.6231048261949101
956, 0.6231048261949101
956.5, 0.6240157510862818
956.9999999999998, 0.6240157510862818
957.4999999999998, 0.6246989447548107
958, 0.6246989447548107
958.5, 0.6240157510862818
959, 0.6240157510862818
959.5, 0.6246989447548107
960, 0.6246989447548107
960.5, 0.6240157510862818
961, 0.6240157510862818
961.5, 0.6240157510862818
962, 0.6240157510862818
962.4999999999998, 0.6242434823091247
962.9999999999998, 0.6242434823091247
963.5, 0.6249266759776537
964, 0.6249266759776537
964.5, 0.6244712135319677
965, 0.6244712135319677
965.5, 0.6246989447548107
966, 0.6246989447548107
966.5, 0.6244712135319677
967, 0.6244712135319677
967.4999999999998, 0.6253821384233396
967.9999999999998, 0.6253821384233396
968.5, 0.6251544072004966
969, 0.6251544072004966
969.5, 0.6242434823091247
970, 0.6242434823091247
970.5, 0.6246989447548107
971, 0.6246989447548107
971.5, 0.6244712135319677
972, 0.6244712135319677
972.4999999999998, 0.6244712135319677
972.9999999999998, 0.6240157510862818
973.5, 0.6240157510862818
974, 0.6251544072004966
974.5, 0.6251544072004966
975, 0.6242434823091247
975.5, 0.6242434823091247
976, 0.6246989447548107
976.5, 0.6246989447548107
977, 0.6246989447548107
977.5, 0.6246989447548107
977.9999999999998, 0.6249266759776537
978.4999999999998, 0.6249266759776537
979, 0.6246989447548107
979.5, 0.6246989447548107
980, 0.6244712135319677
980.5, 0.6244712135319677
981, 0.6251544072004966
981.5, 0.6251544072004966
982, 0.6253821384233396
982.5, 0.6253821384233396
982.9999999999998, 0.6249266759776537
983.4999999999998, 0.6249266759776537
984, 0.6246989447548107
984.5, 0.6246989447548107
985, 0.6249266759776537
985.5, 0.6249266759776537
986, 0.6246989447548107
986.5, 0.6246989447548107
987, 0.6253821384233396
987.5, 0.6253821384233396
987.9999999999998, 0.6256098696461825
988.4999999999998, 0.6256098696461825
989, 0.6256098696461825
989.5, 0.6256098696461825
990, 0.6256098696461825
990.5, 0.6256098696461825
991, 0.6260653320918684
991.5, 0.6260653320918684
992, 0.6251544072004966
992.5, 0.6251544072004966
993, 0.6249266759776537
993.4999999999998, 0.6249266759776537
993.9999999999998, 0.6253821384233396
994.5, 0.6253821384233396
995, 0.6258376008690254
995.5, 0.6258376008690254
996, 0.6260653320918684
996.5, 0.6260653320918684
997, 0.6267485257603973
997.5, 0.6267485257603973
998, 0.6272039882060831
998.4999999999998, 0.6272039882060831
998.9999999999998, 0.6272039882060831
999.5, 0.6274317194289263
1000, 0.6274317194289263
1000.5, 0.6278871818746121
1001, 0.6278871818746121
1001.5, 0.6287981067659838
1002, 0.6287981067659838
1002.5, 0.628342644320298
1003, 0.628342644320298
1003.4999999999998, 0.6278871818746121
1003.9999999999998, 0.6278871818746121
1004.5, 0.6287981067659838
1005, 0.6287981067659838
1005.5, 0.6297090316573557
1006, 0.6297090316573557
1006.5, 0.6299367628801986
1007, 0.6299367628801986
1007.5, 0.6297090316573557
1008, 0.6297090316573557
1008.5, 0.6294813004345128
1008.9999999999998, 0.6294813004345128
1009.4999999999998, 0.6306199565487276
1010, 0.6306199565487276
1010.5, 0.6313031502172564
1011, 0.6313031502172564
1011.5, 0.6317586126629424
1012, 0.6317586126629424
1012.5, 0.6313031502172564
1013, 0.6313031502172564
1013.5, 0.6324418063314712
1013.9999999999998, 0.6324418063314712
1014.4999999999998, 0.632897268777157
1015, 0.632897268777157
1015.5, 0.6338081936685289
1016, 0.6338081936685289
1016.5, 0.6338081936685289
1017, 0.6338081936685289
1017.5, 0.633352731222843
1018, 0.633352731222843
1018.5, 0.6342636561142148
1018.9999999999998, 0.6342636561142148
1019.4999999999998, 0.6354023122284296
1020, 0.6354023122284296
1020.5, 0.6356300434512725
1021, 0.6356300434512725
1021.5, 0.6365409683426444
1022, 0.6365409683426444
1022.5, 0.6360855058969586
1023, 0.6360855058969586
1023.5, 0.6369964307883302
1024, 0.6369964307883302
1024.4999999999998, 0.6379073556797021
1024.9999999999998, 0.6379073556797021
1025.5, 0.6379073556797021
1026, 0.6385905493482309
1026.5, 0.6385905493482309
1027, 0.6385905493482309
1027.5, 0.6385905493482309
1028, 0.6395014742396028
1028.5, 0.6395014742396028
1029, 0.6404123991309747
1029.4999999999998, 0.6404123991309747
1029.9999999999998, 0.6410955927995035
1030.5, 0.6410955927995035
1031, 0.6420065176908752
1031.5, 0.6420065176908752
1032, 0.6415510552451893
1032.5, 0.6415510552451893
1033, 0.6426897113594041
1033.5, 0.6426897113594041
1034, 0.643372905027933
1034.4999999999998, 0.643372905027933
1034.9999999999998, 0.6440560986964619
1035.4999999999998, 0.6440560986964619
1036, 0.6438283674736189
1036.5, 0.6438283674736189
1037, 0.6442838299193048
1037.5, 0.6442838299193048
1038, 0.6454224860335196
1038.5, 0.6454224860335196
1039, 0.6463334109248914
1039.5, 0.6463334109248914
1039.9999999999998, 0.6463334109248914
1040.4999999999998, 0.6463334109248914
1041, 0.6467888733705773
1041.5, 0.6467888733705773
1042, 0.6486107231533209
1042.5, 0.6486107231533209
1043, 0.6492939168218499
1043.5, 0.6492939168218499
1044, 0.6506603041589075
1044.5, 0.6506603041589075
1044.9999999999998, 0.6506603041589075
1045.4999999999998, 0.6506603041589075
1046, 0.6511157666045935
1046.5, 0.6511157666045935
1047, 0.6520266914959653
1047.5, 0.6520266914959653
1048, 0.653393078833023
1048.5, 0.653393078833023
1049, 0.6543040037243948
1049.5, 0.6543040037243948
1050, 0.6547594661700806
1050.4999999999998, 0.6547594661700806
1050.9999999999998, 0.6547594661700806
1051.5, 0.6547594661700806
1052, 0.6556703910614525
1052.5, 0.6556703910614525
1053, 0.6556703910614525
1053.5, 0.6570367783985103
1054, 0.6570367783985103
1054.5, 0.6565813159528244
1055, 0.6565813159528244
1055.4999999999998, 0.6574922408441961
1055.9999999999998, 0.6574922408441961
1056.5, 0.6586308969584109
1057, 0.6586308969584109
1057.5, 0.6597695530726257
1058, 0.6597695530726257
1058.5, 0.6606804779639975
1059, 0.6606804779639975
1059.5, 0.6615914028553693
1060, 0.6615914028553693
1060.4999999999998, 0.6618191340782122
1060.9999999999998, 0.6618191340782122
1061.5, 0.6615914028553693
1062, 0.6615914028553693
1062.5, 0.6629577901924271
1063, 0.6629577901924271
1063.5, 0.6640964463066419
1064, 0.6640964463066419
1064.5, 0.6652351024208567
1065, 0.6652351024208567
1065.5, 0.6666014897579144
1065.9999999999998, 0.6666014897579144
1066.4999999999998, 0.6681956083178151
1067, 0.6681956083178151
1067.5, 0.6675124146492861
1068, 0.6675124146492861
1068.5, 0.6681956083178151
1069, 0.6681956083178151
1069.5, 0.6688788019863439
1070, 0.6688788019863439
1070.5, 0.6704729205462445
1070.9999999999998, 0.6704729205462445
1071.4999999999998, 0.6713838454376164
1072, 0.6713838454376164
1072.5, 0.6722947703289882
1073, 0.6722947703289882
1073.5, 0.673661157666046
1074, 0.673661157666046
1074.5, 0.6745720825574177
1075, 0.6745720825574177
1075.5, 0.6768493947858474
1075.9999999999998, 0.6768493947858474
1076.4999999999998, 0.6779880509000621
1077, 0.6779880509000621
1077.5, 0.6793544382371198
1078, 0.6793544382371198
1078.5, 0.6791267070142768
1079, 0.6791267070142768
1079.5, 0.6791267070142768
1080, 0.6800376319056487
1080.5, 0.6800376319056487
1081, 0.6811762880198635
1081.4999999999998, 0.6811762880198635
1081.9999999999998, 0.6823149441340782
1082.5, 0.6823149441340782
1083, 0.6829981378026071
1083.5, 0.6829981378026071
1084, 0.68322586902545
1084.5, 0.68322586902545
1085, 0.6848199875853507
1085.5, 0.6848199875853507
1086, 0.6870972998137803
1086.5, 0.6870972998137803
1087, 0.6873250310366232
1087.5, 0.6873250310366232
1088, 0.6861863749224084
1088.5, 0.6861863749224084
1089, 0.6866418373680944
1089.5, 0.6866418373680944
1090, 0.688463687150838
1090.5, 0.688463687150838
1091, 0.6889191495965239
1091.5, 0.6889191495965239
1092, 0.6898300744878958
1092.5, 0.6898300744878958
1093, 0.6898300744878958
1093.5, 0.6898300744878958
1094, 0.6900578057107387
1094.5, 0.6900578057107387
1095, 0.6914241930477965
1095.5, 0.6914241930477965
1096, 0.6909687306021105
1096.5, 0.6909687306021105
1097, 0.6909687306021105
1097.5, 0.6909687306021105
1098, 0.6914241930477965
1098.5, 0.6914241930477965
1099, 0.6909687306021105
1099.5, 0.6909687306021105
1100, 0.6930183116076971
1100.5, 0.6930183116076971
1101, 0.6923351179391682
1101.5, 0.6923351179391682
1102, 0.6921073867163252
1102.5, 0.6921073867163252
1103, 0.6911964618249535
1103.5, 0.6911964618249535
1104, 0.6914241930477965
1104.5, 0.6914241930477965
1104.9999999999998, 0.6916519242706394
1105.5, 0.6916519242706394
1106, 0.6916519242706394
1106.5, 0.6914241930477965
1107, 0.6914241930477965
1107.5, 0.6902855369335816
1108, 0.6902855369335816
1108.5, 0.688691418373681
1109, 0.688691418373681
1109.4999999999998, 0.688463687150838
1110, 0.688463687150838
1110.4999999999998, 0.6873250310366232
1111, 0.6873250310366232
1111.5, 0.6877804934823091
1112, 0.6877804934823091
1112.5, 0.6873250310366232
1113, 0.6873250310366232
1113.5, 0.6866418373680944
1114, 0.6866418373680944
1114.5, 0.6857309124767226
1114.9999999999998, 0.6857309124767226
1115.5, 0.683909062693979
1116, 0.683909062693979
1116.5, 0.6820872129112352
1117, 0.6820872129112352
1117.5, 0.6820872129112352
1118, 0.6820872129112352
1118.5, 0.6818594816883923
1119, 0.6818594816883923
1119.5, 0.6818594816883923
1120, 0.6818594816883923
1120.4999999999998, 0.6798099006828058
1121, 0.6798099006828058
1121.5, 0.678443513345748
1122, 0.678443513345748
1122.5, 0.6777603196772191
1123, 0.6777603196772191
1123.5, 0.6766216635630043
1124, 0.6766216635630043
1124.5, 0.6763939323401613
1124.9999999999998, 0.6763939323401613
1125.5, 0.6747998137802607
1125.9999999999998, 0.6747998137802607
1126.5, 0.6725225015518312
1127, 0.6725225015518312
1127.5, 0.673661157666046
1128, 0.673661157666046
1128.5, 0.6729779639975171
1129, 0.6729779639975171
1129.5, 0.6722947703289882
1130, 0.6722947703289882
1130.4999999999998, 0.6695619956548728
1131, 0.6695619956548728
1131.5, 0.6675124146492861
1132, 0.6675124146492861
1132.5, 0.6675124146492861
1133, 0.6672846834264432
1133.5, 0.6672846834264432
1134, 0.6675124146492861
1134.5, 0.6675124146492861
1135, 0.6659182960893855
1135.5, 0.6659182960893855
1135.9999999999998, 0.6643241775294848
1136.5, 0.6643241775294848
1137, 0.6647796399751706
1137.5, 0.6647796399751706
1138, 0.6645519087523277
1138.5, 0.6645519087523277
1139, 0.6634132526381129
1139.5, 0.6634132526381129
1140, 0.6618191340782122
1140.5, 0.6618191340782122
1141, 0.6620468653010553
1141.4999999999998, 0.6620468653010553
1142, 0.6613636716325264
1142.5, 0.6613636716325264
1143, 0.6602250155183116
1143.5, 0.6602250155183116
1144, 0.6581754345127251
1144.5, 0.6581754345127251
1145, 0.6581754345127251
1145.5, 0.6581754345127251
1145.9999999999998, 0.6577199720670391
1146.5, 0.6577199720670391
1147, 0.6581754345127251
1147.5, 0.6581754345127251
1148, 0.6568090471756673
1148.5, 0.6568090471756673
1149, 0.6556703910614525
1149.5, 0.6556703910614525
1150, 0.6543040037243948
1150.5, 0.6543040037243948
1151, 0.65316534761018
1151.4999999999998, 0.65316534761018
1152, 0.6517989602731222
1152.5, 0.6517989602731222
1153, 0.6497493792675357
1153.5, 0.6497493792675357
1154, 0.6497493792675357
1154.5, 0.6497493792675357
1155, 0.6492939168218499
1155.5, 0.6492939168218499
1156, 0.6504325729360645
1156.5, 0.6504325729360645
1156.9999999999998, 0.6497493792675357
1157.5, 0.6497493792675357
1158, 0.6490661855990069
1158.5, 0.6490661855990069
1159, 0.6490661855990069
1159.5, 0.6481552607076351
1160, 0.6481552607076351
1160.5, 0.6472443358162632
1161, 0.6472443358162632
1161.4999999999998, 0.6470166045934203
1162, 0.6470166045934203
1162.5, 0.6476997982619491
1163, 0.6476997982619491
1163.5, 0.6458779484792054
1164, 0.6458779484792054
1164.5, 0.6445115611421477
1165, 0.6445115611421477
1165.5, 0.6449670235878338
1166, 0.6449670235878338
1166.5, 0.6440560986964619
1166.9999999999998, 0.6440560986964619
1167.5, 0.643372905027933
1168, 0.643372905027933
1168.5, 0.6424619801365612
1169, 0.6424619801365612
1169.5, 0.6422342489137183
1170, 0.6422342489137183
1170.5, 0.6410955927995035
1171, 0.6410955927995035
1171.5, 0.6404123991309747
1172, 0.6404123991309747
1172.4999999999998, 0.6406401303538176
1173, 0.6406401303538176
1173.5, 0.6401846679081316
1174, 0.6401846679081316
1174.5, 0.6404123991309747
1175, 0.6404123991309747
1175.5, 0.6388182805710738
1176, 0.6388182805710738
1176.5, 0.6381350869025451
1176.9999999999998, 0.6381350869025451
1177.5, 0.6372241620111732
1178, 0.6372241620111732
1178.5, 0.6365409683426444
1179, 0.6365409683426444
1179.5, 0.6354023122284296
1180, 0.6354023122284296
1180.5, 0.6354023122284296
1181, 0.6354023122284296
1181.5, 0.6347191185599007
1182, 0.6347191185599007
1182.4999999999998, 0.6351745810055867
1183, 0.6351745810055867
1183.5, 0.6338081936685289
1184, 0.6338081936685289
1184.5, 0.6338081936685289
1185, 0.6338081936685289
1185.5, 0.6331249999999999
1186, 0.6331249999999999
1186.5, 0.6331249999999999
1187, 0.6322140751086283
1187.5, 0.6322140751086283
1187.9999999999998, 0.6313031502172564
1188.5, 0.6313031502172564
1189, 0.6315308814400993
1189.5, 0.6315308814400993
1190, 0.6306199565487276
1190.5, 0.6306199565487276
1191, 0.6301644941030415
1191.5, 0.6301644941030415
1192, 0.6290258379888268
1192.4999999999998, 0.6290258379888268
1193, 0.6290258379888268
1193.5, 0.6290258379888268
1194, 0.6285703755431409
1194.5, 0.6285703755431409
1195, 0.6287981067659838
1195.5, 0.6287981067659838
1196, 0.6278871818746121
1196.5, 0.6278871818746121
1197, 0.6272039882060831
1197.5, 0.6272039882060831
1197.9999999999998, 0.6260653320918684
1198.5, 0.6260653320918684
1199, 0.6256098696461825
1199.5, 0.6256098696461825
1200, 0.6253821384233396
1200.5, 0.6253821384233396
1201, 0.6242434823091247
1201.5, 0.6242434823091247
1202, 0.6240157510862818
1202.5, 0.6240157510862818
1203, 0.6240157510862818
1203.4999999999998, 0.6240157510862818
1204, 0.6233325574177531
1204.5, 0.6233325574177531
1205, 0.622877094972067
1205.5, 0.622877094972067
1206, 0.6221939013035382
1206.5, 0.6221939013035382
1207, 0.6215107076350093
1207.5, 0.6215107076350093
1207.9999999999998, 0.6219661700806953
1208.5, 0.6219661700806953
1208.9999999999998, 0.6215107076350093
1209.5, 0.6215107076350093
1210, 0.6212829764121663
1210.5, 0.6212829764121663
1211, 0.6205997827436376
1211.5, 0.6205997827436376
1212, 0.6199165890751086
1212.5, 0.6199165890751086
1213, 0.6199165890751086
1213.4999999999998, 0.6201443202979515
1214, 0.6201443202979515
1214.5, 0.6190056641837369
1215, 0.6190056641837369
1215.5, 0.618094739292365
1216, 0.618094739292365
1216.5, 0.6185502017380509
1217, 0.6185502017380509
1217.5, 0.618322470515208
1218, 0.618322470515208
1218.5, 0.6176392768466792
1218.9999999999998, 0.6176392768466792
1219.5, 0.6176392768466792
1220, 0.6176392768466792
1220.5, 0.6165006207324644
1221, 0.6165006207324644
1221.5, 0.6165006207324644
1222, 0.6165006207324644
1222.5, 0.6158174270639354
1223, 0.6158174270639354
1223.4999999999998, 0.6160451582867784
1224, 0.6160451582867784
1224.4999999999998, 0.6151342333954066
1225, 0.6151342333954066
1225.5, 0.6144510397268776
1226, 0.6144510397268776
1226.5, 0.6139955772811918
1227, 0.6139955772811918
1227.5, 0.6144510397268776
1228, 0.6144510397268776
1228.5, 0.6139955772811918
1228.9999999999998, 0.6139955772811918
1229.5, 0.61308465238982
1230, 0.61308465238982
1230.5, 0.61308465238982
1231, 0.61308465238982
1231.5, 0.613312383612663
1232, 0.613312383612663
1232.5, 0.612856921166977
1233, 0.612856921166977
1233.5, 0.612856921166977
1234, 0.612856921166977
1234.4999999999998, 0.613312383612663
1235, 0.613312383612663
1235.5, 0.6126291899441341
1236, 0.6126291899441341
1236.5, 0.6124014587212911
1237, 0.6124014587212911
1237.5, 0.6117182650527623
1238, 0.6117182650527623
1238.5, 0.6114905338299192
1238.9999999999998, 0.6114905338299192
1239.5, 0.6114905338299192
1239.9999999999998, 0.6110350713842334
1240.5, 0.6110350713842334
1241, 0.6110350713842334
1241.5, 0.6110350713842334
1242, 0.6108073401613905
1242.5, 0.6108073401613905
1243, 0.6103518777157046
1243.5, 0.6103518777157046
1244, 0.6103518777157046
1244.4999999999998, 0.6103518777157046
1245, 0.6103518777157046
1245.5, 0.6103518777157046
1246, 0.6101241464928615
1246.5, 0.6101241464928615
1247, 0.6101241464928615
1247.5, 0.6101241464928615
1248, 0.6094409528243327
1248.5, 0.6094409528243327
1249, 0.6098964152700186
1249.5, 0.6098964152700186
1249.9999999999998, 0.6094409528243327
1250.5, 0.6094409528243327
1251, 0.6098964152700186
1251.5, 0.6098964152700186
1252, 0.6092132216014898
1252.5, 0.6092132216014898
1253, 0.6089854903786469
1253.5, 0.6089854903786469
1254, 0.6094409528243327
1254.4999999999998, 0.6094409528243327
1255, 0.6094409528243327
1255.4999999999998, 0.6094409528243327
1256, 0.6092132216014898
1256.5, 0.6092132216014898
1257, 0.6092132216014898
1257.5, 0.6092132216014898
1258, 0.6092132216014898
1258.5, 0.6092132216014898
1259, 0.6094409528243327
1259.5, 0.6094409528243327
1259.9999999999998, 0.6089854903786469
1260.5, 0.6089854903786469
1261, 0.6092132216014898
1261.5, 0.6092132216014898
1262, 0.6087577591558039
1262.5, 0.6087577591558039
1263, 0.6085300279329608
1263.5, 0.6085300279329608
1264, 0.6087577591558039
1264.5, 0.6087577591558039
1265, 0.6087577591558039
1265.4999999999998, 0.6087577591558039
1266, 0.6087577591558039
1266.5, 0.6085300279329608
1267, 0.6085300279329608
1267.5, 0.6092132216014898
1268, 0.6092132216014898
1268.5, 0.6085300279329608
1269, 0.6085300279329608
1269.5, 0.6085300279329608
1269.9999999999998, 0.6085300279329608
1270.5, 0.6083022967101179
1270.9999999999998, 0.6083022967101179
1271.5, 0.6089854903786469
1272, 0.6089854903786469
1272.5, 0.6092132216014898
1273, 0.6092132216014898
1273.5, 0.6087577591558039
1274, 0.6087577591558039
1274.5, 0.6089854903786469
1275, 0.6089854903786469
1275.4999999999998, 0.6089854903786469
1276, 0.6089854903786469
1276.5, 0.6089854903786469
1277, 0.6089854903786469
1277.5, 0.6089854903786469
1278, 0.6089854903786469
1278.5, 0.6087577591558039
1279, 0.6087577591558039
1279.5, 0.608074565487275
1280, 0.608074565487275
1280.5, 0.608074565487275
1280.9999999999998, 0.608074565487275
1281.5, 0.6083022967101179
1282, 0.6083022967101179
1282.5, 0.6087577591558039
1283, 0.6087577591558039
1283.5, 0.608074565487275
1284, 0.608074565487275
1284.5, 0.6087577591558039
1285, 0.6087577591558039
1285.4999999999998, 0.608074565487275
1286, 0.608074565487275
1286.4999999999998, 0.608074565487275
1287, 0.608074565487275
1287.5, 0.6083022967101179
1288, 0.6083022967101179
1288.5, 0.6078468342644321
1289, 0.6078468342644321
1289.5, 0.6085300279329608
1290, 0.6085300279329608
1290.5, 0.6083022967101179
1290.9999999999998, 0.6083022967101179
1291.5, 0.6085300279329608
1292, 0.6085300279329608
1292.5, 0.6085300279329608
1293, 0.6083022967101179
1293.5, 0.6083022967101179
1294, 0.6078468342644321
1294.5, 0.6078468342644321
1295, 0.6083022967101179
1295.5, 0.6083022967101179
